4856,4812,4760
4856,4812,4756
4856,4812,4764
4856,4816,4764
4860,4816,4764
4856,4816,4764
4856,4820,4764
4860,4824,4768
4856,4816,4764
4856,4808,4760
4852,4800,4752
4852,4796,4748
4848,4788,4748
4848,4784,4744
4848,4784,4744
4844,4776,4736
4844,4776,4732
4844,4776,4736
4844,4776,4736
4840,4772,4732
4844,4772,4736
4844,4772,4732
4844,4772,4736
4844,4772,4736
4844,4772,4732
4840,4772,4732
4840,4768,4728
4840,4772,4732
4840,4772,4732
4844,4772,4732
4840,4772,4732
4840,4772,4732
4844,4776,4736
4844,4780,4736
4840,4776,4736
4844,4780,4736
4844,4780,4740
4844,4784,4740
4840,4780,4736
4844,4784,4740
4844,4784,4740
4844,4784,4740
4840,4784,4736
4848,4792,4744
4844,4788,4744
4844,4792,4744
4844,4796,4744
4844,4800,4748
4844,4800,4748
4844,4800,4748
4844,4800,4748
4844,4792,4744
4844,4784,4740
4840,4780,4732
4840,4772,4728
4840,4772,4732
4836,4764,4728
4836,4764,4724
4836,4764,4724
4832,4760,4720
4832,4760,4720
4832,4756,4720
4832,4760,4720
4832,4756,4716
4832,4756,4716
4828,4748,4716
4824,4744,4708
4824,4744,4708
4824,4744,4708
4824,4744,4708
4828,4748,4712
4828,4752,4716
4828,4752,4712
4824,4748,4712
4824,4748,4712
4824,4752,4712
4820,4748,4708
4820,4748,4708
4820,4748,4708
4820,4748,4708
4820,4752,4708
4820,4752,4712
4820,4752,4712
4820,4748,4708
4816,4748,4708
4820,4748,4708
4820,4752,4708
4824,4756,4712
4824,4760,4716
4824,4760,4716
4828,4756,4720
4824,4744,4708
4820,4740,4704
4816,4728,4696
4812,4724,4692
4816,4724,4696
4816,4724,4696
4812,4720,4692
4816,4720,4692
4816,4724,4692
4812,4720,4688
4812,4724,4692
4812,4724,4692
4816,4728,4696
4820,4732,4700
4816,4732,4700
4816,4732,4700
4820,4736,4704
4820,4740,4704
4824,4744,4708
4820,4740,4708
4820,4740,4704
4820,4740,4708
4820,4740,4708
4820,4744,4708
4816,4740,4700
4816,4740,4704
4816,4736,4700
4820,4740,4704
4820,4744,4704
4820,4744,4704
4816,4740,4700
4812,4740,4700
4812,4736,4696
4812,4736,4696
4812,4736,4696
4812,4740,4700
4812,4736,4696
4812,4728,4692
4808,4720,4688
4804,4716,4684
4804,4712,4680
4804,4704,4676
4804,4708,4676
4804,4700,4676
4804,4704,4676
4808,4708,4680
4808,4708,4680
4804,4704,4676
4804,4704,4676
4800,4700,4672
4804,4700,4676
4804,4700,4672
4800,4696,4672
4800,4696,4672
4796,4692,4664
4800,4696,4672
4800,4692,4668
4800,4696,4672
4800,4696,4672
4800,4696,4672
4800,4700,4672
4804,4704,4676
4800,4704,4676
4804,4704,4676
4800,4704,4676
4796,4700,4672
4796,4700,4672
4800,4704,4672
4800,4708,4676
4800,4712,4676
4800,4708,4672
4800,4712,4676
4800,4712,4676
4804,4716,4684
4804,4716,4684
4800,4712,4680
4800,4704,4672
4796,4692,4664
4796,4688,4664
4792,4680,4656
4788,4676,4652
4788,4668,4648
4784,4664,4648
4784,4660,4644
4784,4660,4640
4784,4656,4640
4780,4656,4636
4780,4652,4636
4780,4652,4640
4780,4652,4636
4780,4652,4640
4776,4648,4632
4776,4648,4632
4780,4648,4632
4780,4652,4640
4780,4652,4636
4780,4652,4640
4780,4652,4636
4780,4656,4640
4784,4656,4640
4780,4660,4640
4784,4660,4644
4784,4664,4644
4788,4668,4648
4784,4664,4644
4788,4668,4648
4788,4668,4648
4788,4672,4652
4784,4672,4648
4784,4672,4652
4788,4676,4652
4788,4684,4656
4788,4684,4660
4792,4688,4660
4792,4688,4664
4788,4684,4656
4792,4688,4664
4792,4688,4660
4788,4680,4656
4788,4672,4652
4784,4664,4648
4780,4660,4644
4784,4660,4644
4780,4656,4640
4780,4648,4636
4780,4648,4636
4780,4644,4632
4776,4644,4628
4776,4640,4632
4776,4640,4628
4772,4636,4628
4776,4636,4628
4772,4632,4620
4768,4628,4620
4772,4632,4624
4772,4628,4624
4768,4628,4620
4772,4632,4624
4772,4636,4624
4772,4632,4624
4772,4636,4628
4776,4640,4628
4772,4640,4628
4772,4640,4628
4772,4640,4628
4772,4644,4628
4772,4644,4632
4776,4648,4632
4776,4648,4632
4776,4652,4636
4776,4656,4640
4776,4656,4636
4776,4656,4640
4780,4660,4640
4780,4664,4644
4780,4664,4644
4780,4668,4644
4780,4668,4648
4784,4676,4652
4784,4680,4656
4788,4680,4656
4784,4672,4652
4780,4664,4644
4780,4660,4640
4780,4656,4636
4776,4648,4636
4776,4644,4632
4780,4648,4636
4776,4640,4632
4780,4644,4636
4776,4640,4628
4776,4640,4632
4776,4636,4628
4776,4636,4628
4772,4632,4624
4776,4636,4628
4768,4628,4620
4768,4628,4620
4768,4628,4620
4772,4628,4624
4768,4628,4620
4768,4628,4620
4772,4632,4620
4764,4624,4616
4772,4632,4624
4772,4640,4624
4772,4640,4628
4772,4640,4624
4776,4644,4632
4776,4648,4636
4780,4652,4636
4776,4652,4632
4776,4652,4632
4776,4656,4636
4780,4660,4640
4776,4660,4640
4780,4664,4644
4780,4664,4644
4780,4668,4648
4784,4672,4648
4780,4672,4648
4780,4672,4644
4780,4676,4648
4780,4680,4652
4780,4680,4652
4784,4680,4656
4780,4676,4648
4780,4672,4644
4776,4660,4636
4772,4652,4632
4772,4648,4632
4772,4648,4632
4772,4644,4628
4772,4640,4624
4772,4640,4628
4772,4636,4624
4768,4632,4620
4772,4636,4624
4768,4632,4624
4768,4632,4620
4764,4632,4620
4768,4632,4616
4768,4628,4620
4764,4628,4620
4768,4628,4620
4768,4628,4620
4768,4628,4620
4764,4628,4620
4768,4632,4620
4764,4632,4620
4764,4632,4616
4764,4632,4620
4764,4636,4620
4768,4636,4620
4768,4640,4624
4768,4640,4624
4768,4644,4628
4768,4644,4628
4772,4652,4632
4772,4656,4636
4772,4656,4636
4776,4664,4640
4776,4664,4640
4776,4668,4640
4776,4672,4644
4776,4672,4648
4776,4676,4648
4780,4680,4652
4780,4680,4652
4780,4688,4656
4780,4688,4656
4780,4684,4652
4780,4680,4652
4776,4672,4648
4776,4668,4644
4776,4664,4640
4772,4660,4636
4776,4660,4636
4776,4660,4636
4772,4656,4636
4772,4656,4636
4780,4660,4640
4776,4660,4636
4776,4656,4636
4772,4656,4636
4772,4652,4632
4772,4656,4632
4772,4652,4632
4772,4656,4632
4772,4656,4632
4768,4652,4632
4772,4652,4632
4772,4660,4636
4772,4664,4636
4776,4668,4644
4780,4672,4648
4780,4676,4652
4780,4676,4652
4784,4680,4652
4784,4680,4652
4784,4684,4656
4784,4684,4652
4784,4688,4656
4788,4692,4664
4788,4696,4664
4788,4696,4664
4788,4696,4664
4792,4704,4668
4792,4708,4672
4792,4708,4672
4796,4712,4676
4792,4712,4672
4792,4704,4668
4792,4700,4668
4788,4696,4664
4788,4692,4660
4788,4688,4656
4788,4688,4656
4788,4688,4660
4788,4684,4656
4788,4684,4660
4788,4684,4660
4788,4688,4660
4788,4688,4660
4788,4684,4660
4788,4688,4660
4784,4680,4652
4784,4680,4652
4784,4680,4652
4784,4680,4652
4784,4680,4652
4784,4680,4652
4784,4684,4656
4788,4688,4660
4788,4688,4660
4788,4692,4660
4788,4696,4660
4788,4696,4660
4788,4700,4664
4792,4704,4668
4788,4704,4664
4788,4704,4664
4788,4704,4664
4788,4708,4672
4792,4712,4672
4792,4712,4672
4792,4716,4676
4796,4720,4680
4796,4724,4680
4796,4724,4680
4796,4728,4684
4796,4728,4684
4796,4724,4680
4792,4716,4676
4788,4708,4668
4784,4700,4664
4788,4700,4664
4788,4696,4660
4788,4696,4664
4788,4692,4660
4788,4692,4660
4784,4688,4656
4784,4684,4652
4784,4688,4656
4780,4684,4652
4784,4684,4652
4784,4684,4652
4784,4684,4656
4780,4680,4648
4784,4684,4652
4784,4688,4656
4784,4684,4656
4784,4688,4656
4784,4688,4656
4784,4688,4656
4784,4692,4656
4788,4696,4664
4784,4696,4660
4784,4696,4660
4788,4700,4664
4788,4704,4668
4784,4700,4664
4784,4704,4660
4784,4704,4660
4788,4708,4668
4788,4712,4668
4788,4712,4668
4788,4712,4672
4788,4716,4672
4792,4716,4672
4788,4716,4672
4788,4720,4676
4788,4724,4676
4792,4724,4680
4792,4728,4680
4792,4724,4676
4784,4716,4668
4784,4708,4668
4784,4700,4660
4784,4696,4660
4780,4696,4656
4780,4692,4656
4780,4688,4656
4780,4688,4656
4780,4684,4648
4780,4684,4652
4776,4680,4648
4776,4676,4644
4776,4676,4644
4772,4676,4644
4772,4672,4644
4772,4672,4644
4772,4672,4640
4772,4672,4640
4772,4672,4640
4768,4668,4640
4772,4672,4640
4772,4676,4644
4772,4676,4644
4776,4680,4648
4772,4680,4648
4772,4680,4644
4776,4684,4648
4772,4684,4648
4776,4688,4652
4780,4692,4656
4776,4688,4652
4776,4692,4656
4776,4692,4656
4780,4700,4656
4780,4700,4660
4776,4700,4660
4776,4700,4660
4780,4708,4664
4784,4712,4668
4784,4712,4672
4784,4716,4672
4780,4708,4664
4780,4708,4664
4780,4700,4660
4776,4692,4652
4776,4688,4648
4772,4680,4648
4776,4680,4648
4776,4684,4648
4772,4676,4644
4776,4680,4648
4776,4680,4648
4776,4680,4648
4772,4680,4644
4772,4676,4644
4772,4676,4644
4776,4676,4648
4776,4680,4648
4776,4680,4648
4772,4676,4644
4772,4676,4644
4776,4676,4644
4776,4680,4648
4776,4684,4648
4776,4680,4648
4776,4684,4652
4776,4688,4652
4776,4688,4656
4780,4692,4656
4776,4692,4656
4776,4692,4656
4784,4704,4664
4784,4704,4664
4784,4708,4664
4784,4708,4668
4784,4708,4668
4784,4712,4668
4784,4712,4668
4788,4712,4672
4784,4708,4668
4780,4700,4664
4780,4692,4656
4776,4684,4652
4772,4680,4644
4772,4676,4644
4772,4676,4644
4776,4676,4648
4776,4676,4644
4772,4672,4644
4772,4672,4644
4776,4676,4644
4772,4672,4644
4772,4668,4640
4772,4672,4640
4772,4672,4640
4772,4672,4644
4776,4672,4644
4772,4672,4644
4776,4672,4644
4776,4676,4648
4776,4672,4644
4772,4672,4644
4772,4676,4644
4776,4680,4648
4776,4680,4648
4772,4684,4648
4776,4684,4648
4772,4680,4648
4776,4684,4652
4776,4688,4652
4772,4688,4652
4776,4692,4656
4776,4692,4656
4776,4696,4656
4776,4696,4660
4776,4700,4660
4776,4696,4656
4772,4688,4652
4772,4680,4644
4772,4676,4644
4768,4664,4636
4768,4660,4632
4764,4656,4632
4764,4652,4628
4764,4648,4624
4760,4648,4624
4760,4644,4624
4756,4640,4620
4760,4640,4620
4756,4640,4620
4760,4640,4620
4760,4640,4620
4760,4640,4620
4760,4640,4620
4760,4640,4620
4760,4640,4620
4760,4640,4620
4760,4644,4624
4760,4644,4624
4760,4644,4624
4760,4648,4628
4760,4648,4624
4760,4648,4624
4760,4648,4628
4760,4652,4628
4760,4648,4624
4760,4652,4628
4760,4656,4628
4760,4660,4628
4764,4660,4632
4764,4660,4632
4764,4664,4636
4764,4664,4632
4760,4664,4632
4764,4668,4636
4768,4672,4644
4764,4672,4644
4764,4676,4644
4764,4672,4640
4764,4668,4632
4764,4664,4636
4760,4656,4632
4756,4644,4620
4756,4640,4620
4756,4640,4620
4756,4640,4620
4756,4636,4620
4756,4632,4616
4752,4632,4616
4752,4632,4612
4752,4628,4612
4752,4628,4612
4748,4624,4608
4748,4624,4608
4752,4624,4608
4748,4624,4608
4748,4628,4612
4752,4628,4612
4748,4624,4608
4752,4628,4612
4752,4632,4612
4748,4628,4608
4752,4632,4612
4752,4636,4616
4752,4636,4616
4756,4640,4620
4756,4644,4620
4756,4644,4620
4756,4648,4624
4756,4648,4624
4760,4652,4628
4760,4656,4628
4760,4660,4632
4764,4664,4636
4764,4668,4632
4768,4672,4636
4764,4668,4636
4764,4672,4636
4764,4676,4644
4764,4672,4640
4764,4668,4640
4764,4664,4636
4764,4656,4632
4760,4656,4628
4764,4652,4628
4760,4652,4624
4760,4648,4628
4756,4648,4620
4756,4648,4624
4760,4648,4624
4760,4648,4624
4756,4648,4624
4756,4648,4620
4760,4648,4624
4760,4648,4624
4756,4644,4620
4756,4648,4620
4760,4652,4628
4760,4652,4628
4760,4656,4628
4764,4656,4632
4764,4664,4636
4764,4664,4632
4764,4664,4636
4764,4668,4640
4764,4668,4636
4764,4668,4636
4764,4672,4640
4768,4676,4640
4768,4680,4644
4768,4680,4644
4764,4680,4644
4768,4684,4644
4764,4680,4644
4768,4688,4648
4768,4692,4652
4772,4692,4652
4772,4692,4652
4768,4684,4648
4768,4676,4640
4768,4672,4640
4768,4672,4640
4764,4668,4636
4760,4664,4632
4764,4660,4632
4760,4660,4628
4760,4660,4628
4760,4660,4628
4764,4660,4632
4760,4660,4628
4760,4660,4632
4760,4660,4628
4756,4656,4624
4760,4660,4628
4760,4656,4628
4756,4656,4628
4756,4656,4628
4756,4656,4628
4756,4660,4628
4760,4664,4632
4760,4668,4632
4760,4668,4632
4764,4672,4636
4760,4672,4636
4764,4672,4636
4760,4676,4640
4764,4680,4640
4768,4684,4644
4764,4684,4640
4764,4684,4644
4764,4688,4644
4768,4692,4648
4764,4688,4644
4764,4688,4648
4764,4692,4648
4764,4696,4652
4764,4696,4648
4768,4692,4652
4764,4688,4648
4764,4680,4644
4760,4672,4636
4760,4668,4632
4756,4668,4632
4756,4660,4628
4756,4660,4628
4752,4656,4624
4756,4660,4628
4752,4652,4624
4752,4652,4624
4752,4652,4620
4752,4652,4620
4752,4648,4616
4752,4652,4624
4756,4648,4620
4752,4648,4620
4752,4648,4620
4756,4652,4620
4756,4652,4624
4756,4656,4624
4756,4656,4624
4756,4656,4624
4756,4660,4628
4756,4660,4628
4756,4664,4628
4756,4664,4628
4756,4664,4632
4756,4664,4632
4756,4668,4632
4760,4672,4636
4760,4672,4636
4760,4672,4636
4760,4676,4640
4760,4676,4640
4764,4680,4640
4760,4684,4640
4760,4684,4640
4764,4692,4644
4764,4692,4648
4768,4692,4652
4768,4696,4652
4764,4696,4652
4764,4692,4648
4768,4688,4648
4764,4680,4644
4760,4672,4636
4760,4664,4632
4760,4664,4628
4760,4660,4628
4760,4656,4628
4760,4656,4624
4760,4656,4624
4760,4652,4624
4760,4652,4628
4760,4652,4624
4760,4652,4624
4760,4652,4628
4760,4652,4628
4764,4656,4628
4760,4652,4624
4760,4648,4624
4760,4648,4624
4760,4648,4620
4760,4652,4624
4760,4656,4624
4768,4664,4632
4764,4664,4632
4764,4664,4632
4764,4664,4636
4764,4664,4636
4768,4668,4636
4772,4676,4640
4768,4672,4640
4772,4680,4644
4772,4680,4644
4772,4684,4644
4772,4684,4648
4776,4688,4648
4776,4688,4652
4776,4692,4652
4776,4692,4652
4776,4696,4652
4776,4700,4656
4780,4708,4660
4780,4704,4660
4780,4704,4660
4776,4696,4652
4776,4688,4648
4776,4684,4648
4776,4680,4644
4776,4680,4644
4780,4684,4648
4772,4676,4640
4776,4676,4644
4776,4680,4648
4776,4676,4644
4772,4672,4640
4776,4676,4644
4776,4676,4640
4780,4676,4644
4776,4676,4644
4776,4676,4644
4776,4676,4644
4776,4676,4644
4780,4680,4644
4780,4680,4648
4780,4680,4648
4780,4684,4648
4780,4688,4648
4780,4688,4648
4784,4692,4652
4780,4692,4652
4784,4696,4656
4788,4704,4660
4784,4704,4660
4784,4704,4660
4784,4708,4664
4788,4708,4664
4788,4712,4664
4788,4712,4668
4792,4720,4668
4792,4720,4672
4792,4724,4672
4792,4724,4672
4792,4720,4672
4792,4712,4668
4792,4708,4664
4788,4704,4664
4788,4700,4660
4788,4700,4660
4788,4696,4656
4792,4700,4660
4788,4696,4660
4788,4696,4656
4788,4696,4656
4792,4696,4660
4792,4700,4660
4792,4696,4660
4792,4696,4660
4792,4700,4660
4788,4696,4660
4792,4700,4660
4796,4704,4664
4796,4708,4668
4796,4708,4668
4796,4708,4668
4796,4712,4672
4796,4712,4668
4796,4712,4668
4796,4716,4672
4796,4716,4672
4796,4720,4676
4796,4720,4672
4800,4724,4680
4800,4728,4680
4800,4732,4680
4800,4736,4688
4804,4736,4684
4804,4740,4692
4804,4744,4692
4808,4748,4696
4812,4756,4700
4812,4756,4700
4808,4756,4700
4808,4748,4696
4808,4744,4692
4804,4736,4688
4804,4732,4684
4800,4724,4680
4804,4720,4676
4804,4720,4676
4804,4716,4676
4800,4712,4672
4800,4712,4672
4800,4708,4668
4800,4708,4668
4800,4708,4668
4796,4708,4668
4800,4708,4668
4796,4708,4668
4796,4704,4664
4800,4708,4672
4796,4708,4668
4796,4704,4664
4796,4708,4668
4796,4708,4668
4796,4708,4668
4796,4708,4668
4800,4716,4676
4800,4716,4676
4796,4716,4672
4796,4716,4672
4800,4720,4676
4800,4724,4680
4800,4724,4676
4796,4724,4676
4796,4724,4680
4796,4724,4676
4796,4728,4680
4800,4732,4680
4800,4736,4684
4804,4740,4688
4800,4736,4680
4800,4740,4688
4800,4740,4688
4800,4740,4684
4804,4744,4688
4804,4748,4692
4800,4744,4688
4804,4744,4688
4800,4732,4680
4796,4720,4672
4792,4712,4668
4792,4708,4664
4792,4708,4664
4792,4708,4664
4792,4704,4664
4796,4704,4664
4792,4704,4664
4792,4704,4660
4792,4700,4660
4788,4696,4660
4792,4696,4660
4792,4696,4660
4792,4692,4656
4788,4688,4656
4792,4692,4656
4792,4692,4656
4788,4692,4656
4788,4692,4656
4792,4696,4660
4788,4696,4660
4788,4700,4660
4788,4700,4660
4788,4700,4660
4792,4708,4664
4796,4708,4668
4792,4712,4664
4788,4704,4660
4788,4708,4664
4788,4708,4660
4788,4712,4664
4792,4712,4668
4792,4712,4668
4792,4716,4668
4792,4716,4672
4792,4716,4672
4792,4720,4672
4792,4724,4676
4796,4728,4676
4796,4728,4680
4792,4724,4672
4792,4716,4672
4792,4712,4668
4788,4704,4660
4788,4700,4660
4788,4696,4656
4784,4688,4652
4788,4692,4652
4788,4688,4652
4788,4684,4652
4784,4684,4648
4788,4684,4652
4788,4688,4652
4788,4684,4652
4788,4684,4648
4784,4676,4644
4784,4680,4648
4784,4676,4648
4780,4676,4644
4784,4676,4644
4784,4680,4644
4780,4676,4644
4784,4680,4648
4784,4684,4648
4784,4684,4648
4784,4684,4648
4784,4688,4648
4784,4684,4648
4784,4692,4652
4784,4688,4652
4784,4692,4652
4784,4692,4652
4784,4696,4656
4784,4696,4656
4788,4700,4660
4788,4704,4660
4792,4708,4664
4792,4712,4664
4788,4708,4664
4784,4696,4656
4784,4692,4652
4784,4684,4648
4780,4676,4644
4780,4672,4640
4780,4668,4636
4780,4668,4636
4776,4664,4636
4776,4664,4632
4780,4664,4636
4776,4660,4632
4776,4660,4628
4776,4660,4632
4776,4660,4628
4772,4656,4628
4776,4660,4628
4776,4656,4628
4772,4652,4624
4772,4652,4624
4772,4656,4628
4776,4656,4628
4776,4660,4632
4776,4664,4632
4776,4664,4632
4780,4668,4636
4780,4668,4636
4776,4668,4632
4776,4672,4636
4776,4672,4636
4776,4672,4636
4776,4672,4640
4776,4672,4636
4776,4676,4640
4780,4680,4644
4780,4680,4644
4780,4684,4644
4780,4684,4648
4780,4680,4648
4776,4672,4640
4776,4668,4636
4772,4660,4628
4772,4652,4624
4768,4644,4620
4768,4644,4620
4772,4644,4620
4768,4636,4616
4768,4636,4612
4768,4636,4616
4768,4636,4616
4768,4636,4612
4764,4632,4612
4768,4632,4612
4768,4632,4612
4764,4632,4612
4768,4632,4612
4768,4632,4612
4768,4632,4612
4764,4632,4608
4768,4632,4612
4768,4636,4616
4768,4640,4620
4768,4644,4620
4768,4640,4620
4768,4644,4620
4772,4652,4624
4772,4652,4624
4772,4656,4628
4776,4660,4632
4776,4660,4628
4776,4664,4628
4776,4668,4632
4776,4668,4636
4776,4672,4636
4780,4676,4640
4776,4676,4640
4780,4684,4644
4780,4680,4644
4784,4680,4648
4780,4672,4636
4780,4664,4636
4776,4660,4628
4776,4656,4628
4776,4652,4628
4772,4648,4624
4776,4648,4624
4776,4644,4620
4768,4640,4616
4772,4640,4620
4772,4644,4620
4772,4644,4620
4776,4648,4624
4776,4648,4624
4776,4648,4624
4776,4648,4624
4776,4648,4624
4776,4648,4624
4776,4648,4624
4772,4648,4624
4776,4652,4628
4776,4652,4624
4776,4656,4628
4780,4660,4632
4780,4664,4636
4780,4668,4636
4780,4668,4636
4780,4672,4640
4780,4672,4640
4784,4676,4644
4780,4676,4640
4784,4676,4640
4780,4676,4640
4780,4680,4644
4784,4684,4644
4780,4684,4644
4784,4688,4648
4784,4692,4648
4784,4696,4648
4784,4700,4652
4788,4704,4656
4784,4704,4656
4788,4704,4660
4784,4700,4652
4784,4692,4648
4784,4688,4648
4780,4680,4640
4780,4676,4640
4776,4672,4636
4776,4672,4632
4776,4668,4636
4776,4668,4636
4776,4668,4632
4772,4668,4632
4776,4668,4632
4780,4672,4636
4776,4668,4632
4776,4672,4632
4776,4668,4632
4776,4672,4636
4776,4672,4632
4776,4672,4636
4776,4676,4636
4776,4672,4632
4776,4676,4640
4776,4680,4640
4780,4684,4640
4780,4684,4640
4780,4688,4644
4780,4688,4644
4784,4696,4652
4780,4692,4648
4784,4696,4648
4776,4692,4644
4776,4692,4644
4780,4700,4652
4780,4700,4652
4784,4708,4656
4784,4712,4660
4784,4712,4660
4784,4712,4660
4788,4716,4660
4788,4716,4664
4784,4716,4664
4784,4716,4660
4784,4712,4660
4784,4704,4652
4780,4700,4648
4784,4700,4652
4780,4696,4648
4780,4692,4648
4780,4692,4644
4780,4692,4644
4780,4692,4644
4780,4696,4644
4780,4692,4648
4780,4696,4644
4780,4692,4644
4780,4692,4644
4780,4696,4648
4780,4696,4648
4780,4700,4648
4780,4696,4648
4780,4696,4648
4780,4704,4652
4784,4704,4652
4784,4704,4652
4780,4708,4652
4784,4712,4656
4780,4712,4656
4784,4712,4656
4784,4716,4656
4784,4716,4660
4788,4724,4664
4784,4724,4664
4784,4724,4664
4792,4732,4668
4792,4732,4672
4792,4736,4672
4792,4740,4672
4792,4740,4676
4792,4744,4676
4796,4748,4680
4796,4748,4684
4796,4748,4680
4796,4748,4680
4792,4736,4672
4792,4732,4668
4788,4728,4668
4788,4724,4664
4784,4720,4660
4784,4720,4660
4788,4720,4664
4784,4716,4660
4784,4716,4656
4784,4716,4660
4784,4716,4660
4784,4720,4664
4784,4720,4660
4784,4712,4656
4784,4712,4660
4784,4716,4660
4784,4716,4660
4784,4716,4660
4784,4716,4660
4784,4716,4660
4788,4724,4664
4788,4724,4664
4788,4728,4668
4788,4728,4668
4788,4728,4664
4788,4732,4668
4792,4732,4668
4788,4736,4668
4792,4736,4672
4788,4740,4672
4788,4736,4672
4788,4740,4672
4788,4744,4676
4792,4748,4676
4792,4748,4680
4792,4748,4680
4792,4752,4680
4792,4752,4680
4796,4760,4688
4796,4764,4688
4796,4764,4688
4796,4764,4688
4796,4760,4688
4792,4756,4684
4792,4752,4676
4788,4744,4676
4788,4740,4672
4788,4736,4668
4788,4736,4668
4784,4728,4664
4784,4724,4660
4784,4724,4664
4784,4720,4664
4780,4720,4660
4784,4720,4660
4784,4720,4660
4784,4720,4660
4784,4720,4660
4784,4720,4660
4784,4720,4660
4784,4720,4660
4784,4720,4660
4784,4720,4660
4780,4716,4660
4784,4720,4660
4784,4720,4660
4780,4720,4660
4780,4720,4660
4784,4724,4664
4788,4732,4668
4784,4732,4664
4784,4728,4664
4784,4728,4664
4784,4732,4668
4784,4732,4668
4788,4736,4672
4788,4740,4672
4784,4736,4668
4788,4740,4672
4788,4744,4676
4788,4744,4676
4784,4744,4672
4784,4748,4676
4788,4752,4680
4788,4752,4680
4792,4756,4684
4792,4760,4684
4788,4752,4680
4788,4748,4676
4784,4744,4676
4784,4740,4672
4784,4736,4672
4784,4732,4668
4780,4724,4660
4780,4724,4660
4780,4724,4660
4780,4724,4660
4780,4724,4660
4780,4720,4660
4780,4724,4664
4776,4720,4656
4776,4720,4656
4780,4720,4660
4780,4720,4660
4776,4716,4656
4784,4724,4660
4784,4724,4664
4780,4724,4660
4776,4720,4656
4780,4728,4664
4780,4728,4664
4784,4732,4664
4780,4728,4664
4780,4732,4664
4780,4732,4664
4784,4732,4668
4788,4740,4672
4788,4744,4676
4788,4744,4676
4788,4744,4676
4788,4748,4676
4788,4748,4676
4788,4752,4676
4792,4756,4684
4792,4760,4688
4792,4764,4688
4796,4768,4692
4796,4772,4696
4796,4768,4692
4792,4760,4688
4792,4756,4684
4788,4744,4676
4792,4748,4676
4788,4744,4676
4788,4744,4676
4784,4740,4672
4788,4744,4672
4788,4744,4676
4788,4744,4676
4788,4744,4676
4788,4744,4676
4784,4740,4672
4788,4740,4676
4788,4740,4672
4788,4744,4676
4788,4744,4676
4788,4744,4672
4788,4744,4676
4788,4748,4676
4788,4748,4676
4792,4752,4680
4788,4752,4680
4788,4752,4680
4792,4756,4684
4788,4752,4680
4788,4756,4680
4788,4756,4680
4788,4756,4680
4788,4760,4684
4788,4760,4684
4788,4760,4684
4788,4764,4680
4792,4768,4688
4792,4772,4692
4792,4772,4692
4796,4780,4696
4796,4780,4696
4792,4780,4696
4792,4780,4696
4792,4780,4696
4788,4772,4692
4788,4768,4688
4784,4764,4680
4784,4760,4680
4784,4756,4680
4784,4752,4680
4784,4752,4676
4780,4748,4672
4780,4744,4672
4776,4740,4668
4776,4740,4668
4776,4740,4668
4780,4744,4672
4780,4744,4668
4780,4744,4672
4780,4744,4672
4780,4740,4668
4776,4736,4660
4776,4736,4668
4776,4736,4664
4776,4736,4664
4776,4740,4664
4776,4740,4668
4780,4740,4668
4776,4744,4668
4776,4744,4668
4776,4744,4672
4772,4744,4668
4776,4748,4668
4776,4748,4672
4776,4748,4672
4776,4752,4672
4776,4752,4672
4780,4756,4676
4776,4756,4676
4780,4760,4680
4780,4760,4680
4780,4760,4680
4780,4768,4680
4780,4768,4684
4784,4776,4688
4784,4776,4688
4784,4780,4692
4784,4780,4692
4784,4784,4696
4784,4780,4692
4788,4780,4692
4784,4776,4692
4780,4764,4684
4780,4760,4680
4780,4756,4676
4776,4752,4672
4776,4748,4668
4772,4744,4664
4772,4740,4664
4772,4736,4664
4772,4740,4664
4772,4736,4664
4768,4736,4660
4772,4736,4660
4768,4732,4660
4764,4728,4656
4768,4728,4660
4768,4728,4656
4772,4732,4660
4772,4732,4660
4772,4736,4664
4772,4736,4664
4772,4736,4664
4772,4740,4664
4772,4740,4664
4772,4744,4668
4772,4744,4668
4772,4744,4668
4772,4748,4672
4772,4748,4672
4772,4744,4668
4772,4748,4668
4772,4744,4668
4772,4748,4672
4776,4752,4676
4776,4752,4676
4776,4756,4676
4776,4756,4676
4772,4756,4676
4772,4756,4672
4772,4760,4676
4772,4756,4672
4772,4760,4676
4776,4764,4680
4776,4760,4676
4772,4756,4672
4776,4752,4672
4772,4744,4668
4768,4740,4664
4768,4732,4660
4768,4728,4656
4764,4724,4656
4764,4724,4652
4760,4720,4652
4764,4716,4652
4760,4716,4648
4756,4712,4644
4760,4712,4644
4756,4708,4644
4760,4712,4644
4756,4708,4644
4756,4708,4640
4760,4708,4644
4756,4708,4640
4752,4704,4636
4752,4704,4636
4752,4704,4640
4756,4708,4644
4756,4708,4644
4756,4708,4640
4756,4712,4644
4760,4712,4648
4760,4712,4648
4760,4716,4648
4760,4716,4648
4760,4720,4652
4760,4720,4652
4760,4720,4648
4760,4720,4648
4756,4720,4648
4756,4720,4648
4760,4728,4652
4764,4732,4656
4764,4732,4656
4764,4736,4660
4760,4736,4656
4764,4736,4660
4764,4740,4664
4760,4732,4656
4760,4728,4656
4760,4724,4652
4756,4712,4644
4748,4700,4632
4748,4700,4636
4752,4700,4632
4748,4692,4632
4748,4688,4628
4748,4688,4628
4744,4684,4624
4744,4684,4624
4744,4684,4624
4744,4680,4620
4740,4676,4620
4736,4668,4612
4740,4672,4616
4736,4668,4612
4740,4668,4612
4736,4668,4612
4736,4668,4612
4736,4668,4612
4736,4668,4612
4736,4668,4612
4736,4668,4612
4736,4668,4612
4736,4672,4612
4736,4668,4612
4736,4672,4612
4736,4672,4612
4736,4672,4616
4736,4672,4612
4736,4672,4612
4736,4676,4616
4736,4676,4616
4736,4676,4616
4736,4676,4612
4736,4680,4616
4740,4684,4620
4740,4688,4624
4744,4692,4624
4744,4692,4628
4744,4696,4628
4740,4688,4624
4740,4684,4620
4736,4680,4616
4736,4672,4612
4736,4668,4612
4736,4668,4608
4732,4660,4604
4732,4660,4604
4732,4656,4604
4732,4656,4604
4728,4656,4600
4728,4652,4604
4732,4656,4604
4728,4652,4600
4728,4648,4596
4728,4644,4592
4724,4644,4592
4728,4644,4596
4724,4644,4592
4724,4644,4596
4728,4648,4596
4732,4652,4604
4728,4652,4596
4732,4652,4604
4728,4652,4600
4732,4656,4604
4732,4656,4604
4732,4660,4608
4732,4664,4608
4732,4660,4604
4732,4664,4612
4732,4668,4608
4736,4668,4612
4736,4672,4616
4736,4672,4616
4736,4672,4616
4736,4676,4616
4736,4676,4612
4736,4672,4616
4736,4664,4608
4728,4656,4604
4724,4648,4596
4724,4640,4592
4724,4636,4592
4724,4632,4588
4720,4628,4588
4720,4628,4588
4720,4628,4584
4720,4628,4584
4724,4628,4584
4724,4628,4588
4720,4624,4584
4720,4624,4580
4716,4620,4580
4720,4620,4580
4720,4620,4580
4720,4620,4584
4720,4620,4580
4720,4624,4580
4720,4624,4584
4724,4628,4584
4724,4624,4588
4724,4628,4588
4724,4628,4588
4724,4632,4592
4724,4632,4588
4724,4636,4592
4724,4636,4592
4724,4636,4592
4724,4636,4592
4728,4640,4596
4728,4644,4596
4732,4648,4600
4732,4652,4604
4728,4652,4600
4728,4644,4596
4724,4636,4588
4724,4628,4588
4720,4616,4580
4712,4608,4572
4712,4604,4572
4716,4600,4572
4712,4596,4564
4712,4596,4568
4712,4592,4564
4712,4592,4564
4712,4592,4560
4708,4588,4560
4708,4584,4556
4708,4584,4556
4704,4580,4552
4704,4580,4552
4708,4580,4556
4708,4580,4552
4704,4580,4556
4708,4580,4556
4704,4580,4552
4708,4584,4556
4704,4584,4556
4704,4584,4556
4708,4588,4556
4708,4588,4560
4708,4592,4560
4712,4596,4564
4712,4596,4564
4712,4596,4564
4712,4600,4568
4712,4604,4572
4712,4604,4568
4712,4604,4572
4712,4608,4572
4712,4608,4572
4716,4612,4576
4716,4612,4576
4716,4612,4576
4712,4604,4572
4708,4592,4560
4708,4584,4556
4708,4584,4556
4708,4576,4552
4704,4572,4548
4700,4568,4544
4700,4564,4544
4700,4564,4544
4704,4564,4540
4700,4560,4540
4700,4560,4544
4700,4556,4540
4700,4556,4540
4696,4556,4536
4700,4556,4536
4700,4556,4540
4700,4556,4536
4700,4556,4536
4696,4556,4540
4696,4556,4536
4700,4560,4540
4696,4556,4536
4696,4560,4540
4700,4564,4544
4696,4564,4540
4696,4564,4544
4700,4564,4544
4700,4568,4548
4700,4568,4544
4700,4572,4544
4700,4576,4548
4700,4572,4544
4700,4576,4548
4700,4580,4552
4700,4580,4548
4708,4592,4560
4708,4592,4560
4708,4596,4564
4708,4596,4564
4712,4600,4568
4712,4604,4572
4712,4604,4564
4712,4600,4568
4708,4592,4560
4708,4584,4556
4704,4580,4552
4704,4572,4548
4704,4572,4548
4700,4568,4544
4700,4564,4540
4700,4560,4540
4696,4560,4540
4696,4560,4540
4696,4556,4536
4696,4556,4536
4700,4560,4540
4696,4556,4540
4700,4560,4540
4700,4560,4536
4696,4556,4536
4692,4556,4536
4692,4556,4536
4692,4556,4532
4696,4560,4540
4696,4560,4536
4696,4560,4540
4696,4560,4540
4696,4564,4540
4696,4564,4540
4700,4576,4548
4700,4572,4548
4696,4572,4544
4700,4576,4548
4700,4580,4548
4704,4584,4552
4704,4584,4556
4704,4588,4556
4700,4584,4556
4704,4588,4556
4704,4588,4560
4704,4592,4560
4704,4596,4560
4704,4596,4560
4704,4600,4564
4704,4600,4564
4704,4600,4564
4704,4592,4560
4700,4584,4556
4696,4576,4548
4692,4568,4544
4696,4568,4540
4692,4560,4540
4688,4556,4536
4684,4552,4532
4692,4556,4536
4692,4552,4532
4688,4552,4528
4688,4548,4532
4684,4548,4528
4688,4548,4528
4688,4548,4528
4688,4544,4528
4684,4540,4524
4684,4544,4524
4684,4540,4524
4684,4540,4524
4680,4540,4520
4684,4544,4524
4684,4544,4524
4688,4548,4528
4688,4552,4532
4692,4552,4532
4692,4560,4536
4692,4560,4536
4692,4564,4536
4692,4564,4540
4692,4568,4540
4696,4572,4540
4696,4572,4544
4696,4576,4548
4692,4576,4544
4696,4580,4548
4696,4580,4548
4700,4588,4552
4700,4588,4556
4700,4588,4556
4700,4592,4556
4700,4596,4560
4700,4600,4560
4700,4596,4560
4700,4596,4556
4696,4588,4552
4696,4580,4544
4692,4572,4544
4688,4564,4536
4688,4564,4536
4688,4560,4532
4688,4560,4536
4688,4552,4532
4684,4552,4532
4688,4556,4532
4688,4552,4528
4684,4552,4532
4684,4552,4528
4684,4552,4528
4688,4552,4528
4688,4552,4532
4688,4552,4532
4684,4552,4528
4684,4552,4532
4688,4556,4532
4688,4556,4536
4688,4560,4536
4684,4556,4532
4688,4560,4536
4688,4568,4540
4692,4568,4540
4688,4568,4540
4692,4572,4544
4692,4572,4544
4692,4576,4544
4692,4580,4548
4696,4580,4548
4696,4580,4548
4696,4584,4552
4696,4584,4552
4696,4588,4552
4696,4588,4552
4696,4592,4552
4696,4592,4556
4696,4596,4556
4696,4600,4560
4704,4608,4564
4704,4612,4572
4704,4612,4572
4708,4612,4572
4704,4604,4568
4700,4596,4560
4700,4588,4556
4700,4584,4556
4696,4580,4552
4696,4580,4552
4696,4576,4548
4696,4576,4548
4696,4576,4548
4692,4572,4544
4692,4572,4544
4692,4568,4544
4688,4564,4536
4688,4560,4536
4688,4560,4536
4684,4556,4532
4688,4560,4536
4684,4556,4532
4684,4556,4532
4688,4560,4536
4688,4560,4532
4688,4560,4536
4688,4564,4536
4684,4560,4536
4684,4564,4536
4688,4568,4540
4688,4568,4536
4684,4568,4536
4684,4568,4540
4688,4572,4540
4688,4576,4544
4688,4576,4544
4688,4576,4544
4688,4576,4544
4688,4580,4544
4692,4584,4552
4692,4588,4552
4692,4588,4548
4692,4592,4552
4692,4588,4552
4696,4596,4556
4696,4600,4560
4696,4600,4560
4696,4600,4560
4696,4592,4556
4692,4584,4548
4688,4580,4544
4692,4576,4544
4688,4572,4544
4688,4568,4540
4684,4564,4536
4688,4568,4540
4688,4564,4536
4684,4560,4532
4684,4564,4536
4688,4564,4536
4684,4560,4536
4684,4560,4532
4684,4560,4532
4680,4556,4528
4684,4556,4528
4680,4552,4528
4680,4552,4528
4680,4556,4528
4684,4556,4532
4684,4560,4532
4684,4560,4532
4684,4564,4536
4684,4568,4536
4684,4568,4536
4688,4572,4540
4688,4572,4540
4688,4576,4544
4688,4576,4540
4692,4580,4544
4692,4584,4548
4692,4580,4548
4688,4580,4548
4688,4584,4548
4692,4584,4548
4696,4588,4556
4692,4592,4556
4692,4584,4548
4692,4580,4548
4692,4580,4544
4688,4572,4540
4688,4568,4540
4684,4560,4532
4684,4556,4532
4684,4556,4532
4684,4556,4532
4680,4552,4528
4680,4552,4524
4680,4552,4528
4684,4552,4528
4684,4552,4528
4680,4548,4528
4680,4548,4528
4680,4544,4524
4680,4544,4524
4680,4544,4524
4676,4540,4520
4680,4544,4524
4680,4544,4524
4680,4548,4528
4684,4552,4528
4684,4552,4528
4684,4556,4532
4680,4556,4532
4688,4564,4532
4684,4560,4536
4684,4564,4536
4684,4564,4536
4684,4564,4536
4684,4568,4536
4684,4568,4536
4684,4568,4540
4688,4576,4544
4684,4572,4540
4688,4576,4544
4688,4580,4544
4688,4580,4548
4688,4576,4544
4684,4568,4540
4684,4560,4536
4680,4548,4528
4672,4540,4520
4676,4540,4520
4676,4536,4520
4676,4532,4520
4676,4532,4516
4672,4528,4516
4676,4532,4516
4676,4532,4516
4672,4524,4512
4672,4524,4512
4672,4524,4508
4668,4520,4508
4672,4524,4508
4672,4524,4512
4672,4524,4512
4672,4524,4512
4672,4528,4516
4672,4528,4512
4672,4532,4516
4672,4528,4516
4676,4532,4520
4676,4536,4520
4676,4540,4520
4676,4536,4520
4680,4544,4524
4680,4548,4524
4680,4548,4528
4680,4548,4528
4684,4552,4532
4684,4552,4532
4684,4556,4532
4680,4556,4532
4684,4556,4532
4680,4556,4528
4680,4560,4532
4680,4560,4536
4680,4564,4536
4684,4564,4536
4680,4560,4532
4684,4556,4532
4680,4548,4524
4676,4540,4524
4672,4532,4516
4672,4528,4512
4672,4524,4508
4668,4516,4508
4668,4516,4504
4664,4512,4504
4664,4508,4500
4664,4508,4500
4660,4508,4496
4660,4504,4496
4660,4500,4496
4664,4504,4496
4664,4504,4496
4664,4504,4500
4664,4504,4496
4664,4508,4496
4664,4508,4500
4660,4504,4496
4660,4504,4496
4660,4504,4500
4664,4508,4496
4664,4512,4500
4664,4512,4500
4668,4516,4504
4664,4516,4504
4664,4516,4504
4664,4520,4504
4664,4516,4504
4664,4520,4504
4664,4524,4508
4664,4524,4508
4664,4528,4508
4668,4532,4512
4668,4532,4512
4668,4536,4516
4672,4540,4516
4672,4544,4516
4672,4544,4520
4676,4548,4524
4676,4552,4524
4672,4552,4524
4672,4544,4520
4672,4540,4516
4668,4532,4512
4664,4524,4508
4664,4520,4508
4664,4516,4504
4660,4512,4500
4660,4512,4500
4660,4508,4496
4660,4508,4496
4660,4508,4496
4660,4508,4496
4664,4512,4500
4660,4508,4496
4660,4508,4500
4660,4508,4500
4660,4504,4496
4660,4508,4496
4660,4504,4496
4660,4508,4496
4660,4508,4496
4660,4508,4500
4664,4512,4500
4660,4512,4500
4664,4516,4504
4664,4520,4504
4668,4524,4508
4668,4524,4508
4664,4524,4508
4668,4528,4508
4664,4528,4508
4668,4532,4512
4668,4536,4512
4672,4540,4516
4672,4540,4516
4668,4540,4516
4668,4544,4520
4668,4544,4516
4668,4548,4520
4672,4548,4520
4672,4548,4520
4668,4544,4520
4668,4536,4516
4668,4528,4512
4664,4524,4504
4664,4520,4504
4664,4516,4500
4664,4520,4504
4660,4516,4500
4660,4516,4500
4660,4516,4500
4660,4512,4500
4660,4516,4500
4660,4516,4500
4660,4512,4500
4660,4512,4500
4660,4512,4496
4660,4512,4496
4660,4512,4496
4660,4512,4496
4664,4520,4504
4668,4524,4508
4664,4520,4508
4668,4528,4508
4668,4528,4512
4668,4528,4512
4664,4528,4508
4668,4532,4512
4672,4536,4516
4672,4540,4520
4668,4540,4520
4668,4540,4516
4672,4544,4520
4672,4548,4520
4672,4548,4524
4672,4552,4524
4672,4552,4524
4676,4556,4528
4672,4556,4524
4672,4556,4524
4672,4556,4524
4672,4552,4524
4672,4548,4520
4668,4540,4516
4664,4532,4512
4664,4528,4512
4664,4524,4508
4664,4520,4504
4656,4512,4496
4656,4512,4496
4656,4512,4496
4656,4512,4496
4660,4512,4500
4656,4508,4496
4656,4508,4496
4656,4504,4492
4656,4508,4492
4652,4504,4492
4652,4500,4492
4652,4500,4488
4652,4500,4488
4648,4500,4488
4652,4504,4492
4652,4508,4492
4652,4508,4492
4656,4512,4496
4652,4508,4492
4652,4508,4492
4656,4516,4500
4656,4516,4496
4656,4516,4500
4660,4520,4500
4656,4520,4500
4656,4524,4500
4660,4528,4504
4660,4528,4508
4664,4536,4512
4660,4536,4512
4660,4536,4512
4660,4536,4512
4660,4540,4512
4664,4544,4516
4660,4540,4516
4664,4544,4516
4664,4540,4512
4660,4536,4512
4656,4524,4504
4652,4516,4500
4652,4508,4492
4652,4504,4488
4652,4504,4492
4648,4500,4488
4648,4496,4488
4648,4496,4484
4644,4492,4480
4644,4492,4484
4648,4492,4484
4648,4496,4484
4644,4488,4480
4644,4492,4480
4640,4484,4476
4640,4488,4476
4644,4488,4480
4640,4484,4476
4644,4488,4480
4644,4488,4480
4644,4492,4480
4644,4492,4480
4648,4496,4488
4648,4500,4484
4648,4496,4484
4648,4500,4488
4648,4500,4488
4652,4504,4488
4652,4504,4492
4652,4508,4492
4652,4512,4496
4652,4512,4492
4656,4516,4496
4656,4516,4500
4656,4524,4504
4660,4528,4504
4656,4528,4504
4660,4532,4508
4660,4532,4508
4660,4536,4512
4664,4544,4516
4664,4544,4520
4668,4548,4520
4668,4544,4520
4664,4540,4516
4664,4532,4508
4660,4524,4504
4660,4520,4500
4656,4516,4500
4656,4508,4496
4656,4508,4496
4656,4504,4492
4652,4504,4492
4652,4500,4492
4652,4500,4488
4652,4500,4492
4652,4500,4488
4656,4500,4492
4652,4496,4488
4652,4496,4488
4652,4496,4488
4652,4496,4488
4652,4496,4488
4652,4496,4488
4652,4496,4488
4652,4500,4488
4652,4500,4488
4652,4500,4492
4656,4504,4492
4656,4504,4492
4656,4508,4492
4656,4508,4496
4656,4512,4496
4656,4508,4496
4656,4516,4500
4656,4516,4496
4656,4516,4500
4660,4520,4504
4656,4520,4500
4660,4524,4504
4660,4524,4504
4660,4528,4508
4660,4528,4504
4660,4532,4508
4660,4532,4512
4660,4532,4508
4660,4536,4508
4660,4536,4508
4660,4528,4504
4656,4520,4500
4652,4512,4496
4648,4504,4488
4648,4500,4484
4648,4500,4488
4644,4496,4484
4644,4492,4480
4644,4492,4480
4644,4488,4480
4644,4488,4480
4644,4488,4480
4644,4488,4476
4640,4484,4476
4640,4484,4476
4640,4484,4476
4640,4484,4476
4644,4484,4476
4644,4488,4480
4648,4488,4480
4644,4488,4480
4640,4488,4476
4644,4492,4484
4644,4492,4480
4644,4492,4480
4644,4496,4484
4644,4496,4484
4648,4500,4484
4648,4500,4488
4648,4504,4488
4648,4504,4492
4652,4508,4492
4648,4508,4492
4652,4508,4496
4648,4508,4488
4652,4508,4496
4652,4512,4492
4652,4516,4496
4652,4520,4500
4652,4524,4500
4652,4524,4500
4652,4524,4504
4652,4528,4500
4652,4524,4500
4652,4516,4496
4648,4512,4492
4648,4504,4488
4644,4500,4484
4644,4496,4484
4648,4496,4484
4644,4496,4484
4648,4496,4484
4644,4492,4480
4644,4492,4480
4644,4488,4480
4644,4492,4480
4644,4492,4480
4644,4492,4480
4644,4488,4480
4644,4488,4480
4644,4492,4480
4644,4488,4476
4640,4488,4480
4640,4488,4480
4644,4492,4484
4648,4496,4484
4648,4500,4488
4648,4504,4492
4652,4504,4492
4648,4508,4492
4648,4508,4492
4648,4508,4492
4652,4512,4492
4652,4516,4496
4656,4520,4500
4656,4520,4500
4656,4524,4500
4656,4528,4504
4656,4528,4504
4656,4532,4508
4660,4536,4512
4664,4540,4512
4664,4540,4516
4668,4548,4520
4664,4548,4516
4660,4544,4516
4660,4540,4512
4664,4540,4512
4660,4532,4512
4660,4528,4508
4656,4520,4504
4656,4520,4500
4656,4516,4500
4656,4516,4496
4656,4516,4496
4652,4512,4496
4652,4516,4496
4652,4516,4496
4652,4512,4496
4652,4512,4492
4652,4512,4492
4652,4508,4496
4652,4508,4496
4652,4508,4492
4652,4512,4496
4652,4512,4492
4652,4512,4496
4652,4512,4496
4652,4512,4496
4656,4516,4500
4652,4516,4496
4656,4524,4504
4656,4524,4504
4656,4524,4504
4656,4524,4504
4656,4528,4504
4656,4532,4504
4660,4536,4512
4660,4540,4512
4660,4540,4512
4660,4540,4512
4664,4544,4516
4664,4548,4516
4664,4548,4516
4664,4552,4520
4668,4556,4524
4668,4556,4520
4660,4548,4516
4660,4540,4512
4656,4532,4508
4656,4528,4504
4652,4520,4500
4652,4520,4496
4656,4520,4500
4656,4516,4496
4652,4512,4496
4652,4512,4496
4652,4512,4492
4652,4512,4496
4648,4508,4492
4648,4508,4492
4652,4508,4496
4648,4504,4492
4648,4504,4492
4648,4504,4488
4648,4504,4488
4652,4508,4492
4648,4508,4492
4652,4508,4492
4652,4512,4496
4648,4508,4492
4648,4508,4492
4648,4512,4492
4652,4516,4496
4652,4520,4496
4652,4516,4496
4648,4516,4496
4648,4516,4496
4648,4520,4500
4652,4524,4500
4656,4528,4504
4652,4528,4504
4652,4528,4500
4656,4532,4504
4656,4536,4508
4652,4532,4504
4656,4540,4508
4660,4544,4512
4660,4540,4512
4656,4536,4508
4656,4528,4504
4652,4524,4500
4648,4516,4496
4644,4508,4488
4644,4504,4492
4648,4508,4492
4644,4504,4488
4648,4504,4488
4648,4504,4492
4648,4508,4492
4644,4504,4488
4648,4504,4488
4644,4504,4488
4648,4504,4488
4648,4504,4488
4644,4500,4488
4644,4500,4484
4644,4500,4484
4648,4504,4488
4648,4504,4488
4644,4504,4488
4644,4504,4488
4648,4504,4488
4648,4508,4492
4648,4512,4492
4644,4512,4492
4652,4516,4496
4648,4516,4496
4652,4520,4500
4656,4524,4500
4652,4524,4500
4648,4520,4496
4652,4528,4504
4656,4528,4504
4652,4528,4504
4656,4532,4508
4656,4532,4504
4656,4528,4504
4656,4524,4500
4652,4516,4496
4652,4512,4496
4648,4504,4492
4652,4508,4492
4652,4504,4492
4652,4504,4492
4652,4504,4492
4652,4504,4492
4652,4504,4492
4652,4504,4492
4652,4504,4492
4652,4504,4492
4652,4504,4492
4648,4500,4488
4648,4500,4484
4652,4504,4488
4652,4508,4492
4652,4504,4492
4652,4504,4492
4652,4504,4492
4656,4512,4496
4656,4512,4496
4656,4516,4500
4656,4516,4496
4656,4516,4496
4656,4516,4496
4656,4520,4500
4660,4524,4504
4660,4528,4504
4660,4528,4508
4660,4532,4508
4660,4532,4512
4660,4536,4512
4664,4540,4512
4660,4532,4512
4660,4528,4504
4656,4520,4500
4652,4512,4496
4652,4504,4492
4652,4504,4488
4648,4500,4488
4652,4500,4488
4648,4496,4484
4644,4492,4484
4644,4492,4480
4652,4496,4484
4648,4492,4484
4644,4488,4480
4648,4488,4480
4648,4488,4480
4644,4488,4476
4644,4484,4476
4648,4484,4480
4648,4484,4476
4648,4488,4480
4644,4488,4480
4644,4488,4480
4644,4492,4480
4648,4496,4480
4648,4496,4484
4648,4500,4484
4648,4500,4488
4652,4504,4492
4652,4508,4492
4652,4508,4492
4652,4508,4492
4652,4512,4492
4652,4512,4496
4652,4516,4496
4656,4520,4500
4656,4520,4500
4652,4524,4500
4656,4524,4500
4652,4524,4500
4656,4520,4500
4656,4516,4496
4648,4508,4492
4648,4500,4488
4648,4496,4484
4648,4496,4480
4644,4488,4476
4644,4484,4476
4644,4480,4472
4644,4484,4476
4640,4476,4472
4644,4484,4472
4644,4480,4476
4644,4480,4476
4648,4484,4476
4644,4480,4472
4644,4476,4472
4640,4476,4472
4640,4476,4468
4640,4476,4468
4644,4480,4472
4644,4484,4476
4644,4484,4476
4648,4488,4480
4648,4488,4480
4648,4492,4480
4648,4492,4480
4644,4492,4480
4644,4496,4480
4648,4500,4484
4648,4504,4488
4648,4504,4484
4652,4508,4492
4652,4512,4492
4652,4512,4492
4652,4516,4496
4656,4516,4496
4656,4524,4500
4656,4524,4500
4656,4524,4504
4652,4524,4500
4656,4532,4504
4660,4536,4508
4660,4540,4512
4660,4540,4508
4656,4532,4504
4652,4524,4500
4652,4516,4496
4652,4516,4492
4652,4508,4492
4652,4508,4492
4652,4508,4492
4652,4508,4492
4652,4504,4488
4652,4504,4492
4652,4500,4488
4652,4504,4488
4648,4500,4484
4652,4500,4488
4648,4500,4488
4652,4504,4488
4648,4504,4484
4648,4500,4484
4652,4508,4488
4656,4512,4492
4656,4512,4492
4652,4516,4496
4656,4516,4496
4656,4520,4496
4660,4524,4504
4656,4524,4496
4660,4532,4504
4660,4532,4504
4660,4532,4508
4660,4532,4504
4660,4536,4508
4660,4540,4508
4660,4540,4512
4660,4544,4508
4660,4540,4512
4664,4548,4512
4664,4552,4516
4664,4552,4520
4664,4552,4516
4664,4556,4520
4668,4564,4524
4668,4568,4524
4664,4568,4524
4668,4572,4528
4668,4572,4528
4668,4568,4524
4664,4560,4524
4664,4552,4516
4664,4552,4516
4660,4548,4512
4664,4548,4512
4660,4544,4508
4664,4544,4512
4660,4540,4512
4660,4544,4508
4660,4544,4512
4664,4544,4512
4664,4544,4512
4660,4540,4508
4660,4540,4508
4656,4540,4508
4660,4540,4508
4660,4544,4508
4660,4544,4508
4660,4544,4508
4660,4544,4508
4660,4544,4512
4656,4544,4508
4660,4548,4512
4660,4552,4516
4660,4548,4512
4660,4552,4512
4660,4556,4516
4660,4556,4516
4664,4560,4520
4664,4564,4520
4660,4564,4520
4664,4564,4520
4664,4568,4524
4664,4572,4528
4664,4572,4524
4664,4572,4524
4664,4576,4524
4664,4580,4528
4664,4580,4528
4668,4584,4532
4672,4592,4536
4668,4588,4532
4664,4588,4536
4668,4588,4536
4668,4588,4532
4668,4584,4532
4664,4580,4528
4660,4568,4520
4660,4564,4516
4656,4560,4516
4660,4560,4516
4656,4556,4516
4660,4560,4516
4660,4556,4516
4660,4556,4516
4656,4552,4512
4656,4552,4512
4660,4556,4516
4656,4552,4512
4656,4552,4512
4656,4552,4512
4656,4552,4512
4656,4552,4512
4656,4552,4512
4656,4552,4512
4660,4556,4516
4660,4556,4520
4660,4560,4516
4664,4564,4520
4664,4564,4524
4660,4564,4520
4660,4564,4520
4664,4572,4524
4660,4568,4520
4664,4572,4524
4660,4572,4524
4664,4572,4524
4664,4580,4528
4664,4580,4528
4664,4580,4528
4664,4584,4532
4664,4584,4532
4664,4588,4532
4668,4592,4536
4668,4588,4536
4664,4592,4536
4664,4596,4536
4668,4596,4540
4668,4592,4540
4664,4592,4536
4664,4580,4532
4664,4580,4528
4660,4572,4520
4656,4568,4520
4656,4560,4516
4656,4560,4516
4652,4560,4516
4652,4556,4512
4652,4556,4512
4652,4556,4512
4652,4556,4512
4652,4552,4512
4656,4556,4512
4652,4552,4512
4652,4552,4512
4652,4552,4512
4652,4548,4508
4652,4552,4508
4652,4548,4508
4652,4548,4508
4652,4548,4512
4652,4556,4512
4652,4552,4512
4652,4552,4512
4652,4552,4512
4652,4556,4512
4652,4552,4512
4652,4556,4512
4652,4560,4516
4656,4560,4520
4656,4564,4520
4656,4564,4520
4656,4564,4520
4656,4564,4520
4656,4568,4520
4660,4572,4524
4656,4572,4524
4656,4568,4520
4656,4564,4520
4652,4556,4512
4652,4548,4512
4648,4544,4504
4648,4540,4504
4648,4536,4504
4648,4536,4500
4644,4532,4500
4644,4528,4496
4644,4528,4492
4640,4528,4496
4640,4524,4492
4640,4524,4492
4640,4524,4492
4640,4520,4488
4640,4520,4488
4640,4516,4488
4640,4520,4492
4640,4520,4488
4644,4520,4492
4644,4520,4492
4644,4524,4492
4644,4524,4496
4644,4524,4496
4644,4524,4496
4644,4528,4496
4644,4532,4496
4648,4536,4500
4648,4536,4504
4648,4536,4504
4648,4540,4504
4648,4544,4504
4648,4540,4504
4648,4544,4508
4648,4548,4508
4652,4548,4508
4648,4544,4508
4652,4544,4508
4648,4532,4500
4640,4520,4492
4636,4512,4484
4636,4508,4484
4632,4504,4480
4632,4500,4476
4632,4500,4476
4632,4496,4476
4632,4496,4476
4632,4496,4476
4632,4492,4472
4632,4496,4476
4632,4492,4472
4628,4488,4472
4628,4488,4468
4628,4488,4468
4624,4484,4464
4628,4484,4468
4628,4484,4468
4628,4488,4472
4628,4488,4472
4632,4492,4472
4628,4488,4472
4632,4496,4476
4632,4496,4476
4632,4496,4476
4636,4500,4480
4636,4504,4484
4636,4508,4484
4636,4504,4484
4636,4508,4488
4632,4508,4484
4632,4504,4480
4636,4512,4488
4636,4512,4488
4640,4516,4492
4636,4516,4488
4636,4508,4488
4632,4500,4480
4628,4492,4472
4624,4484,4468
4624,4480,4464
4620,4472,4460
4620,4468,4456
4620,4464,4456
4620,4460,4452
4620,4460,4452
4616,4456,4452
4620,4460,4452
4616,4456,4448
4612,4452,4444
4612,4452,4448
4612,4448,4444
4612,4448,4444
4612,4448,4444
4612,4448,4444
4616,4452,4448
4616,4456,4448
4612,4452,4448
4612,4452,4444
4616,4456,4448
4616,4456,4448
4620,4464,4456
4620,4468,4456
4624,4468,4460
4624,4468,4460
4624,4472,4460
4624,4472,4460
4624,4476,4464
4624,4476,4464
4624,4476,4460
4624,4480,4464
4624,4484,4464
4624,4484,4468
4628,4492,4472
4624,4488,4468
4628,4496,4472
4628,4496,4472
4624,4496,4472
4624,4496,4472
4624,4488,4472
4624,4484,4468
4624,4476,4464
4620,4472,4460
4620,4468,4456
4624,4468,4460
4620,4464,4456
4616,4460,4452
4616,4460,4448
4620,4460,4452
4620,4460,4452
4620,4460,4452
4624,4464,4456
4620,4460,4452
4620,4460,4452
4616,4460,4452
4616,4456,4452
4616,4460,4452
4616,4460,4452
4616,4460,4452
4620,4464,4452
4620,4464,4456
4620,4468,4456
4620,4468,4460
4624,4472,4460
4624,4476,4464
4624,4480,4464
4624,4480,4464
4624,4480,4464
4624,4484,4464
4628,4488,4468
4624,4484,4468
4624,4484,4464
4624,4488,4468
4632,4496,4472
4632,4500,4476
4632,4500,4480
4628,4500,4472
4628,4500,4476
4628,4500,4476
4628,4500,4476
4628,4496,4472
4628,4492,4472
4624,4480,4464
4624,4480,4460
4620,4476,4460
4624,4476,4464
4628,4476,4464
4624,4476,4460
4624,4476,4460
4624,4476,4460
4624,4476,4464
4628,4480,4464
4628,4480,4464
4624,4480,4460
4628,4480,4464
4628,4480,4464
4628,4484,4468
4628,4484,4468
4628,4484,4468
4628,4484,4468
4628,4488,4468
4632,4492,4472
4632,4492,4476
4632,4496,4476
4628,4492,4472
4632,4496,4476
4632,4496,4476
4632,4500,4476
4632,4500,4476
4632,4504,4476
4632,4504,4480
4632,4508,4480
4636,4512,4484
4636,4516,4484
4636,4516,4484
4636,4520,4488
4636,4524,4492
4636,4520,4488
4632,4516,4484
4632,4508,4484
4632,4504,4480
4632,4500,4476
4628,4496,4472
4628,4492,4472
4628,4492,4472
4624,4488,4468
4628,4492,4468
4628,4488,4468
4624,4484,4464
4624,4484,4464
4620,4484,4464
4620,4484,4460
4620,4480,4464
4620,4480,4460
4620,4476,4460
4620,4480,4460
4620,4480,4460
4620,4480,4460
4620,4484,4460
4620,4484,4464
4620,4484,4464
4624,4488,4464
4624,4492,4468
4624,4496,4468
4624,4496,4468
4624,4496,4468
4624,4496,4468
4628,4500,4472
4628,4500,4476
4628,4504,4476
4628,4504,4476
4628,4504,4476
4628,4508,4476
4628,4508,4476
4632,4516,4484
4628,4516,4484
4636,4524,4488
4632,4524,4488
4636,4528,4488
4632,4528,4492
4632,4524,4488
4628,4516,4484
4628,4512,4480
4624,4504,4476
4624,4500,4472
4624,4496,4468
4620,4496,4464
4620,4488,4464
4620,4488,4464
4620,4484,4460
4620,4484,4460
4616,4480,4456
4616,4484,4460
4620,4480,4456
4616,4480,4456
4620,4480,4460
4620,4480,4460
4616,4476,4456
4616,4476,4452
4616,4476,4456
4612,4476,4452
4616,4476,4456
4612,4476,4456
4616,4484,4460
4616,4484,4464
4616,4488,4464
4616,4488,4460
4616,4488,4464
4616,4488,4464
4616,4488,4460
4620,4496,4468
4620,4496,4468
4620,4500,4468
4624,4500,4472
4624,4504,4472
4624,4504,4472
4624,4504,4476
4624,4508,4476
4624,4512,4476
4628,4516,4480
4624,4516,4480
4628,4520,4484
4628,4524,4484
4632,4524,4488
4628,4520,4484
4628,4516,4480
4624,4508,4476
4624,4500,4472
4620,4500,4468
4620,4496,4468
4620,4496,4468
4624,4496,4472
4620,4492,4464
4620,4488,4464
4620,4488,4464
4620,4488,4464
4620,4488,4464
4616,4484,4460
4620,4484,4464
4620,4488,4464
4620,4488,4464
4616,4484,4460
4616,4484,4460
4616,4484,4460
4616,4484,4460
4616,4484,4460
4620,4488,4464
4616,4488,4464
4620,4492,4464
4616,4492,4464
4620,4492,4464
4616,4492,4464
4620,4496,4464
4616,4492,4464
4616,4496,4464
4616,4496,4464
4616,4496,4464
4616,4496,4468
4616,4500,4468
4616,4500,4468
4616,4500,4468
4616,4504,4468
4616,4504,4468
4616,4500,4468
4616,4496,4464
4616,4492,4464
4612,4484,4456
4608,4476,4452
4608,4476,4448
4608,4476,4452
4608,4472,4452
4604,4468,4448
4604,4468,4444
4604,4468,4448
4600,4464,4440
4600,4464,4444
4604,4464,4444
4600,4460,4440
4596,4456,4440
4600,4456,4440
4596,4456,4440
4596,4456,4440
4596,4456,4436
4596,4456,4436
4596,4456,4436
4596,4452,4436
4596,4456,4436
4596,4456,4436
4596,4460,4440
4596,4464,4444
4600,4464,4440
4596,4464,4444
4600,4468,4444
4600,4468,4448
4600,4468,4448
4604,4472,4448
4604,4476,4452
4604,4476,4452
4604,4480,4452
4600,4480,4452
4604,4484,4456
4608,4488,4456
4604,4488,4460
4604,4484,4456
4604,4480,4452
4604,4472,4448
4596,4464,4444
4596,4460,4436
4596,4456,4436
4596,4452,4440
4596,4452,4436
4592,4452,4432
4592,4448,4432
4592,4444,4432
4592,4448,4432
4592,4448,4432
4592,4448,4432
4592,4448,4432
4592,4444,4432
4592,4448,4432
4592,4448,4432
4592,4448,4432
4592,4448,4432
4592,4448,4432
4592,4448,4432
4596,4452,4436
4592,4452,4436
4596,4456,4440
4596,4460,4440
4596,4460,4440
4600,4464,4444
4600,4468,4444
4600,4468,4444
4596,4468,4444
4600,4472,4448
4600,4476,4452
4600,4480,4452
4604,4484,4456
4604,4484,4456
4604,4488,4460
4608,4492,4460
4604,4488,4456
4604,4492,4460
4608,4500,4468
4604,4500,4464
4608,4500,4464
4608,4508,4468
4612,4508,4472
4612,4504,4472
4608,4500,4464
4608,4496,4464
4604,4488,4456
4604,4484,4456
4604,4488,4456
4604,4488,4460
4604,4484,4456
4604,4484,4452
4604,4484,4456
4604,4484,4456
4604,4484,4456
4604,4488,4460
4604,4488,4460
4608,4488,4460
4600,4484,4456
4600,4480,4452
4600,4484,4452
4600,4484,4456
4600,4484,4456
4604,4488,4460
4600,4488,4456
4600,4488,4456
4600,4492,4460
4604,4496,4460
4608,4500,4464
4608,4500,4464
4608,4504,4468
4608,4508,4468
4608,4508,4472
4608,4508,4472
4608,4512,4472
4608,4512,4472
4612,4516,4476
4612,4520,4480
4616,4524,4480
4616,4528,4484
4616,4528,4484
4616,4532,4484
4620,4536,4488
4616,4536,4488
4616,4536,4488
4616,4536,4488
4612,4532,4480
4612,4528,4484
4608,4520,4476
4608,4516,4472
4608,4516,4472
4608,4516,4472
4608,4516,4472
4608,4512,4472
4608,4512,4472
4608,4516,4476
4612,4520,4476
4608,4516,4472
4608,4520,4476
4612,4524,4480
4612,4524,4480
4608,4524,4480
4608,4516,4472
4604,4520,4472
4608,4520,4472
4612,4528,4480
4612,4528,4480
4612,4532,4480
4616,4536,4488
4612,4532,4484
4612,4536,4484
4612,4536,4484
4612,4540,4488
4616,4548,4492
4620,4552,4496
4620,4552,4496
4620,4556,4496
4616,4552,4496
4616,4552,4496
4616,4556,4496
4620,4560,4500
4620,4560,4500
4624,4564,4500
4620,4568,4504
4620,4564,4504
4620,4564,4504
4620,4556,4500
4616,4552,4496
4612,4544,4488
4616,4548,4492
4620,4552,4492
4612,4544,4488
4612,4540,4488
4612,4540,4484
4612,4540,4488
4612,4544,4488
4612,4540,4484
4612,4544,4488
4612,4544,4488
4608,4540,4484
4608,4536,4480
4604,4536,4480
4608,4536,4480
4608,4540,4484
4608,4540,4484
4608,4544,4484
4612,4548,4488
4616,4552,4496
4612,4552,4492
4612,4552,4492
4612,4552,4492
4612,4556,4492
4612,4556,4492
4612,4556,4492
4612,4556,4492
4612,4556,4492
4612,4560,4492
4616,4564,4496
4612,4564,4500
4616,4568,4500
4616,4568,4504
4616,4572,4500
4616,4572,4504
4616,4576,4504
4616,4572,4504
4616,4568,4500
4612,4560,4496
4612,4556,4492
4608,4548,4488
4608,4544,4488
4608,4544,4484
4604,4540,4484
4604,4540,4484
4604,4536,4480
4604,4536,4480
4604,4536,4480
4604,4532,4480
4608,4536,4484
4608,4536,4484
4604,4532,4480
4600,4528,4476
4600,4524,4472
4600,4524,4476
4596,4524,4472
4600,4528,4472
4600,4528,4476
4600,4528,4476
4600,4528,4476
4600,4528,4476
4600,4528,4476
4600,4532,4476
4604,4536,4480
4604,4536,4484
4604,4536,4480
4600,4536,4476
4600,4536,4476
4600,4536,4480
4600,4536,4480
4600,4536,4480
4600,4540,4480
4604,4540,4484
4608,4548,4488
4604,4548,4488
4604,4548,4488
4608,4548,4488
4608,4548,4488
4604,4548,4484
4604,4548,4484
4608,4544,4484
4604,4540,4480
4604,4532,4476
4600,4524,4472
4596,4516,4468
4596,4512,4464
4596,4516,4468
4596,4508,4464
4596,4508,4460
4592,4508,4460
4592,4504,4460
4592,4504,4460
4592,4500,4456
4596,4504,4460
4592,4500,4460
4592,4496,4456
4588,4496,4452
4588,4496,4456
4592,4496,4456
4588,4496,4452
4588,4496,4452
4592,4496,4456
4588,4496,4452
4592,4496,4452
4588,4496,4452
4592,4500,4456
4592,4500,4456
4592,4500,4460
4596,4504,4460
4596,4504,4460
4596,4508,4460
4592,4508,4460
4596,4508,4464
4596,4512,4464
4596,4512,4464
4596,4516,4464
4596,4516,4468
4600,4520,4472
4600,4520,4468
4600,4524,4472
4600,4524,4472
4600,4520,4472
4600,4512,4468
4596,4508,4464
4596,4500,4460
4592,4496,4456
4592,4492,4452
4588,4484,4448
4588,4484,4448
4588,4480,4444
4588,4480,4448
4588,4480,4448
4588,4480,4444
4584,4476,4440
4588,4476,4444
4588,4480,4448
4588,4476,4444
4588,4476,4444
4588,4472,4444
4588,4472,4444
4588,4472,4444
4584,4468,4444
4584,4472,4440
4588,4472,4444
4584,4472,4440
4588,4476,4444
4584,4476,4444
4584,4476,4444
4584,4476,4444
4588,4476,4444
4588,4480,4444
4592,4484,4452
4592,4484,4452
4592,4484,4452
4592,4484,4452
4592,4488,4452
4592,4488,4452
4592,4488,4452
4596,4492,4456
4592,4488,4452
4592,4484,4448
4588,4472,4440
4584,4464,4436
4584,4456,4436
4580,4448,4428
4580,4448,4424
4580,4444,4424
4580,4444,4424
4580,4440,4424
4576,4436,4424
4576,4436,4420
4576,4432,4416
4572,4432,4412
4576,4432,4416
4576,4432,4416
4576,4428,4416
4576,4432,4416
4572,4428,4416
4576,4432,4416
4576,4432,4416
4576,4432,4420
4576,4432,4420
4576,4432,4420
4576,4436,4416
4576,4432,4416
4576,4436,4416
4580,4440,4424
4576,4440,4420
4580,4440,4420
4576,4440,4420
4576,4444,4424
4580,4444,4428
4580,4444,4424
4580,4448,4428
4584,4452,4432
4584,4456,4432
4584,4456,4436
4584,4456,4432
4580,4452,4428
4580,4444,4424
4580,4436,4420
4576,4428,4416
4572,4420,4412
4568,4412,4404
4564,4404,4396
4564,4404,4396
4564,4400,4396
4564,4396,4392
4564,4396,4396
4568,4400,4396
4568,4400,4396
4564,4396,4396
4564,4396,4392
4560,4388,4388
4560,4388,4388
4564,4392,4388
4564,4392,4392
4564,4392,4392
4564,4392,4388
4564,4392,4392
4564,4392,4392
4564,4396,4392
4564,4396,4392
4568,4400,4396
4568,4404,4400
4568,4404,4396
4568,4408,4400
4568,4408,4400
4568,4408,4400
4572,4412,4404
4572,4416,4408
4576,4420,4412
4572,4420,4408
4576,4424,4412
4576,4424,4412
4580,4428,4416
4580,4436,4420
4580,4436,4420
4580,4436,4420
4584,4440,4424
4580,4432,4420
4580,4428,4416
4572,4412,4404
4572,4404,4400
4572,4400,4396
4568,4396,4392
4568,4392,4392
4568,4388,4392
4568,4388,4392
4568,4388,4388
4568,4388,4388
4568,4388,4392
4568,4388,4388
4568,4384,4388
4568,4384,4388
4568,4380,4388
4564,4380,4384
4568,4380,4388
4564,4380,4384
4564,4384,4384
4568,4384,4388
4568,4388,4392
4568,4388,4388
4568,4392,4392
4568,4392,4392
4568,4396,4392
4572,4396,4396
4572,4400,4396
4576,4404,4400
4576,4408,4404
4576,4408,4404
4576,4408,4404
4576,4412,4404
4580,4416,4408
4580,4420,4412
4580,4420,4412
4576,4420,4408
4580,4424,4412
4580,4428,4416
4584,4428,4416
4584,4428,4416
4584,4432,4420
4580,4424,4412
4576,4412,4404
4576,4408,4404
4576,4400,4400
4576,4396,4400
4576,4392,4396
4576,4392,4392
4572,4388,4392
4568,4388,4388
4572,4388,4392
4568,4388,4392
4572,4388,4392
4572,4388,4392
4568,4388,4388
4572,4388,4392
4572,4384,4388
4572,4384,4388
4572,4384,4388
4572,4388,4392
4572,4392,4392
4572,4392,4392
4572,4396,4396
4572,4396,4396
4572,4396,4396
4572,4396,4396
4576,4400,4400
4576,4404,4400
4576,4408,4400
4576,4408,4404
4576,4408,4404
4580,4412,4408
4580,4416,4408
4580,4416,4412
4580,4420,4408
4580,4420,4412
4580,4424,4412
4580,4420,4408
4580,4420,4408
4576,4412,4404
4576,4404,4400
4576,4400,4396
4572,4392,4392
4572,4388,4392
4572,4384,4388
4568,4384,4384
4568,4380,4384
4568,4384,4384
4568,4380,4384
4572,4384,4388
4572,4384,4388
4572,4388,4388
4568,4384,4388
4568,4384,4384
4568,4380,4384
4568,4380,4384
4568,4380,4384
4568,4384,4388
4568,4384,4384
4568,4384,4384
4576,4392,4392
4572,4392,4392
4576,4396,4396
4576,4396,4396
4576,4400,4396
4576,4400,4396
4580,4404,4400
4576,4408,4400
4576,4408,4404
4576,4408,4400
4576,4412,4404
4576,4412,4404
4576,4416,4404
4580,4420,4408
4584,4428,4412
4584,4428,4412
4584,4424,4412
4580,4420,4408
4576,4408,4404
4576,4404,4396
4572,4392,4392
4576,4392,4392
4572,4388,4388
4572,4388,4388
4572,4384,4388
4568,4384,4388
4568,4384,4384
4572,4388,4388
4572,4384,4388
4572,4384,4388
4572,4384,4384
4572,4384,4384
4572,4384,4388
4572,4384,4388
4572,4384,4384
4568,4384,4384
4572,4388,4388
4572,4388,4388
4572,4392,4392
4572,4396,4392
4576,4400,4392
4576,4400,4396
4572,4400,4396
4572,4400,4396
4576,4404,4400
4576,4408,4400
4576,4408,4400
4580,4412,4404
4576,4416,4404
4580,4420,4408
4576,4416,4408
4580,4424,4408
4580,4424,4408
4580,4424,4412
4580,4428,4412
4580,4432,4416
4580,4428,4412
4580,4428,4412
4580,4420,4408
4576,4412,4404
4572,4404,4396
4572,4396,4392
4572,4392,4388
4568,4388,4388
4568,4388,4388
4568,4384,4384
4568,4384,4384
4568,4384,4384
4568,4384,4384
4568,4384,4388
4568,4380,4384
4568,4380,4380
4564,4376,4376
4564,4376,4380
4568,4376,4380
4564,4376,4376
4564,4376,4380
4564,4380,4380
4564,4380,4380
4564,4380,4380
4564,4384,4380
4568,4384,4384
4568,4388,4388
4572,4392,4388
4568,4392,4388
4568,4392,4388
4572,4396,4392
4572,4400,4392
4572,4400,4392
4568,4400,4392
4568,4404,4396
4572,4408,4396
4572,4408,4396
4572,4412,4400
4572,4412,4400
4572,4416,4404
4576,4420,4404
4576,4420,4404
4576,4424,4408
4576,4420,4408
4576,4416,4400
4576,4408,4400
4572,4400,4392
4568,4388,4388
4564,4384,4380
4564,4380,4380
4564,4380,4380
4564,4380,4380
4564,4376,4376
4560,4376,4376
4560,4376,4376
4560,4372,4372
4560,4372,4372
4560,4372,4372
4556,4372,4372
4560,4372,4372
4560,4372,4372
4560,4368,4372
4560,4372,4372
4556,4368,4372
4560,4372,4372
4560,4376,4376
4560,4376,4376
4564,4380,4380
4560,4380,4380
4560,4380,4380
4560,4384,4380
4560,4388,4380
4564,4388,4384
4564,4392,4388
4568,4396,4388
4564,4396,4388
4564,4400,4392
4564,4396,4388
4564,4400,4392
4568,4408,4396
4568,4408,4396
4568,4412,4400
4568,4412,4400
4568,4416,4400
4572,4420,4404
4568,4420,4404
4572,4416,4404
4568,4412,4400
4568,4400,4388
4564,4396,4388
4560,4384,4380
4560,4384,4380
4560,4380,4376
4560,4376,4376
4560,4376,4376
4560,4376,4380
4556,4372,4372
4556,4372,4372
4556,4372,4372
4556,4372,4372
4556,4372,4376
4556,4372,4372
4556,4372,4372
4556,4368,4372
4556,4372,4372
4556,4372,4372
4556,4372,4376
4556,4372,4376
4556,4372,4376
4560,4380,4380
4556,4380,4376
4556,4380,4376
4556,4380,4376
4560,4384,4380
4560,4384,4380
4560,4388,4384
4560,4392,4384
4564,4400,4388
4564,4400,4388
4568,4400,4392
4568,4404,4396
4568,4408,4392
4568,4412,4400
4572,4412,4400
4572,4416,4400
4572,4420,4404
4576,4424,4408
4572,4424,4404
4576,4424,4404
4568,4412,4400
4568,4404,4396
4568,4400,4392
4564,4388,4388
4560,4384,4384
4560,4380,4376
4560,4380,4380
4560,4380,4376
4556,4376,4376
4556,4376,4372
4556,4372,4372
4556,4372,4376
4556,4376,4372
4556,4372,4376
4560,4376,4376
4556,4372,4372
4556,4372,4376
4560,4372,4376
4556,4372,4376
4556,4372,4372
4556,4376,4376
4560,4380,4376
4556,4376,4376
4560,4380,4380
4556,4384,4380
4560,4384,4380
4560,4384,4380
4560,4388,4384
4560,4388,4384
4560,4392,4384
4564,4396,4388
4560,4396,4388
4560,4396,4388
4564,4400,4392
4564,4400,4392
4568,4408,4396
4564,4408,4392
4568,4412,4396
4568,4412,4396
4568,4416,4400
4568,4416,4404
4568,4412,4400
4564,4408,4392
4564,4400,4388
4564,4396,4388
4560,4388,4384
4560,4384,4380
4560,4380,4380
4556,4380,4380
4556,4380,4376
4560,4380,4380
4556,4376,4376
4556,4380,4376
4560,4380,4380
4556,4380,4376
4556,4376,4376
4552,4372,4372
4552,4372,4372
4552,4372,4372
4552,4372,4372
4556,4372,4372
4552,4372,4372
4552,4372,4372
4556,4380,4376
4556,4380,4376
4556,4380,4376
4556,4384,4380
4556,4384,4380
4556,4388,4380
4556,4388,4384
4556,4388,4380
4560,4392,4384
4556,4392,4384
4560,4392,4388
4560,4396,4388
4560,4400,4392
4564,4404,4392
4564,4404,4392
4564,4408,4392
4564,4408,4396
4564,4404,4392
4560,4400,4388
4560,4392,4384
4556,4384,4380
4556,4380,4376
4556,4376,4376
4556,4376,4376
4556,4376,4376
4556,4376,4376
4552,4368,4372
4556,4372,4372
4552,4372,4372
4552,4372,4368
4552,4372,4372
4556,4372,4372
4552,4372,4372
4548,4364,4368
4552,4368,4368
4552,4368,4368
4552,4368,4368
4552,4372,4376
4556,4376,4376
4556,4376,4376
4556,4380,4376
4556,4384,4380
4556,4384,4380
4560,4388,4380
4560,4388,4384
4560,4392,4384
4560,4392,4380
4560,4396,4384
4564,4400,4392
4564,4400,4392
4568,4404,4392
4564,4404,4392
4564,4404,4392
4564,4400,4392
4560,4396,4388
4560,4392,4388
4556,4380,4376
4556,4376,4376
4552,4368,4372
4548,4364,4368
4548,4364,4364
4548,4360,4360
4548,4360,4364
4544,4356,4360
4548,4360,4364
4548,4360,4364
4548,4356,4360
4548,4356,4364
4544,4352,4356
4544,4352,4360
4548,4356,4360
4544,4356,4360
4544,4352,4360
4548,4356,4360
4548,4360,4364
4552,4364,4368
4548,4360,4364
4548,4364,4368
4552,4364,4368
4548,4368,4368
4548,4368,4368
4548,4368,4364
4548,4368,4368
4548,4368,4364
4548,4372,4372
4548,4372,4372
4548,4376,4372
4548,4376,4372
4548,4380,4372
4548,4380,4372
4552,4384,4376
4552,4388,4376
4552,4384,4376
4552,4376,4376
4548,4368,4368
4540,4356,4360
4540,4348,4356
4536,4344,4352
4532,4336,4344
4532,4332,4344
4536,4332,4344
4536,4328,4344
4532,4328,4340
4532,4328,4340
4532,4324,4340
4532,4324,4340
4532,4324,4336
4532,4320,4336
4532,4324,4336
4532,4324,4336
4532,4324,4340
4528,4320,4336
4532,4324,4336
4532,4324,4340
4532,4324,4336
4528,4324,4336
4532,4332,4340
4532,4332,4344
4536,4336,4344
4532,4336,4344
4532,4336,4344
4532,4340,4344
4532,4340,4344
4536,4344,4348
4536,4348,4352
4536,4352,4352
4536,4348,4352
4540,4356,4356
4540,4356,4356
4540,4360,4360
4540,4360,4360
4540,4364,4360
4544,4368,4364
4540,4364,4360
4540,4360,4360
4536,4352,4356
4536,4344,4348
4536,4336,4348
4536,4336,4344
4532,4332,4340
4532,4328,4340
4532,4324,4340
4528,4324,4336
4532,4324,4336
4528,4320,4336
4528,4320,4336
4532,4324,4340
4528,4320,4336
4532,4324,4336
4528,4324,4336
4528,4320,4336
4528,4320,4336
4528,4324,4336
4532,4324,4336
4528,4328,4340
4532,4328,4340
4532,4332,4340
4532,4336,4344
4532,4336,4344
4536,4340,4348
4536,4344,4352
4536,4348,4352
4536,4348,4356
4540,4356,4356
4540,4356,4356
4540,4360,4360
4540,4364,4360
4544,4368,4364
4544,4368,4364
4544,4368,4364
4544,4372,4368
4544,4372,4368
4544,4376,4368
4548,4380,4372
4548,4388,4380
4552,4392,4380
4548,4384,4376
4548,4380,4372
4544,4376,4372
4540,4368,4360
4544,4364,4360
4544,4360,4360
4540,4356,4356
4540,4356,4356
4540,4356,4356
4536,4352,4356
4540,4352,4356
4540,4352,4356
4540,4356,4356
4540,4356,4356
4540,4356,4360
4540,4356,4356
4540,4356,4360
4540,4356,4356
4544,4360,4360
4540,4356,4360
4540,4356,4360
4540,4360,4360
4536,4356,4356
4540,4360,4360
4540,4360,4360
4540,4364,4360
4540,4364,4364
4544,4368,4364
4540,4368,4364
4544,4372,4368
4544,4376,4364
4540,4376,4364
4540,4376,4368
4544,4380,4372
4544,4384,4372
4544,4388,4372
4544,4388,4376
4548,4392,4380
4548,4400,4384
4548,4400,4380
4552,4404,4388
4552,4408,4388
4552,4404,4388
4548,4400,4384
4548,4400,4384
4544,4388,4376
4544,4384,4368
4540,4380,4368
4540,4376,4368
4540,4376,4368
4540,4372,4364
4540,4372,4364
4540,4372,4364
4540,4372,4364
4540,4372,4364
4540,4376,4368
4544,4376,4368
4540,4372,4364
4540,4376,4364
4544,4376,4368
4544,4376,4368
4544,4376,4368
4544,4380,4372
4544,4384,4372
4544,4384,4372
4544,4384,4376
4548,4388,4372
4548,4392,4376
4548,4392,4376
4548,4396,4380
4552,4400,4384
4552,4404,4384
4552,4404,4384
4552,4408,4388
4552,4404,4384
4552,4408,4388
4556,4412,4392
4556,4416,4396
4556,4420,4396
4552,4420,4392
4556,4424,4396
4560,4428,4400
4560,4432,4400
4564,4436,4408
4564,4436,4404
4564,4436,4408
4560,4428,4404
4564,4424,4400
4560,4420,4400
4560,4416,4396
4560,4416,4396
4560,4416,4396
4560,4416,4396
4560,4416,4396
4560,4416,4396
4560,4416,4396
4560,4416,4396
4564,4420,4400
4564,4420,4396
4564,4420,4396
4564,4420,4400
4564,4420,4400
4564,4420,4400
4564,4420,4400
4564,4424,4400
4568,4428,4404
4568,4428,4404
4568,4432,4404
4568,4432,4408
4568,4436,4408
4572,4440,4408
4572,4440,4408
4572,4444,4416
4576,4448,4420
4576,4448,4420
4576,4452,4420
4572,4452,4416
4576,4452,4420
4576,4456,4424
4576,4456,4424
4576,4460,4424
4580,4464,4428
4580,4464,4428
4580,4468,4428
4580,4472,4432
4584,4468,4432
4584,4468,4428
4584,4464,4428
4580,4460,4428
4580,4452,4424
4580,4452,4424
4580,4452,4420
4580,4452,4424
4580,4452,4424
4584,4456,4424
4584,4460,4428
4584,4460,4424
4588,4464,4432
4588,4464,4432
4588,4460,4432
4588,4460,4428
4588,4460,4428
4588,4460,4432
4588,4464,4432
4592,4464,4432
4588,4468,4432
4588,4464,4432
4588,4468,4432
4592,4472,4436
4592,4476,4440
4592,4476,4440
4592,4480,4440
4596,4480,4444
4592,4480,4440
4596,4484,4444
4596,4484,4444
4596,4488,4444
4596,4488,4448
4596,4488,4444
4596,4492,4448
4596,4496,4452
4600,4496,4448
4596,4492,4448
4596,4484,4444
4596,4480,4444
4596,4476,4440
4592,4472,4436
4592,4468,4432
4592,4468,4432
4592,4464,4432
4592,4464,4432
4592,4468,4436
4592,4464,4432
4592,4468,4436
4588,4464,4432
4588,4464,4432
4592,4464,4432
4592,4468,4436
4592,4468,4436
4592,4468,4432
4596,4468,4436
4596,4472,4436
4596,4472,4436
4596,4472,4436
4596,4476,4440
4596,4476,4440
4596,4476,4440
4592,4476,4440
4596,4484,4444
4600,4484,4444
4596,4484,4444
4596,4488,4444
4596,4488,4448
4600,4492,4448
4600,4496,4448
4600,4496,4452
4600,4496,4452
4600,4496,4452
4600,4488,4448
4596,4480,4440
4596,4476,4440
4596,4472,4440
4596,4472,4440
4596,4464,4436
4596,4464,4436
4596,4464,4436
4596,4464,4436
4596,4464,4436
4596,4460,4432
4596,4460,4432
4596,4464,4436
4596,4460,4432
4592,4460,4432
4596,4460,4432
4596,4460,4436
4596,4460,4432
4596,4460,4432
4596,4464,4436
4596,4464,4432
4596,4464,4436
4600,4468,4436
4600,4472,4440
