5656,6716,7452
5660,6716,7456
5660,6720,7456
5660,6724,7460
5668,6736,7472
5664,6732,7468
5664,6732,7468
5660,6728,7464
5660,6728,7464
5656,6720,7456
5648,6708,7444
5648,6704,7440
5652,6704,7444
5648,6692,7432
5652,6700,7440
5652,6700,7440
5648,6696,7436
5648,6696,7436
5656,6704,7444
5652,6700,7440
5652,6700,7440
5652,6700,7440
5652,6704,7440
5656,6708,7444
5656,6708,7448
5652,6704,7444
5652,6708,7444
5652,6708,7444
5656,6712,7448
5656,6716,7452
5656,6716,7448
5656,6720,7456
5660,6724,7456
5656,6720,7456
5656,6720,7456
5652,6720,7452
5652,6716,7452
5652,6712,7448
5652,6708,7444
5648,6700,7436
5648,6696,7432
5648,6692,7428
5644,6684,7424
5644,6684,7424
5644,6684,7420
5644,6688,7424
5644,6684,7424
5644,6688,7424
5640,6680,7420
5644,6684,7424
5640,6680,7416
5644,6684,7420
5644,6684,7424
5644,6684,7424
5644,6688,7428
5644,6684,7420
5644,6688,7424
5640,6684,7420
5640,6684,7420
5644,6692,7428
5644,6692,7428
5640,6688,7424
5640,6692,7424
5640,6688,7424
5632,6676,7412
5636,6672,7408
5632,6668,7408
5632,6660,7400
5632,6656,7400
5628,6656,7396
5632,6660,7400
5632,6656,7400
5632,6656,7400
5632,6660,7404
5636,6660,7404
5636,6664,7408
5632,6660,7400
5636,6660,7404
5636,6664,7408
5636,6664,7408
5640,6668,7412
5632,6664,7404
5636,6664,7408
5636,6664,7404
5632,6668,7404
5636,6668,7408
5632,6668,7404
5636,6672,7412
5640,6676,7416
5632,6672,7408
5636,6672,7412
5632,6664,7404
5632,6664,7404
5632,6660,7400
5628,6652,7392
5624,6644,7388
5624,6644,7384
5628,6648,7392
5628,6644,7388
5628,6648,7392
5628,6652,7396
5632,6652,7396
5636,6660,7404
5636,6664,7404
5636,6664,7404
5636,6664,7404
5636,6668,7408
5636,6668,7412
5640,6676,7416
5636,6672,7412
5640,6680,7420
5640,6684,7420
5640,6688,7424
5640,6688,7428
5644,6696,7432
5644,6696,7432
5648,6704,7440
5644,6696,7432
5644,6696,7432
5636,6680,7420
5636,6680,7416
5632,6672,7408
5632,6668,7408
5632,6664,7404
5636,6672,7408
5636,6676,7416
5640,6676,7416
5636,6676,7416
5636,6676,7416
5640,6680,7420
5636,6680,7416
5640,6688,7424
5640,6688,7428
5640,6692,7424
5644,6696,7432
5644,6696,7432
5644,6700,7432
5648,6704,7440
5652,6712,7448
5648,6716,7448
5652,6716,7452
5652,6720,7452
5652,6720,7452
5652,6724,7452
5652,6724,7456
5652,6724,7452
5644,6712,7440
5644,6708,7440
5644,6704,7440
5648,6708,7440
5644,6704,7436
5644,6700,7436
5644,6700,7436
5640,6700,7432
5648,6708,7440
5640,6704,7436
5640,6700,7432
5640,6704,7436
5644,6708,7440
5644,6708,7440
5644,6712,7444
5644,6712,7444
5652,6724,7452
5644,6720,7448
5648,6728,7456
5652,6732,7456
5648,6732,7460
5656,6744,7472
5656,6748,7472
5660,6756,7480
5656,6752,7476
5656,6752,7476
5652,6740,7468
5648,6736,7460
5648,6732,7456
5648,6732,7460
5640,6720,7448
5648,6728,7452
5644,6724,7448
5648,6728,7456
5648,6732,7460
5648,6732,7460
5652,6740,7464
5648,6736,7460
5648,6736,7460
5648,6740,7464
5652,6740,7468
5648,6740,7464
5652,6744,7468
5652,6748,7472
5656,6752,7476
5652,6752,7476
5652,6752,7476
5652,6756,7480
5652,6756,7476
5656,6764,7484
5656,6764,7484
5656,6768,7492
5656,6764,7484
5656,6768,7488
5648,6756,7476
5648,6752,7476
5648,6748,7472
5648,6748,7472
5644,6736,7460
5644,6740,7464
5644,6740,7464
5644,6736,7460
5644,6736,7460
5644,6740,7464
5644,6736,7460
5644,6736,7460
5648,6744,7468
5644,6744,7468
5644,6744,7464
5648,6748,7468
5648,6748,7472
5652,6752,7476
5648,6752,7476
5648,6756,7476
5652,6760,7480
5648,6756,7476
5652,6764,7480
5648,6764,7480
5652,6764,7484
5648,6760,7480
5648,6764,7484
5644,6756,7476
5640,6748,7468
5640,6748,7468
5640,6744,7468
5640,6744,7464
5640,6740,7460
5640,6744,7464
5644,6748,7468
5644,6748,7468
5644,6748,7468
5640,6748,7468
5644,6752,7472
5640,6752,7468
5644,6752,7472
5644,6756,7476
5644,6760,7476
5648,6764,7480
5648,6768,7488
5652,6776,7492
5652,6776,7496
5652,6780,7496
5648,6784,7496
5652,6784,7500
5656,6796,7508
5656,6796,7512
5656,6800,7512
5656,6796,7508
5656,6792,7508
5652,6788,7504
5652,6788,7500
5648,6784,7496
5652,6784,7500
5656,6788,7504
5660,6796,7512
5656,6788,7504
5656,6792,7508
5652,6788,7504
5660,6800,7512
5656,6796,7512
5660,6800,7512
5660,6804,7516
5660,6800,7516
5656,6800,7512
5660,6808,7520
5660,6812,7520
5664,6816,7528
5664,6820,7528
5664,6824,7532
5664,6824,7532
5664,6824,7532
5668,6828,7536
5668,6832,7540
5664,6832,7536
5668,6832,7540
5664,6828,7536
5660,6820,7528
5660,6816,7524
5656,6808,7516
5652,6804,7512
5660,6812,7520
5660,6812,7524
5660,6816,7524
5664,6816,7524
5664,6820,7528
5664,6820,7532
5664,6820,7528
5660,6816,7524
5660,6816,7524
5660,6820,7524
5664,6820,7532
5660,6820,7528
5664,6828,7532
5668,6832,7540
5668,6836,7540
5672,6844,7548
5672,6844,7552
5672,6844,7548
5668,6844,7548
5672,6848,7552
5672,6852,7552
5672,6852,7552
5668,6844,7548
5668,6844,7548
5664,6836,7540
5664,6832,7540
5664,6828,7532
5664,6828,7536
5660,6820,7528
5664,6824,7532
5668,6828,7536
5664,6828,7536
5668,6828,7536
5668,6832,7536
5668,6832,7540
5668,6828,7536
5664,6828,7532
5668,6836,7540
5668,6836,7540
5668,6836,7540
5668,6836,7540
5668,6840,7544
5672,6844,7548
5676,6848,7548
5676,6848,7552
5672,6848,7552
5672,6848,7548
5672,6848,7548
5668,6848,7548
5672,6848,7548
5664,6840,7540
5668,6844,7544
5664,6832,7536
5664,6828,7532
5660,6820,7524
5660,6816,7520
5660,6812,7516
5660,6812,7516
5660,6808,7512
5664,6812,7520
5660,6812,7516
5660,6808,7516
5660,6808,7512
5656,6804,7508
5656,6804,7508
5660,6804,7512
5656,6804,7508
5660,6804,7508
5656,6804,7508
5656,6804,7508
5656,6804,7508
5660,6808,7512
5660,6808,7512
5656,6804,7508
5660,6808,7512
5660,6812,7516
5664,6816,7520
5664,6816,7520
5660,6812,7516
5656,6804,7508
5660,6804,7508
5652,6788,7496
5652,6784,7492
5648,6776,7488
5648,6772,7480
5644,6768,7476
5648,6772,7480
5648,6768,7480
5648,6768,7480
5648,6768,7484
5648,6768,7480
5648,6768,7476
5648,6768,7480
5648,6768,7480
5648,6768,7480
5652,6772,7484
5652,6776,7484
5652,6776,7488
5652,6776,7488
5652,6776,7484
5656,6780,7488
5656,6780,7488
5652,6780,7488
5656,6784,7492
5656,6784,7496
5652,6784,7492
5652,6784,7492
5656,6788,7496
5652,6776,7488
5652,6772,7484
5648,6768,7480
5648,6760,7472
5648,6760,7472
5652,6760,7476
5652,6760,7472
5652,6764,7476
5656,6764,7480
5652,6760,7476
5652,6760,7476
5652,6764,7476
5652,6764,7476
5652,6768,7480
5652,6764,7480
5652,6764,7480
5656,6768,7480
5656,6772,7480
5656,6776,7488
5656,6780,7488
5656,6780,7488
5660,6784,7492
5660,6784,7496
5664,6792,7504
5664,6792,7500
5660,6792,7496
5660,6792,7500
5660,6788,7496
5664,6788,7500
5660,6784,7496
5660,6780,7492
5660,6776,7488
5656,6768,7484
5656,6764,7480
5652,6756,7472
5652,6756,7472
5652,6760,7472
5656,6760,7476
5656,6760,7476
5656,6764,7480
5656,6764,7476
5652,6760,7472
5656,6764,7480
5656,6764,7480
5656,6764,7480
5656,6768,7480
5656,6764,7476
5656,6768,7480
5660,6776,7488
5656,6772,7484
5660,6776,7488
5660,6776,7488
5660,6784,7492
5664,6788,7500
5664,6788,7500
5664,6788,7500
5664,6784,7496
5656,6772,7484
5656,6768,7480
5652,6760,7476
5652,6756,7468
5652,6752,7468
5652,6752,7468
5652,6752,7468
5652,6748,7468
5652,6748,7464
5652,6752,7468
5652,6752,7468
5652,6752,7468
5656,6752,7468
5656,6752,7468
5660,6760,7476
5656,6756,7472
5656,6756,7472
5656,6760,7472
5656,6760,7476
5660,6764,7480
5660,6768,7484
5660,6768,7484
5660,6768,7484
5664,6776,7492
5664,6776,7488
5664,6776,7488
5664,6780,7492
5664,6776,7488
5656,6764,7476
5656,6756,7472
5652,6748,7468
5648,6740,7456
5648,6736,7452
5648,6736,7456
5648,6732,7452
5648,6732,7452
5648,6732,7452
5656,6740,7460
5656,6740,7460
5652,6740,7460
5652,6736,7456
5652,6736,7456
5652,6736,7456
5652,6740,7460
5652,6740,7456
5652,6740,7460
5656,6744,7464
5656,6744,7460
5656,6748,7464
5652,6748,7464
5652,6748,7464
5656,6752,7468
5656,6752,7468
5656,6756,7472
5652,6748,7464
5652,6748,7464
5652,6740,7460
5648,6732,7448
5644,6724,7444
5644,6716,7440
5640,6712,7432
5640,6704,7428
5636,6700,7424
5636,6704,7424
5640,6704,7428
5640,6704,7428
5640,6704,7428
5640,6704,7428
5640,6704,7428
5640,6704,7428
5640,6704,7428
5640,6704,7428
5640,6704,7424
5640,6704,7428
5644,6712,7432
5644,6712,7436
5644,6712,7436
5648,6716,7440
5648,6716,7440
5644,6716,7436
5644,6716,7440
5644,6712,7436
5644,6708,7432
5640,6704,7428
5640,6696,7424
5632,6684,7412
5632,6680,7404
5628,6672,7400
5628,6668,7396
5628,6664,7396
5624,6664,7392
5624,6664,7392
5628,6668,7400
5628,6668,7396
5628,6664,7396
5628,6668,7396
5628,6668,7396
5628,6664,7396
5628,6664,7396
5628,6664,7396
5632,6668,7400
5632,6668,7400
5632,6672,7404
5632,6672,7400
5632,6676,7404
5632,6676,7404
5632,6680,7408
5636,6684,7412
5636,6680,7412
5632,6672,7404
5628,6668,7400
5624,6660,7392
5624,6652,7388
5624,6648,7384
5624,6644,7380
5624,6644,7380
5624,6644,7380
5624,6640,7376
5628,6648,7384
5628,6648,7384
5628,6648,7384
5628,6648,7384
5628,6648,7384
5628,6652,7384
5632,6656,7392
5624,6648,7384
5632,6660,7396
5632,6656,7392
5632,6660,7392
5632,6660,7392
5632,6664,7396
5632,6664,7400
5636,6668,7400
5636,6668,7400
5632,6668,7400
5628,6664,7396
5628,6660,7392
5628,6652,7388
5628,6648,7384
5620,6636,7376
5624,6636,7372
5624,6636,7376
5624,6632,7372
5624,6632,7372
5624,6632,7372
5624,6632,7372
5624,6632,7372
5624,6632,7372
5624,6636,7372
5624,6632,7372
5624,6636,7372
5628,6636,7376
5624,6636,7376
5628,6644,7380
5624,6640,7376
5628,6644,7384
5632,6648,7388
5632,6648,7388
5632,6652,7388
5628,6652,7388
5628,6652,7388
5628,6652,7388
5628,6648,7384
5628,6644,7380
5624,6636,7376
5624,6628,7368
5620,6620,7364
5620,6620,7364
5620,6612,7356
5620,6612,7356
5620,6612,7356
5620,6616,7360
5624,6616,7360
5624,6620,7360
5624,6620,7364
5624,6620,7364
5628,6624,7368
5628,6624,7368
5628,6624,7368
5624,6624,7364
5624,6620,7364
5624,6624,7368
5624,6628,7368
5628,6632,7372
5628,6636,7376
5628,6636,7376
5628,6640,7380
5628,6636,7376
5628,6640,7380
5628,6636,7372
5624,6628,7364
5620,6620,7360
5620,6612,7356
5616,6604,7352
5620,6608,7352
5620,6604,7348
5620,6604,7352
5620,6604,7352
5620,6608,7352
5620,6608,7352
5624,6612,7356
5624,6612,7356
5624,6616,7360
5624,6612,7356
5624,6612,7356
5628,6620,7364
5624,6616,7360
5624,6616,7360
5624,6616,7360
5628,6624,7368
5628,6624,7368
5628,6628,7372
5628,6628,7372
5632,6636,7376
5628,6632,7372
5628,6632,7372
5624,6628,7364
5624,6624,7364
5624,6616,7360
5620,6612,7356
5620,6604,7352
5616,6600,7344
5612,6592,7340
5612,6588,7336
5608,6584,7328
5608,6584,7328
5612,6588,7332
5612,6592,7336
5612,6588,7336
5608,6584,7332
5612,6584,7332
5612,6588,7332
5612,6588,7332
5612,6592,7336
5612,6592,7336
5612,6592,7336
5620,6604,7344
5616,6600,7344
5616,6604,7348
5620,6608,7352
5616,6608,7348
5616,6608,7348
5620,6616,7356
5616,6608,7352
5612,6600,7340
5612,6596,7336
5608,6584,7332
5604,6576,7320
5604,6576,7320
5608,6580,7324
5604,6572,7320
5604,6568,7316
5604,6572,7320
5604,6572,7320
5608,6580,7324
5608,6580,7328
5604,6576,7320
5608,6580,7324
5608,6584,7332
5608,6584,7328
5608,6584,7328
5612,6592,7336
5616,6592,7340
5616,6596,7340
5612,6596,7340
5612,6596,7340
5612,6596,7340
5612,6600,7340
5612,6604,7344
5612,6604,7344
5612,6604,7344
5608,6596,7336
5604,6592,7332
5604,6584,7328
5604,6584,7328
5608,6584,7328
5604,6580,7324
5604,6580,7324
5604,6580,7324
5604,6580,7320
5608,6584,7328
5608,6588,7332
5608,6588,7332
5612,6592,7336
5616,6600,7340
5612,6596,7340
5612,6600,7340
5612,6600,7344
5612,6600,7340
5616,6608,7348
5616,6612,7348
5616,6616,7352
5616,6620,7356
5620,6624,7360
5620,6624,7360
5620,6632,7364
5620,6632,7368
5624,6636,7372
5624,6636,7372
5620,6632,7368
5620,6628,7368
5616,6620,7356
5612,6616,7352
5612,6612,7348
5612,6608,7348
5616,6608,7348
5608,6604,7340
5608,6604,7344
5612,6608,7348
5612,6612,7348
5616,6612,7352
5616,6612,7352
5616,6616,7356
5616,6620,7356
5612,6616,7352
5620,6624,7364
5616,6624,7360
5616,6624,7360
5620,6632,7364
5620,6632,7368
5620,6636,7368
5620,6640,7372
5624,6644,7376
5624,6652,7384
5624,6652,7384
5628,6660,7392
5628,6660,7388
5628,6660,7392
5624,6652,7384
5624,6652,7384
5620,6640,7372
5616,6632,7368
5612,6628,7360
5616,6628,7364
5616,6628,7364
5616,6628,7364
5620,6632,7364
5620,6636,7372
5620,6636,7372
5620,6636,7368
5624,6644,7376
5624,6644,7376
5620,6640,7376
5620,6644,7376
5620,6644,7376
5620,6644,7380
5620,6648,7380
5620,6648,7376
5624,6656,7384
5624,6660,7388
5624,6660,7388
5624,6664,7392
5628,6672,7396
5632,6672,7400
5632,6676,7404
5628,6680,7404
5632,6676,7404
5628,6676,7404
5628,6668,7396
5624,6664,7392
5620,6656,7384
5624,6652,7384
5620,6648,7380
5620,6644,7376
5616,6644,7372
5620,6648,7376
5620,6648,7380
5616,6644,7376
5620,6648,7376
5620,6648,7376
5624,6656,7384
5624,6652,7384
5620,6656,7384
5624,6660,7388
5624,6660,7388
5624,6664,7392
5624,6664,7392
5620,6660,7388
5620,6664,7392
5620,6664,7388
5624,6672,7396
5624,6672,7396
5624,6672,7396
5628,6676,7400
5624,6676,7400
5624,6672,7396
5620,6672,7392
5620,6664,7388
5620,6660,7384
5616,6656,7380
5616,6648,7376
5612,6644,7372
5612,6640,7368
5612,6640,7368
5612,6640,7368
5612,6640,7372
5608,6636,7364
5608,6636,7364
5608,6636,7364
5612,6636,7364
5608,6636,7364
5612,6640,7368
5612,6640,7368
5608,6636,7368
5612,6640,7368
5612,6644,7372
5616,6652,7380
5620,6656,7384
5616,6656,7384
5620,6660,7392
5620,6664,7388
5616,6660,7384
5616,6660,7384
5616,6660,7388
5616,6660,7384
5612,6652,7380
5612,6648,7372
5608,6640,7372
5608,6636,7368
5608,6636,7368
5612,6636,7368
5612,6636,7368
5608,6632,7364
5616,6636,7372
5612,6636,7368
5608,6632,7364
5608,6636,7364
5612,6636,7364
5612,6636,7368
5612,6636,7368
5612,6644,7372
5612,6644,7372
5608,6640,7368
5612,6644,7372
5612,6648,7376
5616,6652,7380
5616,6660,7384
5616,6656,7384
5616,6664,7388
5620,6668,7392
5620,6668,7396
5620,6668,7392
5616,6668,7392
5616,6664,7388
5612,6656,7384
5612,6648,7376
5612,6648,7376
5612,6644,7376
5612,6640,7372
5608,6640,7372
5608,6636,7364
5604,6632,7364
5612,6644,7372
5608,6640,7368
5612,6644,7372
5612,6648,7376
5612,6648,7376
5612,6648,7376
5612,6648,7376
5616,6652,7380
5616,6660,7388
5612,6656,7380
5616,6656,7384
5612,6656,7380
5612,6660,7384
5620,6668,7396
5620,6672,7396
5620,6672,7396
5620,6680,7400
5620,6676,7400
5620,6680,7400
5620,6676,7400
5616,6672,7396
5616,6664,7388
5612,6656,7380
5608,6644,7372
5608,6644,7372
5608,6644,7368
5608,6640,7368
5608,6640,7368
5608,6640,7372
5604,6640,7368
5608,6644,7372
5612,6648,7376
5612,6648,7376
5616,6652,7380
5616,6652,7380
5612,6652,7380
5612,6652,7380
5612,6652,7380
5616,6660,7384
5612,6656,7380
5616,6664,7388
5616,6664,7388
5620,6672,7396
5616,6668,7392
5620,6676,7400
5620,6676,7396
5616,6676,7396
5616,6676,7396
5616,6672,7392
5612,6664,7388
5608,6656,7380
5608,6648,7376
5608,6644,7372
5608,6644,7368
5608,6640,7368
5608,6640,7368
5608,6644,7372
5608,6644,7372
5612,6648,7376
5608,6644,7372
5608,6648,7376
5616,6652,7384
5612,6652,7380
5612,6652,7380
5612,6652,7380
5616,6656,7384
5616,6660,7388
5616,6660,7388
5620,6668,7396
5620,6668,7392
5616,6668,7392
5620,6676,7400
5620,6680,7400
5620,6676,7396
5616,6676,7400
5616,6676,7396
5616,6676,7400
5616,6668,7392
5612,6664,7388
5612,6656,7384
5612,6656,7384
5608,6644,7372
5604,6640,7368
5604,6640,7368
5608,6640,7372
5608,6640,7368
5608,6644,7372
5608,6644,7376
5612,6648,7376
5612,6652,7380
5612,6648,7376
5612,6652,7380
5612,6656,7384
5608,6652,7376
5612,6656,7384
5612,6656,7380
5612,6660,7388
5616,6660,7388
5616,6664,7392
5616,6668,7392
5620,6668,7396
5616,6668,7392
5616,6668,7392
5616,6668,7392
5616,6668,7392
5616,6672,7396
5612,6664,7388
5608,6652,7380
5604,6640,7368
5604,6636,7368
5604,6636,7364
5604,6632,7364
5608,6636,7368
5604,6632,7364
5600,6628,7360
5604,6632,7364
5600,6628,7360
5600,6628,7360
5600,6628,7360
5596,6624,7352
5600,6624,7356
5600,6624,7356
5600,6632,7360
5600,6632,7360
5600,6632,7360
5600,6632,7360
5600,6636,7364
5600,6636,7364
5604,6636,7368
5604,6644,7372
5604,6640,7372
5600,6640,7368
5604,6640,7368
5600,6636,7368
5596,6628,7360
5596,6624,7352
5592,6616,7348
5588,6608,7340
5592,6608,7344
5592,6608,7340
5588,6604,7336
5592,6604,7340
5596,6612,7344
5596,6612,7344
5600,6616,7352
5600,6616,7352
5596,6616,7348
5596,6612,7348
5596,6620,7352
5596,6620,7352
5600,6620,7356
5600,6624,7360
5600,6624,7356
5600,6628,7360
5600,6628,7360
5600,6632,7360
5600,6636,7364
5600,6640,7368
5604,6644,7372
5604,6644,7372
5600,6640,7368
5600,6640,7368
5600,6632,7364
5596,6624,7356
5596,6620,7352
5592,6616,7348
5596,6616,7348
5592,6612,7344
5592,6612,7348
5596,6616,7348
5592,6616,7348
5596,6616,7352
5596,6624,7356
5600,6624,7356
5600,6624,7360
5596,6624,7356
5600,6628,7360
5600,6632,7364
5604,6636,7368
5600,6636,7364
5600,6640,7368
5608,6648,7376
5604,6648,7380
5604,6648,7376
5604,6652,7380
5604,6652,7380
5608,6660,7388
5604,6652,7380
5604,6652,7376
5604,6648,7372
5604,6640,7372
5600,6632,7364
5596,6628,7356
5596,6628,7356
5596,6620,7352
5592,6620,7348
5596,6620,7352
5596,6624,7360
5600,6628,7360
5600,6628,7360
5600,6632,7360
5600,6632,7360
5600,6636,7364
5600,6636,7364
5604,6640,7368
5604,6640,7368
5604,6640,7372
5604,6648,7376
5604,6648,7372
5604,6648,7376
5604,6652,7380
5608,6656,7384
5608,6660,7384
5604,6660,7380
5612,6668,7392
5608,6664,7384
5604,6656,7380
5600,6648,7376
5600,6644,7372
5596,6636,7360
5596,6632,7360
5596,6632,7356
5596,6628,7356
5596,6632,7360
5600,6636,7364
5604,6640,7372
5600,6636,7364
5600,6636,7364
5600,6640,7364
5600,6636,7364
5604,6644,7372
5600,6640,7368
5604,6644,7372
5600,6644,7368
5604,6648,7372
5600,6648,7372
5604,6652,7376
5604,6656,7380
5604,6656,7380
5604,6664,7384
5604,6664,7388
5604,6664,7384
5608,6668,7388
5608,6668,7392
5604,6660,7380
5600,6652,7372
5596,6640,7364
5592,6636,7360
5596,6636,7360
5592,6632,7356
5592,6628,7356
5592,6628,7356
5592,6628,7356
5596,6636,7364
5596,6632,7360
5596,6636,7364
5596,6636,7360
5596,6640,7364
5596,6640,7364
5596,6636,7360
5596,6640,7364
5596,6640,7364
5600,6648,7372
5604,6652,7376
5600,6652,7372
5600,6656,7376
5600,6656,7380
5600,6656,7376
5600,6660,7380
5596,6656,7376
5596,6656,7376
5592,6652,7368
5592,6644,7364
5588,6636,7360
5592,6636,7360
5588,6628,7352
5584,6620,7344
5580,6616,7344
5580,6616,7340
5584,6616,7340
5584,6616,7340
5584,6620,7344
5584,6616,7340
5584,6616,7344
5580,6616,7340
5580,6612,7336
5584,6616,7340
5584,6620,7348
5584,6616,7344
5584,6616,7340
5584,6624,7348
5584,6624,7348
5584,6624,7348
5588,6628,7352
5584,6628,7352
5588,6632,7352
5584,6628,7352
5588,6632,7356
5584,6624,7348
5580,6616,7340
5572,6608,7328
5572,6604,7328
5572,6596,7320
5572,6592,7320
5568,6588,7316
5568,6584,7312
5564,6584,7312
5572,6592,7320
5568,6584,7316
5568,6588,7316
5572,6592,7320
5572,6588,7316
5568,6584,7312
5572,6592,7320
5572,6592,7320
5568,6592,7320
5568,6592,7320
5572,6600,7324
5572,6600,7324
5572,6600,7324
5572,6600,7328
5572,6608,7332
5576,6612,7336
5576,6616,7340
5576,6612,7336
5576,6612,7336
5576,6608,7336
5572,6604,7328
5568,6596,7320
5568,6592,7320
5568,6588,7316
5564,6584,7312
5564,6580,7308
5564,6580,7308
5564,6580,7312
5568,6584,7312
5564,6584,7308
5564,6580,7308
5564,6584,7312
5568,6588,7312
5568,6588,7312
5564,6588,7312
5568,6592,7316
5572,6596,7320
5572,6600,7324
5572,6604,7328
5576,6608,7332
5576,6608,7332
5576,6612,7336
5580,6620,7340
5576,6616,7340
5576,6620,7340
5576,6620,7340
5572,6616,7336
5572,6612,7332
5568,6600,7324
5564,6592,7316
5564,6592,7316
5564,6584,7308
5564,6584,7308
5564,6584,7308
5564,6584,7308
5568,6588,7316
5568,6588,7316
5568,6588,7316
5568,6588,7316
5568,6592,7316
5564,6588,7312
5564,6588,7312
5564,6592,7312
5564,6592,7316
5568,6596,7320
5568,6600,7324
5572,6604,7328
5572,6608,7324
5572,6612,7332
5572,6612,7332
5572,6616,7336
5572,6620,7336
5576,6620,7340
5572,6620,7336
5572,6616,7332
5568,6612,7328
5564,6600,7320
5564,6600,7320
5564,6592,7316
5564,6592,7316
5560,6584,7308
5564,6588,7312
5568,6588,7316
5564,6588,7312
5564,6588,7312
5564,6592,7316
5568,6592,7316
5564,6592,7316
5568,6596,7316
5568,6596,7320
5568,6596,7320
5564,6596,7316
5568,6600,7320
5568,6604,7324
5572,6608,7332
5568,6608,7328
5572,6612,7332
5572,6616,7332
5572,6616,7336
5576,6624,7340
5576,6628,7344
5576,6628,7348
5576,6624,7340
5568,6616,7332
5568,6612,7328
5564,6604,7320
5564,6600,7320
5560,6592,7312
5564,6592,7316
5564,6592,7312
5564,6588,7312
5568,6596,7316
5568,6600,7324
5564,6596,7316
5568,6600,7320
5564,6600,7320
5564,6596,7316
5564,6600,7316
5564,6600,7316
5568,6608,7324
5564,6604,7320
5568,6608,7328
5568,6608,7324
5572,6616,7332
5568,6616,7332
5568,6616,7332
5568,6616,7332
5572,6624,7336
5572,6624,7336
5572,6624,7340
5568,6620,7336
5568,6620,7336
5564,6612,7328
5564,6608,7320
5560,6600,7316
5560,6592,7312
5556,6588,7308
5556,6584,7304
5556,6584,7304
5560,6584,7308
5556,6584,7304
5556,6584,7304
5556,6584,7304
5556,6584,7300
5560,6584,7304
5556,6584,7304
5556,6584,7304
5556,6588,7308
5560,6592,7312
5560,6592,7308
5560,6596,7312
5560,6596,7312
5564,6600,7316
5560,6596,7316
5560,6600,7312
5560,6604,7316
5564,6608,7324
5560,6604,7320
5560,6604,7316
5560,6604,7320
5560,6600,7316
5556,6596,7312
5552,6584,7304
5548,6580,7300
5552,6580,7300
5552,6576,7296
5548,6572,7292
5544,6568,7288
5548,6572,7292
5552,6576,7296
5548,6576,7296
5552,6580,7296
5552,6584,7300
5552,6580,7300
5552,6580,7300
5556,6588,7304
5556,6588,7308
5552,6588,7304
5556,6592,7308
5560,6600,7316
5560,6600,7320
5564,6608,7324
5564,6612,7328
5564,6616,7332
5564,6620,7332
5564,6620,7336
5568,6624,7336
5564,6620,7332
5560,6616,7328
5556,6604,7320
5552,6600,7312
5556,6596,7312
5556,6596,7312
5556,6596,7316
5552,6592,7312
5556,6592,7312
5552,6592,7308
5556,6596,7312
5556,6596,7312
5556,6600,7316
5560,6608,7324
5556,6604,7316
5560,6608,7324
5560,6608,7320
5560,6612,7324
5564,6616,7328
5564,6616,7332
5568,6624,7336
5568,6632,7344
5568,6632,7348
5568,6632,7344
5568,6636,7348
5572,6640,7352
5572,6644,7356
5568,6640,7352
5568,6640,7352
5568,6636,7344
5568,6632,7344
5560,6620,7336
5560,6620,7332
5564,6620,7332
5560,6612,7328
5556,6608,7324
5560,6612,7324
5560,6612,7328
5564,6616,7332
5568,6624,7340
5564,6620,7332
5564,6620,7336
5564,6620,7332
5564,6624,7336
5564,6624,7336
5568,6628,7340
5568,6632,7344
5568,6632,7344
5564,6632,7344
5568,6636,7344
5568,6636,7348
5568,6640,7348
5568,6644,7352
5568,6648,7352
5572,6648,7356
5568,6648,7352
5572,6652,7356
5568,6644,7352
5568,6640,7348
5560,6632,7340
5560,6628,7336
5560,6624,7336
5560,6620,7328
5560,6620,7332
5560,6620,7328
5560,6620,7328
5560,6620,7332
5564,6624,7336
5564,6624,7332
5564,6624,7332
5564,6624,7332
5564,6628,7336
5564,6628,7336
5564,6628,7336
5568,6632,7340
5568,6636,7344
5564,6632,7340
5568,6636,7344
5564,6636,7344
5564,6640,7348
5568,6644,7348
5564,6640,7344
5568,6648,7352
5568,6648,7352
5568,6648,7356
5564,6640,7344
5560,6632,7340
5560,6628,7336
5556,6620,7328
5560,6620,7332
5556,6616,7324
5556,6608,7320
5552,6604,7316
5552,6604,7312
5552,6604,7316
5556,6604,7316
5552,6604,7316
5552,6600,7312
5552,6600,7312
5552,6600,7312
5552,6600,7312
5552,6600,7312
5552,6604,7316
5556,6612,7320
5556,6612,7320
5556,6612,7320
5556,6612,7324
5556,6612,7324
5556,6620,7328
5556,6620,7328
5556,6620,7332
5556,6620,7328
5556,6620,7328
5552,6616,7324
5552,6612,7320
5548,6604,7316
5548,6600,7312
5544,6588,7304
5544,6584,7300
5540,6580,7296
5544,6584,7300
5544,6580,7300
5548,6584,7304
5548,6584,7304
5544,6584,7300
5544,6584,7300
5548,6584,7300
5544,6584,7300
5552,6588,7308
5548,6584,7300
5548,6584,7304
5548,6592,7308
5544,6584,7300
5548,6588,7304
5548,6592,7308
5544,6588,7304
5548,6596,7308
5552,6600,7316
5552,6600,7316
5552,6604,7320
5548,6600,7316
5544,6592,7304
5544,6592,7304
5540,6580,7296
5540,6576,7292
5540,6572,7292
5540,6568,7288
5536,6564,7284
5540,6568,7288
5540,6568,7288
5540,6568,7288
5540,6568,7288
5540,6572,7292
5540,6572,7292
5544,6576,7292
5540,6572,7292
5544,6576,7292
5544,6576,7292
5544,6580,7296
5548,6584,7300
5544,6584,7300
5544,6584,7304
5544,6584,7300
5548,6592,7308
5548,6592,7308
5548,6596,7312
5552,6600,7312
5552,6604,7320
5552,6600,7316
5544,6592,7308
5544,6588,7304
5544,6580,7296
5540,6576,7292
5540,6568,7288
5536,6564,7284
5536,6560,7280
5536,6564,7280
5540,6560,7280
5540,6564,7284
5540,6564,7288
5540,6564,7284
5540,6568,7288
5540,6564,7284
5540,6564,7284
5544,6576,7296
5544,6568,7288
5548,6576,7296
5548,6580,7300
5552,6584,7304
5548,6584,7300
5548,6584,7300
5548,6584,7304
5548,6592,7308
5552,6592,7308
5552,6596,7312
5552,6600,7312
5552,6600,7316
5552,6596,7312
5548,6588,7304
5544,6584,7296
5540,6572,7292
5540,6568,7288
5540,6568,7284
5544,6564,7284
5540,6560,7280
5540,6560,7280
5540,6560,7280
5544,6564,7288
5548,6568,7288
5548,6568,7292
5548,6568,7288
5544,6568,7288
5544,6564,7284
5544,6564,7284
5544,6568,7288
5544,6572,7288
5544,6572,7288
5544,6576,7292
5548,6580,7296
5548,6580,7296
5556,6592,7312
5552,6588,7308
5556,6596,7312
5548,6588,7300
5552,6592,7308
5548,6588,7304
5552,6588,7304
5544,6576,7292
5544,6568,7284
5544,6568,7284
5540,6560,7280
5540,6556,7276
5540,6556,7276
5544,6556,7280
5540,6556,7276
5540,6556,7272
5540,6556,7276
5544,6556,7280
5544,6556,7276
5540,6556,7276
5540,6556,7276
5540,6556,7276
5544,6560,7280
5540,6560,7276
5540,6556,7276
5540,6560,7276
5540,6560,7276
5544,6564,7280
5544,6568,7284
5544,6568,7284
5544,6572,7288
5544,6572,7288
5544,6576,7288
5544,6572,7288
5540,6564,7280
5536,6556,7272
5536,6552,7272
5536,6548,7268
5532,6540,7260
5536,6540,7260
5532,6536,7256
5528,6532,7252
5528,6528,7252
5528,6532,7252
5532,6532,7252
5528,6532,7252
5528,6528,7252
5528,6532,7252
5532,6532,7252
5528,6532,7252
5532,6536,7256
5532,6540,7260
5528,6536,7256
5532,6540,7260
5532,6544,7264
5536,6548,7264
5536,6552,7272
5540,6560,7276
5540,6556,7276
5540,6560,7276
5540,6560,7280
5540,6560,7280
5536,6556,7272
5536,6552,7268
5528,6540,7260
5524,6532,7252
5528,6532,7252
5524,6524,7244
5520,6520,7240
5524,6524,7244
5524,6524,7244
5528,6528,7248
5524,6524,7244
5524,6528,7248
5524,6528,7248
5528,6532,7248
5528,6532,7252
5528,6536,7252
5528,6536,7256
5532,6544,7264
5532,6548,7268
5532,6548,7268
5536,6556,7272
5536,6556,7272
5540,6560,7276
5536,6560,7276
5540,6568,7280
5536,6568,7280
5540,6572,7288
5540,6576,7288
5540,6572,7284
5540,6572,7284
5532,6564,7276
5532,6556,7272
5532,6556,7268
5532,6556,7272
5532,6552,7268
5532,6552,7268
5532,6552,7268
5532,6552,7268
5532,6552,7268
5532,6556,7272
5532,6552,7268
5536,6556,7272
5536,6560,7276
5536,6564,7276
5536,6564,7276
5544,6572,7288
5540,6572,7284
5540,6576,7288
5540,6576,7288
5540,6580,7288
5540,6584,7296
5544,6588,7300
5544,6596,7304
5552,6612,7320
5556,6620,7328
5552,6620,7328
5556,6624,7336
5552,6620,7328
5552,6616,7324
5548,6608,7320
5548,6604,7316
5548,6600,7316
5544,6596,7308
5548,6596,7312
5544,6596,7308
5544,6592,7304
5544,6592,7304
5544,6596,7308
5544,6592,7308
5544,6592,7308
5548,6600,7312
5548,6604,7316
5548,6604,7316
5552,6608,7320
5552,6608,7320
5552,6612,7324
5552,6612,7324
5552,6616,7328
5556,6624,7336
5560,6628,7340
5560,6628,7340
5560,6632,7340
5560,6632,7344
5560,6636,7348
5564,6640,7352
5560,6640,7348
5560,6636,7344
5560,6636,7344
5552,6624,7336
5552,6620,7332
5548,6612,7324
5548,6612,7324
5548,6608,7320
5552,6608,7324
5548,6608,7320
5552,6608,7324
5548,6608,7320
5548,6608,7324
5548,6608,7320
5552,6612,7328
5548,6612,7324
5548,6608,7320
5548,6612,7324
5548,6612,7324
5556,6624,7332
5556,6624,7336
5556,6628,7336
5556,6628,7336
5556,6628,7340
5556,6632,7340
5556,6632,7340
5556,6636,7344
5560,6644,7352
5560,6644,7348
5560,6644,7352
5560,6644,7348
5560,6648,7352
5556,6640,7344
5552,6632,7340
5548,6624,7332
5548,6616,7324
5544,6612,7320
5544,6608,7316
5544,6612,7320
5548,6612,7320
5548,6612,7320
5544,6604,7316
5544,6604,7316
5544,6608,7316
5544,6608,7320
5544,6604,7316
5544,6608,7316
5548,6612,7324
5548,6612,7320
5548,6612,7324
5548,6616,7328
5548,6616,7324
5544,6616,7324
5548,6620,7324
5548,6620,7328
5544,6616,7324
5544,6620,7324
5544,6620,7328
5548,6624,7332
5548,6628,7332
5544,6620,7324
5548,6620,7328
5540,6612,7320
5540,6608,7316
5540,6604,7312
5540,6600,7312
5536,6596,7308
5536,6592,7304
5536,6588,7304
5536,6588,7300
5536,6592,7304
5536,6592,7304
5536,6596,7308
5540,6596,7308
5532,6588,7300
5532,6588,7300
5536,6592,7304
5536,6592,7304
5536,6596,7304
5536,6600,7308
5540,6604,7312
5540,6604,7312
5540,6608,7320
5544,6612,7320
5544,6616,7328
5544,6616,7328
5544,6620,7328
5544,6624,7332
5544,6620,7328
5544,6620,7328
5544,6616,7328
5540,6612,7324
5540,6608,7320
5536,6604,7312
5536,6596,7308
5532,6592,7304
5536,6592,7304
5532,6588,7300
5532,6588,7304
5532,6588,7304
5536,6592,7304
5540,6596,7312
5540,6600,7312
5540,6604,7316
5540,6604,7316
5540,6604,7316
5536,6600,7312
5544,6608,7320
5544,6608,7320
5540,6608,7316
5544,6616,7324
5544,6612,7324
5544,6616,7328
5548,6620,7332
5544,6620,7328
5544,6624,7332
5548,6628,7336
5548,6628,7336
5548,6628,7336
5544,6624,7332
5540,6620,7328
5540,6612,7320
5536,6604,7316
5536,6604,7312
5536,6596,7308
5532,6592,7300
5532,6588,7300
5536,6596,7308
5536,6596,7308
5536,6592,7304
5536,6600,7308
5536,6600,7312
5540,6600,7312
5540,6604,7316
5540,6604,7316
5540,6604,7316
5540,6604,7316
5540,6608,7316
5544,6612,7324
5544,6612,7320
5544,6612,7324
5544,6616,7324
5544,6620,7328
5548,6624,7332
5548,6628,7336
5548,6628,7332
5548,6628,7332
5544,6624,7328
5540,6620,7324
5536,6612,7316
5536,6604,7312
5536,6600,7308
5532,6592,7300
5528,6588,7296
5528,6584,7296
5532,6584,7296
5528,6584,7292
5532,6588,7300
5536,6588,7300
5536,6588,7304
5536,6592,7304
5540,6592,7304
5536,6588,7300
5536,6592,7304
5536,6592,7300
5536,6592,7304
5536,6592,7304
5540,6596,7308
5536,6596,7304
5540,6600,7308
5544,6608,7320
5544,6612,7320
5548,6616,7324
5548,6616,7324
5548,6620,7332
5548,6620,7332
5548,6620,7332
5544,6620,7328
5540,6612,7320
5536,6600,7312
5536,6592,7304
5536,6588,7300
5536,6584,7300
5536,6584,7296
5532,6580,7296
5532,6580,7292
5532,6576,7292
5536,6580,7296
5536,6584,7296
5540,6584,7300
5536,6580,7296
5536,6584,7296
5536,6580,7296
5536,6584,7300
5540,6584,7300
5536,6584,7296
5540,6588,7300
5540,6588,7300
5536,6584,7300
5536,6588,7300
5536,6588,7300
5536,6592,7304
5536,6592,7304
5540,6596,7308
5540,6596,7308
5540,6596,7308
5536,6592,7304
5536,6592,7300
5536,6584,7296
5528,6572,7284
5528,6564,7280
5528,6560,7276
5524,6552,7268
5524,6548,7264
5524,6548,7264
5528,6552,7268
5524,6548,7264
5524,6544,7264
5524,6544,7264
5524,6544,7260
5520,6540,7256
5520,6540,7260
5520,6540,7256
5524,6540,7260
5520,6540,7260
5520,6540,7256
5524,6544,7260
5524,6548,7264
5528,6548,7268
5524,6548,7268
5528,6552,7268
5528,6552,7272
5528,6556,7276
5528,6556,7272
5524,6548,7268
5524,6552,7268
5520,6544,7260
5516,6532,7252
5516,6524,7244
5508,6516,7236
5508,6512,7232
5508,6508,7232
5508,6508,7232
5504,6496,7220
5508,6504,7228
5508,6504,7228
5512,6504,7232
5512,6508,7232
5508,6504,7228
5508,6504,7228
5512,6504,7228
5512,6508,7232
5512,6508,7232
5516,6512,7240
5512,6512,7236
5516,6516,7240
5516,6516,7240
5512,6516,7240
5516,6520,7248
5520,6528,7252
5520,6528,7252
5520,6532,7252
5520,6532,7256
5520,6528,7252
5516,6524,7248
5516,6520,7244
5512,6508,7236
5508,6500,7224
5508,6500,7224
5504,6492,7220
5504,6492,7220
5508,6492,7220
5504,6492,7220
5508,6492,7224
5508,6496,7224
5512,6504,7232
5512,6500,7228
5512,6500,7228
5512,6500,7228
5512,6500,7228
5512,6500,7224
5512,6504,7232
5512,6504,7232
5516,6512,7240
5520,6520,7248
5524,6524,7252
5520,6524,7248
5520,6528,7252
5524,6532,7252
5524,6536,7260
5524,6536,7260
5528,6540,7260
5524,6532,7256
5520,6528,7252
5516,6520,7244
5516,6512,7240
5512,6504,7232
5512,6504,7232
5512,6504,7232
5512,6496,7228
5512,6500,7228
5512,6500,7228
5516,6504,7232
5516,6504,7232
5516,6508,7236
5520,6512,7240
5516,6508,7236
5520,6512,7240
5520,6512,7240
5520,6520,7244
5524,6520,7248
5520,6520,7248
5520,6524,7252
5524,6528,7256
5524,6532,7256
5524,6532,7256
5524,6536,7256
5524,6536,7256
5524,6540,7264
5524,6540,7260
5524,6540,7260
5524,6536,7256
5516,6524,7248
5516,6520,7244
5516,6516,7244
5512,6508,7232
5512,6504,7232
5512,6504,7228
5508,6500,7224
5512,6500,7228
5512,6500,7228
5516,6508,7232
5512,6508,7232
5516,6512,7236
5512,6508,7236
5512,6512,7236
5516,6512,7240
5520,6520,7244
5516,6520,7244
5520,6524,7248
5520,6528,7252
5524,6532,7256
5520,6532,7252
5524,6536,7256
5524,6536,7260
5520,6536,7260
5524,6544,7264
5524,6544,7264
5524,6548,7268
5524,6544,7264
5520,6540,7260
5524,6540,7260
5520,6532,7256
5520,6524,7248
5520,6524,7248
5512,6512,7236
5508,6508,7232
5508,6504,7228
5512,6512,7236
5512,6512,7236
5516,6516,7244
5520,6520,7244
5516,6520,7244
5516,6516,7240
5520,6520,7244
5516,6516,7240
5520,6520,7248
5516,6520,7244
5520,6524,7248
5516,6524,7248
5516,6524,7248
5516,6524,7244
5516,6524,7244
5516,6528,7252
5520,6532,7252
5516,6532,7252
5516,6532,7248
5516,6532,7252
5512,6524,7244
5512,6520,7240
5504,6508,7228
5504,6500,7224
5504,6500,7224
5504,6496,7224
5500,6492,7216
5504,6496,7220
5504,6492,7220
5504,6492,7220
5504,6496,7220
5500,6492,7216
5508,6500,7224
5504,6496,7220
5508,6504,7228
5504,6500,7224
5508,6500,7228
5504,6500,7224
5508,6504,7228
5504,6504,7228
5508,6508,7232
5508,6508,7232
5508,6508,7232
5512,6516,7236
5508,6512,7236
5512,6520,7240
5508,6516,7240
5508,6520,7240
5508,6516,7240
5508,6512,7232
5500,6500,7220
5496,6492,7216
5500,6492,7220
5496,6488,7212
5496,6488,7212
5500,6488,7216
5496,6488,7212
5500,6488,7216
5500,6492,7216
5500,6492,7220
5500,6496,7220
5504,6496,7224
5504,6500,7224
5504,6500,7228
5504,6504,7228
5504,6504,7228
5504,6504,7228
5508,6512,7236
5504,6512,7232
5508,6516,7240
5508,6516,7240
5508,6520,7240
5508,6524,7240
5512,6528,7248
5516,6536,7256
5512,6532,7252
5512,6532,7252
5508,6524,7244
5504,6516,7236
5500,6508,7232
5500,6504,7224
5500,6504,7224
5500,6500,7224
5504,6504,7224
5500,6500,7220
5504,6504,7228
5500,6504,7224
5504,6508,7228
5508,6512,7236
5512,6516,7240
5508,6512,7236
5504,6512,7232
5508,6516,7236
5508,6520,7240
5508,6520,7240
5512,6528,7248
5512,6528,7248
5512,6528,7248
5512,6532,7248
5512,6536,7252
5512,6536,7252
5512,6536,7252
5516,6548,7264
5516,6544,7260
5512,6536,7252
5508,6532,7252
5508,6528,7244
5504,6520,7240
5504,6516,7232
5504,6512,7232
5500,6508,7228
5500,6508,7228
5504,6508,7228
5508,6512,7236
5504,6512,7236
5504,6512,7236
5508,6516,7240
5508,6520,7240
5508,6520,7240
5512,6520,7244
5512,6524,7244
5512,6528,7248
5516,6532,7256
5512,6532,7252
5516,6536,7256
5520,6544,7260
5520,6548,7268
5520,6552,7272
5524,6556,7276
5524,6560,7280
5524,6560,7280
5524,6560,7276
5524,6560,7276
5520,6556,7276
5524,6560,7280
5524,6556,7280
5520,6540,7264
5520,6536,7260
5516,6528,7248
5512,6524,7244
5512,6524,7244
5512,6524,7244
5512,6524,7244
5512,6520,7240
5508,6516,7232
5508,6516,7236
5504,6516,7232
5508,6520,7236
5504,6516,7232
5504,6516,7232
5504,6520,7236
5508,6524,7240
5508,6524,7240
5504,6524,7236
5504,6524,7236
5504,6528,7240
5508,6532,7248
5508,6528,7240
5508,6528,7244
5508,6532,7244
5508,6532,7244
5504,6528,7240
5500,6520,7232
5500,6512,7228
5496,6500,7216
5492,6496,7212
5492,6492,7212
5492,6492,7212
5488,6484,7204
5492,6488,7208
5492,6488,7208
5492,6492,7208
5492,6492,7208
5492,6492,7212
5496,6492,7212
5492,6492,7208
5496,6496,7212
5496,6496,7216
5492,6492,7212
5492,6496,7212
5496,6500,7216
5492,6500,7212
5492,6500,7216
5496,6504,7220
5496,6508,7220
5500,6512,7228
5504,6516,7232
5500,6516,7232
5500,6516,7232
5500,6512,7228
5496,6504,7220
5496,6500,7216
5496,6496,7216
5492,6488,7208
5488,6488,7208
5488,6480,7204
5488,6484,7204
5492,6484,7208
5492,6484,7204
5492,6488,7208
5492,6492,7212
5492,6488,7208
5492,6492,7212
5496,6496,7216
5496,6496,7216
5496,6500,7216
5496,6504,7220
5496,6504,7224
5500,6508,7224
5500,6512,7228
5500,6516,7232
5500,6516,7232
5500,6524,7236
5500,6524,7236
5500,6528,7240
5500,6528,7240
5496,6524,7236
5496,6524,7236
5496,6516,7228
5492,6512,7224
5496,6512,7228
5492,6508,7220
5492,6504,7220
5488,6500,7216
5492,6504,7220
5492,6504,7220
5500,6516,7232
5500,6520,7236
5500,6516,7232
5496,6516,7232
5496,6520,7232
5496,6520,7232
5500,6528,7240
5504,6532,7244
5504,6532,7244
5504,6536,7248
5504,6540,7252
5508,6544,7256
5504,6544,7252
5508,6552,7260
5508,6556,7264
5512,6560,7268
5508,6560,7268
5508,6564,7268
5508,6560,7264
5504,6556,7264
5504,6552,7260
5500,6548,7256
5504,6548,7256
5500,6544,7256
5500,6544,7252
5504,6544,7256
5500,6544,7252
5504,6548,7256
5504,6548,7256
5508,6556,7264
5508,6556,7264
5504,6556,7264
5504,6556,7264
5504,6560,7264
5504,6560,7268
5508,6568,7276
5508,6568,7272
5512,6572,7276
5512,6576,7276
5508,6576,7280
5508,6576,7280
5512,6584,7284
5512,6584,7284
5512,6588,7288
5512,6592,7292
5512,6592,7292
5512,6592,7288
5512,6592,7288
5504,6584,7280
5500,6576,7276
5500,6576,7272
5500,6576,7272
5500,6572,7272
5500,6572,7268
5500,6568,7268
5500,6572,7272
5500,6572,7272
5504,6580,7276
5504,6580,7280
5508,6588,7284
5508,6588,7284
5508,6588,7284
5508,6592,7288
5508,6592,7284
5504,6588,7284
5508,6596,7292
5508,6600,7292
5512,6604,7296
5508,6600,7292
5508,6604,7296
5512,6612,7304
5516,6616,7304
5516,6624,7312
5516,6624,7312
5516,6628,7320
5512,6620,7312
5508,6616,7308
5508,6616,7304
5508,6612,7304
5508,6608,7300
5508,6608,7300
5504,6604,7296
5508,6604,7300
5508,6608,7300
5508,6608,7300
5508,6608,7300
5504,6608,7300
5508,6608,7300
5508,6612,7304
5508,6608,7304
5504,6604,7300
5504,6608,7300
5500,6600,7296
5504,6604,7296
5500,6604,7296
5504,6608,7300
5500,6604,7296
5504,6612,7304
5504,6616,7304
5504,6616,7308
5504,6620,7308
5504,6616,7308
5504,6620,7308
5500,6616,7304
5496,6608,7300
5496,6608,7300
5500,6608,7300
5496,6604,7296
5496,6600,7296
5496,6600,7288
5496,6600,7292
5500,6600,7296
5496,6600,7292
5500,6608,7300
5500,6604,7300
5500,6608,7304
5496,6604,7300
5500,6608,7304
5500,6612,7304
5504,6620,7308
5504,6616,7312
5504,6624,7316
5504,6624,7316
5508,6632,7324
5504,6632,7324
5512,6640,7332
5516,6644,7336
5512,6648,7340
5516,6648,7340
5516,6652,7344
5516,6652,7340
5508,6644,7336
5508,6644,7336
5508,6640,7332
5508,6636,7328
5504,6628,7324
5504,6628,7320
5504,6624,7320
5504,6624,7320
5500,6620,7316
5500,6620,7316
5504,6624,7316
5504,6624,7320
5504,6624,7320
5504,6624,7320
5508,6628,7320
5504,6624,7320
5508,6628,7320
5504,6624,7316
5508,6628,7320
5508,6628,7324
5508,6628,7320
5508,6632,7324
5504,6628,7320
5512,6636,7328
5508,6636,7324
5516,6644,7336
5508,6636,7324
5508,6636,7328
5512,6640,7328
5508,6636,7324
5504,6624,7320
5500,6612,7308
5496,6604,7300
5496,6600,7296
5496,6600,7296
5500,6596,7296
5500,6596,7296
5500,6592,7288
5500,6592,7292
5500,6592,7288
5500,6592,7288
5496,6584,7284
5500,6588,7284
5504,6588,7288
5504,6592,7292
5504,6588,7292
5500,6584,7288
5500,6584,7284
5500,6584,7284
5504,6584,7284
5504,6584,7284
5500,6584,7284
5500,6588,7284
5500,6588,7284
5500,6588,7284
5504,6588,7284
5504,6588,7284
5500,6580,7276
5496,6572,7272
5496,6564,7264
5492,6556,7256
5492,6552,7252
5488,6544,7248
5488,6540,7244
5492,6540,7244
5488,6536,7240
5492,6540,7244
5488,6536,7240
5488,6532,7236
5492,6532,7236
5488,6528,7232
5488,6528,7232
5488,6528,7232
5492,6536,7240
5496,6540,7244
5492,6536,7236
5492,6536,7236
5492,6536,7240
5496,6536,7240
5492,6536,7236
5496,6540,7240
5492,6536,7236
5496,6548,7248
5500,6556,7256
5504,6572,7276
5504,6572,7276
5500,6560,7264
5500,6564,7268
5496,6552,7260
5496,6552,7260
5496,6544,7252
5492,6536,7248
5492,6532,7244
5496,6532,7244
5496,6528,7244
5496,6528,7244
5492,6524,7240
5496,6524,7240
5492,6520,7236
5496,6520,7236
5496,6520,7236
5492,6516,7232
5492,6516,7232
5492,6516,7228
5488,6512,7228
5488,6512,7228
5492,6516,7232
5488,6512,7228
5492,6516,7232
5492,6516,7228
5492,6516,7228
5492,6520,7232
5488,6512,7228
5488,6504,7220
5484,6500,7216
5484,6492,7212
5480,6488,7204
5476,6480,7196
5480,6480,7200
5480,6476,7200
5480,6476,7196
5476,6472,7192
5480,6476,7196
5480,6476,7196
5480,6476,7196
5480,6476,7196
5476,6476,7192
5476,6472,7192
5476,6476,7196
5480,6476,7196
5484,6480,7204
5480,6480,7200
5480,6480,7200
5480,6484,7204
5484,6484,7204
5480,6488,7204
5484,6496,7212
5484,6492,7212
5488,6496,7216
5484,6492,7212
5484,6492,7212
5476,6480,7200
5476,6476,7196
5476,6472,7192
5472,6468,7188
5476,6468,7188
5472,6464,7184
5472,6464,7184
5472,6464,7184
5476,6464,7188
5476,6468,7188
5472,6464,7184
5472,6468,7188
5476,6468,7188
5472,6464,7184
5472,6468,7188
5476,6472,7192
5472,6472,7188
5476,6476,7192
5480,6484,7200
5480,6484,7200
5480,6488,7204
5480,6492,7208
5484,6496,7208
5484,6496,7212
5480,6496,7208
5480,6496,7208
5480,6492,7208
5476,6488,7204
5476,6484,7200
5476,6480,7200
5472,6476,7192
5472,6476,7192
5472,6468,7188
5468,6464,7184
5476,6472,7192
5476,6468,7188
5476,6472,7192
5476,6476,7196
5476,6476,7192
5476,6480,7196
5480,6480,7200
5480,6484,7204
5480,6484,7204
5476,6480,7200
5480,6488,7204
5484,6492,7208
5484,6492,7212
5484,6496,7212
5480,6496,7212
5480,6496,7212
5480,6500,7212
5484,6504,7220
5484,6504,7220
5484,6504,7220
5480,6500,7212
5476,6492,7208
5476,6492,7204
5476,6484,7200
5472,6480,7196
5472,6476,7192
5472,6472,7188
5472,6472,7188
5472,6472,7188
5472,6472,7188
5472,6476,7192
5476,6480,7196
5472,6476,7196
5472,6480,7196
5476,6484,7200
5480,6488,7204
5472,6480,7196
5476,6488,7200
5476,6488,7204
5476,6488,7204
5480,6492,7208
5476,6492,7208
5484,6500,7216
5484,6500,7216
5484,6504,7216
5484,6508,7220
5488,6512,7224
5488,6512,7224
5480,6504,7212
5480,6500,7212
5476,6496,7208
5476,6488,7204
5472,6484,7196
5468,6476,7192
5468,6472,7188
5468,6472,7188
5472,6472,7188
5468,6472,7188
5472,6472,7188
5468,6472,7188
5472,6476,7192
5472,6472,7188
5472,6476,7188
5472,6472,7188
5472,6476,7192
5472,6480,7192
5476,6480,7196
5472,6480,7192
5476,6484,7200
5476,6484,7196
5472,6484,7196
5476,6488,7200
5472,6488,7200
5476,6492,7200
5472,6488,7200
5472,6488,7196
5468,6484,7192
5468,6476,7188
5464,6468,7180
5460,6464,7176
5464,6460,7176
5464,6464,7176
5460,6456,7172
5464,6456,7176
5460,6452,7168
5460,6456,7172
5460,6456,7168
5460,6452,7168
5464,6456,7172
5464,6456,7172
5460,6456,7172
5464,6460,7176
5464,6460,7176
5464,6464,7184
5468,6468,7184
5468,6468,7184
5468,6476,7188
5468,6476,7192
5464,6472,7188
5468,6480,7196
5468,6484,7196
5472,6488,7200
5468,6484,7196
5472,6488,7200
5472,6484,7200
5468,6480,7196
5464,6468,7188
5464,6468,7184
5460,6460,7176
5456,6452,7168
5460,6452,7172
5456,6452,7172
5456,6444,7168
5460,6452,7172
5460,6452,7176
5460,6452,7172
5460,6456,7176
5460,6456,7172
5460,6456,7180
5464,6460,7184
5464,6460,7180
5460,6460,7180
5460,6460,7180
5464,6464,7184
5464,6468,7184
5456,6464,7180
5460,6468,7184
5464,6472,7188
5464,6472,7188
5468,6480,7196
5468,6484,7200
5468,6484,7196
5468,6480,7196
5464,6476,7192
5460,6468,7188
5456,6460,7176
5456,6456,7176
5456,6452,7172
5452,6448,7168
5456,6444,7168
5456,6448,7168
5456,6448,7172
5456,6448,7168
5456,6448,7168
5452,6448,7168
5456,6448,7172
5456,6452,7172
5456,6452,7172
5456,6452,7172
5460,6460,7180
5460,6460,7180
5460,6460,7180
5460,6464,7184
5460,6468,7188
5464,6476,7192
5464,6476,7192
5464,6476,7196
5464,6480,7196
5464,6480,7196
5468,6488,7204
5464,6476,7192
5460,6472,7188
5456,6464,7180
5452,6452,7172
5452,6452,7172
5452,6448,7168
5452,6444,7164
5456,6448,7168
5452,6444,7168
5452,6444,7164
5456,6448,7172
5456,6448,7172
5456,6448,7168
5456,6448,7168
5452,6444,7164
5456,6452,7172
5460,6456,7176
5460,6456,7176
5460,6460,7180
5456,6456,7172
5460,6456,7176
5460,6464,7184
5460,6464,7184
5464,6472,7188
5460,6468,7184
5464,6476,7192
5468,6484,7200
5468,6480,7196
5468,6480,7196
5464,6476,7192
5460,6468,7184
5460,6460,7180
5456,6456,7172
5456,6452,7172
5456,6448,7168
5456,6444,7164
5452,6436,7160
5452,6436,7160
5456,6444,7164
5456,6444,7164
5456,6448,7172
5460,6452,7172
5460,6452,7172
5456,6448,7172
5460,6452,7172
5464,6456,7180
5464,6460,7180
5464,6460,7184
5464,6460,7184
5464,6464,7184
5460,6464,7180
5468,6472,7188
5464,6472,7188
5468,6476,7192
5468,6476,7196
5468,6476,7196
5464,6472,7188
5464,6472,7188
5460,6464,7180
5460,6460,7180
5456,6452,7172
5452,6444,7164
5452,6440,7160
5452,6436,7160
5452,6436,7156
5452,6436,7156
5456,6440,7164
5456,6444,7164
5460,6452,7176
5460,6452,7176
5460,6452,7176
5456,6448,7172
5456,6448,7172
5460,6452,7176
5460,6452,7176
5460,6452,7176
5460,6452,7176
5460,6452,7176
5460,6452,7176
5456,6452,7172
5456,6452,7172
5456,6452,7172
5456,6452,7172
5460,6456,7176
5460,6452,7176
5456,6452,7172
5456,6448,7168
5456,6444,7164
5452,6436,7160
5448,6428,7152
5444,6416,7140
5444,6416,7140
5444,6416,7144
5444,6420,7144
5448,6420,7148
5448,6420,7148
5448,6424,7152
5448,6424,7148
5448,6424,7148
5444,6420,7148
5448,6424,7148
5448,6428,7152
5448,6424,7148
5448,6432,7156
5448,6432,7156
5452,6436,7160
5452,6436,7160
5452,6444,7168
5452,6444,7168
5456,6448,7168
5456,6448,7172
5452,6448,7172
5456,6452,7172
5448,6444,7164
5452,6444,7168
5448,6436,7160
5444,6428,7156
5448,6428,7156
5444,6424,7152
5444,6424,7148
5448,6424,7152
5444,6424,7148
5444,6424,7148
5448,6428,7152
5448,6428,7152
5448,6428,7156
5448,6428,7152
5444,6428,7152
5448,6428,7152
5444,6428,7152
5448,6428,7148
5444,6428,7152
5444,6432,7152
5448,6436,7156
5448,6440,7160
5448,6444,7160
5452,6448,7168
5452,6452,7172
5456,6460,7176
5456,6460,7176
5452,6460,7176
5456,6460,7176
5452,6456,7172
5448,6452,7168
5444,6440,7156
5440,6432,7152
5444,6432,7156
5444,6432,7152
5440,6424,7144
5440,6428,7148
5444,6428,7152
5444,6432,7152
5448,6436,7160
5448,6436,7156
5444,6436,7156
5448,6440,7160
5448,6440,7160
5452,6444,7164
5448,6440,7160
5452,6448,7168
5452,6448,7168
5452,6456,7176
5452,6456,7176
5452,6460,7176
5456,6468,7184
5456,6468,7180
5456,6472,7184
5456,6472,7184
5456,6472,7188
5456,6476,7188
5456,6472,7184
5448,6460,7172
5448,6460,7172
5444,6448,7164
5444,6444,7164
5444,6444,7160
5444,6444,7164
5440,6440,7156
5444,6444,7160
5444,6444,7160
5444,6444,7164
5444,6448,7164
5444,6448,7160
5444,6448,7164
5444,6444,7160
5448,6452,7164
5448,6452,7168
5448,6452,7168
5448,6460,7172
5452,6464,7180
5448,6460,7172
5452,6464,7180
5456,6476,7188
5456,6476,7188
5452,6476,7188
5456,6480,7192
5452,6476,7188
5456,6484,7192
5452,6480,7188
5448,6472,7180
5448,6468,7176
5444,6460,7172
5444,6460,7172
5448,6456,7172
5440,6448,7164
5440,6448,7164
5444,6448,7164
5444,6448,7164
5444,6452,7168
5444,6456,7168
5444,6452,7168
5444,6456,7168
5444,6456,7168
5448,6460,7172
5452,6468,7180
5448,6464,7176
5448,6464,7176
5448,6468,7180
5448,6468,7176
5448,6472,7184
5452,6476,7184
5452,6480,7188
5452,6480,7188
5456,6488,7192
5456,6488,7196
5452,6488,7196
5452,6488,7196
5452,6488,7196
5448,6476,7184
5448,6476,7184
5448,6468,7180
5444,6460,7172
5440,6456,7164
5440,6452,7164
5440,6456,7164
5440,6456,7164
5440,6452,7164
5448,6460,7172
5444,6460,7172
5448,6464,7176
5444,6460,7168
5444,6460,7168
5448,6464,7176
5448,6468,7176
5452,6480,7192
5456,6496,7208
5456,6500,7212
5460,6504,7216
5460,6508,7216
5456,6504,7216
5456,6504,7216
5452,6500,7212
5456,6508,7216
5456,6504,7216
5456,6504,7216
5456,6508,7220
5452,6496,7212
5452,6492,7208
5448,6488,7204
5448,6480,7196
5444,6472,7188
5440,6468,7184
5440,6464,7184
5440,6464,7180
5440,6460,7176
5440,6460,7180
5440,6460,7180
5440,6460,7180
5444,6464,7184
5444,6464,7184
5444,6464,7180
5440,6460,7180
5440,6460,7180
5440,6464,7180
5440,6464,7184
5440,6464,7184
5440,6468,7188
5440,6468,7188
5440,6472,7188
5440,6472,7188
5440,6472,7188
5440,6476,7188
5448,6480,7200
5444,6480,7196
5444,6476,7196
5440,6472,7188
5440,6464,7184
5440,6464,7184
5432,6452,7168
5436,6448,7172
5432,6448,7168
5436,6448,7172
5436,6448,7172
5436,6452,7172
5436,6452,7176
5436,6452,7176
5440,6456,7180
5436,6452,7176
5436,6456,7176
5436,6456,7176
5436,6456,7176
5436,6460,7176
5436,6460,7176
5440,6468,7184
5440,6472,7188
5440,6472,7192
5444,6476,7192
5440,6476,7192
5444,6480,7196
5444,6480,7196
5444,6484,7196
5444,6484,7196
5444,6480,7196
5440,6472,7188
5436,6464,7184
5436,6460,7180
5432,6456,7176
5432,6452,7176
5432,6452,7172
5432,6452,7172
5436,6452,7176
5436,6452,7176
5436,6456,7176
5436,6456,7180
5436,6460,7180
5436,6460,7180
5436,6460,7180
5436,6464,7180
5436,6464,7180
5440,6464,7184
5440,6468,7184
5436,6468,7184
5440,6476,7192
5440,6476,7192
5440,6476,7192
5440,6480,7192
5440,6480,7196
5444,6484,7200
5440,6484,7196
5440,6484,7196
5436,6476,7192
5436,6472,7184
5432,6468,7180
5436,6468,7188
5436,6464,7184
5436,6460,7180
5432,6456,7176
5436,6460,7176
5440,6460,7180
5436,6460,7180
5440,6464,7184
5440,6464,7184
5440,6464,7184
5440,6464,7184
5440,6464,7184
5436,6464,7184
5436,6464,7180
5432,6456,7172
5436,6460,7176
5436,6464,7176
5436,6464,7180
5440,6468,7184
5440,6472,7188
5444,6480,7192
5444,6480,7192
5444,6484,7196
5444,6488,7200
5444,6488,7200
5444,6484,7196
5440,6480,7192
5436,6472,7184
5432,6464,7176
5436,6464,7176
5432,6456,7168
5432,6456,7168
5432,6456,7172
5436,6456,7172
5432,6452,7164
5432,6452,7168
5432,6456,7172
5432,6456,7172
5436,6456,7172
5436,6460,7176
5436,6460,7176
5436,6464,7176
5436,6464,7180
5432,6460,7172
5432,6464,7176
5436,6468,7180
5436,6472,7184
5440,6476,7184
5440,6476,7188
5440,6476,7188
5444,6484,7192
5444,6488,7196
5444,6488,7196
5440,6484,7192
5440,6480,7188
5440,6476,7188
5432,6464,7176
5432,6456,7172
5428,6452,7164
5424,6448,7160
5424,6444,7160
5424,6444,7156
5428,6448,7160
5432,6452,7164
5432,6448,7164
5432,6452,7168
5432,6452,7168
5432,6460,7172
5432,6456,7172
5436,6460,7176
5432,6456,7168
5432,6460,7176
5432,6456,7168
5432,6460,7172
5432,6460,7172
5432,6460,7172
5432,6464,7176
5436,6464,7176
5436,6468,7180
5432,6464,7176
5432,6464,7176
5432,6464,7172
5432,6460,7172
5432,6456,7172
5424,6448,7160
5420,6440,7152
5424,6440,7156
5420,6432,7144
5420,6428,7144
5420,6424,7140
5416,6424,7140
5420,6424,7140
5420,6428,7144
5416,6424,7140
5416,6420,7140
5416,6420,7136
5416,6420,7136
5416,6424,7136
5416,6420,7136
5416,6424,7140
5416,6424,7136
5416,6428,7144
5416,6428,7140
5416,6428,7140
5420,6432,7148
5424,6440,7156
5424,6440,7156
5424,6444,7156
5424,6448,7160
5420,6440,7152
5420,6444,7152
5420,6440,7152
5412,6432,7144
5412,6424,7140
5408,6416,7128
5408,6416,7128
5408,6412,7128
5408,6408,7124
5412,6412,7128
5408,6412,7128
5412,6416,7132
5408,6408,7124
5412,6416,7132
5412,6416,7132
5416,6420,7136
5416,6420,7136
5416,6424,7140
5416,6428,7144
5416,6428,7140
5416,6428,7140
5416,6432,7144
5420,6436,7148
5420,6440,7152
5420,6440,7152
5424,6448,7156
5420,6448,7160
5424,6452,7160
5424,6456,7164
5424,6456,7164
5424,6452,7160
5424,6452,7160
5416,6440,7152
5412,6432,7140
5412,6428,7144
5416,6432,7144
5412,6424,7136
5412,6424,7140
5408,6420,7132
5408,6420,7132
5408,6420,7132
5412,6424,7140
5416,6428,7140
5416,6432,7144
5416,6432,7144
5416,6432,7144
5416,6436,7148
5412,6432,7144
5416,6436,7148
5420,6444,7152
5420,6448,7156
5420,6452,7160
5420,6448,7160
5424,6456,7164
5424,6456,7164
5424,6460,7164
5424,6460,7168
5424,6464,7168
5424,6464,7168
5420,6460,7168
5420,6456,7164
5416,6448,7156
5412,6440,7148
5412,6436,7144
5412,6432,7144
5412,6432,7144
5412,6432,7140
5412,6432,7144
5412,6436,7144
5416,6436,7144
5416,6436,7148
5416,6436,7148
5416,6436,7148
5416,6440,7152
5416,6440,7148
5416,6444,7152
5420,6448,7156
5420,6448,7156
5420,6452,7156
5420,6452,7160
5420,6456,7164
5420,6456,7164
5420,6460,7164
5420,6460,7168
5424,6468,7172
5424,6468,7172
5424,6468,7172
5424,6468,7172
5420,6464,7168
5416,6456,7160
5416,6452,7160
5416,6452,7156
5412,6444,7152
5412,6440,7144
5412,6436,7144
5412,6436,7144
5412,6436,7144
5412,6440,7148
5412,6440,7148
5412,6440,7148
5412,6440,7148
5416,6448,7156
5420,6452,7156
5420,6448,7156
5420,6448,7156
5420,6452,7160
5416,6452,7156
5420,6456,7160
5420,6456,7164
5420,6460,7164
5424,6464,7168
5420,6464,7164
5424,6468,7172
5424,6472,7176
5424,6472,7172
5424,6472,7176
5424,6472,7172
5424,6468,7172
5416,6460,7164
5416,6456,7160
5412,6452,7156
5412,6444,7152
5412,6444,7148
5416,6444,7148
5412,6440,7148
5416,6444,7152
5416,6444,7152
5412,6444,7152
5412,6440,7148
5416,6448,7152
5412,6440,7148
5416,6444,7156
5412,6440,7148
5412,6444,7148
5412,6440,7148
5416,6448,7152
5416,6448,7152
5412,6448,7152
5416,6452,7156
5416,6452,7156
5416,6456,7160
5416,6456,7160
5420,6460,7164
5416,6456,7160
5416,6456,7160
5412,6452,7152
5408,6448,7148
5408,6440,7144
5404,6436,7140
5404,6428,7132
5404,6428,7132
5396,6420,7124
5400,6424,7128
5400,6420,7128
5404,6424,7132
5400,6424,7132
5404,6428,7132
5408,6432,7140
5408,6432,7140
5408,6432,7140
5404,6432,7140
5408,6436,7144
5408,6436,7144
5408,6440,7144
5404,6436,7140
5404,6440,7144
5404,6440,7144
5408,6444,7148
5408,6448,7152
5408,6448,7152
5408,6452,7156
5404,6448,7152
5408,6452,7156
5408,6456,7156
5408,6456,7156
5408,6452,7156
5404,6444,7148
5400,6440,7144
5404,6440,7144
5404,6436,7144
5404,6436,7144
5400,6432,7140
5400,6436,7140
5400,6440,7144
5400,6440,7144
5404,6444,7148
5404,6444,7148
5404,6444,7148
5404,6448,7152
5408,6452,7156
5412,6460,7160
5412,6460,7164
5412,6460,7164
5412,6468,7168
5408,6464,7164
5412,6468,7168
5412,6468,7168
5412,6472,7172
5408,6472,7172
5412,6480,7176
5412,6476,7176
5412,6476,7172
5408,6472,7168
5408,6468,7168
5404,6460,7160
5404,6460,7160
5404,6460,7160
5400,6452,7152
5400,6452,7152
5400,6452,7152
5400,6452,7152
5404,6452,7156
5408,6460,7164
5404,6460,7160
5404,6460,7160
5404,6460,7160
5404,6460,7164
5408,6468,7168
5408,6468,7168
5412,6472,7176
5412,6476,7180
5412,6480,7180
5412,6480,7176
5412,6484,7180
5412,6484,7184
5412,6488,7184
5416,6492,7188
5412,6484,7180
5412,6480,7176
5408,6476,7172
5408,6476,7168
5404,6472,7168
5404,6468,7168
5404,6464,7164
5400,6456,7156
5400,6456,7156
5400,6452,7152
5400,6456,7152
5400,6452,7152
5400,6456,7152
5404,6460,7160
5404,6460,7156
5408,6468,7168
5408,6472,7168
5404,6464,7164
5404,6468,7164
5404,6468,7164
5404,6468,7164
5404,6472,7168
5404,6472,7168
5408,6480,7176
5412,6484,7180
5412,6484,7180
5412,6488,7184
5408,6484,7176
5408,6484,7180
5408,6484,7176
5408,6480,7176
5408,6480,7172
5400,6468,7164
5400,6460,7160
5400,6460,7156
5400,6460,7156
5400,6460,7156
5400,6456,7152
5404,6456,7156
5404,6460,7160
5400,6460,7156
5400,6456,7156
5404,6460,7156
5404,6464,7160
5404,6464,7160
5404,6460,7156
5400,6460,7152
5404,6460,7160
5400,6460,7156
5404,6464,7160
5404,6464,7160
5404,6468,7164
5404,6472,7168
5404,6472,7168
5404,6472,7168
5404,6472,7164
5404,6472,7168
5400,6468,7160
5400,6464,7160
5400,6460,7156
5396,6452,7148
5396,6448,7148
5392,6440,7136
5392,6440,7140
5388,6432,7132
5392,6432,7128
5392,6428,7128
5392,6428,7128
5392,6428,7128
5392,6432,7128
5392,6432,7132
5392,6432,7128
5388,6424,7124
5392,6432,7128
5392,6428,7128
5392,6428,7128
5396,6432,7132
5400,6440,7140
5396,6436,7136
5396,6436,7136
5396,6440,7140
5396,6444,7144
5396,6440,7140
5400,6448,7144
5400,6448,7144
5396,6444,7140
5392,6440,7136
5392,6432,7132
5392,6428,7128
5388,6424,7124
5388,6416,7120
5384,6412,7116
5384,6412,7116
5388,6412,7116
5388,6412,7116
5392,6416,7124
5392,6416,7124
5388,6416,7120
5392,6420,7124
5392,6420,7124
5392,6420,7124
5392,6420,7120
5392,6424,7124
5396,6424,7128
5396,6428,7128
5392,6428,7128
5396,6432,7132
5392,6428,7128
5392,6432,7132
5400,6444,7140
5400,6444,7144
5396,6444,7140
5400,6444,7144
5400,6448,7144
5396,6440,7140
5396,6436,7136
5388,6424,7124
5388,6420,7120
5388,6416,7116
5392,6420,7120
5388,6412,7116
5388,6412,7116
5388,6412,7116
5388,6416,7120
5392,6416,7120
5392,6420,7120
5392,6424,7124
5396,6424,7128
5396,6428,7132
5396,6428,7132
5392,6428,7128
5396,6432,7132
5396,6432,7132
5396,6436,7136
5396,6436,7132
5396,6440,7136
5400,6444,7144
5400,6448,7144
5400,6448,7144
5400,6452,7148
5400,6452,7148
5400,6452,7148
5396,6440,7140
5392,6432,7132
5388,6428,7124
5388,6424,7124
5392,6420,7124
5388,6416,7120
5388,6420,7120
5388,6416,7120
5388,6416,7116
5388,6416,7116
5396,6428,7128
5392,6424,7124
5392,6424,7124
5392,6424,7124
5396,6428,7124
5392,6424,7124
5392,6424,7124
5396,6432,7128
5396,6432,7132
5396,6436,7136
5400,6440,7136
5404,6444,7144
5404,6444,7144
5404,6448,7144
5404,6452,7148
5404,6452,7148
5404,6452,7148
5404,6452,7148
5404,6452,7148
5400,6444,7140
5400,6440,7136
5396,6428,7128
5392,6420,7120
5392,6420,7120
5388,6408,7108
5392,6412,7112
5392,6412,7112
5388,6408,7112
5392,6412,7112
5392,6412,7112
5396,6416,7120
5392,6412,7116
5396,6416,7116
5392,6416,7116
5396,6416,7116
5396,6420,7120
5396,6420,7116
5396,6424,7120
5396,6424,7124
5400,6432,7128
5400,6432,7128
5400,6428,7128
5400,6436,7132
5400,6432,7128
5400,6436,7132
5400,6432,7128
5404,6440,7132
5400,6432,7128
5396,6424,7120
5392,6420,7116
5392,6408,7108
5392,6408,7108
5392,6404,7100
5388,6396,7096
5388,6392,7092
5388,6396,7096
5388,6396,7096
5392,6396,7096
5392,6400,7100
5396,6404,7104
5396,6404,7104
5392,6400,7100
5392,6400,7100
5392,6400,7100
5392,6400,7100
5392,6400,7100
5396,6404,7104
5392,6404,7104
5392,6404,7100
5392,6404,7104
5396,6412,7108
5392,6408,7104
5396,6412,7108
5396,6412,7108
5396,6408,7108
5396,6408,7108
5392,6400,7096
5388,6396,7092
5388,6384,7088
5384,6380,7080
5384,6376,7076
5384,6376,7080
5384,6368,7072
5380,6364,7068
5384,6364,7068
5380,6364,7068
5384,6364,7068
5384,6364,7068
5384,6368,7072
5384,6364,7068
5380,6360,7060
5384,6364,7068
5384,6368,7072
5384,6364,7068
5384,6364,7068
5384,6364,7068
5384,6368,7068
5384,6368,7068
5388,6372,7072
5388,6372,7072
5384,6372,7072
5388,6376,7076
5392,6380,7084
5388,6380,7080
5392,6380,7084
5388,6368,7072
5384,6368,7072
5384,6360,7064
5380,6352,7060
5380,6348,7056
5380,6344,7056
5380,6340,7052
5380,6340,7052
5380,6340,7048
5380,6340,7052
5380,6340,7048
5384,6344,7056
5384,6344,7056
5380,6340,7052
5380,6344,7052
5380,6344,7052
5380,6344,7052
5380,6344,7052
5380,6344,7056
5380,6344,7052
5380,6352,7060
5384,6356,7064
5388,6360,7068
5388,6360,7068
5388,6364,7068
5388,6364,7072
5388,6364,7072
5388,6360,7072
5384,6356,7064
5380,6340,7052
5376,6336,7048
5376,6332,7044
5372,6328,7040
5376,6332,7044
5380,6332,7044
5380,6332,7048
5380,6332,7044
5380,6332,7044
5380,6336,7048
5384,6340,7052
5384,6340,7052
5380,6340,7052
5384,6344,7056
5384,6344,7056
5388,6352,7060
5392,6356,7068
5392,6356,7068
5392,6360,7072
5392,6364,7072
5392,6368,7076
5392,6372,7076
5396,6380,7084
5392,6372,7076
5392,6376,7080
5392,6376,7084
5392,6372,7080
5388,6368,7072
5388,6360,7068
5384,6352,7060
5384,6348,7056
5384,6348,7056
5384,6344,7056
5380,6344,7052
5384,6344,7056
5384,6344,7056
5388,6352,7060
5388,6352,7060
5388,6356,7068
5388,6356,7064
5388,6356,7064
5388,6360,7068
5388,6360,7068
5388,6364,7072
5392,6372,7076
5392,6372,7076
5396,6376,7084
5396,6380,7084
5392,6380,7084
5396,6384,7088
5392,6384,7088
5396,6388,7088
5396,6392,7092
5400,6396,7096
5400,6396,7096
5392,6388,7088
5392,6384,7084
5388,6376,7076
5388,6372,7076
5392,6372,7076
5388,6368,7072
5388,6368,7072
5388,6368,7076
5392,6372,7080
5392,6372,7076
5392,6376,7084
5396,6380,7084
5396,6384,7084
5392,6380,7084
5396,6384,7088
5396,6384,7088
5396,6392,7092
5396,6392,7092
5400,6396,7096
5400,6400,7100
5404,6408,7108
5404,6408,7108
5404,6412,7112
5404,6412,7112
5404,6416,7116
5408,6424,7120
5408,6420,7120
5404,6416,7112
5404,6416,7112
5400,6408,7104
5396,6400,7096
5396,6396,7096
5396,6396,7096
5392,6392,7088
5396,6392,7096
5396,6392,7096
5400,6396,7100
5404,6404,7104
5400,6404,7104
5404,6408,7108
5404,6408,7108
5404,6412,7112
5400,6404,7100
5400,6408,7108
5404,6412,7112
5408,6420,7116
5408,6420,7120
5408,6424,7120
5408,6424,7120
5408,6428,7120
5412,6432,7128
5408,6432,7124
5408,6432,7128
5412,6440,7132
5408,6436,7128
5412,6440,7132
5404,6432,7124
5404,6424,7116
5396,6416,7108
5396,6412,7108
5396,6408,7104
5396,6404,7104
5396,6404,7100
5396,6404,7100
5396,6400,7100
5396,6404,7104
5396,6408,7104
5396,6404,7104
5396,6408,7104
5396,6408,7104
5396,6408,7104
5400,6412,7108
5400,6412,7108
5400,6416,7108
5396,6412,7104
5396,6416,7108
5404,6420,7116
5404,6424,7120
5400,6420,7116
5404,6428,7124
5400,6428,7124
5400,6428,7120
5404,6432,7124
5404,6436,7128
5404,6432,7124
5400,6424,7120
5400,6420,7116
5396,6416,7112
5392,6408,7104
5392,6408,7104
5388,6400,7096
5392,6404,7100
5396,6408,7104
5392,6408,7104
5396,6412,7108
5392,6408,7108
5392,6408,7104
5392,6412,7108
5392,6412,7108
5396,6416,7112
5396,6416,7112
5400,6420,7116
5396,6424,7116
5396,6420,7116
5400,6428,7120
5400,6428,7120
5396,6428,7120
5400,6432,7124
5400,6436,7124
5404,6444,7132
5400,6444,7132
5400,6440,7128
5400,6440,7128
5396,6432,7124
5396,6428,7120
5392,6424,7116
5392,6424,7116
5392,6420,7112
5392,6416,7112
5392,6420,7112
5392,6420,7112
5396,6424,7120
5396,6424,7120
5396,6424,7120
5396,6428,7120
5396,6432,7124
5396,6428,7124
5400,6436,7124
5400,6436,7128
5396,6432,7124
5396,6436,7124
5396,6436,7128
5396,6440,7128
5400,6444,7132
5400,6448,7136
5400,6452,7140
5404,6456,7144
5404,6460,7148
5404,6456,7144
5404,6456,7144
5400,6456,7140
5396,6444,7132
5396,6444,7132
5392,6436,7124
5392,6432,7120
5392,6432,7120
5392,6432,7120
5392,6428,7120
5396,6432,7124
5392,6432,7120
5396,6436,7128
5396,6436,7124
5396,6436,7124
5396,6440,7128
5396,6436,7128
5396,6440,7128
5400,6444,7136
5400,6448,7136
5404,6452,7140
5404,6452,7144
5404,6456,7144
5400,6452,7140
5404,6456,7144
5404,6460,7148
5404,6464,7148
5404,6464,7148
5404,6460,7148
5404,6460,7144
5400,6456,7140
5400,6452,7136
5396,6444,7132
5396,6440,7132
5396,6440,7128
5392,6432,7124
5392,6432,7124
5396,6432,7124
5396,6436,7128
5396,6436,7124
5396,6440,7128
5400,6440,7128
5400,6444,7132
5400,6448,7136
5400,6448,7136
5400,6448,7136
5404,6452,7140
5404,6456,7144
5408,6460,7148
5408,6464,7148
5408,6464,7152
5412,6468,7156
5412,6476,7164
5412,6476,7164
5408,6472,7160
5412,6480,7164
5408,6476,7160
5408,6472,7156
5404,6464,7148
5400,6460,7144
5400,6456,7140
5400,6452,7136
5404,6456,7140
5404,6452,7140
5404,6452,7140
5400,6448,7136
5400,6448,7136
5400,6448,7136
5400,6452,7140
5404,6456,7144
5404,6456,7144
5404,6460,7144
5404,6456,7144
5404,6460,7144
5404,6460,7144
5404,6464,7148
5404,6464,7148
5408,6468,7152
5408,6472,7156
5404,6472,7156
5408,6476,7156
5408,6472,7156
5408,6476,7156
5408,6480,7160
5408,6480,7160
5404,6476,7156
5404,6472,7152
5396,6460,7140
5400,6456,7144
5396,6452,7136
5396,6452,7136
5396,6452,7132
5396,6448,7132
5396,6452,7140
5396,6452,7136
5400,6460,7144
5400,6460,7144
5400,6460,7144
5396,6456,7140
5396,6456,7140
5400,6460,7144
5396,6456,7140
5400,6460,7144
5396,6460,7144
5400,6464,7148
5400,6468,7152
5404,6472,7152
5400,6472,7152
5404,6476,7156
5404,6476,7156
5404,6476,7156
5400,6476,7156
5400,6472,7152
5400,6472,7152
5400,6472,7152
5396,6464,7144
5396,6464,7148
5396,6460,7140
5396,6460,7144
5396,6464,7144
5396,6464,7144
5396,6464,7148
5400,6468,7148
5396,6468,7148
5396,6468,7152
5400,6472,7152
5400,6472,7156
5400,6476,7156
5400,6476,7156
5400,6476,7160
5396,6480,7156
5404,6488,7164
5404,6488,7168
5404,6492,7172
5404,6492,7172
5404,6500,7176
5404,6500,7176
5404,6500,7176
5408,6504,7180
5404,6500,7176
5404,6500,7176
5400,6500,7176
5404,6496,7172
5404,6496,7176
5404,6500,7176
5400,6492,7172
5404,6496,7176
5404,6496,7176
5404,6500,7176
5404,6500,7172
5404,6504,7180
5404,6504,7180
5408,6512,7188
5412,6516,7192
5412,6520,7192
5416,6524,7200
5412,6524,7196
5416,6532,7204
5416,6532,7204
5416,6536,7208
5416,6536,7204
5420,6540,7212
5420,6544,7216
5420,6544,7216
5416,6548,7216
5420,6552,7220
5416,6548,7216
5420,6548,7216
5420,6548,7220
5416,6544,7216
5416,6544,7212
5412,6536,7208
5416,6540,7212
5416,6536,7208
5416,6540,7208
5416,6536,7208
5416,6540,7208
5420,6544,7212
5416,6544,7212
5416,6540,7208
5416,6544,7216
5420,6548,7220
5416,6548,7216
5420,6548,7216
5416,6548,7216
5424,6556,7224
5420,6556,7224
5424,6560,7228
5424,6564,7228
5424,6568,7232
5428,6572,7236
5424,6572,7236
5428,6580,7244
5424,6576,7240
5424,6576,7240
5424,6576,7240
5424,6576,7236
5424,6572,7236
5424,6568,7236
5420,6568,7232
5424,6564,7228
5420,6560,7224
5420,6556,7224
5420,6556,7224
5420,6556,7220
5420,6556,7224
5424,6560,7224
5420,6556,7224
5420,6560,7224
5424,6560,7228
5428,6564,7232
5424,6564,7228
5428,6568,7236
5428,6568,7236
5432,6572,7240
5428,6572,7236
5432,6576,7240
5432,6576,7240
5428,6576,7240
5428,6576,7240
5432,6576,7240
5428,6576,7240
5432,6580,7244
5428,6576,7240
5428,6576,7240
5428,6572,7236
5428,6572,7236
5424,6560,7224
5424,6556,7224
5420,6548,7216
5420,6540,7208
5420,6540,7212
5420,6536,7208
5420,6536,7204
5416,6532,7200
5416,6532,7204
5420,6532,7204
5412,6524,7196
5416,6528,7200
5416,6524,7196
5412,6524,7192
5412,6520,7192
5412,6520,7192
5416,6524,7196
5412,6520,7192
5412,6520,7192
5412,6520,7192
5416,6524,7192
5416,6524,7196
5416,6524,7196
5416,6524,7192
5416,6524,7196
5412,6520,7188
5412,6520,7188
5412,6516,7188
5412,6512,7184
5412,6508,7184
5408,6500,7176
5408,6492,7168
5408,6488,7168
5408,6484,7164
5404,6480,7160
5404,6480,7160
5404,6480,7156
5404,6476,7156
5408,6480,7160
5404,6476,7156
5408,6480,7160
5408,6480,7160
5408,6484,7164
5408,6480,7160
5412,6484,7168
5412,6484,7164
5416,6492,7172
5416,6492,7172
5412,6492,7168
5412,6492,7172
5416,6496,7172
5416,6500,7180
5420,6504,7184
5416,6504,7184
5420,6504,7184
5416,6500,7180
5416,6500,7176
5416,6488,7168
5412,6484,7164
5412,6480,7164
5412,6476,7156
5408,6472,7156
5408,6468,7152
5412,6468,7152
5408,6464,7152
5408,6464,7148
5408,6468,7152
5408,6468,7152
5412,6472,7156
5412,6472,7160
5416,6476,7160
5420,6480,7164
5416,6476,7160
5412,6476,7160
5412,6476,7160
5416,6480,7164
5420,6484,7168
5416,6484,7168
5416,6488,7168
5416,6488,7168
5420,6492,7172
5420,6492,7172
5420,6492,7172
5416,6488,7168
5416,6488,7164
5416,6480,7160
5412,6476,7156
5412,6468,7152
5408,6464,7144
5408,6460,7144
5408,6460,7144
5408,6456,7140
5408,6456,7144
5408,6456,7140
5404,6456,7136
5412,6460,7144
5412,6464,7148
5416,6468,7152
5416,6468,7152
5416,6472,7156
5416,6472,7156
5412,6468,7152
5416,6472,7156
5416,6476,7160
5416,6476,7156
5416,6480,7160
5420,6484,7164
5420,6488,7168
5424,6492,7172
5420,6492,7168
5420,6492,7172
5420,6496,7172
5420,6492,7172
5416,6488,7168
5416,6484,7160
5416,6476,7156
5412,6472,7152
5412,6468,7148
5408,6460,7144
5412,6464,7152
5412,6464,7148
5412,6464,7148
5412,6464,7148
5412,6468,7152
5412,6468,7148
5412,6468,7152
5416,6468,7152
5412,6468,7152
5412,6472,7152
5412,6472,7152
5416,6472,7156
5412,6472,7156
5420,6484,7168
5420,6484,7164
5416,6484,7160
5416,6484,7164
5420,6492,7168
5420,6492,7168
5424,6496,7176
5424,6500,7176
5424,6500,7180
5424,6500,7176
5420,6496,7172
5420,6492,7168
5416,6484,7160
5412,6476,7156
5412,6472,7152
5408,6468,7148
5408,6460,7144
5408,6464,7144
5408,6460,7144
5412,6464,7148
5412,6464,7148
5408,6464,7144
5408,6464,7148
5408,6464,7144
5412,6468,7148
5412,6468,7148
5412,6464,7148
5412,6468,7148
5408,6464,7148
5412,6468,7148
5412,6468,7148
5408,6468,7148
5412,6476,7156
5416,6476,7156
5416,6476,7160
5416,6480,7160
5416,6480,7156
5412,6480,7156
5412,6476,7156
5412,6472,7152
5408,6468,7148
5408,6464,7144
5400,6452,7132
5400,6448,7128
5400,6444,7128
5400,6444,7128
5400,6440,7124
5400,6440,7124
5396,6440,7124
5396,6436,7120
5396,6440,7124
5396,6444,7124
5400,6444,7128
5400,6444,7128
5396,6440,7124
5396,6440,7124
5400,6444,7128
5400,6444,7128
5404,6452,7136
5404,6452,7136
5400,6452,7136
5404,6460,7144
5404,6460,7144
5404,6464,7144
5404,6464,7148
5404,6464,7148
5408,6472,7152
5408,6472,7152
5404,6464,7148
5404,6464,7144
5400,6456,7140
5400,6452,7136
5404,6452,7136
5400,6444,7128
5400,6444,7128
5400,6444,7128
5400,6444,7132
5400,6444,7128
5400,6448,7132
5400,6444,7128
5400,6448,7136
5400,6448,7132
5400,6452,7136
5400,6452,7136
5404,6452,7136
5404,6452,7136
5404,6456,7140
5404,6460,7140
5404,6460,7144
5408,6464,7148
5408,6464,7148
5408,6472,7152
5412,6476,7156
5416,6480,7164
5412,6480,7160
5412,6480,7160
5408,6476,7156
5408,6480,7156
5404,6472,7152
5404,6464,7144
5400,6460,7140
5400,6452,7132
5396,6448,7132
5400,6452,7136
5400,6448,7132
5396,6444,7128
5404,6452,7136
5400,6448,7132
5400,6448,7132
5400,6452,7136
5404,6452,7136
5400,6452,7136
5400,6452,7136
5400,6452,7136
5404,6456,7140
5404,6456,7140
5400,6456,7136
5400,6456,7136
5400,6456,7140
5404,6460,7140
5404,6460,7144
5404,6464,7144
5404,6464,7148
5404,6468,7148
5408,6472,7152
5404,6468,7148
5404,6472,7152
5404,6464,7148
5400,6460,7140
5400,6452,7136
5400,6452,7136
5396,6440,7128
5396,6440,7128
5396,6436,7124
5396,6436,7124
5396,6436,7120
5396,6436,7124
5396,6436,7124
5400,6440,7128
5400,6440,7128
5400,6440,7124
5404,6444,7132
5400,6440,7128
5400,6444,7128
5404,6444,7132
5404,6448,7136
5404,6448,7136
5408,6452,7140
5400,6448,7132
5404,6452,7136
5404,6452,7140
5400,6448,7136
5400,6452,7136
5404,6456,7140
5404,6456,7140
5404,6452,7136
5400,6444,7128
5396,6436,7124
5396,6432,7120
5392,6424,7112
5396,6424,7112
5392,6420,7112
5396,6420,7112
5396,6416,7108
5392,6412,7104
5396,6416,7108
5396,6416,7108
5396,6416,7108
5396,6416,7112
5400,6420,7116
5396,6416,7108
5396,6416,7108
5396,6416,7108
5400,6420,7112
5396,6416,7108
5396,6416,7108
5396,6416,7108
5396,6420,7108
5400,6420,7108
5396,6420,7112
5400,6424,7112
5400,6424,7116
5396,6420,7108
5400,6420,7112
5396,6416,7104
5396,6408,7100
5392,6396,7092
5388,6392,7084
5384,6380,7080
5384,6376,7076
5384,6376,7072
5384,6372,7068
5384,6372,7068
5384,6372,7068
5384,6372,7068
5384,6368,7064
5388,6376,7076
5384,6372,7068
5384,6368,7068
5384,6368,7064
5388,6372,7072
5384,6368,7064
5388,6376,7076
5384,6372,7068
5384,6368,7064
5384,6372,7068
5388,6376,7076
5388,6380,7076
5388,6380,7080
5388,6384,7080
5392,6384,7080
5388,6380,7076
5384,6376,7072
5384,6368,7068
5380,6360,7060
5380,6356,7060
5376,6348,7052
5376,6344,7044
5376,6344,7048
5376,6340,7044
5372,6336,7040
5376,6340,7044
5384,6352,7052
5380,6348,7052
5380,6348,7052
5384,6352,7056
5380,6352,7052
5380,6352,7052
5384,6356,7056
5384,6356,7060
5384,6356,7056
5384,6360,7060
5384,6360,7060
5384,6364,7064
5388,6368,7068
5388,6368,7068
5388,6372,7072
5392,6376,7076
5392,6376,7076
5384,6372,7068
5384,6368,7068
5384,6360,7060
5380,6352,7052
5376,6344,7048
5376,6340,7044
5376,6340,7044
5372,6332,7036
5376,6336,7040
5376,6336,7044
5380,6340,7040
5380,6340,7044
5380,6344,7048
5384,6348,7052
5384,6352,7052
5384,6348,7052
5380,6344,7048
5384,6348,7052
5384,6348,7052
5380,6348,7052
5384,6352,7052
5384,6356,7056
5380,6356,7052
5384,6360,7056
5384,6364,7060
5384,6364,7064
5388,6372,7068
5392,6372,7072
5384,6360,7060
5384,6356,7056
5380,6352,7052
5380,6348,7048
5376,6336,7040
5372,6328,7032
5372,6328,7032
5376,6332,7036
5376,6328,7032
5380,6336,7040
5376,6332,7036
5376,6332,7036
5376,6332,7036
5376,6336,7036
5376,6336,7036
5384,6344,7044
5384,6344,7048
5384,6344,7048
5384,6348,7052
5384,6348,7048
5384,6352,7052
5384,6356,7052
5384,6356,7056
5388,6360,7060
5388,6364,7064
5392,6368,7064
5388,6364,7064
5388,6364,7060
5384,6356,7056
5380,6348,7044
5376,6340,7044
5376,6336,7040
5376,6332,7036
5376,6328,7032
5380,6332,7036
5380,6328,7036
5376,6328,7032
5376,6328,7032
5380,6332,7036
5380,6336,7040
5380,6336,7040
5380,6332,7036
5384,6340,7044
5384,6344,7048
5384,6344,7044
5384,6344,7048
5388,6348,7052
5388,6348,7052
5392,6356,7056
5388,6356,7056
5388,6356,7056
5392,6360,7060
5388,6364,7064
5392,6364,7064
5388,6364,7060
5388,6364,7060
5384,6356,7056
5380,6348,7044
5380,6336,7040
5384,6340,7044
5380,6332,7036
5376,6324,7028
5376,6324,7028
5372,6316,7024
5372,6316,7020
5376,6320,7028
5376,6324,7028
5376,6320,7028
5376,6320,7024
5376,6320,7024
5372,6320,7020
5376,6320,7024
5372,6320,7024
5372,6320,7024
5372,6320,7024
5380,6328,7032
5380,6328,7032
5380,6332,7032
5380,6336,7036
5380,6336,7036
5384,6340,7044
5384,6340,7040
5380,6336,7040
5380,6336,7040
5376,6328,7028
5376,6324,7028
5368,6312,7016
5368,6308,7016
5368,6304,7008
5368,6300,7004
5368,6300,7008
5368,6296,7004
5364,6292,6996
5368,6296,7004
5368,6296,7004
5368,6300,7008
5368,6300,7008
5368,6296,7004
5368,6300,7008
5368,6300,7008
5372,6308,7016
5372,6308,7016
5372,6308,7016
5372,6312,7016
5372,6312,7016
5376,6316,7020
5372,6316,7020
5372,6316,7020
5376,6324,7028
5376,6324,7028
5372,6320,7024
5376,6320,7024
5368,6312,7020
5368,6312,7016
5364,6300,7008
5360,6292,6996
5360,6292,7000
5364,6292,7000
5364,6292,7000
5364,6296,7004
5364,6296,7004
5372,6304,7012
5372,6304,7012
5368,6300,7008
5368,6304,7012
5372,6308,7016
5372,6312,7020
5372,6312,7016
5372,6312,7020
5376,6316,7024
5376,6320,7024
5376,6328,7032
5376,6328,7032
5380,6336,7040
5376,6332,7036
5376,6336,7036
5380,6340,7040
5380,6344,7044
5384,6348,7048
5380,6344,7044
5380,6340,7044
5376,6332,7036
5372,6324,7028
5368,6316,7016
5368,6312,7016
5368,6308,7016
5368,6308,7016
5368,6312,7016
5376,6320,7024
5376,6320,7028
5376,6324,7028
5372,6320,7028
5372,6324,7024
5372,6324,7028
5376,6328,7032
5376,6332,7032
5380,6336,7040
5380,6340,7040
5380,6344,7044
5384,6348,7048
5380,6348,7048
5388,6356,7056
5388,6364,7060
5392,6368,7068
5392,6368,7064
5392,6372,7072
5392,6372,7068
5388,6368,7068
5388,6364,7060
5384,6356,7056
5380,6348,7048
5380,6344,7044
5380,6340,7040
5380,6344,7044
5376,6336,7040
5380,6340,7044
5380,6340,7044
5380,6344,7044
5384,6348,7048
5384,6348,7048
5384,6352,7052
5384,6352,7052
5388,6356,7056
5384,6356,7052
5384,6356,7052
5388,6364,7060
5392,6368,7068
5388,6368,7064
5388,6368,7064
5388,6372,7064
5392,6380,7072
5392,6384,7080
5392,6384,7076
5396,6388,7084
5396,6392,7084
5396,6392,7084
5392,6384,7080
5388,6380,7072
5384,6372,7064
5384,6364,7060
5380,6360,7060
5380,6360,7052
5384,6360,7056
5380,6360,7056
5384,6360,7056
5384,6364,7060
5388,6372,7068
5388,6372,7068
5384,6368,7064
5392,6376,7072
5392,6380,7076
5392,6380,7076
5396,6384,7080
5396,6388,7084
5396,6388,7084
5400,6396,7088
5396,6392,7084
5396,6396,7084
5396,6396,7088
5396,6400,7092
5396,6400,7092
5400,6408,7096
5400,6408,7100
5400,6408,7100
5396,6408,7096
5396,6404,7092
5392,6396,7088
5392,6392,7084
5388,6384,7076
5388,6380,7076
5388,6380,7072
5384,6376,7068
5384,6372,7068
5384,6372,7068
5384,6372,7064
5388,6376,7068
5388,6376,7072
5384,6372,7068
5384,6376,7068
5384,6376,7068
5388,6380,7076
5384,6376,7072
5384,6380,7072
5384,6380,7072
5388,6384,7076
5388,6388,7076
5388,6388,7076
5388,6388,7080
5388,6392,7084
5392,6396,7088
5392,6396,7088
5392,6400,7088
5388,6392,7080
5388,6388,7080
5380,6380,7072
5380,6376,7064
5380,6372,7064
5380,6372,7064
5376,6364,7060
5380,6364,7060
5380,6364,7060
5376,6364,7060
5380,6368,7064
5380,6372,7064
5384,6376,7068
5380,6372,7064
5380,6372,7064
5384,6376,7068
5380,6376,7068
5384,6380,7072
5384,6380,7076
5380,6380,7072
5384,6384,7076
5384,6388,7080
5388,6396,7088
5388,6400,7088
5388,6400,7088
5388,6404,7092
5388,6408,7096
5392,6408,7096
5388,6408,7096
5388,6404,7092
5384,6400,7088
5384,6392,7080
5384,6392,7080
5380,6388,7076
5380,6384,7076
5380,6384,7072
5376,6376,7068
5380,6384,7072
5380,6388,7080
5380,6388,7080
5380,6392,7080
5384,6396,7084
5384,6396,7084
5384,6400,7084
5384,6396,7084
5384,6404,7088
5388,6408,7092
5388,6408,7092
5388,6412,7100
5388,6416,7100
5388,6416,7100
5388,6420,7104
5392,6424,7108
5392,6432,7112
5396,6436,7116
5396,6436,7116
5396,6436,7120
5392,6432,7112
5388,6428,7108
5388,6424,7104
5384,6416,7100
5384,6412,7096
5384,6408,7092
5384,6408,7092
5384,6408,7092
5384,6412,7096
5388,6416,7100
5388,6416,7100
5384,6416,7100
5388,6416,7100
5388,6420,7104
5392,6424,7108
5388,6424,7104
5392,6428,7108
5392,6432,7116
5396,6440,7120
5396,6440,7120
5400,6448,7128
5396,6444,7124
5396,6448,7128
5400,6452,7132
5400,6456,7132
5400,6456,7136
5396,6456,7132
5400,6460,7136
5400,6456,7136
5396,6452,7132
5392,6444,7124
5392,6440,7124
5392,6436,7116
5388,6432,7112
5388,6432,7112
5392,6436,7116
5392,6432,7116
5392,6436,7116
5392,6440,7120
5392,6440,7120
5392,6436,7120
5392,6436,7120
5388,6436,7112
5392,6440,7120
5392,6444,7120
5396,6448,7128
5396,6448,7128
5396,6452,7132
5396,6456,7132
5396,6456,7132
5396,6460,7136
5400,6464,7140
5400,6468,7144
5400,6472,7144
5404,6476,7148
5400,6472,7144
5400,6468,7144
5396,6464,7140
5392,6456,7128
5392,6452,7128
5392,6448,7124
5392,6448,7128
5392,6444,7124
5392,6444,7124
5392,6444,7120
5392,6448,7124
5396,6452,7132
5400,6456,7136
5396,6456,7136
5396,6456,7132
5396,6456,7136
5400,6460,7136
5396,6460,7136
5400,6460,7140
5400,6460,7140
5400,6464,7140
5400,6464,7140
5400,6464,7140
5396,6464,7136
5400,6468,7144
5404,6476,7156
5400,6472,7144
5400,6472,7144
5396,6472,7144
5396,6464,7136
5392,6460,7136
5392,6456,7128
5388,6452,7124
5384,6444,7120
5388,6444,7116
5388,6444,7124
5388,6440,7116
5388,6440,7116
5388,6440,7116
5384,6436,7116
5384,6436,7116
5392,6444,7124
5392,6444,7124
5392,6444,7120
5388,6440,7120
5388,6444,7120
5388,6444,7120
5388,6444,7124
5388,6444,7120
5388,6448,7124
5396,6456,7132
5392,6456,7132
5396,6460,7136
5392,6460,7136
5396,6460,7136
5392,6456,7132
5392,6456,7132
5388,6452,7128
5388,6452,7128
5388,6448,7124
5388,6448,7124
5388,6444,7120
5384,6440,7120
5384,6436,7116
5384,6436,7116
5384,6436,7116
5384,6436,7116
5388,6440,7120
5388,6440,7120
5388,6444,7124
5388,6444,7124
5388,6444,7124
5392,6448,7128
5388,6448,7128
5392,6456,7132
5392,6456,7132
5392,6460,7136
5392,6460,7136
5392,6464,7140
5396,6468,7144
5396,6468,7144
5392,6468,7144
5396,6472,7148
5396,6472,7148
5396,6472,7148
5396,6472,7148
5392,6468,7144
5392,6460,7136
5384,6456,7128
5384,6452,7128
5384,6448,7128
5384,6448,7124
5384,6448,7124
5384,6448,7128
5384,6448,7124
5388,6452,7128
5388,6456,7132
5392,6460,7136
5388,6456,7132
5388,6460,7136
5396,6468,7144
5392,6464,7144
5392,6464,7140
5392,6468,7144
5392,6468,7144
5396,6472,7148
5400,6480,7156
5396,6480,7152
5396,6484,7156
5400,6484,7160
5396,6484,7156
5400,6488,7160
5400,6488,7160
5396,6484,7156
5392,6480,7152
5392,6476,7148
5388,6468,7140
5388,6464,7140
5388,6464,7140
5388,6464,7136
5388,6460,7136
5392,6464,7140
5396,6468,7144
5396,6472,7148
5392,6468,7144
5392,6468,7140
5392,6472,7144
5392,6472,7144
5396,6476,7152
5396,6476,7152
5396,6476,7148
5400,6484,7156
5396,6480,7152
5396,6480,7156
5400,6488,7160
5400,6488,7160
5400,6492,7164
5400,6496,7168
5400,6496,7164
5400,6496,7168
5400,6496,7164
5404,6496,7168
5400,6492,7164
5400,6488,7160
5396,6480,7156
5396,6480,7156
5396,6480,7152
5396,6476,7148
5396,6472,7148
5392,6472,7144
5396,6472,7148
5396,6476,7152
5400,6480,7156
5400,6480,7156
5400,6480,7156
5400,6484,7156
5400,6484,7156
5400,6488,7160
5400,6488,7164
5404,6492,7168
5404,6492,7164
5404,6496,7168
5408,6500,7172
5408,6500,7172
5408,6504,7176
5408,6508,7180
5404,6508,7176
5408,6508,7176
5404,6508,7176
5404,6500,7172
5400,6496,7168
5400,6492,7164
5400,6488,7160
5400,6488,7160
5400,6484,7156
5396,6480,7156
5400,6484,7156
5404,6488,7160
5404,6488,7160
5400,6484,7156
5404,6484,7160
5404,6488,7160
5404,6488,7160
5400,6484,7156
5400,6484,7156
5400,6484,7156
5404,6492,7164
5400,6488,7160
5404,6492,7168
5404,6492,7164
5404,6492,7164
5404,6492,7164
5404,6496,7164
5404,6496,7168
5404,6500,7168
5408,6504,7172
5404,6500,7172
5404,6496,7168
5400,6492,7160
5396,6484,7156
5396,6476,7152
5396,6476,7148
5396,6472,7148
5392,6468,7140
5392,6464,7140
5392,6464,7140
5392,6464,7140
5392,6464,7136
5392,6460,7136
5392,6464,7136
5396,6468,7144
5392,6464,7140
5396,6468,7144
5396,6468,7140
5392,6464,7140
5396,6468,7144
5400,6472,7148
5396,6472,7148
5400,6476,7152
5400,6480,7156
5400,6484,7160
5400,6484,7156
5400,6480,7156
5400,6480,7156
5400,6484,7156
5396,6472,7148
5392,6472,7144
5392,6464,7136
5388,6456,7132
5392,6456,7132
5392,6452,7132
5384,6444,7124
5388,6444,7124
5388,6444,7124
5388,6448,7124
5392,6448,7128
5388,6448,7128
5396,6456,7136
5396,6456,7136
5396,6456,7136
5396,6456,7136
5396,6456,7136
5396,6460,7140
5400,6460,7140
5400,6464,7144
5396,6460,7140
5400,6464,7144
5396,6464,7140
5396,6464,7140
5396,6468,7144
5400,6468,7148
5404,6476,7152
5400,6472,7152
5400,6472,7148
5400,6468,7144
5396,6460,7140
5392,6448,7128
5392,6448,7128
5392,6440,7124
5392,6440,7120
5392,6436,7120
5392,6436,7120
5396,6440,7124
5392,6440,7120
5396,6440,7124
5396,6440,7124
5392,6440,7124
5396,6444,7124
5400,6444,7132
5400,6448,7132
5400,6452,7132
5396,6448,7128
5400,6452,7132
5396,6448,7128
5400,6452,7132
5404,6456,7140
5400,6456,7136
5404,6460,7140
5404,6460,7140
5404,6464,7144
5400,6456,7136
5400,6456,7136
5396,6448,7128
5396,6444,7124
5392,6436,7116
5396,6436,7120
5392,6428,7112
5392,6420,7108
5392,6420,7108
5396,6424,7112
5396,6428,7116
5396,6424,7112
5396,6424,7112
5396,6424,7112
5396,6428,7112
5400,6428,7116
5400,6432,7116
5400,6428,7116
5404,6436,7124
5404,6436,7124
5404,6436,7120
5400,6436,7120
5404,6440,7124
5404,6440,7128
5404,6440,7124
5404,6444,7124
5404,6444,7128
5408,6448,7132
5408,6452,7136
5408,6448,7132
5404,6444,7124
5400,6436,7120
5400,6428,7116
5404,6428,7116
5396,6416,7108
5396,6416,7104
5400,6416,7104
5400,6416,7104
5396,6412,7100
5404,6420,7108
5400,6416,7108
5400,6416,7104
5400,6416,7104
5400,6416,7104
5400,6416,7104
5400,6416,7108
5400,6416,7104
5404,6424,7108
5404,6424,7112
5404,6428,7112
5404,6432,7116
5408,6432,7120
5408,6436,7120
5412,6440,7128
5408,6444,7128
5408,6444,7128
5408,6444,7128
5408,6444,7128
5408,6440,7124
5408,6440,7124
5404,6432,7116
5400,6424,7108
5400,6420,7108
5400,6412,7100
5400,6412,7096
5396,6408,7096
5400,6412,7100
5404,6416,7104
5400,6412,7100
5404,6416,7104
5404,6416,7104
5400,6416,7104
5404,6416,7104
5404,6416,7104
5404,6420,7104
5404,6420,7104
5404,6416,7104
5400,6420,7104
5404,6424,7112
5404,6424,7112
