7348,5416,6088
7348,5408,6080
7344,5404,6076
7348,5408,6080
7340,5400,6072
7336,5392,6064
7336,5396,6064
7336,5392,6064
7336,5392,6064
7336,5388,6060
7344,5396,6064
7340,5392,6060
7340,5388,6060
7336,5388,6056
7332,5384,6052
7332,5380,6052
7328,5380,6052
7328,5380,6048
7328,5380,6048
7332,5384,6056
7340,5392,6064
7332,5388,6060
7340,5392,6064
7336,5388,6060
7332,5384,6060
7328,5384,6052
7332,5384,6056
7336,5388,6060
7344,5396,6068
7340,5392,6064
7332,5384,6056
7332,5384,6056
7332,5388,6060
7336,5388,6060
7336,5388,6056
7336,5388,6056
7328,5372,6040
7324,5372,6036
7316,5360,6024
7312,5356,6020
7312,5352,6012
7308,5348,6008
7308,5344,6008
7304,5340,6000
7304,5336,5996
7296,5328,5992
7296,5324,5984
7292,5320,5980
7288,5316,5976
7292,5320,5976
7292,5316,5976
7296,5316,5972
7288,5308,5964
7284,5304,5960
7288,5308,5964
7284,5304,5964
7276,5300,5952
7280,5300,5956
7280,5304,5956
7280,5300,5956
7280,5304,5960
7284,5308,5968
7284,5312,5968
7288,5312,5968
7284,5312,5968
7288,5316,5972
7292,5320,5976
7292,5320,5980
7296,5324,5980
7292,5320,5980
7292,5324,5980
7292,5324,5980
7296,5328,5984
7296,5328,5984
7300,5332,5992
7304,5336,5988
7296,5328,5980
7288,5320,5972
7284,5312,5964
7284,5316,5968
7288,5316,5972
7288,5320,5972
7292,5320,5976
7292,5324,5980
7300,5332,5992
7296,5332,5992
7304,5340,6000
7300,5336,5996
7304,5340,6000
7304,5344,6004
7308,5348,6012
7316,5356,6020
7312,5356,6024
7324,5372,6040
7328,5384,6052
7328,5384,6052
7328,5384,6056
7332,5392,6064
7336,5396,6068
7340,5396,6068
7344,5404,6080
7352,5420,6096
7352,5420,6096
7352,5416,6088
7356,5424,6096
7364,5436,6116
7360,5436,6112
7360,5432,6108
7364,5440,6116
7368,5444,6120
7364,5440,6116
7364,5440,6116
7360,5436,6112
7364,5440,6112
7360,5436,6108
7352,5424,6092
7344,5416,6084
7344,5416,6084
7344,5412,6084
7340,5404,6076
7340,5404,6072
7340,5404,6072
7340,5400,6068
7336,5396,6068
7336,5396,6068
7340,5396,6068
7336,5396,6068
7336,5396,6064
7332,5392,6060
7332,5392,6060
7340,5396,6068
7332,5388,6056
7332,5384,6052
7324,5380,6048
7320,5376,6044
7328,5384,6052
7336,5392,6064
7340,5400,6068
7336,5392,6064
7332,5388,6056
7332,5388,6056
7336,5396,6064
7336,5396,6064
7332,5388,6056
7328,5384,6056
7332,5392,6060
7336,5396,6064
7336,5396,6068
7336,5396,6068
7332,5392,6060
7336,5396,6064
7332,5392,6060
7328,5384,6052
7328,5384,6048
7328,5380,6044
7324,5372,6036
7316,5368,6028
7316,5364,6028
7308,5356,6016
7304,5348,6008
7304,5344,6000
7300,5340,6000
7300,5332,5992
7292,5320,5976
7292,5320,5980
7296,5324,5980
7288,5320,5972
7284,5312,5968
7280,5308,5964
7284,5312,5964
7280,5308,5960
7284,5308,5964
7284,5308,5964
7280,5304,5960
7272,5300,5952
7276,5304,5956
7276,5304,5960
7284,5312,5968
7280,5308,5960
7280,5308,5964
7280,5308,5960
7276,5304,5956
7272,5300,5952
7272,5300,5952
7276,5300,5952
7276,5304,5956
7276,5304,5956
7280,5308,5960
7276,5300,5952
7276,5300,5956
7276,5308,5960
7280,5312,5964
7280,5308,5956
7276,5300,5948
7276,5300,5948
7272,5296,5944
7272,5296,5940
7264,5284,5932
7264,5288,5932
7264,5284,5928
7264,5284,5928
7264,5284,5928
7268,5288,5936
7264,5284,5932
7268,5288,5936
7268,5292,5940
7268,5292,5940
7272,5292,5944
7268,5296,5944
7276,5300,5952
7276,5304,5956
7280,5312,5964
7288,5320,5972
7284,5320,5972
7288,5324,5980
7296,5332,5992
7300,5344,6004
7304,5348,6008
7300,5348,6004
7304,5352,6012
7308,5356,6016
7308,5360,6020
7312,5368,6028
7312,5372,6032
7320,5380,6040
7320,5384,6044
7324,5388,6052
7328,5392,6056
7328,5392,6056
7324,5392,6052
7328,5392,6056
7328,5396,6060
7332,5400,6064
7328,5396,6056
7328,5392,6056
7324,5388,6052
7324,5388,6048
7320,5384,6044
7328,5388,6052
7328,5392,6056
7328,5392,6056
7324,5384,6048
7324,5384,6044
7324,5384,6044
7324,5380,6044
7320,5380,6040
7324,5380,6044
7324,5384,6048
7320,5376,6040
7324,5380,6040
7324,5384,6044
7328,5384,6048
7328,5392,6056
7332,5396,6064
7324,5388,6052
7324,5388,6052
7328,5392,6056
7332,5400,6068
7332,5400,6068
7328,5396,6060
7332,5396,6060
7328,5396,6060
7328,5396,6060
7324,5388,6052
7328,5392,6060
7328,5396,6064
7332,5400,6064
7324,5392,6056
7324,5388,6052
7324,5388,6048
7316,5384,6044
7316,5380,6036
7312,5372,6028
7308,5364,6024
7304,5356,6012
7300,5352,6004
7300,5352,6008
7304,5352,6008
7296,5344,6000
7296,5344,5996
7292,5340,5996
7292,5340,5996
7292,5336,5988
7284,5328,5980
7288,5328,5980
7288,5328,5984
7284,5328,5984
7284,5328,5980
7284,5324,5980
7288,5328,5984
7292,5336,5992
7296,5340,5996
7296,5336,5992
7292,5332,5988
7296,5340,5996
7300,5344,6004
7296,5336,5992
7288,5332,5984
7292,5340,5996
7300,5352,6008
7296,5348,6008
7296,5348,6008
7296,5352,6012
7300,5352,6012
7300,5348,6008
7300,5352,6008
7300,5356,6012
7304,5360,6020
7304,5356,6016
7292,5344,6000
7284,5332,5984
7280,5324,5976
7272,5316,5968
7276,5316,5964
7272,5308,5952
7264,5296,5944
7260,5292,5936
7260,5284,5928
7252,5276,5920
7252,5280,5924
7252,5280,5924
7244,5272,5916
7248,5268,5912
7248,5268,5912
7244,5268,5912
7244,5268,5908
7240,5264,5908
7240,5260,5904
7244,5268,5908
7244,5268,5912
7244,5272,5912
7248,5276,5920
7248,5280,5924
7260,5288,5936
7260,5292,5940
7260,5296,5944
7256,5292,5940
7256,5292,5936
7260,5296,5940
7264,5300,5948
7264,5300,5944
7260,5300,5944
7264,5308,5952
7268,5308,5956
7268,5312,5960
7268,5312,5960
7272,5320,5964
7268,5316,5960
7268,5312,5956
7268,5308,5952
7268,5312,5952
7272,5316,5960
7260,5304,5948
7264,5304,5948
7268,5308,5956
7268,5312,5960
7276,5316,5964
7264,5308,5956
7264,5308,5956
7268,5316,5960
7272,5320,5968
7276,5320,5972
7276,5324,5972
7272,5320,5968
7272,5320,5968
7272,5320,5968
7272,5324,5972
7276,5328,5976
7284,5336,5988
7284,5340,5988
7288,5344,5992
7284,5340,5992
7280,5340,5984
7280,5336,5984
7280,5336,5984
7284,5340,5988
7288,5344,5992
7292,5348,6000
7296,5356,6004
7296,5356,6008
7300,5360,6008
7300,5360,6012
7292,5356,6008
7296,5360,6012
7288,5352,6000
7292,5352,6000
7292,5352,6000
7284,5344,5988
7280,5336,5976
7272,5324,5968
7276,5328,5976
7272,5324,5964
7268,5316,5960
7268,5316,5960
7272,5320,5964
7272,5316,5964
7268,5312,5956
7264,5304,5948
7268,5308,5956
7268,5312,5956
7264,5308,5952
7260,5300,5944
7260,5300,5944
7256,5300,5944
7256,5300,5944
7256,5296,5944
7260,5304,5948
7252,5300,5944
7264,5312,5956
7264,5308,5956
7264,5308,5952
7268,5316,5964
7276,5328,5976
7280,5336,5992
7276,5332,5984
7276,5332,5980
7272,5328,5980
7272,5324,5976
7268,5324,5972
7276,5332,5980
7272,5332,5980
7272,5328,5976
7264,5316,5964
7268,5320,5968
7264,5312,5956
7256,5300,5944
7256,5300,5940
7248,5296,5936
7244,5284,5920
7236,5272,5912
7236,5276,5916
7248,5284,5924
7244,5280,5920
7232,5264,5904
7236,5264,5904
7236,5272,5908
7236,5272,5912
7236,5272,5912
7236,5264,5904
7228,5256,5892
7232,5260,5896
7224,5252,5892
7224,5248,5884
7216,5240,5876
7224,5248,5880
7224,5252,5888
7224,5252,5892
7228,5252,5888
7224,5248,5888
7220,5248,5884
7220,5244,5876
7220,5244,5876
7220,5244,5876
7216,5236,5868
7216,5240,5872
7220,5244,5876
7216,5244,5876
7224,5244,5876
7224,5252,5880
7220,5248,5880
7220,5248,5876
7220,5248,5880
7224,5252,5884
7224,5256,5884
7228,5256,5888
7228,5256,5884
7216,5244,5872
7220,5244,5872
7224,5256,5884
7224,5256,5884
7224,5252,5884
7228,5260,5888
7232,5264,5900
7232,5268,5900
7240,5276,5912
7240,5280,5916
7244,5284,5920
7248,5288,5924
7244,5288,5928
7248,5292,5928
7248,5296,5936
7256,5304,5944
7260,5308,5948
7260,5312,5956
7268,5324,5964
7276,5332,5980
7276,5336,5980
7276,5340,5988
7280,5348,5996
7292,5364,6012
7296,5368,6020
7292,5368,6020
7296,5372,6024
7300,5384,6036
7308,5396,6052
7316,5404,6060
7316,5404,6060
7320,5404,6064
7316,5408,6064
7320,5408,6068
7320,5408,6064
7320,5408,6068
7320,5412,6072
7316,5408,6064
7316,5404,6060
7312,5400,6052
7308,5396,6048
7304,5388,6040
7300,5380,6028
7292,5372,6024
7296,5376,6028
7292,5368,6020
7296,5372,6024
7296,5372,6024
7300,5376,6028
7292,5372,6024
7288,5368,6020
7296,5372,6028
7292,5368,6020
7292,5368,6020
7292,5364,6016
7292,5364,6016
7288,5360,6012
7288,5360,6012
7292,5368,6020
7300,5380,6032
7296,5376,6028
7292,5368,6020
7300,5372,6024
7300,5376,6028
7296,5372,6028
7292,5372,6024
7288,5368,6020
7292,5368,6020
7300,5380,6032
7300,5380,6036
7304,5384,6036
7300,5376,6028
7292,5372,6020
7292,5368,6020
7292,5368,6020
7288,5368,6016
7292,5368,6020
7284,5360,6004
7268,5336,5980
7268,5336,5976
7268,5336,5980
7268,5336,5980
7264,5324,5968
7252,5312,5952
7260,5320,5960
7264,5328,5972
7264,5328,5972
7260,5320,5964
7256,5312,5956
7252,5308,5948
7248,5300,5940
7248,5300,5940
7244,5300,5940
7252,5304,5944
7248,5300,5940
7248,5300,5940
7248,5300,5944
7252,5308,5948
7248,5300,5944
7240,5292,5932
7240,5292,5928
7248,5296,5936
7248,5296,5936
7240,5288,5928
7236,5284,5920
7236,5288,5924
7244,5292,5932
7240,5292,5928
7244,5292,5928
7240,5292,5928
7240,5296,5932
7240,5296,5932
7244,5292,5932
7236,5288,5920
7236,5288,5920
7240,5292,5928
7236,5292,5924
7236,5284,5916
7232,5280,5912
7232,5280,5912
7232,5276,5908
7236,5280,5916
7236,5284,5916
7232,5280,5912
7236,5280,5912
7240,5288,5920
7244,5292,5928
7236,5288,5920
7236,5284,5920
7232,5284,5920
7244,5296,5932
7244,5296,5936
7248,5304,5940
7248,5304,5944
7256,5316,5956
7252,5316,5952
7260,5324,5964
7260,5324,5964
7264,5336,5976
7272,5344,5988
7272,5352,5996
7276,5352,6000
7280,5360,6008
7280,5360,6008
7284,5368,6012
7280,5368,6012
7292,5376,6024
7292,5384,6032
7296,5388,6036
7296,5388,6036
7300,5388,6040
7308,5400,6052
7304,5400,6052
7300,5396,6044
7296,5388,6036
7296,5388,6036
7296,5392,6040
7300,5392,6044
7300,5392,6036
7292,5384,6032
7296,5388,6036
7296,5384,6032
7292,5380,6028
7296,5380,6028
7296,5384,6032
7292,5376,6024
7292,5372,6020
7284,5372,6016
7288,5376,6024
7288,5380,6028
7284,5372,6016
7284,5368,6016
7288,5376,6024
7292,5384,6032
7292,5388,6036
7296,5388,6040
7292,5384,6032
7292,5384,6032
7300,5392,6044
7304,5396,6048
7300,5392,6044
7300,5392,6040
7300,5392,6040
7300,5392,6044
7304,5404,6056
7304,5396,6048
7296,5392,6044
7296,5396,6044
7300,5396,6048
7296,5392,6044
7292,5384,6032
7288,5380,6028
7288,5380,6024
7284,5376,6024
7284,5376,6020
7284,5372,6016
7276,5360,6004
7268,5348,5988
7264,5344,5984
7272,5352,5996
7268,5348,5992
7260,5340,5980
7260,5336,5980
7256,5336,5976
7264,5336,5980
7256,5328,5968
7256,5328,5972
7260,5336,5980
7260,5332,5972
7256,5324,5964
7248,5316,5956
7248,5316,5956
7252,5320,5960
7264,5336,5976
7268,5340,5980
7264,5336,5980
7260,5332,5972
7264,5336,5976
7264,5336,5980
7268,5344,5984
7260,5336,5976
7260,5328,5968
7252,5320,5956
7240,5304,5936
7236,5300,5936
7240,5308,5944
7248,5316,5956
7248,5316,5952
7240,5304,5936
7232,5288,5920
7228,5284,5912
7224,5280,5908
7224,5280,5908
7220,5276,5904
7224,5276,5904
7212,5264,5884
7208,5256,5880
7216,5264,5888
7220,5268,5896
7220,5268,5896
7212,5260,5884
7208,5252,5876
7204,5248,5872
7204,5248,5868
7208,5252,5876
7212,5260,5884
7212,5256,5880
7204,5248,5868
7200,5240,5860
7200,5244,5864
7208,5256,5880
7220,5272,5900
7220,5276,5904
7220,5272,5900
7216,5268,5892
7212,5264,5888
7216,5272,5896
7228,5288,5916
7236,5304,5932
7236,5300,5932
7236,5300,5928
7240,5304,5936
7248,5316,5948
7256,5328,5964
7260,5340,5980
7268,5356,5996
7268,5348,5988
7260,5340,5976
7260,5340,5976
7264,5344,5980
7264,5348,5984
7260,5340,5976
7256,5332,5968
7260,5340,5976
7264,5348,5984
7280,5364,6008
7276,5364,6004
7276,5360,6000
7272,5352,5992
7260,5344,5980
7264,5344,5980
7272,5356,5996
7276,5364,6008
7276,5368,6008
7272,5356,5996
7268,5348,5988
7264,5348,5988
7268,5352,5992
7276,5364,6008
7280,5372,6012
7272,5364,6004
7264,5348,5988
7268,5356,5996
7276,5372,6012
7288,5384,6032
7288,5388,6032
7288,5388,6032
7288,5384,6028
7292,5388,6036
7296,5400,6048
7308,5420,6072
7320,5440,6096
7316,5428,6080
7300,5408,6056
7288,5392,6036
7288,5388,6032
7292,5396,6044
7300,5412,6060
7300,5404,6052
7284,5384,6028
7280,5380,6020
7284,5384,6028
7280,5376,6020
7280,5376,6020
7280,5372,6016
7272,5364,6004
7264,5348,5988
7260,5340,5976
7260,5340,5976
7264,5344,5984
7264,5344,5984
7260,5332,5972
7248,5324,5960
7244,5316,5948
7244,5312,5944
7244,5320,5952
7244,5320,5956
7248,5324,5960
7256,5332,5972
7252,5332,5972
7252,5332,5968
7252,5332,5968
7256,5336,5976
7256,5340,5980
7256,5332,5972
7256,5332,5972
7248,5328,5964
7248,5328,5964
7256,5336,5972
7260,5340,5980
7260,5344,5984
7264,5348,5988
7260,5344,5984
7264,5348,5988
7260,5344,5984
7264,5348,5988
7264,5348,5988
7256,5340,5980
7244,5324,5960
7240,5316,5948
7236,5312,5944
7232,5304,5936
7232,5300,5932
7228,5296,5924
7220,5280,5912
7216,5276,5904
7220,5280,5908
7216,5272,5900
7212,5272,5900
7212,5272,5904
7212,5272,5900
7212,5268,5892
7212,5268,5896
7216,5272,5896
7216,5268,5896
7208,5264,5888
7208,5264,5892
7216,5276,5904
7212,5272,5896
7212,5268,5896
7216,5276,5900
7220,5280,5908
7228,5292,5920
7224,5288,5916
7228,5292,5924
7224,5288,5916
7224,5288,5916
7224,5292,5920
7232,5300,5928
7232,5304,5932
7236,5312,5940
7244,5320,5952
7244,5324,5956
7240,5316,5948
7236,5316,5944
7244,5324,5952
7248,5328,5960
7244,5320,5952
7240,5316,5948
7240,5316,5948
7240,5316,5948
7232,5308,5940
7228,5304,5932
7232,5304,5936
7240,5316,5948
7240,5320,5952
7244,5328,5964
7248,5328,5964
7248,5332,5964
7252,5336,5972
7256,5344,5984
7264,5352,5992
7260,5352,5988
7268,5360,6000
7264,5356,5996
7268,5364,6008
7268,5368,6012
7268,5368,6008
7272,5372,6016
7280,5384,6028
7288,5392,6040
7288,5396,6040
7284,5392,6040
7288,5400,6044
7292,5404,6052
7292,5408,6056
7300,5420,6068
7300,5416,6064
7296,5412,6060
7300,5416,6064
7300,5416,6064
7304,5416,6064
7292,5400,6044
7292,5400,6044
7292,5400,6040
7292,5400,6044
7292,5400,6048
7288,5392,6036
7280,5380,6020
7280,5376,6020
7280,5376,6016
7272,5372,6012
7268,5364,6000
7272,5364,6004
7272,5368,6012
7268,5364,6000
7264,5352,5992
7264,5356,5996
7268,5360,6000
7268,5360,6000
7264,5352,5988
7260,5348,5988
7268,5356,6000
7272,5364,6004
7268,5364,6004
7264,5356,5996
7264,5356,5996
7260,5352,5988
7264,5356,5992
7264,5356,5996
7260,5352,5992
7264,5356,5996
7260,5352,5992
7264,5356,5992
7260,5352,5988
7260,5352,5992
7260,5348,5988
7256,5344,5980
7260,5348,5984
7268,5360,5996
7268,5356,5996
7260,5348,5984
7252,5340,5972
7252,5336,5968
7244,5328,5960
7240,5320,5952
7236,5312,5944
7240,5316,5948
7232,5308,5936
7228,5300,5928
7228,5300,5928
7224,5296,5928
7224,5296,5928
7228,5300,5932
7220,5292,5920
7224,5288,5920
7220,5288,5920
7224,5292,5924
7220,5288,5916
7220,5284,5912
7216,5284,5912
7220,5284,5912
7216,5280,5908
7208,5268,5896
7208,5272,5896
7208,5272,5900
7204,5268,5892
7204,5264,5888
7204,5264,5888
7204,5264,5888
7212,5272,5896
7216,5280,5908
7212,5276,5904
7208,5268,5892
7208,5272,5896
7208,5272,5900
7200,5264,5884
7204,5264,5888
7208,5272,5892
7204,5264,5888
7200,5260,5880
7200,5256,5872
7192,5244,5860
7192,5244,5860
7196,5248,5864
7196,5252,5868
7196,5252,5872
7192,5244,5864
7192,5244,5860
7200,5252,5872
7204,5256,5880
7200,5256,5876
7200,5252,5872
7204,5256,5876
7204,5260,5880
7200,5256,5876
7196,5252,5872
7204,5264,5884
7208,5272,5896
7212,5272,5896
7212,5272,5896
7216,5280,5904
7224,5292,5920
7224,5292,5920
7220,5292,5916
7220,5296,5920
7224,5300,5928
7232,5312,5940
7232,5312,5940
7232,5316,5944
7240,5324,5952
7244,5332,5964
7248,5336,5972
7248,5340,5976
7248,5340,5972
7244,5336,5968
7248,5344,5972
7256,5352,5984
7256,5352,5988
7256,5352,5984
7252,5344,5976
7248,5344,5976
7248,5344,5976
7244,5340,5972
7244,5336,5968
7248,5340,5972
7252,5344,5980
7252,5344,5980
7252,5344,5976
7252,5344,5980
7252,5344,5980
7252,5344,5980
7252,5344,5980
7256,5348,5984
7256,5352,5984
7260,5352,5988
7256,5352,5984
7256,5348,5980
7256,5352,5988
7264,5360,5996
7264,5364,6004
7272,5372,6008
7268,5368,6008
7268,5372,6008
7272,5376,6016
7276,5376,6016
7276,5376,6016
7276,5376,6016
7272,5372,6008
7272,5372,6012
7276,5380,6020
7280,5388,6028
7280,5388,6028
7276,5384,6020
7276,5384,6020
7272,5376,6012
7268,5376,6012
7268,5376,6012
7272,5372,6008
7264,5364,5996
7260,5356,5992
7256,5352,5984
7256,5348,5980
7256,5348,5980
7256,5348,5980
7248,5336,5968
7244,5332,5960
7240,5324,5956
7240,5324,5956
7240,5324,5952
7244,5324,5956
7232,5316,5944
7240,5320,5948
7236,5316,5944
7236,5316,5944
7236,5312,5940
7236,5312,5944
7236,5316,5944
7236,5316,5948
7232,5316,5944
7232,5312,5940
7232,5312,5944
7232,5316,5944
7240,5320,5948
7232,5312,5944
7228,5308,5940
7228,5308,5936
7236,5316,5944
7244,5332,5960
7240,5328,5960
7244,5328,5960
7240,5328,5956
7244,5332,5960
7240,5328,5956
7232,5316,5944
7232,5312,5940
7228,5312,5940
7232,5312,5936
7220,5296,5916
7216,5288,5908
7212,5280,5900
7208,5276,5896
7196,5260,5876
7196,5256,5876
7192,5248,5864
7192,5248,5864
7192,5248,5864
7196,5252,5868
7196,5252,5868
7196,5248,5868
7188,5240,5856
7180,5232,5844
7184,5236,5848
7188,5240,5856
7192,5248,5864
7188,5244,5860
7184,5236,5852
7184,5236,5852
7184,5236,5852
7184,5240,5856
7188,5244,5860
7188,5244,5860
7184,5240,5856
7192,5248,5864
7196,5260,5876
7192,5256,5868
7192,5256,5868
7200,5264,5876
7208,5272,5892
7200,5264,5880
7196,5264,5880
7204,5272,5888
7208,5280,5896
7208,5276,5892
7204,5276,5888
7208,5276,5892
7204,5276,5892
7208,5280,5896
7208,5280,5896
7204,5276,5892
7204,5276,5892
7208,5280,5896
7208,5284,5904
7216,5288,5908
7220,5296,5916
7224,5300,5920
7224,5300,5924
7224,5304,5924
7228,5308,5932
7228,5308,5928
7224,5308,5928
7224,5308,5932
7232,5320,5948
7236,5324,5952
7244,5332,5960
7240,5332,5960
7248,5340,5968
7244,5340,5968
7248,5344,5972
7252,5352,5980
7256,5360,5992
7264,5372,6004
7264,5372,6004
7264,5372,6004
7268,5376,6012
7268,5380,6016
7268,5380,6012
7272,5384,6020
7276,5388,6024
7276,5388,6020
7272,5388,6020
7272,5388,6020
7272,5388,6020
7260,5372,6000
7264,5372,6000
7264,5372,6000
7264,5372,6000
7260,5368,5996
7256,5360,5988
7252,5356,5980
7244,5348,5972
7244,5344,5968
7248,5340,5968
7244,5340,5968
7248,5344,5968
7248,5344,5972
7240,5336,5964
7236,5332,5956
7244,5336,5964
7244,5336,5960
7240,5332,5960
7244,5336,5960
7244,5336,5960
7244,5336,5960
7244,5336,5964
7244,5340,5968
7248,5344,5968
7244,5336,5964
7240,5336,5964
7244,5340,5968
7248,5344,5968
7248,5344,5972
7244,5340,5964
7248,5344,5972
7256,5356,5988
7264,5372,6004
7264,5376,6008
7260,5368,6000
7256,5360,5992
7244,5344,5968
7240,5336,5960
7232,5328,5952
7232,5324,5944
7228,5316,5936
7220,5308,5924
7216,5296,5912
7208,5284,5896
7208,5284,5896
7208,5280,5896
7208,5284,5900
7208,5284,5904
7204,5280,5896
7196,5268,5884
7196,5268,5884
7200,5272,5888
7200,5272,5888
7200,5272,5892
7196,5264,5880
7196,5260,5876
7192,5256,5872
7192,5256,5868
7184,5252,5864
7184,5248,5860
7188,5248,5860
7192,5256,5868
7192,5256,5868
7188,5252,5864
7188,5248,5860
7188,5248,5860
7184,5248,5860
7188,5252,5864
7184,5248,5860
7184,5252,5860
7184,5252,5860
7188,5252,5864
7188,5256,5868
7192,5260,5872
7196,5264,5872
7196,5268,5876
7196,5268,5880
7196,5264,5876
7188,5260,5864
7188,5256,5860
7180,5244,5848
7180,5248,5852
7184,5248,5856
7180,5244,5852
7176,5240,5844
7176,5240,5844
7180,5244,5852
7184,5244,5852
7180,5240,5848
7176,5240,5848
7176,5240,5848
7184,5252,5864
7184,5252,5860
7184,5252,5864
7188,5256,5864
7196,5264,5876
7196,5268,5880
7200,5276,5888
7208,5284,5900
7212,5292,5904
7212,5292,5908
7212,5296,5912
7216,5304,5920
7220,5312,5928
7220,5312,5928
7224,5320,5940
7232,5328,5948
7232,5332,5952
7228,5324,5940
7236,5332,5952
7244,5348,5972
7256,5368,5992
7256,5368,5992
7256,5360,5988
7256,5364,5988
7256,5368,5992
7256,5368,5992
7256,5364,5988
7248,5356,5976
7244,5352,5972
7244,5352,5972
7240,5348,5968
7240,5344,5964
7240,5340,5960
7244,5348,5968
7248,5352,5972
7244,5344,5968
7240,5344,5964
7240,5340,5964
7240,5340,5964
7244,5348,5972
7244,5348,5972
7244,5348,5972
7240,5340,5964
7240,5344,5964
7252,5356,5984
7256,5364,5992
7256,5364,5992
7256,5368,5996
7252,5360,5984
7252,5356,5984
7256,5364,5988
7260,5372,6000
7256,5368,5996
7252,5360,5988
7252,5360,5984
7256,5368,5996
7264,5376,6008
7264,5376,6004
7260,5368,5996
7256,5368,5992
7256,5372,5996
7260,5376,6000
7256,5372,6000
7256,5372,6000
7252,5364,5988
7244,5356,5980
7252,5360,5980
7240,5348,5972
7240,5344,5968
7232,5336,5956
7232,5332,5948
7232,5328,5948
7232,5324,5944
7224,5320,5940
7224,5320,5940
7224,5320,5940
7224,5316,5936
7220,5316,5932
7220,5316,5936
7220,5312,5932
7220,5312,5932
7224,5312,5928
7224,5312,5932
7220,5312,5932
7220,5312,5932
7220,5312,5928
7220,5308,5928
7224,5316,5936
7220,5312,5932
7220,5312,5928
7216,5308,5924
7220,5312,5932
7224,5316,5936
7224,5320,5940
7224,5316,5936
7216,5308,5924
7220,5308,5928
7224,5316,5932
7228,5320,5940
7224,5320,5940
7220,5312,5928
7216,5304,5920
7212,5296,5908
7200,5284,5896
7196,5272,5880
7188,5264,5872
7192,5268,5876
7184,5256,5864
7180,5248,5852
7180,5244,5852
7176,5244,5848
7176,5236,5840
7172,5232,5836
7176,5236,5844
7176,5240,5844
7168,5228,5832
7164,5224,5828
7168,5228,5832
7164,5224,5824
7164,5220,5824
7168,5224,5828
7164,5228,5828
7168,5228,5832
7168,5228,5832
7168,5232,5836
7168,5236,5840
7180,5248,5852
7180,5252,5860
7184,5256,5860
7188,5256,5864
7180,5252,5860
7184,5256,5864
7188,5264,5868
7192,5272,5880
7196,5276,5884
7196,5280,5888
7200,5284,5896
7204,5292,5900
7204,5288,5900
7208,5296,5904
7204,5292,5900
7208,5296,5904
7212,5300,5908
7208,5300,5912
7216,5312,5920
7220,5316,5928
7220,5312,5924
7216,5308,5920
7220,5312,5928
7220,5312,5928
7220,5312,5928
7224,5316,5932
7224,5320,5936
7228,5328,5948
7228,5328,5944
7224,5320,5936
7224,5324,5940
7232,5336,5952
7240,5348,5968
7240,5340,5960
7236,5336,5952
7236,5340,5960
7248,5352,5972
7252,5364,5988
7248,5360,5980
7248,5360,5984
7252,5364,5988
7256,5368,5992
7252,5364,5988
7256,5368,5992
7252,5368,5988
7248,5368,5988
7256,5380,6004
7272,5388,6016
7268,5392,6020
7272,5396,6024
7268,5396,6024
7272,5400,6028
7280,5408,6040
7280,5412,6044
7276,5408,6036
7268,5392,6020
7260,5380,6004
7260,5380,6004
7256,5376,6000
7248,5368,5988
7248,5360,5980
7240,5348,5968
7240,5348,5968
7236,5340,5960
7224,5324,5944
7220,5320,5940
7228,5328,5948
7228,5324,5940
7228,5324,5940
7224,5324,5940
7216,5312,5928
7216,5312,5928
7224,5324,5940
7228,5324,5940
7216,5312,5928
7220,5316,5932
7220,5320,5936
7216,5312,5928
7212,5308,5924
7228,5324,5944
7232,5332,5952
7228,5328,5948
7224,5320,5936
7220,5320,5936
7220,5320,5936
7216,5316,5932
7216,5312,5928
7220,5320,5936
7228,5328,5948
7220,5320,5936
7220,5320,5936
7224,5320,5940
7220,5320,5936
7216,5316,5928
7212,5308,5920
7208,5300,5912
7200,5292,5900
7196,5284,5892
7196,5276,5884
7188,5268,5876
7188,5268,5876
7180,5260,5864
7176,5252,5856
7176,5252,5856
7176,5248,5852
7176,5244,5852
7168,5236,5840
7168,5236,5840
7172,5240,5844
7168,5236,5840
7164,5232,5832
7168,5232,5832
7176,5240,5844
7172,5240,5844
7168,5236,5840
7172,5240,5840
7168,5236,5840
7172,5240,5844
7176,5248,5852
7176,5248,5852
7180,5248,5852
7176,5248,5848
7180,5252,5856
7184,5260,5864
7184,5260,5864
7180,5260,5864
7188,5264,5868
7192,5272,5880
7196,5276,5884
7196,5276,5884
7192,5276,5880
7192,5276,5880
7196,5276,5880
7188,5272,5876
7196,5280,5884
7196,5280,5884
7192,5276,5880
7188,5272,5876
7188,5272,5876
7196,5280,5888
7200,5284,5892
7204,5292,5900
7204,5292,5900
7204,5292,5900
7208,5300,5912
7216,5312,5924
7220,5320,5932
7224,5324,5936
7220,5320,5936
7224,5324,5940
7224,5332,5948
7236,5344,5960
7232,5340,5960
7232,5344,5964
7236,5348,5968
7240,5352,5972
7240,5356,5976
7244,5368,5988
7252,5372,5996
7252,5372,5996
7248,5372,5992
7248,5372,5992
7256,5380,6000
7256,5380,6004
7260,5384,6008
7264,5388,6012
7268,5392,6016
7264,5388,6008
7252,5376,6000
7256,5380,6000
7260,5384,6004
7256,5380,6000
7252,5376,5996
7248,5368,5988
7240,5356,5972
7244,5360,5976
7240,5352,5972
7236,5352,5968
7236,5348,5968
7236,5352,5968
7232,5344,5964
7228,5344,5960
7224,5336,5952
7232,5340,5960
7232,5348,5968
7236,5348,5968
7228,5336,5952
7220,5328,5944
7228,5336,5956
7232,5348,5968
7232,5344,5964
7236,5348,5968
7236,5344,5968
7228,5336,5956
7228,5336,5956
7232,5344,5960
7236,5348,5972
7240,5352,5976
7236,5348,5968
7240,5352,5972
7232,5344,5964
7232,5344,5964
7236,5352,5972
7240,5360,5980
7240,5360,5980
7236,5352,5972
7220,5332,5948
7208,5312,5920
7204,5308,5916
7212,5320,5932
7220,5328,5944
7216,5320,5932
7204,5300,5908
7192,5280,5888
7180,5268,5868
7180,5264,5864
7188,5272,5880
7188,5272,5876
7184,5260,5864
7172,5248,5848
7168,5236,5836
7164,5228,5828
7168,5236,5836
7172,5244,5844
7160,5228,5828
7156,5224,5820
7156,5220,5816
7156,5220,5820
7160,5228,5828
7156,5228,5824
7160,5228,5828
7160,5228,5824
7156,5224,5824
7156,5224,5820
7160,5228,5828
7168,5240,5840
7164,5240,5840
7160,5232,5828
7160,5232,5828
7164,5236,5832
7168,5240,5836
7164,5240,5836
7164,5240,5836
7168,5244,5844
7172,5248,5844
7164,5240,5836
7168,5244,5840
7172,5248,5844
7168,5244,5840
7164,5236,5828
7160,5228,5824
7156,5232,5824
7160,5232,5824
7164,5232,5824
7160,5232,5824
7164,5232,5828
7160,5228,5820
7164,5236,5832
7164,5236,5832
7160,5232,5828
7168,5240,5836
7168,5248,5844
7176,5252,5856
7176,5252,5852
7176,5256,5856
7180,5264,5864
7184,5268,5872
7192,5280,5884
7192,5280,5888
7192,5284,5888
7192,5284,5888
7200,5292,5900
7204,5300,5908
7212,5312,5920
7212,5312,5924
7208,5312,5920
7212,5312,5920
7212,5320,5928
7220,5328,5940
7224,5336,5948
7228,5340,5952
7228,5340,5952
7228,5336,5948
7220,5332,5940
7228,5336,5944
7232,5344,5952
7228,5344,5952
7236,5352,5964
7232,5344,5956
7224,5332,5940
7216,5324,5928
7216,5320,5928
7212,5320,5928
7220,5324,5932
7216,5320,5928
7216,5316,5924
7212,5312,5920
7208,5308,5912
7212,5312,5920
7212,5316,5924
7208,5308,5920
7212,5312,5920
7208,5308,5916
7204,5300,5908
7204,5300,5908
7200,5300,5904
7200,5300,5908
7204,5308,5912
7208,5308,5920
7212,5312,5924
7208,5308,5916
7204,5304,5912
7204,5308,5916
7208,5308,5916
7212,5312,5920
7212,5312,5920
7212,5316,5924
7216,5320,5928
7216,5316,5928
7212,5312,5924
7212,5316,5924
7212,5316,5928
7212,5320,5928
7208,5308,5916
7204,5304,5912
7204,5300,5908
7200,5296,5900
7192,5288,5888
7192,5284,5884
7192,5284,5888
7184,5272,5876
7176,5260,5860
7180,5264,5864
7180,5264,5864
7184,5268,5872
7188,5272,5876
7184,5264,5868
7176,5260,5860
7176,5252,5856
7176,5252,5856
7168,5244,5844
7168,5244,5844
7172,5248,5848
7176,5252,5856
7172,5248,5852
7168,5244,5840
7168,5244,5840
7168,5244,5848
7168,5248,5848
7172,5248,5848
7172,5244,5844
7168,5244,5844
7168,5240,5840
7168,5240,5840
7164,5240,5840
7164,5240,5840
7168,5244,5840
7168,5248,5844
7164,5240,5836
7164,5240,5840
7172,5248,5844
7168,5244,5844
7160,5236,5828
7152,5228,5820
7156,5232,5824
7160,5236,5828
7152,5224,5816
7152,5220,5816
7152,5220,5812
7152,5220,5812
7148,5212,5804
7144,5208,5800
7148,5212,5804
7156,5224,5816
7156,5224,5820
7152,5220,5812
7152,5220,5816
7156,5228,5824
7156,5232,5828
7160,5236,5832
7164,5236,5832
7164,5240,5836
7172,5244,5844
7168,5248,5848
7180,5260,5860
7180,5268,5868
7180,5272,5872
7184,5276,5876
7188,5280,5884
7192,5288,5892
7200,5296,5900
7200,5296,5904
7204,5300,5908
7208,5308,5916
7212,5312,5920
7212,5320,5928
7216,5320,5928
7216,5324,5936
7224,5332,5940
7224,5336,5944
7220,5332,5940
7216,5328,5932
7212,5320,5928
7212,5324,5928
7216,5328,5936
7224,5336,5948
7220,5328,5940
7216,5324,5932
7212,5320,5928
7212,5316,5924
7216,5320,5928
7216,5324,5932
7224,5328,5940
7220,5328,5936
7216,5324,5936
7220,5328,5936
7216,5324,5932
7216,5324,5932
7216,5324,5932
7220,5324,5936
7220,5324,5936
7220,5324,5936
7228,5332,5944
7224,5332,5944
7224,5332,5944
7228,5336,5948
7220,5332,5944
7224,5336,5948
7216,5328,5940
7216,5328,5940
7216,5328,5940
7220,5332,5944
7228,5340,5956
7224,5340,5952
7220,5332,5944
7220,5332,5944
7224,5340,5948
7228,5340,5952
7224,5336,5944
7220,5332,5940
7220,5332,5936
7212,5320,5924
7208,5308,5912
7204,5304,5908
7204,5304,5912
7200,5300,5904
7192,5288,5892
7196,5292,5896
7196,5292,5896
7200,5296,5900
7200,5296,5900
7200,5296,5904
7192,5284,5888
7188,5280,5884
7196,5284,5888
7196,5288,5892
7192,5280,5884
7188,5276,5880
7184,5276,5880
7184,5276,5880
7192,5284,5888
7196,5288,5896
7192,5284,5888
7196,5284,5888
7196,5292,5896
7200,5292,5900
7204,5300,5908
7196,5288,5892
7192,5284,5888
7204,5296,5904
7204,5300,5908
7196,5292,5896
7192,5288,5892
7196,5292,5896
7196,5292,5900
7196,5296,5900
7196,5292,5892
7200,5292,5896
7188,5280,5884
7180,5268,5864
7180,5264,5860
7172,5256,5852
7168,5248,5844
7160,5240,5832
7156,5232,5824
7160,5236,5832
7164,5236,5832
7156,5228,5820
7148,5220,5812
7156,5228,5820
7160,5232,5828
7152,5224,5820
7152,5220,5812
7152,5220,5812
7152,5224,5816
7160,5228,5824
7148,5220,5812
7148,5220,5812
7152,5224,5816
7156,5228,5824
7164,5236,5832
7164,5240,5832
7168,5244,5836
7160,5236,5832
7156,5232,5824
7160,5236,5828
7164,5244,5840
7168,5252,5848
7168,5248,5844
7164,5248,5840
7172,5256,5852
7172,5260,5856
7176,5264,5860
7176,5268,5864
7180,5272,5868
7180,5272,5868
7176,5268,5864
7176,5268,5860
7180,5272,5864
7184,5280,5876
7188,5280,5880
7188,5284,5884
7196,5296,5896
7192,5288,5888
7188,5284,5884
7196,5288,5892
7200,5296,5900
7200,5296,5900
7200,5296,5904
7200,5300,5908
7204,5308,5912
7200,5304,5912
7200,5308,5912
7200,5308,5912
7200,5304,5908
7200,5304,5908
7196,5300,5904
7200,5304,5908
7204,5312,5916
7208,5320,5928
7212,5328,5936
7220,5336,5944
7224,5340,5948
7220,5336,5944
7220,5340,5948
7220,5340,5952
7220,5340,5948
7224,5344,5952
7224,5344,5956
7228,5352,5960
7228,5352,5960
7228,5348,5956
7224,5348,5952
7224,5344,5952
7220,5344,5952
7220,5344,5948
7220,5336,5940
7220,5336,5940
7220,5340,5944
7216,5332,5936
7208,5320,5924
7208,5320,5924
7216,5324,5932
7212,5320,5924
7204,5316,5920
7216,5324,5932
7212,5324,5932
7208,5312,5920
7196,5296,5900
7196,5296,5900
7204,5304,5908
7204,5308,5912
7204,5308,5912
7200,5304,5908
7200,5300,5904
7200,5304,5908
7200,5308,5912
7204,5312,5916
7204,5312,5920
7204,5312,5916
7204,5308,5916
7204,5308,5916
7204,5312,5916
7208,5316,5920
7204,5316,5920
7204,5316,5920
7204,5312,5920
7208,5320,5924
7208,5320,5924
7208,5320,5924
7208,5316,5920
7208,5316,5920
7216,5324,5928
7208,5316,5920
7200,5308,5908
7192,5296,5896
7184,5288,5884
7184,5284,5884
7180,5280,5880
7188,5284,5880
7180,5276,5876
7180,5272,5872
7180,5272,5872
7184,5276,5876
7180,5272,5872
7172,5260,5860
7172,5256,5856
7168,5256,5852
7172,5256,5856
7172,5256,5852
7176,5256,5856
7164,5248,5844
7160,5244,5840
7168,5248,5844
7168,5252,5848
7168,5248,5844
7160,5240,5832
7160,5240,5836
7168,5252,5848
7168,5252,5848
7160,5240,5836
7156,5240,5832
7164,5244,5840
7164,5248,5844
7156,5240,5832
7152,5232,5824
7160,5244,5836
7164,5244,5836
7160,5240,5832
7160,5244,5836
7156,5240,5832
7156,5240,5828
7152,5236,5824
7148,5228,5816
7156,5236,5824
7156,5236,5824
7148,5228,5816
7152,5228,5816
7144,5224,5808
7148,5224,5812
7144,5220,5804
7148,5224,5812
7152,5232,5820
7148,5224,5816
7148,5224,5812
7156,5228,5820
7156,5232,5824
7156,5232,5820
7156,5236,5828
7160,5240,5832
7160,5244,5832
7160,5244,5836
7164,5248,5840
7168,5256,5852
7180,5272,5868
7176,5268,5864
7180,5276,5872
7180,5280,5876
7184,5288,5884
7188,5292,5892
7200,5304,5908
7200,5308,5912
7196,5308,5908
7200,5312,5916
7204,5316,5920
7208,5324,5928
7208,5324,5928
7212,5328,5932
7216,5336,5940
7220,5340,5944
7212,5332,5936
7212,5328,5932
7208,5324,5924
7212,5328,5932
7212,5332,5936
7216,5332,5936
7212,5332,5932
7208,5324,5928
7204,5320,5924
7208,5324,5924
7204,5320,5924
7208,5320,5924
7204,5316,5920
7204,5316,5916
7196,5312,5912
7200,5316,5920
7204,5316,5920
7204,5320,5924
7208,5324,5928
7212,5324,5928
7208,5324,5928
7216,5328,5936
7216,5332,5940
7212,5324,5932
7212,5328,5932
7212,5328,5936
7208,5328,5932
7208,5328,5932
7212,5336,5940
7212,5332,5940
7216,5336,5940
7212,5332,5936
7212,5332,5940
7212,5340,5944
7204,5328,5932
7208,5328,5932
7216,5336,5940
7220,5344,5952
7216,5344,5948
7212,5336,5940
7204,5324,5928
7204,5320,5924
7200,5320,5920
7196,5308,5908
7188,5300,5896
7188,5300,5900
7192,5304,5900
7192,5296,5896
7184,5288,5884
7180,5288,5884
7180,5284,5884
7184,5284,5884
7184,5288,5888
7184,5288,5888
7184,5288,5888
7184,5288,5888
7176,5280,5876
7176,5276,5872
7180,5276,5876
7184,5288,5888
7192,5300,5900
7188,5296,5896
7184,5288,5888
7188,5292,5892
7188,5296,5896
7192,5300,5904
7200,5308,5912
7200,5308,5916
7196,5304,5908
7196,5304,5908
7200,5312,5916
7200,5308,5912
7188,5300,5904
7196,5304,5904
7192,5304,5908
7196,5308,5908
7192,5304,5904
7196,5304,5908
7188,5296,5896
7184,5288,5884
7176,5276,5872
7172,5272,5868
7172,5272,5864
7168,5260,5852
7164,5252,5844
7164,5256,5852
7160,5252,5848
7160,5248,5844
7156,5244,5836
7156,5240,5832
7148,5236,5824
7148,5232,5824
7148,5232,5824
7144,5224,5812
7140,5220,5812
7140,5224,5812
7140,5224,5812
7140,5224,5812
7140,5220,5812
7140,5224,5812
7144,5228,5816
7152,5236,5828
7144,5232,5820
7144,5232,5820
7148,5236,5824
7148,5240,5828
7160,5252,5844
7160,5252,5844
7156,5248,5836
7156,5248,5840
7168,5264,5856
7164,5264,5856
7168,5264,5852
7164,5260,5852
7172,5268,5860
7168,5272,5864
7172,5276,5868
7172,5280,5872
7172,5272,5864
7168,5272,5864
7172,5276,5868
7168,5276,5868
7172,5272,5864
7168,5272,5864
7176,5280,5872
7184,5288,5884
7184,5292,5888
7188,5296,5896
7188,5292,5892
7188,5292,5892
7188,5300,5900
7192,5304,5908
7204,5316,5920
7200,5316,5920
7196,5312,5912
7200,5312,5916
7196,5316,5916
7208,5332,5936
7216,5344,5952
7220,5348,5956
7224,5352,5960
7220,5352,5956
7220,5352,5956
7220,5352,5960
7220,5352,5960
7224,5360,5968
7224,5364,5972
7232,5372,5980
7224,5360,5968
7220,5356,5960
7228,5364,5976
7232,5372,5980
7236,5380,5992
7240,5384,5996
7240,5392,6004
7236,5380,5988
7224,5364,5968
7220,5360,5964
7220,5360,5968
7228,5368,5976
7216,5352,5960
7204,5336,5940
7208,5336,5940
7208,5336,5940
7208,5332,5936
7208,5332,5936
7208,5332,5940
7200,5328,5932
7204,5328,5932
7200,5324,5928
7200,5324,5928
7208,5332,5936
7204,5324,5928
7200,5320,5920
7196,5316,5920
7204,5324,5928
7208,5332,5940
7212,5340,5948
7208,5332,5940
7212,5336,5944
7212,5336,5944
7212,5336,5944
7216,5340,5952
7212,5336,5944
7212,5340,5948
7216,5340,5948
7204,5332,5940
7208,5336,5944
7204,5332,5936
7204,5332,5940
7208,5340,5944
7208,5340,5944
7200,5328,5932
7200,5324,5928
7204,5332,5936
7204,5332,5940
7200,5328,5928
7196,5320,5920
7192,5308,5908
7188,5308,5908
7184,5304,5904
7180,5296,5896
7180,5288,5888
7176,5284,5880
7180,5284,5884
7172,5280,5876
7164,5272,5868
7164,5264,5860
7160,5260,5856
7164,5260,5856
7156,5256,5848
7160,5256,5848
7156,5252,5848
7160,5256,5852
7156,5256,5848
7156,5252,5844
7156,5252,5848
7160,5260,5856
7160,5256,5852
7156,5252,5844
7152,5248,5840
7156,5248,5840
7152,5248,5836
7152,5244,5836
7152,5248,5836
7152,5244,5836
7148,5244,5832
7156,5252,5840
7160,5260,5852
7164,5264,5856
7160,5260,5852
7152,5252,5844
7156,5256,5848
7156,5252,5840
7152,5248,5836
7152,5248,5832
7152,5248,5836
7152,5248,5832
7148,5244,5828
7144,5240,5824
7148,5248,5836
7148,5244,5836
7148,5244,5832
7148,5248,5836
7152,5248,5840
7152,5252,5840
7156,5256,5844
7152,5256,5848
7164,5268,5860
7172,5276,5872
7172,5280,5876
7176,5288,5884
7180,5288,5888
7176,5288,5884
7188,5300,5900
7188,5304,5908
7196,5316,5920
7200,5324,5928
7204,5332,5936
7208,5340,5944
7208,5336,5940
7204,5332,5936
7204,5336,5940
7216,5352,5960
7212,5352,5960
7216,5352,5960
7212,5348,5956
7216,5356,5964
7224,5364,5972
7224,5364,5972
7216,5356,5960
7208,5344,5944
7204,5336,5940
7204,5332,5932
7200,5328,5928
7196,5324,5924
7196,5324,5920
7196,5324,5920
7204,5328,5928
7196,5316,5916
7192,5312,5908
7192,5312,5908
7196,5316,5912
7188,5308,5908
7192,5312,5908
7192,5312,5912
7180,5296,5896
7180,5292,5888
7180,5296,5892
7180,5296,5896
7184,5300,5900
7184,5300,5900
7184,5300,5900
7188,5308,5904
7192,5312,5912
7192,5316,5916
7188,5308,5908
7192,5312,5908
7192,5312,5912
7196,5316,5916
7192,5316,5916
7192,5320,5920
7200,5324,5928
7196,5320,5920
7192,5316,5916
7200,5328,5928
7200,5324,5928
7192,5316,5916
7192,5312,5912
7192,5316,5916
7192,5316,5916
7188,5312,5908
7180,5304,5900
7184,5304,5900
7176,5296,5892
7176,5292,5888
7168,5280,5876
7164,5272,5868
7164,5272,5868
7172,5276,5872
7168,5272,5868
7172,5276,5872
7168,5272,5872
7168,5272,5868
7164,5268,5864
7160,5264,5856
7160,5260,5856
7156,5256,5848
7156,5256,5852
7156,5256,5848
7152,5252,5844
7148,5244,5836
7152,5248,5844
7156,5252,5844
7156,5252,5844
7152,5248,5840
7152,5244,5836
7148,5244,5832
7152,5244,5836
7156,5252,5844
7148,5240,5832
7140,5232,5820
7144,5236,5824
7148,5244,5832
7156,5248,5840
7152,5244,5832
7148,5240,5828
7148,5244,5832
7148,5240,5828
7140,5228,5812
7132,5220,5804
7132,5220,5804
7128,5216,5800
7132,5216,5800
7132,5216,5796
7132,5212,5796
7132,5216,5800
7128,5208,5792
7128,5208,5788
7128,5204,5788
7132,5212,5796
7136,5220,5808
7136,5220,5804
7132,5212,5796
7128,5212,5796
7128,5212,5796
7132,5212,5796
7136,5220,5804
7140,5228,5816
7148,5236,5824
7148,5240,5832
7144,5240,5828
7152,5244,5832
7156,5256,5844
7164,5268,5860
7164,5268,5864
7168,5276,5868
7168,5272,5864
7164,5272,5864
7168,5276,5872
7180,5288,5884
7172,5280,5872
7168,5280,5872
7176,5288,5884
7184,5304,5900
7188,5308,5904
7188,5312,5908
7180,5296,5892
7176,5296,5888
7180,5300,5892
7188,5308,5904
7192,5316,5916
7192,5312,5912
7188,5308,5904
7184,5300,5896
7180,5296,5896
7188,5304,5904
7184,5300,5896
7184,5300,5896
7184,5300,5900
7192,5312,5912
7196,5316,5916
7188,5304,5904
7188,5304,5904
7192,5312,5908
7196,5316,5916
7204,5328,5928
7208,5336,5940
7212,5340,5944
7208,5336,5940
7208,5336,5936
7204,5332,5932
7204,5328,5932
7208,5336,5940
7208,5340,5944
7208,5336,5940
7208,5336,5936
7208,5336,5936
7204,5336,5936
7220,5356,5960
7216,5356,5960
7204,5340,5944
7200,5332,5932
7200,5332,5932
7204,5340,5940
7212,5344,5944
7200,5332,5932
7196,5324,5924
7192,5316,5912
7184,5304,5896
7188,5304,5900
7192,5308,5904
7188,5304,5900
7180,5292,5888
7176,5288,5880
7176,5288,5884
7176,5288,5884
7176,5288,5884
7180,5292,5888
7172,5280,5876
7172,5280,5872
7172,5280,5876
7172,5276,5872
7168,5276,5872
7172,5284,5880
7184,5296,5896
7184,5300,5900
7184,5300,5900
7180,5296,5896
7176,5292,5888
7176,5292,5892
7176,5292,5888
7176,5292,5888
7172,5284,5880
7176,5288,5884
7180,5296,5892
7180,5296,5892
7180,5292,5888
7180,5296,5892
7180,5296,5896
7176,5292,5888
7172,5284,5880
7176,5288,5884
7176,5288,5880
7168,5276,5864
7164,5268,5856
7156,5256,5844
7152,5248,5836
7152,5248,5832
7148,5248,5832
7152,5244,5832
7144,5232,5816
7140,5224,5812
7140,5232,5816
7136,5228,5812
7132,5216,5804
7128,5212,5796
7132,5216,5800
7136,5220,5804
7132,5216,5800
7140,5224,5808
7132,5220,5804
7132,5216,5800
7128,5212,5796
7132,5224,5808
7140,5228,5816
7144,5232,5816
7136,5228,5812
7140,5232,5816
7140,5228,5816
7136,5228,5812
7136,5232,5816
7144,5236,5820
7144,5236,5820
7148,5240,5824
7152,5244,5828
7144,5244,5828
7152,5252,5836
7144,5244,5832
7148,5252,5836
7148,5248,5832
7148,5252,5832
7148,5244,5828
7144,5244,5828
7152,5252,5836
7144,5244,5828
7140,5236,5816
7140,5236,5820
7152,5252,5836
7160,5264,5852
7164,5272,5860
7164,5272,5860
7168,5272,5860
7164,5268,5856
7172,5276,5868
7172,5284,5876
7172,5284,5872
7176,5284,5876
7172,5284,5876
7176,5288,5880
7180,5292,5888
7180,5296,5892
7180,5304,5896
7192,5312,5908
7188,5312,5908
7188,5316,5912
7192,5316,5908
7196,5320,5916
7200,5328,5928
7204,5336,5936
7204,5340,5940
7204,5344,5944
7208,5348,5948
7212,5348,5948
7216,5352,5952
7216,5356,5956
7208,5352,5952
7212,5356,5952
7212,5352,5952
7208,5348,5944
7216,5356,5956
7212,5352,5948
7204,5340,5936
7204,5336,5932
7200,5332,5924
7200,5328,5924
7200,5328,5920
7200,5328,5924
7200,5328,5924
7200,5324,5920
7196,5316,5912
7196,5320,5916
7192,5316,5912
7196,5320,5920
7188,5312,5908
7184,5304,5900
7188,5308,5904
7192,5316,5912
7200,5328,5928
7196,5320,5916
7184,5304,5900
7188,5308,5904
7184,5304,5900
7184,5304,5900
7184,5304,5900
7188,5312,5904
7192,5320,5916
7196,5324,5924
7188,5312,5908
7188,5308,5904
7188,5312,5904
7192,5316,5912
7184,5308,5904
7192,5316,5908
7196,5324,5920
7204,5332,5928
7196,5324,5916
7184,5312,5904
7188,5316,5908
7188,5312,5904
7180,5300,5888
7176,5292,5880
7176,5292,5880
7176,5288,5876
7172,5288,5876
7172,5284,5872
7168,5280,5868
7164,5272,5864
7160,5268,5856
7168,5276,5868
7168,5280,5872
7164,5268,5856
7152,5256,5844
7156,5256,5844
7160,5260,5848
7152,5252,5836
7148,5248,5832
7148,5248,5836
7152,5248,5836
7152,5248,5832
7144,5240,5824
7148,5248,5832
7156,5260,5844
7156,5256,5844
7156,5252,5836
7152,5252,5836
7156,5260,5844
7160,5264,5848
7156,5264,5848
7160,5264,5848
7160,5264,5848
7160,5264,5848
7156,5264,5844
7156,5264,5848
7156,5264,5848
7160,5268,5848
7156,5264,5848
7156,5264,5848
7156,5268,5848
7156,5264,5844
7156,5260,5840
7152,5256,5836
7152,5256,5836
7152,5256,5840
7156,5260,5844
7152,5256,5836
7152,5256,5840
7156,5264,5848
7160,5268,5852
7164,5272,5860
7172,5284,5872
7176,5288,5876
7172,5288,5876
7176,5288,5880
7176,5292,5880
7176,5292,5884
7176,5292,5884
7180,5300,5888
7184,5308,5900
7184,5308,5900
7188,5316,5908
7192,5320,5916
7200,5332,5928
7208,5344,5940
7204,5340,5936
7208,5344,5944
7212,5348,5944
7212,5356,5952
7216,5356,5956
7212,5356,5952
7216,5360,5956
7212,5360,5956
7216,5360,5956
7216,5360,5956
7212,5356,5948
7212,5356,5956
7212,5360,5956
7212,5356,5952
7208,5348,5944
7204,5340,5932
7200,5336,5932
7212,5348,5944
7208,5348,5944
7204,5340,5936
7204,5336,5932
7196,5328,5920
7192,5328,5920
7200,5336,5932
7200,5336,5932
7204,5336,5936
7196,5332,5928
7196,5328,5928
7192,5320,5916
7188,5316,5908
7192,5320,5912
7200,5328,5924
7200,5332,5928
7196,5328,5920
7192,5324,5920
7196,5328,5924
7196,5324,5920
7200,5332,5928
7196,5332,5924
7200,5336,5936
7204,5340,5936
7200,5332,5928
7200,5332,5928
7196,5332,5924
7200,5336,5932
7200,5336,5932
7204,5344,5944
7200,5336,5932
7200,5332,5928
7200,5336,5928
7204,5336,5932
7192,5324,5916
7192,5316,5908
7188,5316,5904
7192,5320,5908
7188,5316,5904
7184,5308,5900
7180,5300,5892
7172,5292,5884
7172,5296,5884
7176,5296,5888
7172,5292,5880
7176,5292,5880
7172,5288,5880
7176,5292,5884
7176,5292,5880
7176,5288,5880
7160,5272,5860
7160,5272,5856
7156,5268,5852
7160,5268,5856
7160,5272,5856
7164,5272,5860
7164,5280,5868
7164,5280,5868
7164,5280,5868
7164,5276,5868
7164,5276,5864
7168,5280,5872
7168,5284,5872
7172,5288,5880
7176,5292,5884
7168,5288,5876
7168,5284,5876
7168,5288,5876
7168,5288,5876
7164,5284,5872
7160,5276,5860
7160,5276,5860
7160,5276,5860
7160,5272,5856
7144,5256,5836
7144,5252,5832
7148,5256,5836
7144,5248,5828
7144,5248,5828
7140,5244,5824
7136,5232,5812
7128,5224,5804
7128,5224,5804
7136,5236,5816
7132,5232,5812
7124,5216,5796
7128,5216,5796
7128,5224,5804
7136,5232,5812
7140,5240,5820
7136,5236,5820
7132,5232,5812
7128,5228,5804
7136,5236,5820
7140,5244,5824
7140,5240,5816
7132,5232,5812
7140,5244,5824
7148,5256,5840
7144,5256,5840
7148,5260,5840
7148,5256,5836
7148,5260,5840
7160,5272,5856
7164,5280,5864
7164,5280,5868
7164,5284,5868
7164,5280,5864
7164,5284,5864
7168,5292,5876
7172,5296,5880
7172,5296,5880
7168,5292,5880
7172,5300,5884
7168,5288,5876
7168,5284,5868
7164,5284,5868
7168,5292,5880
7176,5300,5888
7176,5300,5892
7172,5300,5888
7172,5296,5884
7180,5308,5896
7184,5312,5904
7184,5320,5912
7188,5320,5916
7188,5320,5912
7180,5312,5904
7180,5308,5900
7184,5316,5904
7188,5324,5916
7200,5340,5940
7212,5356,5956
7204,5348,5948
7196,5336,5932
7200,5340,5936
7200,5344,5940
7204,5348,5944
7200,5348,5944
7204,5352,5952
7208,5356,5952
7208,5360,5956
7212,5364,5960
7212,5364,5960
7220,5372,5968
7224,5380,5980
7224,5380,5984
7216,5368,5968
7212,5360,5952
7208,5356,5948
7204,5352,5948
7212,5360,5956
7200,5348,5940
7192,5336,5928
7188,5328,5916
7196,5336,5928
7196,5336,5932
7204,5340,5936
7192,5324,5920
7192,5324,5916
7188,5320,5912
7184,5320,5912
7192,5328,5920
7184,5316,5908
7180,5312,5900
7180,5308,5900
7184,5316,5908
7188,5320,5912
7188,5324,5916
7184,5316,5908
7184,5312,5908
7184,5316,5912
7192,5324,5920
7188,5320,5916
7184,5316,5908
7184,5316,5908
7192,5328,5920
7196,5336,5932
7196,5340,5936
7200,5344,5944
7200,5344,5940
7196,5332,5928
7188,5328,5920
7192,5328,5924
7196,5336,5928
7192,5332,5928
7196,5336,5928
7196,5340,5932
7192,5328,5924
7188,5320,5912
7180,5312,5904
7184,5316,5908
7184,5316,5908
7180,5312,5900
7176,5308,5900
7176,5304,5892
7168,5288,5876
7164,5284,5872
7160,5276,5864
7164,5280,5868
7164,5280,5872
7164,5280,5872
7164,5284,5872
7168,5284,5872
7156,5268,5852
7152,5264,5852
7156,5268,5856
7156,5272,5860
7152,5264,5848
7148,5256,5840
7148,5260,5844
7148,5260,5844
7148,5256,5840
7144,5256,5840
7148,5256,5836
7140,5248,5828
7140,5244,5824
7144,5252,5836
7148,5260,5840
7136,5240,5820
7136,5240,5820
7144,5252,5832
7148,5260,5840
7140,5248,5824
7140,5248,5824
7148,5256,5836
7144,5252,5832
7140,5248,5824
7128,5236,5808
7128,5236,5808
7132,5236,5808
7124,5228,5800
7120,5224,5796
7124,5224,5796
7120,5220,5796
7120,5216,5788
7120,5220,5792
7124,5224,5796
7120,5220,5796
7128,5228,5804
7128,5232,5808
7128,5228,5804
7132,5232,5808
7136,5240,5816
7136,5240,5812
7136,5240,5816
7140,5244,5824
7148,5256,5836
7152,5264,5844
7156,5272,5856
7160,5280,5864
7164,5284,5868
7164,5284,5868
7164,5288,5872
7172,5296,5884
7172,5300,5888
7168,5300,5884
7172,5304,5888
7180,5312,5900
7188,5328,5920
7200,5340,5932
7196,5344,5932
7192,5340,5928
7188,5332,5920
7192,5332,5920
7192,5336,5928
7188,5332,5920
7188,5328,5912
7184,5324,5912
7180,5320,5904
7180,5316,5900
7180,5316,5900
7180,5316,5900
7176,5308,5892
7180,5308,5896
7184,5316,5904
7184,5320,5908
7184,5316,5904
7172,5308,5896
7172,5304,5892
7168,5300,5884
7168,5296,5880
7172,5300,5888
7172,5304,5892
7180,5316,5904
7176,5308,5892
7176,5308,5892
7172,5308,5892
7180,5312,5900
7188,5328,5916
7188,5324,5912
7184,5320,5908
7180,5320,5904
7180,5316,5904
7180,5316,5904
7184,5320,5908
7184,5324,5912
7188,5328,5916
7184,5324,5912
7184,5324,5912
7188,5328,5920
7188,5328,5916
7176,5312,5896
7180,5316,5900
7188,5324,5912
7176,5312,5896
7168,5300,5880
7164,5292,5872
7164,5292,5872
7164,5288,5872
7160,5284,5864
7156,5280,5860
7156,5276,5856
7156,5272,5852
7156,5276,5856
7156,5276,5856
7156,5276,5860
7156,5280,5860
7148,5264,5844
7148,5264,5844
7144,5260,5840
7148,5264,5844
7148,5264,5848
7152,5268,5848
7152,5264,5844
7148,5264,5844
7156,5276,5856
7152,5272,5852
7156,5272,5856
7148,5264,5844
7148,5264,5844
7152,5268,5848
7152,5268,5848
7152,5268,5848
7148,5264,5844
7148,5268,5848
7148,5268,5848
7152,5268,5852
7156,5276,5856
7152,5272,5856
7148,5268,5848
7148,5264,5844
7144,5260,5836
7144,5256,5832
7136,5248,5820
7132,5240,5812
7132,5236,5808
7124,5228,5800
7116,5216,5784
7116,5212,5784
7112,5208,5776
7108,5200,5768
7104,5196,5764
7104,5196,5764
7100,5192,5760
7096,5184,5752
7096,5184,5752
7096,5184,5752
7096,5184,5748
7096,5184,5752
7092,5176,5740
7100,5184,5748
7100,5188,5752
7100,5188,5756
7100,5188,5752
7100,5192,5756
7104,5192,5756
7108,5196,5760
7112,5204,5768
7112,5204,5772
7112,5208,5772
7120,5216,5784
7120,5220,5788
7128,5232,5804
7136,5248,5820
7136,5248,5820
7136,5248,5816
7140,5248,5820
7144,5260,5832
7144,5256,5828
7140,5256,5828
7144,5260,5832
7148,5268,5844
7144,5264,5836
7144,5264,5840
7144,5264,5840
7148,5272,5844
7156,5280,5860
7160,5288,5868
7160,5288,5864
7160,5284,5864
7160,5284,5864
7164,5292,5872
7164,5296,5876
7172,5304,5888
7176,5312,5900
7184,5320,5908
7180,5316,5900
7176,5312,5896
7180,5316,5904
7180,5320,5908
7188,5332,5920
7192,5336,5924
7184,5328,5912
7180,5324,5908
7184,5332,5920
7196,5348,5936
7204,5356,5948
7204,5356,5944
7196,5352,5940
7204,5356,5948
7200,5356,5948
7196,5352,5944
7196,5352,5944
7196,5356,5944
7204,5360,5952
7200,5360,5952
7204,5364,5952
7192,5348,5936
7192,5344,5932
7192,5348,5936
7188,5344,5932
7188,5336,5920
7176,5324,5904
7180,5324,5908
7176,5320,5904
7172,5312,5896
7172,5312,5892
7172,5308,5892
7172,5312,5892
7172,5312,5892
7172,5308,5892
7172,5308,5892
7164,5296,5880
7160,5292,5872
7156,5284,5864
7160,5288,5872
7160,5292,5876
7156,5288,5868
7160,5284,5868
7160,5288,5868
7156,5284,5860
7152,5280,5860
7148,5276,5852
7156,5284,5864
7164,5296,5880
7168,5304,5888
7168,5304,5888
7160,5288,5868
7160,5288,5872
7168,5300,5880
7168,5304,5888
7172,5304,5884
7168,5300,5880
7172,5304,5888
7172,5308,5892
7172,5308,5892
7168,5300,5884
7164,5300,5880
7160,5296,5876
7160,5292,5872
7156,5288,5864
7160,5288,5868
7152,5280,5860
7152,5272,5848
7144,5264,5840
7144,5260,5836
7132,5252,5824
7132,5244,5820
7128,5240,5816
7128,5244,5816
7124,5236,5808
7120,5228,5796
7116,5224,5792
7120,5224,5796
7120,5224,5796
7116,5220,5792
7116,5220,5788
7124,5228,5800
7128,5236,5808
7132,5236,5808
7124,5232,5804
7124,5232,5804
7120,5232,5804
7124,5232,5804
7128,5236,5808
7128,5240,5812
7132,5244,5816
7136,5252,5824
7140,5256,5828
7140,5256,5828
7136,5252,5824
7136,5256,5828
7136,5252,5824
7140,5260,5832
7144,5264,5836
7136,5256,5828
7136,5256,5828
7140,5260,5832
7144,5268,5836
7136,5260,5828
7136,5256,5828
7136,5256,5824
7140,5256,5828
7136,5256,5824
7140,5260,5828
7140,5260,5832
7140,5260,5836
7140,5264,5836
7144,5268,5844
7148,5272,5848
7144,5264,5840
7144,5264,5840
7148,5276,5852
7152,5284,5860
7156,5288,5864
7164,5292,5872
7164,5296,5876
7168,5304,5884
7172,5312,5896
7180,5324,5908
7180,5328,5912
7172,5320,5904
7176,5320,5900
7176,5320,5900
7180,5328,5908
7188,5336,5920
7192,5344,5928
7192,5348,5932
7196,5348,5932
7196,5348,5932
7196,5352,5940
7196,5352,5940
7188,5344,5928
7188,5340,5924
7188,5340,5924
7188,5340,5924
7180,5332,5912
7172,5316,5892
7168,5316,5892
7176,5324,5900
7172,5320,5896
7172,5316,5892
7172,5316,5896
7176,5316,5896
7164,5304,5884
7156,5296,5872
7164,5304,5884
7168,5304,5888
7168,5308,5888
7160,5300,5880
7156,5292,5872
7156,5288,5868
7156,5288,5864
7152,5284,5860
7156,5284,5864
7152,5284,5864
7156,5288,5868
7156,5288,5868
7156,5292,5868
7152,5288,5864
7152,5284,5864
7156,5288,5868
7164,5296,5876
7164,5304,5884
7160,5296,5872
7160,5292,5872
7160,5296,5872
7164,5300,5880
7160,5300,5880
7164,5304,5884
7164,5304,5884
7164,5304,5884
7168,5304,5884
7160,5292,5868
7160,5292,5868
7160,5296,5872
7152,5284,5860
7140,5268,5840
7144,5268,5840
7148,5276,5848
7148,5276,5848
7140,5264,5836
7136,5256,5832
7132,5256,5828
7132,5256,5828
7124,5240,5808
7128,5240,5812
7128,5244,5816
7128,5240,5812
7124,5236,5808
7120,5232,5800
7116,5224,5796
7112,5220,5788
7108,5212,5780
7108,5212,5780
7108,5212,5780
7108,5216,5784
7116,5224,5796
7120,5224,5796
7112,5220,5788
7104,5208,5776
7108,5212,5780
7112,5220,5788
7112,5220,5788
7112,5220,5784
7108,5216,5780
7112,5216,5784
7108,5216,5780
7108,5212,5776
7112,5224,5788
7120,5232,5800
7124,5240,5808
7120,5236,5804
7116,5224,5788
7108,5216,5780
7108,5216,5776
7112,5220,5780
7108,5216,5776
7104,5208,5764
7100,5200,5760
7100,5204,5760
7100,5196,5756
7096,5196,5752
7100,5204,5764
7104,5212,5776
7100,5204,5764
7100,5204,5764
7100,5200,5764
7108,5212,5776
7116,5228,5796
7120,5232,5800
7120,5232,5796
7116,5224,5788
7112,5220,5784
7108,5216,5780
7116,5224,5788
7124,5244,5812
7136,5264,5836
7136,5264,5832
7132,5256,5828
7136,5260,5828
7140,5264,5836
7148,5280,5852
7152,5288,5864
7164,5304,5884
7160,5296,5876
7156,5292,5864
7152,5288,5860
7164,5300,5876
7172,5312,5888
7172,5320,5896
7172,5316,5892
7168,5308,5880
7164,5300,5876
7164,5304,5876
7164,5304,5880
7164,5308,5884
7164,5308,5884
7160,5300,5872
7152,5292,5864
7152,5288,5860
7156,5288,5864
7156,5292,5868
7160,5296,5872
7156,5292,5864
7152,5284,5860
7156,5288,5864
7160,5292,5868
7160,5296,5872
7164,5300,5876
7160,5292,5868
7156,5288,5864
7152,5288,5864
7160,5296,5872
7160,5292,5872
7164,5300,5876
7168,5304,5880
7168,5304,5884
7164,5304,5880
7156,5296,5872
7160,5300,5876
7164,5304,5880
7160,5296,5876
7164,5304,5880
7164,5304,5880
7160,5304,5880
7172,5316,5896
7180,5328,5912
7180,5336,5920
7180,5336,5920
7184,5336,5920
7180,5332,5916
7168,5316,5896
7164,5308,5884
7160,5304,5880
7164,5308,5884
7164,5308,5888
7164,5300,5880
7148,5288,5864
7152,5284,5860
7148,5280,5856
7148,5284,5860
7156,5288,5868
7160,5296,5876
7152,5280,5860
7140,5268,5844
7140,5264,5840
7140,5268,5844
7148,5272,5852
7144,5276,5856
7140,5264,5844
7140,5264,5840
7140,5264,5840
7144,5276,5856
7144,5272,5852
7140,5268,5844
7132,5256,5832
7128,5248,5820
7116,5232,5800
7104,5212,5780
7100,5208,5768
7104,5204,5768
7100,5200,5760
7100,5204,5768
7108,5220,5784
7108,5216,5780
7108,5216,5780
7108,5216,5780
7112,5224,5788
7116,5224,5788
7112,5216,5780
7104,5208,5772
7096,5200,5756
7092,5192,5748
7092,5192,5748
7088,5188,5744
7088,5184,5744
7084,5180,5740
7084,5176,5732
7080,5176,5732
7084,5180,5740
7088,5184,5744
7084,5180,5736
7088,5184,5744
7092,5188,5748
7100,5196,5756
7104,5200,5760
7096,5196,5756
7092,5192,5752
7104,5204,5768
7112,5220,5784
7116,5224,5792
7120,5236,5800
7120,5232,5800
7124,5240,5808
7128,5244,5816
7132,5256,5824
7132,5252,5824
7136,5260,5832
7148,5280,5852
7152,5284,5860
7152,5284,5856
7148,5280,5856
7152,5288,5860
7156,5296,5872
7160,5300,5876
7164,5308,5884
7164,5308,5884
7164,5304,5880
7164,5304,5880
7160,5304,5876
7164,5308,5880
7160,5300,5876
7156,5292,5868
7156,5292,5864
7164,5300,5876
7156,5292,5868
7152,5288,5860
7156,5288,5864
7160,5296,5872
7160,5296,5872
7164,5300,5876
7164,5296,5876
7156,5292,5868
7152,5288,5864
7152,5288,5864
7156,5292,5868
7160,5300,5876
7160,5300,5876
7152,5292,5864
7160,5296,5872
7164,5304,5884
7164,5304,5884
7168,5308,5888
7168,5312,5892
7172,5316,5896
7168,5308,5888
7168,5304,5884
7168,5308,5888
7172,5316,5896
7172,5316,5896
7168,5312,5892
7168,5312,5888
7168,5312,5892
7160,5304,5880
7160,5300,5876
7160,5300,5876
7164,5308,5884
7160,5300,5872
7148,5284,5856
7148,5280,5852
7148,5280,5852
7140,5272,5840
7136,5260,5828
7140,5264,5832
7136,5260,5832
7132,5252,5824
7132,5248,5820
7132,5252,5824
7132,5256,5828
7140,5260,5836
7132,5252,5824
7132,5248,5820
7132,5244,5816
7128,5240,5812
7124,5232,5804
7128,5240,5812
7132,5244,5816
7132,5244,5816
7132,5244,5816
7128,5236,5808
7120,5236,5804
7124,5236,5804
7124,5240,5808
7128,5244,5816
7132,5248,5820
7132,5244,5816
7132,5244,5812
7132,5244,5812
7128,5244,5816
7128,5240,5812
7124,5236,5804
7124,5236,5804
7124,5236,5804
7116,5228,5792
7116,5228,5792
7112,5224,5788
7112,5220,5784
7108,5208,5768
7104,5200,5756
7100,5200,5760
7096,5192,5752
7084,5176,5736
7084,5172,5732
7088,5180,5736
7084,5176,5736
7088,5176,5736
7076,5164,5724
7072,5160,5716
7076,5164,5720
7084,5168,5728
7076,5160,5720
7080,5160,5716
7080,5168,5724
7080,5168,5728
7080,5172,5732
7076,5168,5724
7080,5172,5728
7088,5180,5740
7088,5184,5744
7088,5184,5744
7092,5188,5744
7096,5192,5752
7100,5204,5764
7104,5208,5772
7100,5204,5760
7104,5208,5768
7108,5216,5776
7116,5224,5788
7112,5224,5788
7116,5228,5788
7120,5236,5800
7124,5240,5804
7124,5244,5808
7124,5244,5808
7124,5240,5804
7124,5240,5804
7124,5240,5804
7124,5240,5804
7120,5236,5800
7120,5240,5800
7120,5240,5804
7124,5244,5812
7132,5252,5820
7132,5256,5820
7132,5252,5820
7136,5260,5828
7144,5268,5840
7144,5272,5844
7136,5264,5836
7140,5272,5840
7148,5280,5852
7152,5288,5860
7156,5292,5868
7152,5288,5860
7152,5288,5860
7164,5300,5876
7168,5308,5884
7168,5312,5888
7180,5324,5904
7180,5328,5908
7180,5336,5916
7180,5336,5916
7176,5328,5908
7180,5328,5908
7184,5340,5920
7184,5336,5916
7188,5344,5924
7188,5344,5924
7188,5344,5924
7188,5344,5924
7180,5332,5912
7168,5316,5892
7168,5316,5888
7168,5316,5888
7168,5316,5888
7164,5312,5884
7164,5312,5884
7160,5304,5880
7160,5304,5884
7164,5308,5884
7168,5312,5888
7168,5316,5892
7172,5316,5896
7168,5308,5888
7168,5308,5884
7160,5300,5876
7160,5296,5876
7160,5300,5876
7164,5304,5880
7164,5304,5880
7164,5304,5884
7164,5304,5884
7156,5296,5872
7160,5300,5876
7156,5296,5876
7152,5292,5872
7160,5300,5880
7172,5316,5900
7176,5324,5908
7176,5328,5912
7172,5320,5904
7164,5312,5892
7164,5308,5888
7168,5320,5900
7168,5316,5900
7172,5324,5904
7176,5324,5908
7176,5328,5912
7172,5328,5908
7172,5328,5912
7168,5320,5900
7164,5312,5892
7164,5308,5888
7164,5312,5888
7156,5300,5876
7148,5284,5860
7136,5272,5844
7136,5264,5840
7132,5264,5836
7128,5260,5832
7132,5256,5828
7132,5252,5824
7128,5248,5820
7124,5244,5816
7120,5236,5808
7112,5228,5796
7112,5224,5792
7120,5232,5804
7116,5228,5800
7120,5232,5800
7108,5216,5780
7104,5212,5776
7112,5220,5788
7116,5232,5800
7124,5244,5812
7120,5240,5808
7116,5232,5800
7112,5228,5792
7116,5232,5800
7128,5248,5820
7132,5256,5824
7128,5252,5820
7124,5248,5812
7128,5248,5816
7136,5264,5832
7132,5260,5828
7132,5264,5832
7136,5264,5828
7124,5248,5812
7124,5244,5808
7120,5240,5804
7120,5244,5804
7120,5240,5804
7120,5236,5800
7120,5240,5804
7124,5248,5816
7124,5248,5812
7132,5252,5820
7136,5264,5832
7140,5268,5840
7140,5268,5840
7144,5276,5848
7144,5272,5844
7140,5272,5840
7140,5272,5844
7148,5284,5856
7152,5292,5864
7152,5292,5864
7160,5304,5880
7164,5312,5888
7172,5320,5900
7176,5328,5908
7180,5336,5916
7188,5348,5932
7200,5368,5952
7196,5360,5944
7192,5356,5940
7196,5364,5944
7200,5372,5956
7204,5376,5960
7204,5380,5964
7208,5384,5972
7212,5388,5976
7212,5392,5980
7208,5388,5976
7204,5388,5972
7208,5392,5976
7208,5392,5976
7208,5388,5972
7208,5388,5972
7208,5388,5976
7216,5396,5984
7216,5392,5980
7208,5384,5972
7196,5368,5952
7200,5368,5952
7200,5368,5956
7208,5376,5964
7204,5372,5960
7204,5372,5960
7196,5364,5952
7192,5360,5944
7200,5368,5956
7204,5372,5960
7204,5376,5964
7200,5368,5956
7200,5364,5952
7196,5364,5952
7200,5372,5960
7200,5372,5960
7196,5372,5956
7204,5376,5968
7204,5384,5976
7212,5388,5984
7220,5404,5996
7228,5416,6012
7220,5404,6000
7208,5392,5980
7208,5388,5976
7212,5396,5988
7224,5408,6004
7212,5392,5980
7200,5376,5960
7192,5356,5940
7176,5340,5920
7172,5336,5916
7180,5344,5924
7184,5348,5932
7176,5344,5920
7176,5340,5916
7176,5336,5916
7176,5332,5916
7168,5324,5904
7168,5320,5900
7164,5312,5892
7164,5312,5892
7160,5308,5888
7160,5304,5884
7156,5296,5876
7144,5284,5860
7144,5280,5852
7148,5288,5860
7152,5292,5868
7140,5276,5848
7140,5276,5848
7144,5284,5860
7140,5276,5852
7140,5272,5844
7144,5276,5848
7140,5276,5852
7136,5272,5844
7132,5268,5836
7132,5264,5832
7136,5268,5840
7136,5272,5840
7136,5272,5840
7136,5268,5836
7132,5264,5832
7140,5276,5844
7136,5272,5840
7136,5272,5836
7128,5260,5824
7128,5264,5828
7136,5272,5836
7132,5264,5828
7116,5244,5804
7108,5228,5784
7104,5224,5780
7100,5224,5776
7104,5224,5780
7104,5220,5780
7100,5216,5772
7100,5216,5772
7104,5220,5780
7104,5224,5780
7100,5220,5776
7100,5216,5772
7096,5208,5764
7104,5220,5776
7104,5224,5780
7100,5220,5776
7100,5216,5772
7104,5220,5780
7108,5228,5788
7116,5240,5796
7112,5236,5796
7116,5244,5800
7120,5256,5816
7120,5256,5816
7120,5252,5812
7124,5260,5820
7136,5276,5840
7148,5296,5864
7148,5296,5860
7152,5300,5864
7152,5304,5872
7160,5316,5888
7168,5328,5900
7164,5320,5892
7164,5320,5892
7172,5328,5900
7176,5340,5912
7172,5336,5908
7176,5336,5908
7176,5340,5908
7176,5340,5908
7176,5344,5916
7184,5352,5924
7180,5348,5924
7184,5352,5928
7184,5356,5932
7180,5348,5924
7180,5348,5920
7180,5348,5924
7184,5360,5936
7184,5352,5928
7184,5352,5928
7188,5360,5936
7192,5364,5944
7188,5360,5936
7184,5356,5932
7196,5368,5944
7192,5368,5948
7200,5380,5960
7200,5380,5960
7196,5376,5956
7196,5376,5956
7192,5376,5956
7200,5388,5968
7200,5388,5972
7204,5392,5976
7204,5392,5972
7208,5400,5980
7212,5404,5984
7216,5408,5992
7208,5404,5984
7212,5408,5988
7208,5404,5984
7212,5404,5988
7208,5400,5984
7212,5408,5988
7208,5404,5984
7208,5400,5980
7204,5388,5968
7192,5380,5952
7188,5372,5948
7192,5376,5952
7192,5376,5952
7192,5376,5956
7184,5364,5940
7180,5356,5932
7184,5360,5936
7188,5368,5944
7188,5372,5952
7188,5368,5948
7180,5356,5932
7172,5340,5912
7164,5328,5896
7160,5324,5892
7160,5324,5896
7168,5340,5912
7176,5348,5924
7172,5340,5916
7168,5336,5908
7156,5320,5888
7156,5312,5880
7156,5312,5884
7164,5332,5900
7172,5344,5916
7172,5344,5916
7168,5340,5912
7164,5332,5900
7164,5328,5900
7164,5332,5904
7172,5344,5916
7184,5360,5940
7180,5360,5936
7168,5344,5916
7172,5344,5916
7172,5344,5916
7164,5332,5904
7156,5324,5892
7152,5324,5888
7152,5320,5888
7144,5304,5868
7140,5296,5856
7132,5288,5848
7136,5288,5852
7136,5288,5848
7128,5276,5836
7124,5272,5836
7124,5268,5832
7120,5268,5828
7116,5260,5820
7120,5260,5816
7112,5252,5812
7112,5252,5812
7116,5252,5812
7120,5260,5820
7116,5252,5812
7112,5248,5808
7116,5252,5812
7120,5256,5816
7120,5264,5824
7124,5264,5824
7116,5256,5812
7116,5256,5816
7120,5264,5824
7116,5264,5820
7116,5260,5820
7120,5264,5824
7120,5268,5824
7124,5272,5832
7120,5268,5824
7124,5276,5832
7128,5284,5844
7132,5288,5844
7128,5280,5836
7128,5280,5836
7128,5284,5836
7136,5292,5848
7132,5288,5844
7132,5288,5844
7124,5280,5836
7128,5284,5840
7140,5300,5860
7144,5304,5864
7136,5292,5852
7132,5288,5848
7144,5300,5864
7144,5304,5868
7144,5304,5868
7148,5316,5880
7156,5320,5888
7156,5324,5892
7156,5324,5892
7152,5320,5888
7156,5328,5896
7164,5336,5904
7168,5344,5912
7172,5348,5916
7176,5356,5928
7184,5368,5940
7184,5372,5944
7180,5372,5944
7180,5372,5944
7180,5372,5944
7188,5380,5952
7192,5384,5960
7200,5392,5968
7200,5396,5972
7208,5408,5984
7204,5408,5984
7204,5408,5984
7200,5400,5976
7200,5404,5980
7208,5416,5992
7212,5420,5996
7212,5420,5996
7208,5412,5988
7200,5404,5976
7204,5408,5984
7204,5408,5984
7200,5404,5980
7200,5396,5972
7196,5392,5964
7196,5388,5964
7196,5392,5968
7204,5404,5980
7200,5400,5980
7192,5392,5968
7196,5396,5976
7208,5408,5988
7212,5416,6000
7208,5412,5996
7200,5404,5984
7200,5400,5984
7200,5400,5980
7204,5404,5984
7204,5408,5988
7208,5412,5996
7212,5412,5996
7208,5412,5996
7208,5412,5996
7212,5416,6000
7208,5416,6000
7200,5404,5984
7196,5392,5972
7200,5400,5980
7212,5416,5996
7216,5420,6004
7212,5424,6008
7216,5424,6012
7208,5416,6000
7200,5404,5980
7204,5408,5988
7212,5420,6000
7208,5416,5996
7200,5400,5980
7188,5380,5956
7184,5380,5956
7188,5384,5960
7196,5388,5968
7196,5388,5972
7188,5380,5960
7176,5364,5940
7176,5360,5936
7180,5364,5944
7176,5360,5940
7172,5356,5932
7168,5344,5920
7168,5344,5920
7164,5340,5916
7164,5344,5920
7164,5344,5920
7160,5336,5908
7156,5324,5896
7156,5328,5900
7160,5332,5908
7164,5340,5916
7164,5336,5912
7168,5340,5916
7160,5336,5908
7156,5328,5900
7148,5316,5888
7148,5320,5888
7148,5316,5884
7148,5316,5888
7148,5316,5888
7148,5320,5892
7148,5316,5884
7144,5316,5884
7148,5320,5888
7144,5316,5884
7148,5316,5884
7144,5308,5876
7136,5296,5860
7132,5288,5848
7128,5284,5840
7124,5280,5836
7120,5276,5832
7120,5276,5832
7124,5280,5840
7132,5288,5848
7128,5280,5840
7124,5276,5836
7128,5280,5840
7132,5280,5844
7132,5288,5852
7132,5288,5852
7128,5284,5848
7128,5280,5844
7128,5280,5844
7132,5284,5848
7132,5288,5852
7128,5288,5848
7132,5288,5852
7136,5300,5864
7144,5308,5876
7144,5312,5876
7152,5316,5884
7152,5324,5892
7160,5336,5904
7168,5348,5920
7168,5348,5920
7164,5344,5916
7172,5352,5924
7176,5364,5936
7188,5376,5952
7188,5372,5948
7184,5372,5944
7184,5372,5944
7188,5380,5956
7184,5380,5952
7184,5372,5948
7180,5364,5936
7180,5368,5940
7184,5372,5948
7192,5384,5960
7192,5380,5956
7188,5376,5952
7188,5376,5952
7184,5372,5948
7188,5372,5948
7192,5376,5956
7188,5376,5952
7196,5380,5960
7192,5384,5960
7188,5376,5956
7192,5380,5960
7192,5384,5960
7196,5392,5972
7204,5400,5980
7196,5392,5972
7204,5396,5976
7200,5396,5976
7204,5400,5980
7200,5400,5980
7204,5400,5980
7200,5396,5976
7200,5400,5980
7208,5408,5992
7212,5416,6000
7208,5412,5996
7220,5420,6008
7208,5408,5992
7208,5404,5984
7208,5408,5992
7216,5416,6000
7220,5424,6008
7220,5428,6012
7228,5432,6020
7216,5420,6004
7204,5404,5984
7204,5404,5980
7204,5404,5984
7204,5396,5976
7196,5388,5968
7188,5380,5956
7188,5376,5956
7180,5364,5940
7180,5364,5940
7180,5364,5940
7180,5360,5940
7180,5364,5940
7184,5364,5944
7180,5360,5940
7176,5352,5932
7172,5344,5920
7168,5344,5920
7172,5348,5928
7168,5344,5920
7164,5340,5920
7176,5348,5928
7172,5348,5924
7164,5340,5912
7164,5340,5916
7176,5352,5932
7176,5356,5936
7176,5360,5936
7176,5356,5932
7172,5352,5928
7180,5360,5940
7188,5376,5956
7188,5372,5952
7184,5364,5944
7180,5364,5944
7184,5364,5944
7180,5364,5940
7172,5352,5928
7176,5356,5928
7172,5348,5924
7172,5348,5920
7164,5332,5904
7152,5316,5884
7148,5312,5880
7148,5312,5884
7152,5316,5884
7156,5316,5888
7148,5308,5880
7152,5312,5884
7156,5316,5892
7156,5316,5892
7156,5316,5892
7148,5304,5876
7136,5288,5856
7132,5280,5848
7132,5280,5844
7128,5276,5840
7124,5268,5832
7124,5268,5832
7128,5280,5844
7136,5288,5856
7140,5296,5864
7136,5292,5856
7140,5296,5860
7140,5296,5864
7140,5296,5860
7140,5300,5864
7144,5304,5868
7152,5312,5880
7156,5320,5888
7156,5320,5892
7148,5308,5872
7144,5308,5872
7152,5316,5880
7156,5324,5892
7164,5336,5904
7156,5328,5892
7148,5316,5876
7148,5312,5876
7156,5324,5888
7168,5340,5908
7172,5344,5916
7168,5344,5916
7172,5348,5920
7164,5336,5908
7160,5336,5904
7168,5340,5912
7176,5352,5928
7180,5356,5932
7176,5356,5932
7180,5360,5936
7188,5372,5952
7196,5380,5964
7204,5392,5972
7204,5396,5980
7196,5388,5968
7200,5392,5972
7204,5400,5980
7212,5412,5996
7212,5416,6004
7212,5416,6000
7216,5424,6008
7220,5428,6016
7228,5440,6028
7240,5456,6048
7248,5468,6060
7240,5460,6052
7236,5448,6040
7228,5440,6028
7236,5448,6036
7232,5448,6036
7236,5456,6044
7240,5460,6052
7244,5468,6056
7244,5468,6056
7240,5464,6052
7232,5456,6044
7228,5444,6028
7224,5444,6028
7228,5448,6032
7224,5440,6024
7212,5420,6004
7208,5412,5992
7208,5412,5996
7216,5420,6008
7220,5424,6012
7216,5420,6008
7212,5416,6000
7212,5408,5996
7212,5408,5996
7212,5412,5996
7212,5412,5996
7208,5404,5988
7208,5404,5988
7204,5400,5980
7200,5396,5976
7200,5396,5980
7204,5400,5984
7212,5412,5996
7212,5412,6000
7212,5412,5996
7212,5412,5996
7208,5408,5992
7204,5400,5980
7204,5400,5984
7208,5412,5996
7216,5420,6008
7212,5420,6008
7208,5404,5988
7200,5400,5980
7204,5400,5980
7204,5404,5984
7212,5416,6000
7212,5420,6004
7204,5404,5984
7196,5392,5972
7192,5388,5964
7192,5388,5964
7192,5388,5968
7196,5388,5968
7200,5392,5976
7196,5384,5964
7184,5364,5940
7180,5356,5932
7184,5364,5940
7192,5376,5956
7184,5368,5948
7180,5360,5940
7180,5360,5940
7184,5364,5944
7180,5356,5932
7168,5340,5916
7172,5344,5920
7168,5340,5912
7168,5340,5920
7176,5348,5928
7176,5348,5924
7168,5340,5916
7164,5332,5908
7168,5340,5912
7168,5344,5916
7172,5348,5924
7168,5340,5916
7164,5336,5908
7172,5344,5916
7168,5344,5916
7172,5348,5920
7176,5356,5932
7168,5344,5920
7164,5344,5916
7160,5332,5904
7160,5332,5900
7164,5340,5908
7164,5340,5908
7164,5340,5908
7152,5324,5884
7148,5316,5876
7148,5312,5876
7148,5312,5876
7148,5312,5876
7148,5316,5880
7156,5320,5888
7148,5308,5872
7148,5308,5872
7140,5300,5864
7144,5308,5872
7144,5308,5872
7144,5304,5872
7140,5300,5864
7148,5308,5872
7148,5312,5876
7156,5320,5888
7168,5340,5908
7176,5352,5924
7176,5352,5924
7168,5344,5912
7168,5348,5916
7180,5360,5932
7184,5368,5944
7180,5368,5940
7180,5368,5940
7192,5384,5960
7192,5384,5960
7192,5388,5968
7200,5400,5976
7208,5412,5992
7212,5416,6000
7208,5416,5996
7208,5416,5996
7212,5420,6000
7212,5424,6004
7216,5424,6004
7212,5424,6004
7216,5428,6004
7212,5424,6008
7216,5428,6008
7212,5424,6004
7212,5420,6000
7216,5428,6008
7220,5432,6016
7228,5448,6036
7228,5448,6036
7228,5440,6028
7216,5428,6012
7216,5428,6016
7220,5436,6020
7228,5440,6028
7228,5440,6032
7232,5448,6036
7232,5456,6044
7240,5460,6048
7232,5452,6040
7232,5452,6040
7224,5448,6036
7232,5452,6044
7232,5456,6044
7236,5460,6048
7236,5464,6052
7232,5456,6044
7232,5452,6040
7232,5456,6044
7232,5460,6044
7232,5452,6036
7228,5444,6028
7224,5448,6028
7236,5460,6048
7232,5460,6048
7232,5456,6040
7232,5460,6044
7232,5460,6044
7232,5452,6036
7224,5436,6016
7220,5432,6012
7212,5428,6008
7212,5424,6000
7208,5412,5992
7200,5404,5984
7200,5400,5976
7200,5396,5976
7196,5392,5972
7200,5396,5976
7204,5404,5984
7192,5388,5968
7184,5376,5952
7188,5380,5952
7196,5388,5968
7196,5392,5968
7204,5400,5984
7196,5392,5968
7192,5384,5960
7192,5388,5968
7188,5384,5960
7188,5380,5952
7184,5376,5952
7188,5380,5956
7188,5380,5960
7188,5380,5956
7188,5384,5960
7196,5396,5972
7192,5388,5964
7196,5396,5972
7196,5400,5976
7204,5404,5984
7200,5404,5984
7200,5400,5980
7192,5396,5972
7188,5388,5964
7196,5396,5972
7204,5408,5984
7204,5404,5984
7184,5380,5952
7176,5368,5936
7172,5360,5932
7172,5360,5928
7172,5356,5928
7160,5340,5908
7160,5340,5908
7160,5336,5908
7164,5344,5916
7164,5340,5912
7160,5332,5900
7148,5316,5880
7152,5316,5884
7148,5316,5884
7148,5316,5884
7144,5312,5876
7144,5308,5872
7148,5316,5880
7156,5324,5892
7148,5320,5884
7152,5316,5884
7148,5316,5880
7148,5320,5884
7144,5316,5876
7144,5312,5876
7148,5320,5884
7152,5324,5892
7156,5332,5896
7152,5324,5888
7148,5324,5884
7156,5328,5892
7164,5344,5908
7168,5348,5916
7160,5340,5904
7160,5340,5900
7164,5344,5908
7168,5352,5916
7160,5340,5904
7152,5328,5884
7148,5324,5884
7148,5328,5888
7156,5332,5896
7156,5332,5896
7152,5328,5888
7144,5316,5880
7140,5316,5876
7152,5332,5892
7160,5340,5904
7160,5340,5908
7164,5344,5912
7172,5360,5928
7180,5372,5944
7180,5376,5948
7184,5376,5952
7184,5376,5952
7188,5384,5960
7200,5400,5976
7208,5412,5992
7212,5424,6004
7212,5424,6004
7220,5436,6020
7228,5452,6040
7236,5460,6044
7236,5460,6044
7232,5452,6036
7224,5448,6032
7232,5456,6044
7240,5468,6056
7240,5472,6056
7240,5476,6060
7236,5468,6052
7240,5468,6052
7240,5472,6056
7248,5484,6068
7244,5480,6064
7236,5468,6048
7228,5460,6040
7232,5464,6048
7240,5476,6060
7240,5476,6060
7240,5476,6060
7240,5472,6056
7240,5468,6056
7228,5452,6040
7220,5444,6024
7224,5444,6028
7224,5448,6032
7228,5452,6040
7224,5448,6036
7224,5448,6032
7224,5448,6032
7228,5456,6040
7228,5452,6040
7228,5452,6040
7220,5444,6028
7228,5452,6036
7232,5456,6044
7236,5464,6052
7236,5464,6052
7232,5460,6048
7236,5468,6056
7244,5472,6060
7236,5464,6052
7232,5456,6044
7236,5460,6044
7236,5464,6048
7232,5464,6048
7236,5464,6052
7236,5464,6052
7236,5464,6048
7232,5464,6048
7236,5468,6052
7232,5460,6044
7232,5460,6044
7224,5452,6032
7220,5444,6024
7212,5436,6016
7208,5424,6000
7204,5416,5992
7204,5416,5992
7200,5412,5992
7200,5412,5988
7200,5412,5988
7200,5408,5988
7196,5400,5976
7188,5388,5964
7188,5388,5968
7196,5396,5972
7192,5396,5972
7192,5396,5972
7192,5396,5972
7192,5392,5972
7184,5380,5956
7180,5376,5952
7180,5376,5948
7184,5384,5960
7188,5388,5964
7184,5380,5956
7176,5372,5944
7176,5368,5944
7172,5368,5940
7176,5372,5944
7180,5376,5948
7188,5384,5960
7188,5388,5964
7176,5372,5944
7160,5352,5920
7160,5356,5920
7164,5360,5928
7176,5372,5944
7180,5380,5952
7176,5372,5940
7164,5356,5924
7156,5344,5908
7156,5344,5904
7152,5340,5900
7156,5340,5904
7152,5336,5900
7156,5340,5900
7148,5328,5888
7144,5316,5876
7136,5304,5864
7132,5304,5864
7144,5320,5880
7156,5332,5896
7156,5332,5896
7152,5328,5892
7152,5324,5888
7148,5320,5884
7148,5324,5888
7156,5336,5896
7160,5344,5908
7156,5340,5904
7160,5340,5904
7168,5352,5920
7172,5360,5928
7176,5368,5936
7172,5364,5932
7176,5372,5940
7168,5364,5928
7176,5372,5940
7184,5388,5956
7188,5396,5968
7200,5412,5984
7200,5416,5988
7200,5416,5988
7200,5416,5988
7208,5424,6000
7212,5432,6004
7216,5440,6016
7220,5448,6024
7216,5444,6020
7216,5440,6016
7216,5440,6012
7212,5436,6012
7212,5432,6008
7208,5424,5996
7208,5424,5996
7216,5432,6012
7220,5436,6016
7220,5440,6020
7220,5440,6020
7216,5436,6016
7220,5440,6020
7220,5440,6024
7220,5444,6028
7224,5448,6028
7224,5448,6028
7220,5444,6024
7220,5440,6016
7220,5444,6020
7224,5452,6032
7236,5464,6048
7228,5456,6036
7224,5448,6024
7228,5456,6036
7240,5472,6056
7240,5476,6060
7232,5468,6052
7228,5460,6040
7236,5468,6048
7244,5480,6064
7244,5472,6056
7232,5464,6044
7232,5464,6044
7232,5468,6048
7232,5472,6052
7228,5464,6040
7224,5460,6036
7228,5464,6044
7224,5452,6028
7216,5444,6020
7212,5436,6008
7216,5440,6012
7216,5444,6016
7212,5436,6008
7212,5436,6012
7212,5432,6008
7212,5432,6008
7212,5428,6008
7212,5428,6008
7208,5424,6004
7212,5428,6004
7208,5424,6000
7204,5416,5992
7196,5404,5976
7192,5400,5972
7196,5400,5972
7196,5400,5972
7196,5404,5976
7204,5408,5984
7208,5416,5992
7212,5424,6004
7216,5432,6012
7216,5432,6012
7212,5432,6008
7216,5428,6008
7208,5416,5992
7204,5416,5988
7208,5420,5996
7216,5432,6008
7212,5428,6004
7208,5420,5996
7212,5424,5996
7212,5424,5996
7208,5424,5996
7208,5420,5992
7212,5424,6000
7216,5432,6004
7208,5424,6000
7196,5404,5972
7188,5392,5960
7184,5388,5952
7184,5384,5952
7176,5372,5940
7168,5364,5928
7172,5364,5932
7168,5360,5924
7160,5348,5912
7152,5336,5896
7148,5332,5892
7156,5336,5900
7152,5332,5896
7148,5324,5880
7148,5324,5880
7148,5324,5884
7148,5324,5884
7148,5324,5880
7148,5324,5884
7144,5320,5876
7148,5324,5884
7152,5328,5888
7152,5336,5896
7156,5340,5900
7160,5344,5904
7156,5344,5900
7156,5340,5900
7156,5344,5900
7156,5340,5900
7160,5348,5908
7160,5352,5908
7172,5364,5928
7168,5360,5920
7164,5356,5916
7168,5364,5920
7176,5376,5936
7176,5380,5940
7184,5392,5952
7180,5384,5944
7172,5376,5932
7180,5384,5944
7188,5396,5960
7180,5388,5948
7172,5376,5932
7180,5380,5940
7184,5392,5956
7192,5400,5968
7200,5412,5980
7208,5424,5992
7208,5420,5992
7204,5420,5992
7200,5416,5988
7208,5428,6000
7212,5432,6004
7212,5436,6008
7208,5432,6004
7216,5436,6008
7220,5444,6016
7220,5444,6016
7220,5448,6024
7224,5452,6028
7228,5460,6036
7232,5468,6040
7236,5472,6052
7240,5480,6060
7240,5484,6060
7244,5488,6064
7244,5492,6068
7240,5484,6060
7240,5480,6056
7244,5488,6064
7252,5500,6080
7256,5512,6092
7252,5504,6084
7244,5496,6072
7240,5488,6060
7244,5492,6064
7244,5488,6064
7244,5488,6064
7236,5476,6048
7232,5472,6040
7232,5472,6044
7236,5476,6052
7236,5476,6052
7232,5472,6044
7232,5468,6040
7232,5468,6044
7232,5472,6048
7236,5472,6052
7232,5468,6044
7228,5460,6036
7232,5464,6040
7236,5468,6048
7240,5476,6056
7244,5480,6060
7244,5488,6064
7252,5492,6072
7248,5488,6072
7244,5484,6064
7240,5480,6060
7248,5488,6068
7248,5492,6076
7256,5500,6088
7264,5512,6100
7260,5512,6100
7256,5508,6096
7256,5508,6092
7256,5508,6092
7256,5512,6096
7264,5516,6104
7264,5520,6108
7268,5524,6112
7268,5528,6116
7264,5520,6108
7260,5516,6100
7260,5516,6100
7268,5524,6112
7280,5548,6136
7292,5572,6168
7304,5588,6188
7288,5560,6156
7252,5508,6096
7232,5476,6056
7224,5460,6036
7220,5456,6028
7216,5444,6020
7196,5416,5984
7180,5388,5952
7176,5380,5940
7172,5376,5940
7172,5376,5940
7172,5372,5936
7168,5368,5928
7168,5364,5924
7164,5360,5920
7160,5352,5908
7156,5344,5900
7148,5336,5888
7144,5332,5884
7148,5336,5888
7140,5332,5880
7140,5328,5880
7140,5320,5872
7136,5316,5864
7132,5312,5856
7128,5308,5856
7136,5316,5864
7136,5320,5864
7136,5316,5860
7132,5316,5860
7136,5320,5868
7136,5320,5864
7132,5316,5860
7132,5316,5856
7132,5316,5860
7128,5308,5852
7128,5308,5844
7124,5300,5840
7120,5296,5832
7120,5296,5832
7116,5288,5824
7112,5284,5816
7112,5284,5820
7116,5292,5828
7120,5292,5828
7116,5288,5824
7120,5292,5828
7124,5296,5836
7124,5300,5840
7132,5308,5852
7132,5312,5856
7136,5316,5860
7132,5308,5848
7132,5308,5848
7136,5320,5860
7144,5328,5872
7144,5328,5872
7144,5332,5876
7148,5336,5880
7152,5344,5884
7156,5352,5896
7164,5364,5908
7168,5368,5916
7172,5368,5916
7168,5368,5916
7168,5376,5924
7176,5388,5936
7180,5388,5940
7184,5396,5944
7188,5404,5956
7188,5404,5956
7188,5408,5960
7192,5412,5964
7200,5424,5980
7200,5424,5980
7192,5420,5968
7188,5412,5960
7188,5408,5956
7184,5408,5956
7192,5416,5964
7188,5412,5960
7180,5404,5952
7188,5408,5960
7188,5412,5964
7192,5416,5968
7196,5416,5972
7192,5416,5972
7200,5428,5984
7200,5432,5988
7200,5428,5984
7200,5420,5976
7196,5420,5976
7204,5432,5988
7208,5436,5992
7204,5428,5984
7192,5420,5972
7192,5420,5972
7200,5428,5988
7204,5436,5992
7204,5432,5988
7200,5424,5980
7196,5424,5976
7196,5424,5980
7196,5428,5980
7196,5424,5980
7196,5424,5976
7196,5420,5972
7192,5416,5968
7188,5412,5964
7192,5416,5968
7192,5416,5968
7184,5404,5956
7180,5400,5948
7180,5400,5952
7176,5396,5944
7172,5384,5928
7168,5380,5920
7160,5372,5912
7156,5368,5908
7156,5364,5908
7164,5372,5916
7160,5368,5912
7156,5356,5900
7152,5356,5900
7160,5364,5912
7160,5364,5908
7152,5348,5896
7144,5344,5888
7148,5348,5892
7144,5344,5884
7140,5336,5876
7140,5332,5876
7140,5332,5876
7140,5336,5880
7140,5332,5872
7144,5336,5880
7148,5344,5892
7148,5348,5892
7144,5340,5884
7140,5336,5880
7144,5340,5884
7144,5344,5888
7148,5348,5892
7144,5340,5884
7140,5336,5876
7148,5348,5892
7148,5352,5892
7140,5340,5884
7144,5340,5884
7144,5344,5884
7144,5348,5888
7144,5340,5884
7136,5332,5872
7132,5324,5864
7128,5316,5852
7120,5308,5840
7116,5300,5832
7112,5296,5828
7112,5288,5820
7108,5284,5812
7096,5272,5800
7100,5272,5804
7096,5268,5796
7088,5256,5788
7092,5260,5788
7096,5264,5796
7100,5268,5800
7100,5272,5800
7104,5272,5800
7096,5264,5792
7092,5260,5792
7096,5268,5800
7104,5272,5804
7096,5268,5796
7096,5268,5796
7100,5276,5808
7104,5280,5812
7100,5276,5804
7100,5280,5808
7100,5276,5804
7108,5284,5816
7104,5284,5812
7112,5292,5824
7116,5296,5828
7120,5308,5840
7120,5308,5840
7124,5312,5844
7120,5312,5844
7124,5316,5848
7128,5324,5856
7136,5328,5860
7136,5332,5864
7136,5332,5864
7132,5332,5864
7140,5340,5876
7136,5336,5872
7140,5336,5872
7132,5332,5864
7132,5332,5864
7132,5332,5868
7136,5336,5872
7140,5340,5876
7148,5352,5888
7148,5352,5892
7148,5352,5892
7148,5352,5896
7156,5364,5908
7156,5368,5912
7156,5368,5908
7156,5368,5908
7160,5372,5912
7160,5376,5916
7168,5384,5928
7168,5384,5928
7168,5388,5932
7172,5392,5940
7176,5400,5944
7176,5404,5952
7180,5408,5952
7180,5408,5952
7188,5416,5964
7192,5424,5976
7188,5416,5964
7184,5416,5964
7188,5420,5968
7192,5428,5976
7192,5428,5980
7188,5420,5968
7188,5420,5968
7184,5420,5964
7180,5416,5960
7180,5404,5948
7172,5392,5932
7160,5384,5924
7160,5380,5920
7164,5384,5924
7160,5380,5920
7160,5376,5916
7152,5364,5904
7148,5360,5900
7152,5364,5904
7148,5356,5896
7148,5356,5896
7148,5356,5900
7152,5364,5904
7152,5360,5904
7148,5356,5900
7148,5356,5896
7148,5356,5896
7144,5352,5892
7148,5356,5896
7152,5356,5900
7148,5352,5892
7148,5356,5896
7148,5356,5896
7148,5356,5896
7148,5356,5896
7152,5356,5900
7152,5360,5900
7152,5360,5900
7152,5360,5900
7156,5364,5908
7156,5364,5908
7156,5360,5904
7156,5364,5908
7156,5368,5908
7156,5368,5908
7156,5364,5904
7160,5368,5908
7152,5360,5900
7140,5344,5880
7132,5332,5868
7132,5332,5868
7128,5328,5864
7132,5324,5860
7136,5328,5864
7124,5316,5852
7128,5316,5852
7128,5312,5848
7128,5312,5848
7124,5312,5848
7120,5308,5840
7116,5300,5832
7112,5288,5824
7108,5284,5820
7104,5280,5816
7104,5276,5808
7104,5280,5812
7100,5276,5804
7100,5272,5804
7096,5272,5804
7104,5276,5808
7100,5276,5808
7100,5276,5808
7100,5276,5808
7100,5276,5808
7100,5272,5804
7100,5272,5800
7100,5272,5804
7104,5276,5808
7100,5272,5800
7100,5272,5796
7100,5276,5804
7104,5280,5808
7108,5284,5812
7104,5284,5808
7104,5280,5808
7100,5280,5804
7100,5276,5800
7096,5272,5796
7092,5268,5792
7092,5268,5792
7092,5264,5788
7084,5256,5780
7080,5252,5772
7080,5252,5772
7084,5256,5780
7088,5260,5784
7084,5256,5780
7084,5256,5780
7084,5252,5780
7084,5256,5776
7084,5256,5780
7092,5264,5792
7096,5268,5796
7100,5276,5804
7096,5272,5796
7096,5272,5800
7100,5280,5808
7112,5296,5824
7120,5308,5840
7124,5316,5848
7124,5316,5848
7132,5320,5856
7128,5324,5856
7136,5336,5872
7136,5336,5872
7140,5344,5880
7140,5344,5880
7148,5352,5892
7156,5360,5900
7156,5372,5912
7160,5380,5920
7160,5384,5924
7156,5376,5916
7160,5380,5920
7160,5384,5924
7168,5392,5932
7164,5388,5932
7164,5388,5932
7156,5380,5920
7160,5380,5920
7156,5376,5920
7164,5380,5924
7160,5380,5924
7160,5376,5920
7160,5380,5924
7156,5372,5916
7156,5372,5916
7156,5372,5916
7160,5376,5920
7156,5372,5916
7156,5368,5912
7156,5372,5916
7160,5372,5916
7152,5368,5908
7152,5368,5912
7152,5372,5912
7152,5372,5912
7156,5372,5916
7160,5376,5920
7156,5376,5916
7156,5376,5920
7160,5380,5924
7164,5384,5928
7164,5384,5928
7160,5380,5924
7160,5380,5924
7164,5388,5932
7172,5396,5940
7168,5392,5936
7164,5388,5932
7164,5388,5932
7168,5392,5936
7172,5396,5940
7164,5392,5936
7156,5380,5924
7152,5376,5916
7152,5372,5912
7148,5364,5904
7148,5364,5900
7144,5352,5892
7140,5348,5884
7140,5348,5884
7140,5344,5884
7140,5344,5884
7140,5340,5880
7136,5336,5876
7136,5336,5876
7128,5328,5868
7128,5324,5864
7128,5324,5864
7128,5324,5864
7128,5324,5860
7128,5324,5860
7128,5320,5860
7120,5316,5852
7120,5316,5852
7128,5324,5864
7132,5332,5872
7132,5332,5872
7136,5332,5872
7132,5332,5872
7140,5340,5884
7140,5344,5884
7144,5344,5888
7136,5340,5880
7140,5344,5888
7140,5344,5884
7144,5352,5892
7144,5348,5892
7144,5348,5892
7140,5344,5884
7136,5340,5876
7132,5336,5872
7136,5336,5872
7120,5320,5852
7120,5312,5844
7112,5308,5836
7104,5296,5828
7104,5292,5824
7100,5284,5812
7100,5280,5808
7100,5276,5804
7096,5272,5800
7092,5264,5792
7088,5256,5784
7088,5256,5784
7084,5252,5780
7076,5244,5768
7080,5244,5772
7080,5244,5772
7080,5244,5768
7080,5244,5772
7084,5252,5776
7076,5244,5768
7076,5240,5764
7076,5244,5768
7080,5252,5776
7084,5256,5784
7084,5260,5784
7080,5256,5780
7080,5256,5780
7088,5264,5792
7096,5276,5804
7096,5276,5804
7100,5280,5804
7100,5280,5808
7104,5296,5824
7108,5296,5824
7104,5292,5820
7108,5300,5828
7116,5308,5836
7116,5312,5840
7116,5312,5840
7120,5316,5848
7116,5308,5836
7116,5308,5836
7116,5312,5840
7120,5316,5848
7124,5324,5856
7120,5320,5852
7128,5324,5860
7124,5324,5856
7132,5328,5864
7136,5332,5872
7136,5336,5876
7132,5336,5872
7136,5340,5880
7144,5352,5892
7148,5356,5896
7140,5348,5888
7140,5348,5888
7148,5360,5900
7152,5368,5912
7152,5368,5912
7148,5364,5904
7156,5372,5916
7168,5392,5936
7172,5400,5944
7172,5396,5944
7168,5392,5936
7168,5392,5936
7168,5396,5944
7172,5400,5948
7172,5400,5944
7168,5396,5944
7168,5396,5940
7168,5400,5944
7172,5404,5948
7172,5404,5948
7172,5404,5948
7168,5400,5944
7176,5408,5952
7172,5400,5944
7160,5388,5928
7160,5380,5920
7160,5380,5920
7160,5384,5924
7156,5376,5916
7152,5372,5912
7148,5364,5904
7148,5364,5904
7148,5360,5900
7148,5360,5900
7144,5356,5896
7140,5352,5892
7136,5344,5880
7132,5340,5880
7136,5348,5884
7140,5352,5892
7144,5356,5900
7148,5360,5904
7144,5360,5904
7148,5360,5904
7144,5360,5904
7148,5364,5904
7144,5352,5896
7140,5352,5892
7136,5348,5888
7136,5348,5892
7148,5360,5904
7152,5372,5916
7152,5372,5920
7144,5360,5904
7144,5360,5900
7152,5368,5912
7156,5372,5916
7156,5372,5916
7156,5376,5920
7156,5376,5920
7152,5372,5912
7148,5368,5912
7156,5376,5920
7152,5368,5908
7144,5356,5896
7144,5356,5896
7144,5360,5900
7140,5352,5892
7128,5336,5872
7120,5320,5856
7108,5300,5832
7104,5292,5824
7104,5292,5824
7108,5292,5824
7096,5284,5812
7096,5280,5808
7100,5280,5812
7096,5276,5804
7096,5272,5800
7096,5272,5804
7096,5276,5808
7096,5276,5808
7088,5264,5792
7092,5268,5796
7096,5276,5808
7096,5276,5804
7096,5276,5808
7100,5280,5808
7100,5280,5812
7100,5280,5812
7104,5284,5816
7100,5288,5816
7104,5292,5820
7104,5288,5820
7100,5288,5816
7100,5288,5816
7116,5304,5832
7108,5300,5828
7108,5300,5832
7108,5300,5828
7108,5304,5832
7116,5312,5844
7120,5316,5848
7116,5312,5840
7112,5308,5832
7116,5312,5840
7116,5308,5840
7108,5300,5832
7104,5296,5824
7112,5304,5836
7116,5312,5848
7124,5320,5856
7124,5324,5860
7124,5324,5860
7120,5324,5860
7124,5324,5860
7128,5332,5872
7132,5336,5876
7128,5332,5872
7132,5340,5876
7140,5348,5888
7144,5360,5900
7144,5360,5904
7148,5368,5912
7148,5368,5912
7152,5372,5916
7156,5384,5928
7156,5380,5924
7152,5372,5916
7152,5376,5916
7164,5388,5936
7168,5400,5944
7164,5396,5940
7164,5396,5940
7172,5404,5952
7180,5416,5964
7176,5416,5960
7176,5412,5960
7172,5404,5948
7164,5392,5936
7164,5396,5940
7172,5408,5952
7172,5404,5948
7164,5392,5936
7164,5388,5928
7152,5384,5924
7152,5380,5920
7152,5380,5920
7144,5368,5908
7144,5364,5904
7144,5360,5900
7144,5356,5900
7140,5356,5896
7144,5356,5900
7148,5364,5904
7148,5368,5908
7148,5364,5908
7148,5360,5904
7144,5356,5900
7140,5352,5892
7140,5352,5892
7144,5356,5896
7140,5352,5896
7144,5364,5904
7144,5364,5908
7148,5364,5908
7140,5356,5896
7144,5360,5900
7144,5356,5896
7144,5356,5896
7140,5356,5896
7144,5360,5904
7140,5360,5900
7148,5360,5904
7148,5368,5908
7148,5368,5912
7148,5368,5908
7140,5360,5900
7140,5360,5900
7144,5364,5904
7148,5368,5908
7144,5364,5904
7140,5352,5892
7132,5344,5880
7132,5344,5880
7128,5340,5876
7128,5336,5876
7128,5332,5872
7128,5328,5864
7116,5316,5852
7116,5312,5848
7112,5300,5836
7104,5292,5824
7100,5288,5820
7100,5288,5820
7104,5292,5824
7104,5292,5824
7104,5288,5820
7100,5280,5816
7092,5272,5800
7092,5272,5804
7096,5276,5808
7096,5276,5808
7096,5280,5808
7096,5280,5808
7096,5276,5808
7092,5272,5804
7088,5268,5796
7092,5272,5800
7092,5276,5804
7092,5276,5808
7100,5284,5816
7100,5288,5816
7100,5292,5820
7108,5296,5828
7108,5296,5824
7104,5292,5820
7104,5296,5824
7100,5292,5820
7104,5300,5828
7108,5300,5828
7104,5296,5824
7100,5288,5812
7096,5288,5812
7100,5292,5816
7096,5284,5812
7092,5280,5804
7096,5280,5804
7100,5284,5816
7108,5296,5828
7108,5300,5828
7112,5300,5832
7108,5304,5836
7112,5308,5840
7112,5308,5840
7120,5316,5848
7128,5324,5860
7124,5324,5860
7128,5332,5868
7128,5328,5864
7128,5332,5872
7136,5344,5884
7148,5360,5900
7144,5356,5892
7144,5356,5896
7148,5368,5908
7152,5380,5924
7156,5380,5924
7152,5372,5912
7156,5380,5920
7160,5392,5936
7160,5392,5936
7156,5388,5928
7164,5392,5936
7172,5404,5952
7168,5404,5948
7168,5400,5944
7168,5404,5948
7176,5412,5960
7172,5412,5956
7168,5404,5944
7168,5400,5944
7168,5404,5944
7164,5400,5940
7168,5400,5944
7160,5392,5932
7156,5380,5924
7152,5376,5916
7152,5376,5920
7152,5372,5916
7152,5376,5920
7156,5376,5920
7156,5380,5924
7152,5368,5912
7148,5364,5908
7148,5364,5908
7152,5372,5916
7152,5376,5924
7156,5380,5924
7156,5380,5924
7156,5376,5920
7156,5376,5924
7156,5376,5920
7160,5380,5924
7164,5384,5932
7156,5380,5924
7156,5380,5924
7164,5388,5936
7168,5400,5948
7176,5408,5960
7160,5388,5936
7160,5384,5928
7164,5388,5936
7164,5392,5940
7164,5388,5932
7152,5376,5920
7148,5368,5912
7144,5364,5904
7144,5364,5904
7144,5368,5908
7140,5360,5896
7140,5352,5892
7136,5348,5884
7128,5340,5880
7132,5344,5884
7128,5336,5876
7128,5332,5872
7124,5328,5868
7120,5324,5864
7124,5324,5864
7120,5324,5864
7116,5312,5852
7112,5312,5848
7116,5312,5852
7116,5312,5848
7116,5312,5848
7112,5308,5844
7104,5296,5832
7104,5296,5832
7108,5300,5836
7112,5308,5844
7112,5308,5844
7112,5304,5844
7108,5300,5840
7112,5308,5844
7112,5304,5840
7112,5304,5840
7108,5300,5836
7108,5300,5836
7108,5300,5836
7112,5304,5840
7112,5304,5836
7112,5304,5840
7112,5308,5840
7108,5304,5836
7104,5300,5832
7108,5300,5832
7112,5308,5836
7116,5308,5840
7112,5304,5832
7108,5300,5828
7104,5296,5824
7100,5288,5816
7092,5276,5800
7092,5280,5808
7092,5280,5808
7092,5276,5804
7088,5272,5800
7092,5276,5800
7092,5276,5808
7096,5276,5808
7088,5272,5800
7096,5280,5808
7100,5288,5816
7104,5292,5824
7104,5292,5824
7108,5300,5832
7112,5300,5836
7108,5304,5836
7112,5308,5844
7120,5324,5856
7124,5328,5860
7124,5328,5864
7128,5336,5872
7136,5348,5884
7136,5348,5888
7140,5356,5896
7144,5364,5904
7144,5364,5904
7148,5372,5912
7152,5380,5920
7160,5388,5932
7164,5396,5940
7156,5388,5928
7160,5392,5932
7164,5400,5944
7176,5416,5964
7172,5408,5952
7160,5388,5932
7156,5384,5924
7160,5388,5928
7164,5396,5940
7168,5408,5952
7172,5416,5964
7164,5400,5944
7152,5380,5924
7148,5372,5916
7156,5380,5924
7160,5392,5940
7164,5396,5948
7160,5392,5940
7152,5376,5924
7140,5360,5900
7128,5340,5880
7128,5336,5872
7136,5348,5888
7152,5376,5920
7164,5396,5944
7156,5384,5928
7148,5372,5916
7136,5348,5884
7128,5336,5868
7124,5336,5872
7140,5360,5900
7156,5384,5928
7148,5368,5908
7140,5360,5896
7144,5364,5904
7140,5364,5900
7144,5364,5904
7148,5368,5908
7148,5372,5912
7148,5372,5908
7148,5372,5908
7140,5364,5900
7144,5368,5904
7144,5364,5900
7136,5352,5888
7136,5348,5880
7128,5340,5876
7128,5336,5868
7124,5328,5856
7116,5320,5848
7108,5308,5836
7112,5308,5840
7108,5304,5832
7108,5304,5832
7104,5300,5832
7104,5300,5832
7108,5304,5836
7104,5300,5832
7100,5296,5824
7100,5296,5824
7104,5292,5824
7104,5296,5828
7104,5304,5836
7108,5304,5836
7100,5296,5828
7100,5292,5824
7104,5296,5828
7112,5308,5844
7112,5308,5844
7108,5308,5840
7112,5312,5844
7112,5312,5848
7112,5316,5848
7108,5308,5840
7116,5316,5852
7116,5316,5852
7116,5320,5856
7120,5320,5856
7124,5328,5860
7116,5324,5856
7116,5324,5856
7116,5320,5852
7120,5324,5856
7112,5320,5848
7104,5304,5832
7096,5288,5812
7088,5280,5804
7088,5272,5796
7084,5268,5792
7080,5264,5788
7080,5260,5784
7080,5260,5784
7076,5252,5776
7072,5248,5768
7072,5248,5768
7076,5248,5772
7068,5240,5764
7068,5236,5760
7060,5232,5752
7064,5236,5756
7064,5232,5752
7060,5228,5748
7064,5236,5756
7068,5240,5760
7068,5240,5756
7064,5236,5756
7072,5244,5768
7076,5252,5772
7080,5256,5776
7084,5264,5788
7084,5264,5784
7084,5264,5784
7080,5260,5780
7084,5264,5788
7088,5272,5796
7092,5280,5804
7092,5284,5804
7100,5296,5816
7100,5292,5816
7100,5296,5820
7104,5300,5824
7112,5312,5840
7116,5324,5852
7116,5324,5852
7112,5320,5844
7108,5312,5840
7108,5308,5836
7104,5300,5828
7104,5300,5824
7104,5300,5824
7108,5308,5832
7116,5320,5852
7120,5332,5864
7124,5332,5864
7124,5332,5868
7128,5336,5868
7128,5336,5868
7128,5340,5872
7132,5344,5880
7136,5352,5888
7140,5356,5892
7140,5360,5900
7144,5368,5904
7148,5376,5912
7160,5388,5932
7164,5400,5944
7176,5416,5964
7168,5404,5948
7160,5396,5936
7156,5388,5928
7160,5392,5932
7156,5392,5932
7164,5404,5944
7172,5416,5960
7184,5436,5980
7192,5448,5996
7192,5448,5996
7192,5444,5988
7180,5428,5972
7180,5428,5972
7180,5428,5968
7180,5428,5968
7168,5416,5956
7168,5412,5952
7168,5412,5948
7164,5404,5944
7160,5400,5936
7160,5396,5936
7152,5388,5928
7148,5380,5916
7152,5376,5916
7148,5376,5912
7156,5384,5928
7152,5384,5924
7148,5376,5912
7136,5360,5896
7136,5356,5892
7136,5356,5892
7140,5368,5904
7144,5372,5908
7144,5368,5904
7136,5360,5892
7128,5348,5880
7128,5344,5880
7128,5348,5880
7132,5356,5888
7140,5360,5896
7144,5368,5904
7148,5376,5916
7144,5372,5908
7132,5356,5888
7132,5352,5884
7132,5352,5884
7140,5364,5896
7136,5360,5892
7140,5364,5896
7148,5372,5908
7140,5368,5900
7144,5372,5904
7144,5372,5908
7132,5360,5888
7128,5348,5876
7124,5348,5876
7128,5348,5876
7120,5336,5864
7120,5336,5864
7120,5332,5860
7116,5324,5856
7108,5316,5844
7108,5312,5840
7112,5316,5848
7116,5324,5852
7112,5316,5848
7108,5308,5836
7104,5304,5832
7100,5296,5824
7104,5296,5824
7104,5300,5828
7104,5300,5828
7104,5296,5824
7100,5292,5820
7096,5292,5816
7100,5296,5824
7104,5300,5828
7100,5300,5828
7096,5292,5820
7092,5288,5812
7096,5292,5816
7096,5292,5816
7096,5292,5816
7092,5284,5804
7088,5280,5800
7096,5288,5812
7096,5296,5816
7096,5292,5816
7096,5296,5816
7096,5296,5816
7092,5288,5804
7088,5280,5796
7088,5284,5800
7088,5288,5804
7084,5284,5796
7088,5280,5796
7080,5272,5788
7076,5260,5772
7068,5248,5760
7076,5256,5772
7076,5264,5780
7080,5268,5788
7080,5268,5788
7084,5272,5788
7076,5260,5776
7068,5252,5764
7076,5256,5772
7076,5260,5776
7072,5260,5776
7076,5264,5780
7076,5256,5772
7072,5256,5768
7080,5264,5776
7084,5276,5792
7096,5296,5816
7104,5304,5824
7096,5292,5812
7088,5288,5804
7096,5296,5812
7100,5300,5820
7104,5312,5832
7116,5328,5852
7116,5332,5856
7108,5320,5840
7108,5316,5840
7112,5328,5848
7120,5336,5860
7128,5348,5872
7128,5356,5880
7132,5364,5888
7128,5356,5880
7120,5348,5868
7120,5344,5864
7128,5356,5880
7124,5352,5872
7120,5340,5864
7120,5340,5860
7120,5344,5868
7124,5344,5868
7120,5340,5864
7120,5340,5864
7124,5344,5868
7132,5348,5876
7132,5352,5880
7136,5360,5888
7132,5356,5884
7128,5352,5880
7132,5356,5880
7140,5364,5896
7140,5372,5904
7144,5380,5912
7144,5376,5904
7140,5368,5896
7140,5372,5900
7148,5388,5920
7160,5400,5936
7164,5412,5948
7160,5404,5940
7156,5396,5932
7164,5404,5936
7168,5412,5948
7160,5404,5936
7156,5400,5932
7160,5408,5940
7168,5420,5952
7172,5428,5968
7184,5444,5984
7192,5456,5996
7192,5452,5992
7180,5440,5976
7172,5424,5960
7168,5424,5956
7164,5420,5952
7172,5428,5964
7172,5428,5964
7164,5412,5948
7148,5392,5920
7148,5388,5920
7152,5388,5924
7152,5392,5928
7152,5388,5924
7136,5368,5900
7136,5364,5896
7140,5372,5904
7144,5376,5908
7144,5376,5912
7140,5372,5904
7140,5368,5904
7140,5372,5904
7144,5372,5904
7140,5372,5904
7144,5376,5908
7156,5388,5928
7160,5400,5936
7160,5404,5940
7164,5408,5948
7160,5408,5948
7156,5396,5932
7136,5376,5912
7140,5380,5912
7148,5388,5924
7156,5400,5936
7152,5400,5936
7152,5396,5928
7148,5392,5928
7148,5388,5924
7152,5396,5928
7148,5388,5920
7148,5388,5920
7144,5384,5916
7140,5380,5908
7136,5372,5900
7128,5360,5888
7128,5356,5884
7120,5344,5868
7116,5340,5864
7116,5336,5860
7112,5324,5848
7108,5316,5840
7100,5308,5832
7100,5308,5828
7100,5308,5828
7104,5308,5832
7096,5300,5824
7100,5304,5828
7100,5308,5832
7100,5308,5832
7096,5300,5824
7096,5300,5820
7096,5304,5820
7104,5312,5836
7112,5324,5848
7112,5328,5852
7112,5328,5852
7116,5332,5856
7120,5340,5868
7120,5340,5864
7120,5340,5868
7128,5352,5880
7124,5352,5876
7124,5348,5872
7120,5344,5868
7120,5352,5876
7124,5356,5880
7128,5356,5880
7124,5356,5876
7124,5352,5876
7120,5344,5864
7116,5344,5860
7124,5352,5872
7120,5352,5872
7128,5360,5884
7132,5364,5892
7128,5356,5880
7128,5356,5880
7132,5368,5892
7132,5368,5896
7132,5360,5888
7128,5360,5884
7136,5368,5896
7136,5368,5900
7136,5368,5896
7136,5368,5896
7136,5372,5900
7140,5376,5908
7148,5388,5916
7148,5388,5920
7152,5392,5920
7148,5388,5920
7156,5400,5928
7164,5412,5944
7164,5420,5952
7172,5428,5964
7168,5428,5964
7164,5420,5956
7164,5424,5956
7176,5436,5972
7184,5448,5984
7192,5460,6000
7184,5448,5984
7180,5444,5980
7180,5448,5984
7192,5464,6004
7200,5476,6016
7196,5472,6008
7192,5460,5996
7192,5460,5996
7192,5468,6004
7192,5464,5996
7188,5460,5992
7184,5452,5988
7184,5452,5984
7176,5436,5964
7168,5424,5956
7168,5424,5956
7168,5420,5952
7164,5412,5944
7156,5404,5932
7152,5400,5928
7156,5404,5936
7160,5412,5944
7164,5412,5944
7168,5416,5952
7160,5412,5944
7156,5400,5932
7156,5400,5932
7156,5400,5932
7160,5408,5936
7160,5404,5936
7156,5400,5932
7156,5400,5932
7160,5408,5940
7160,5412,5944
7160,5412,5944
7160,5408,5940
7152,5404,5936
7156,5404,5936
7156,5408,5940
7168,5420,5952
7172,5424,5960
7172,5428,5960
7168,5424,5956
7168,5424,5952
7164,5420,5948
7168,5424,5952
7164,5420,5948
7164,5416,5948
7160,5412,5940
7156,5408,5936
7152,5400,5924
7152,5400,5924
7152,5396,5924
7148,5388,5912
7140,5372,5896
7136,5368,5892
7140,5372,5896
7144,5380,5912
7136,5376,5904
7136,5364,5892
7128,5352,5880
7124,5348,5872
7124,5344,5868
7120,5344,5868
7120,5340,5864
7116,5332,5852
7112,5328,5848
7116,5332,5852
7120,5340,5860
7116,5336,5856
7116,5336,5856
7120,5340,5860
7116,5336,5856
7112,5328,5844
7108,5324,5840
7112,5328,5848
7116,5340,5860
7112,5328,5848
7104,5324,5840
7112,5328,5848
7120,5344,5864
7128,5360,5880
7132,5360,5884
7120,5348,5868
7116,5340,5856
7120,5344,5860
7120,5348,5864
7112,5340,5852
7104,5328,5840
7100,5320,5832
7104,5324,5836
7104,5324,5836
7104,5320,5836
7100,5316,5832
7108,5324,5836
7104,5324,5836
7104,5320,5836
7100,5320,5832
7104,5324,5840
7112,5332,5852
7108,5328,5848
7108,5328,5844
7108,5328,5844
7116,5340,5860
7120,5344,5864
7112,5340,5856
7120,5348,5868
7128,5360,5884
7132,5372,5896
7148,5392,5916
7148,5392,5920
7148,5396,5920
7144,5392,5916
7148,5396,5920
7148,5396,5924
7148,5400,5928
7160,5412,5940
7164,5424,5956
7172,5440,5972
7176,5444,5980
7176,5448,5980
7176,5444,5976
7184,5456,5988
7188,5460,5996
7188,5460,5996
7184,5452,5984
7176,5444,5976
7176,5448,5976
7180,5452,5984
7180,5452,5984
7180,5452,5984
7172,5444,5976
7176,5444,5976
7168,5432,5964
7172,5436,5968
7176,5444,5980
7180,5448,5984
7188,5456,5996
7184,5452,5988
7184,5448,5984
7184,5448,5984
7184,5452,5992
7188,5452,5992
7184,5452,5992
7168,5432,5964
7168,5428,5960
7176,5440,5972
7188,5464,6000
7196,5476,6016
7200,5484,6024
7196,5480,6020
7200,5480,6024
7196,5480,6020
7196,5476,6016
7196,5476,6016
7200,5484,6024
7200,5484,6024
7204,5488,6028
7200,5488,6028
7204,5492,6036
7212,5504,6048
7204,5496,6040
7200,5484,6020
7192,5472,6008
7196,5480,6016
7196,5480,6016
7196,5480,6016
7184,5460,5992
7176,5448,5980
7172,5440,5972
7176,5444,5976
7172,5436,5968
7172,5432,5964
7160,5420,5952
7164,5416,5948
7160,5416,5944
7160,5412,5944
7160,5412,5944
7156,5408,5940
7160,5412,5944
7156,5404,5936
7156,5408,5936
7148,5400,5932
7144,5392,5920
7152,5396,5928
7148,5400,5928
7152,5400,5932
7152,5400,5928
7144,5392,5920
7144,5392,5920
7148,5400,5928
7156,5408,5940
7152,5404,5936
7156,5408,5936
7152,5404,5932
7152,5400,5928
7148,5400,5928
7156,5408,5936
7160,5412,5944
7164,5424,5952
7160,5416,5948
7152,5408,5936
7148,5400,5928
7152,5408,5932
7152,5404,5928
7140,5388,5912
7132,5372,5892
7132,5372,5888
7128,5368,5888
7128,5360,5880
7128,5360,5880
7116,5344,5864
7112,5336,5852
7112,5336,5856
7116,5344,5864
7108,5332,5852
7108,5332,5852
7108,5328,5848
7100,5316,5832
7100,5316,5832
7100,5320,5836
7108,5328,5844
7108,5324,5844
7096,5312,5828
7100,5316,5832
7108,5324,5844
7104,5324,5840
7104,5320,5832
7100,5320,5832
7104,5328,5840
7104,5328,5840
7100,5320,5832
7100,5324,5832
7108,5328,5840
7108,5332,5844
7108,5336,5848
7112,5340,5852
7116,5344,5856
7112,5340,5852
7112,5340,5852
7112,5344,5852
7120,5356,5868
7128,5364,5876
7128,5368,5884
7124,5360,5876
7120,5356,5868
7124,5360,5876
7132,5372,5888
7132,5372,5888
7128,5368,5884
7132,5368,5888
7132,5368,5884
7132,5372,5892
7136,5380,5904
7140,5388,5912
7144,5388,5912
7148,5396,5920
7148,5400,5924
7156,5408,5936
7156,5408,5932
7152,5408,5936
7160,5420,5944
7168,5428,5956
7168,5432,5956
7172,5432,5960
7172,5440,5968
7180,5452,5984
7184,5456,5984
7180,5452,5984
7184,5460,5992
7188,5472,6004
7200,5484,6020
7200,5488,6024
7204,5492,6028
7204,5492,6032
7200,5488,6024
7200,5488,6020
7204,5492,6028
7204,5492,6028
7204,5492,6028
7204,5496,6028
7204,5492,6024
7200,5488,6020
7196,5488,6020
7196,5488,6020
7204,5492,6028
7204,5492,6028
7200,5488,6020
7200,5488,6024
7204,5488,6024
7188,5468,6000
7188,5460,5992
7188,5464,5996
7188,5464,6000
7180,5452,5984
7164,5424,5952
7156,5416,5944
7164,5428,5960
7168,5436,5964
7168,5428,5960
7160,5420,5948
7164,5424,5952
7168,5432,5960
7176,5440,5972
7180,5448,5980
7180,5448,5980
7176,5448,5976
7176,5444,5976
7172,5440,5972
7176,5444,5976
7180,5452,5984
7184,5460,5992
7192,5468,6004
7184,5460,5992
7176,5448,5980
7176,5448,5976
7176,5452,5980
7180,5456,5984
7180,5456,5988
7180,5452,5980
7176,5448,5976
7168,5440,5964
7168,5436,5964
7168,5436,5964
7164,5436,5960
7160,5428,5956
7160,5420,5948
7156,5412,5940
7156,5412,5940
7152,5412,5936
7148,5404,5928
7140,5392,5916
7144,5392,5920
7144,5396,5924
7152,5400,5928
7144,5392,5916
7144,5392,5916
7132,5376,5900
7132,5372,5892
7132,5372,5892
7132,5376,5896
7132,5372,5896
7132,5372,5896
7136,5380,5900
7140,5388,5908
7140,5384,5908
7136,5380,5904
7132,5380,5900
7136,5388,5908
7128,5376,5896
7124,5368,5884
7124,5368,5884
7124,5368,5884
7128,5368,5880
7132,5372,5888
7132,5376,5892
7132,5380,5896
7128,5372,5888
7124,5364,5876
7124,5364,5872
7116,5348,5856
7104,5336,5840
7100,5332,5836
7104,5336,5840
7100,5328,5836
7096,5320,5824
7096,5320,5828
7108,5336,5844
7108,5340,5848
7108,5336,5844
7104,5328,5840
7100,5324,5832
7108,5336,5844
7116,5348,5864
7120,5352,5864
7120,5352,5864
7120,5352,5864
7120,5356,5868
7120,5356,5872
7120,5360,5876
7124,5364,5876
7128,5372,5888
7140,5388,5908
7144,5400,5920
7152,5408,5928
7148,5404,5924
7152,5412,5932
7160,5424,5948
7164,5436,5960
7180,5456,5984
7188,5468,6000
7192,5476,6008
7192,5476,6008
7196,5484,6016
7200,5488,6020
7204,5496,6032
7200,5492,6024
7196,5488,6016
7192,5484,6012
7196,5488,6016
7196,5484,6012
7196,5488,6016
7196,5488,6020
7200,5492,6028
7204,5496,6032
7208,5500,6036
7212,5504,6044
7216,5512,6052
7216,5512,6052
7216,5512,6052
7216,5512,6052
7216,5512,6052
7216,5516,6056
7220,5524,6064
7224,5528,6072
7224,5532,6072
7216,5520,6064
7212,5508,6048
7208,5500,6040
7208,5500,6036
7212,5508,6048
7208,5508,6044
7216,5516,6052
7220,5520,6060
7224,5524,6064
7220,5524,6064
7208,5504,6040
7204,5500,6032
7212,5508,6044
7220,5524,6060
7224,5532,6072
7212,5520,6056
7212,5516,6048
7212,5516,6052
7212,5516,6052
7212,5516,6052
7208,5512,6044
7204,5504,6036
7208,5504,6036
7204,5500,6036
7192,5484,6012
7188,5476,6004
7188,5472,6000
7188,5468,6000
7184,5464,5996
7184,5460,5988
7176,5448,5980
7176,5448,5980
7172,5440,5968
7152,5416,5940
7152,5412,5936
7156,5420,5944
7164,5428,5956
7164,5432,5956
7160,5420,5944
7160,5420,5944
7160,5428,5952
7168,5432,5960
7172,5444,5972
7184,5456,5988
7184,5460,5992
7188,5464,5996
7184,5460,5988
7172,5440,5968
7172,5436,5964
7168,5440,5964
7172,5448,5972
7172,5444,5972
7176,5448,5976
7176,5448,5976
7180,5456,5984
7176,5452,5980
7172,5448,5972
7172,5448,5972
7172,5444,5968
7172,5440,5964
7164,5432,5952
7156,5420,5936
7152,5412,5932
7148,5404,5924
7148,5400,5920
7140,5392,5908
7140,5384,5904
7136,5380,5896
7136,5380,5900
7140,5384,5904
7136,5376,5896
7132,5376,5892
7132,5372,5888
7132,5368,5884
7128,5368,5884
7128,5368,5884
7128,5364,5884
7132,5372,5888
7128,5368,5884
7132,5372,5888
7128,5372,5884
7132,5376,5892
7136,5376,5892
7128,5368,5884
7132,5376,5888
7140,5388,5900
7144,5392,5908
7136,5384,5900
7136,5384,5896
7144,5392,5904
7144,5396,5912
7152,5404,5920
7156,5408,5924
7152,5404,5920
7148,5404,5920
7148,5404,5916
7148,5404,5916
7152,5408,5920
7148,5408,5920
7144,5396,5908
7140,5396,5908
7136,5388,5900
7140,5392,5904
7140,5388,5900
7136,5388,5900
7136,5384,5900
7140,5392,5904
7140,5392,5908
7148,5400,5916
7148,5400,5916
7156,5412,5928
7156,5412,5932
7160,5416,5936
7152,5408,5928
7160,5416,5936
7164,5428,5948
7168,5436,5956
7168,5432,5952
7168,5436,5956
7172,5440,5964
7176,5452,5976
7176,5448,5972
7180,5456,5976
7180,5460,5984
7180,5460,5980
7184,5460,5980
7184,5464,5984
7188,5472,5996
7192,5476,6000
7188,5476,5996
7192,5484,6004
7200,5492,6020
7200,5492,6020
7196,5488,6012
7192,5484,6008
7192,5484,6004
7188,5480,6000
7188,5476,5996
7188,5476,5996
7184,5472,5996
7184,5468,5992
7180,5460,5984
7180,5460,5980
7180,5456,5976
7180,5452,5976
7180,5456,5976
7180,5456,5980
7184,5456,5980
7180,5452,5976
7180,5452,5976
7176,5448,5972
7176,5448,5976
7176,5448,5972
7172,5440,5964
7176,5444,5968
7176,5448,5972
7176,5448,5972
7172,5452,5976
7176,5452,5980
7184,5460,5988
7188,5468,5996
7192,5472,6004
7196,5476,6004
7196,5476,6004
7196,5476,6008
7196,5484,6012
7196,5484,6012
7196,5484,6012
7200,5484,6012
7200,5488,6016
7196,5488,6016
7200,5492,6020
7196,5488,6012
7192,5480,6008
7192,5480,6004
7192,5476,6000
7196,5476,6000
7196,5476,6004
7196,5476,6000
7192,5468,5992
7184,5460,5988
7184,5460,5988
7180,5452,5980
7176,5448,5976
7184,5452,5980
7184,5456,5984
7188,5456,5988
7180,5448,5976
7172,5440,5968
7172,5436,5960
7172,5436,5960
7172,5432,5960
7180,5444,5972
7184,5448,5980
7180,5448,5976
7176,5440,5972
7168,5432,5956
7168,5432,5960
7172,5440,5968
7184,5452,5980
7188,5456,5988
7184,5456,5988
7184,5460,5988
7188,5460,5988
7188,5464,5996
7192,5468,5996
7192,5472,6000
7200,5476,6008
7196,5476,6004
7196,5480,6008
7200,5484,6012
7196,5480,6008
7200,5484,6012
7200,5484,6012
7192,5476,6004
7188,5468,5992
7184,5460,5984
7184,5460,5984
7184,5456,5980
7172,5440,5960
7160,5424,5944
7160,5416,5936
7160,5416,5936
7164,5420,5940
7168,5428,5948
7172,5432,5956
7172,5440,5964
7176,5444,5972
7180,5452,5976
7188,5456,5984
7188,5456,5980
7188,5456,5984
7196,5472,6000
7188,5464,5992
7192,5472,5996
7196,5480,6008
7204,5488,6024
7212,5504,6036
7220,5516,6052
7228,5524,6064
7224,5524,6060
7228,5528,6064
7232,5536,6076
7236,5540,6080
7236,5544,6084
7240,5548,6084
7252,5560,6100
7252,5564,6108
7252,5568,6112
7256,5576,6116
7252,5568,6112
7248,5568,6108
7248,5568,6108
7248,5568,6108
7248,5564,6104
7244,5560,6100
7244,5556,6096
7240,5552,6092
7240,5552,6092
7240,5552,6092
7236,5544,6080
7232,5536,6076
7236,5540,6080
7240,5544,6084
7240,5544,6084
7240,5548,6088
7232,5536,6076
7228,5532,6072
7228,5532,6068
7224,5524,6060
7224,5520,6056
7228,5528,6064
7232,5536,6076
7236,5540,6080
7236,5540,6080
7240,5548,6088
7244,5552,6096
7244,5552,6096
7248,5556,6096
7244,5556,6100
7248,5560,6100
7244,5556,6100
7244,5556,6100
7244,5556,6096
7244,5556,6096
7244,5556,6100
7244,5556,6096
7244,5556,6096
7248,5564,6104
7244,5556,6092
7244,5556,6092
7236,5548,6084
7228,5540,6072
7224,5532,6064
7220,5524,6056
7220,5524,6056
7220,5516,6052
7212,5508,6044
7212,5504,6040
7208,5500,6032
7208,5496,6032
7216,5504,6040
7216,5504,6044
7216,5508,6044
7216,5504,6044
7212,5500,6036
7212,5500,6036
7212,5496,6032
7208,5492,6028
7208,5492,6028
7216,5500,6036
7216,5500,6040
7216,5504,6044
7216,5504,6044
7216,5504,6044
7212,5504,6044
7220,5512,6052
7220,5512,6052
7216,5508,6044
7216,5508,6044
7212,5500,6036
7208,5496,6032
7208,5496,6028
7208,5496,6032
7212,5504,6036
7212,5500,6036
7212,5504,6036
7208,5500,6032
7204,5492,6024
7204,5492,6024
7204,5496,6024
7200,5488,6012
7192,5472,5996
7188,5464,5988
7184,5460,5984
7184,5460,5980
7184,5452,5980
7180,5448,5972
7176,5444,5968
7180,5444,5968
7180,5444,5968
7184,5448,5976
7180,5444,5972
7176,5440,5964
7172,5436,5960
7172,5436,5960
7172,5440,5964
7176,5440,5964
7176,5440,5964
7176,5444,5964
7180,5444,5972
7180,5448,5972
7184,5456,5980
7188,5460,5984
7188,5464,5988
7188,5464,5988
7188,5468,5992
7192,5472,5996
7196,5476,6004
7200,5484,6008
7204,5492,6016
7208,5496,6024
7204,5496,6024
7212,5504,6032
7212,5508,6036
7216,5512,6040
7220,5520,6048
7220,5524,6052
7224,5528,6056
7224,5528,6060
7224,5528,6056
7220,5524,6056
7224,5528,6060
7232,5536,6068
7228,5528,6064
7232,5532,6068
7228,5532,6068
7228,5532,6068
7232,5540,6076
7240,5548,6088
7240,5548,6088
7252,5560,6100
7248,5560,6100
7244,5556,6100
7244,5556,6100
7248,5560,6104
7248,5564,6104
7248,5560,6100
7252,5564,6104
7256,5572,6112
7252,5572,6112
7256,5576,6120
7256,5576,6120
7260,5588,6132
7268,5600,6148
7280,5612,6160
7276,5612,6160
7276,5608,6156
7276,5608,6156
7272,5608,6152
7272,5604,6152
7272,5608,6156
7276,5616,6160
7276,5616,6164
7272,5608,6156
7268,5604,6144
7272,5608,6152
7268,5608,6152
7264,5596,6140
7256,5588,6128
7256,5584,6124
7252,5580,6116
7248,5572,6112
7252,5568,6112
7248,5564,6108
7244,5560,6100
7244,5556,6096
7244,5556,6096
7248,5560,6104
7244,5556,6100
7244,5556,6100
7244,5556,6100
7244,5552,6096
7244,5552,6096
7240,5548,6092
7240,5548,6088
7240,5548,6092
7240,5552,6092
7244,5556,6100
7248,5564,6108
7248,5568,6112
7248,5568,6112
7252,5568,6116
7252,5572,6116
7252,5572,6120
7256,5576,6124
7256,5580,6128
7260,5584,6132
7256,5580,6128
7256,5580,6128
7260,5584,6132
7264,5592,6140
7268,5596,6144
7268,5596,6144
7264,5592,6140
7260,5588,6136
7256,5584,6128
7248,5568,6108
7240,5560,6096
7236,5544,6084
7228,5532,6072
7224,5528,6064
7220,5520,6056
7220,5516,6052
7220,5512,6052
7216,5508,6044
7216,5508,6044
7220,5508,6044
7220,5508,6044
7216,5504,6040
7212,5496,6032
7208,5492,6024
7208,5492,6024
7204,5488,6020
7204,5488,6024
7204,5492,6024
7204,5492,6028
7208,5500,6032
7212,5500,6036
7208,5500,6032
7208,5504,6036
7208,5500,6032
7204,5496,6028
7208,5496,6028
7204,5496,6024
7208,5500,6028
7208,5504,6032
7212,5508,6040
7216,5516,6048
7220,5524,6056
7224,5524,6056
7224,5524,6056
7224,5528,6060
7228,5536,6068
7224,5532,6064
7224,5528,6060
7220,5524,6052
7220,5528,6056
7224,5528,6060
7224,5528,6060
7224,5528,6060
7228,5532,6068
7232,5536,6072
7232,5536,6072
7236,5544,6084
7240,5552,6092
7244,5556,6096
7248,5564,6108
7256,5572,6116
7256,5572,6116
7256,5572,6116
7260,5580,6128
7260,5588,6132
7268,5596,6144
7268,5600,6148
7272,5608,6156
7276,5612,6164
7284,5620,6172
7288,5632,6184
7296,5640,6196
7296,5648,6200
7300,5648,6204
7296,5648,6204
7304,5656,6212
7300,5652,6208
7304,5656,6212
7304,5660,6212
7304,5664,6220
7308,5668,6220
7304,5664,6216
7312,5672,6228
7320,5684,6240
7320,5688,6244
7312,5676,6232
7304,5664,6216
7304,5664,6216
7304,5660,6212
7300,5652,6208
7300,5652,6204
7300,5652,6208
7304,5656,6212
7300,5648,6204
7296,5644,6204
7300,5652,6208
7300,5648,6204
7296,5644,6204
7296,5644,6200
7296,5644,6200
7296,5640,6200
7296,5644,6204
7300,5648,6208
7300,5652,6208
7300,5648,6208
7304,5652,6216
7308,5660,6224
7308,5660,6224
7304,5656,6216
7308,5660,6220
7308,5660,6220
7312,5664,6224
7312,5664,6224
7308,5664,6220
7308,5664,6224
7304,5660,6220
7304,5660,6220
7304,5660,6220
7308,5668,6224
7304,5664,6220
7304,5660,6220
7308,5660,6220
7304,5664,6220
7300,5656,6212
7292,5644,6196
7288,5636,6188
7280,5624,6172
7280,5624,6172
7280,5620,6172
7276,5612,6168
7272,5608,6160
7272,5604,6156
7280,5608,6164
7276,5608,6160
7276,5604,6156
7268,5596,6148
7264,5588,6140
7264,5588,6136
7260,5580,6132
7260,5580,6128
7256,5576,6124
7256,5572,6120
7248,5568,6112
7252,5568,6116
7252,5568,6112
7256,5576,6120
7256,5576,6124
7256,5572,6120
7252,5572,6120
7256,5576,6120
7252,5576,6120
7256,5576,6120
7252,5576,6120
7252,5576,6120
7256,5580,6124
7260,5584,6128
7260,5584,6124
7260,5584,6124
7256,5580,6120
7256,5580,6124
7260,5584,6124
7256,5580,6120
7248,5572,6112
7244,5568,6104
7240,5560,6096
7244,5564,6100
7240,5560,6096
7240,5556,6096
7236,5552,6092
7244,5560,6100
7248,5564,6104
7248,5560,6104
7248,5564,6108
7248,5568,6108
7252,5568,6112
7256,5572,6116
7260,5580,6124
7256,5576,6120
7256,5580,6124
7264,5588,6136
7268,5600,6148
7272,5604,6152
7276,5608,6156
7284,5616,6168
7288,5628,6176
7292,5636,6188
7296,5644,6196
7300,5648,6204
7300,5656,6208
7308,5664,6220
7312,5672,6228
7316,5680,6240
7316,5680,6240
7316,5684,6240
7320,5688,6248
7320,5692,6252
7328,5700,6256
7332,5704,6260
7328,5700,6256
7332,5708,6264
7332,5708,6264
7328,5700,6260
7328,5700,6260
7328,5700,6256
7324,5692,6252
7324,5696,6252
7328,5696,6256
7320,5688,6248
7320,5684,6244
7320,5680,6240
7320,5684,6248
7320,5684,6248
7320,5688,6248
7320,5684,6248
7316,5680,6244
7320,5684,6244
7324,5684,6244
7320,5684,6244
7320,5680,6244
7320,5680,6244
7320,5684,6244
7328,5692,6252
7332,5696,6260
7328,5700,6260
7328,5696,6260
7332,5700,6264
7332,5704,6268
7332,5700,6264
7324,5688,6252
7324,5692,6252
7320,5688,6248
7324,5692,6252
7324,5692,6252
7324,5692,6256
7332,5700,6264
7336,5704,6268
7324,5692,6256
7324,5696,6252
7328,5696,6256
7324,5696,6252
7320,5688,6244
7312,5676,6228
7308,5664,6216
7304,5660,6212
7300,5648,6204
7296,5644,6196
7292,5636,6188
7288,5632,6184
7288,5628,6176
7284,5624,6176
7284,5620,6172
7284,5624,6176
7276,5612,6164
7272,5604,6156
7272,5604,6156
7272,5604,6152
7272,5604,6156
7272,5608,6160
7276,5612,6164
7280,5616,6168
7284,5620,6176
7284,5624,6180
7292,5632,6184
7288,5632,6188
7284,5628,6180
7288,5632,6184
7288,5628,6180
7284,5624,6176
7272,5612,6160
7276,5612,6160
7272,5608,6156
7272,5612,6160
7272,5612,6160
7272,5608,6156
7268,5604,6152
7268,5608,6152
7268,5604,6152
7276,5612,6156
7264,5604,6148
7268,5600,6144
7260,5592,6132
7260,5588,6128
7260,5584,6124
7256,5580,6120
7252,5576,6116
7256,5580,6120
7256,5576,6120
7248,5564,6104
7252,5564,6108
7252,5568,6108
7248,5564,6108
7248,5564,6104
7244,5560,6104
7244,5560,6100
7244,5556,6092
7244,5560,6100
7248,5564,6108
7248,5568,6108
7252,5568,6108
7252,5572,6112
7260,5584,6124
7264,5592,6136
7264,5596,6140
7272,5604,6148
7272,5604,6152
7276,5616,6160
7280,5620,6164
7280,5624,6172
7284,5628,6172
7284,5632,6180
7288,5640,6184
7292,5644,6192
7296,5652,6200
7304,5660,6208
7304,5660,6212
7308,5668,6220
7308,5672,6224
7308,5672,6224
7304,5664,6216
7312,5672,6224
7312,5672,6228
7308,5672,6228
7316,5676,6232
7316,5676,6232
7320,5680,6236
7316,5676,6236
7320,5684,6244
7324,5688,6248
7320,5688,6248
7320,5684,6244
7316,5684,6240
7320,5684,6244
7324,5692,6252
7324,5692,6252
7320,5692,6248
7324,5696,6256
7324,5696,6260
7332,5704,6268
7340,5716,6280
7340,5720,6280
7344,5720,6284
7340,5720,6284
7340,5724,6284
7344,5724,6288
7340,5724,6288
7340,5724,6288
7336,5724,6284
7340,5728,6288
7344,5732,6296
7344,5728,6292
7340,5728,6292
7340,5728,6292
7340,5724,6284
7340,5724,6284
7336,5720,6280
7336,5720,6280
7332,5712,6268
7328,5704,6260
7324,5700,6256
7320,5692,6248
7308,5680,6236
7308,5676,6232
7312,5680,6236
7308,5672,6232
7304,5664,6220
7300,5660,6220
7304,5664,6220
7300,5656,6212
7296,5648,6204
7292,5640,6196
7292,5640,6192
7292,5644,6196
7296,5648,6200
7296,5648,6200
7300,5652,6208
7296,5652,6208
7292,5648,6200
7296,5648,6204
7296,5652,6204
7300,5652,6208
7300,5652,6208
7296,5648,6200
7292,5644,6196
7292,5648,6200
7296,5656,6208
7300,5656,6208
7300,5660,6212
7304,5664,6220
7308,5668,6220
7304,5668,6220
7308,5668,6224
7304,5664,6220
7312,5672,6228
7312,5672,6224
7296,5656,6204
7288,5640,6188
7284,5636,6184
7280,5628,6176
7276,5620,6164
7272,5608,6152
7268,5600,6148
7268,5600,6144
7268,5596,6140
7268,5592,6136
7260,5588,6132
7264,5592,6136
7256,5584,6128
7256,5580,6124
7256,5580,6120
7256,5580,6124
7260,5584,6124
7256,5580,6124
7256,5580,6124
7260,5584,6128
7256,5584,6124
7256,5584,6128
7260,5592,6132
7264,5596,6140
7268,5600,6144
7268,5604,6148
7272,5604,6148
7272,5608,6152
7272,5612,6152
7264,5604,6148
7268,5608,6148
7268,5612,6152
7268,5612,6152
7272,5616,6156
7272,5616,6160
7276,5620,6164
7276,5624,6164
7272,5624,6164
7276,5624,6168
7276,5624,6164
7276,5624,6164
7276,5620,6164
7272,5620,6164
7284,5628,6172
7284,5628,6176
7284,5632,6180
7288,5632,6180
7292,5640,6192
7300,5648,6204
7300,5652,6204
7300,5652,6204
7296,5652,6204
7304,5660,6212
7308,5664,6220
7316,5676,6228
7316,5680,6236
7316,5680,6236
7320,5684,6244
7324,5696,6252
7328,5704,6264
7332,5712,6272
7332,5716,6276
7344,5728,6292
7344,5732,6296
7348,5736,6300
7352,5744,6308
7352,5744,6312
7352,5744,6312
7348,5744,6312
7348,5748,6312
7360,5760,6328
7356,5760,6324
7360,5760,6324
7352,5756,6320
7356,5760,6324
7356,5760,6324
7356,5756,6320
7352,5752,6312
7352,5748,6312
7352,5748,6312
7348,5744,6308
7344,5736,6300
7340,5728,6296
7340,5728,6292
7344,5732,6296
7348,5732,6300
7348,5736,6300
7348,5732,6300
7344,5728,6296
7340,5724,6288
7336,5720,6284
7332,5716,6280
7332,5716,6280
7332,5712,6276
7336,5716,6280
7344,5728,6296
7348,5732,6300
7340,5728,6296
7340,5728,6296
7340,5732,6300
7348,5736,6304
7348,5736,6304
7348,5736,6304
7348,5736,6304
7344,5736,6304
7348,5740,6304
7344,5736,6304
7340,5732,6296
7340,5736,6300
7348,5744,6308
7344,5740,6308
7340,5732,6296
7340,5732,6296
7340,5736,6300
7340,5732,6292
7332,5716,6272
7312,5688,6244
7312,5684,6240
7316,5688,6244
7312,5684,6236
7312,5680,6236
7308,5676,6232
7312,5676,6236
7312,5676,6236
7312,5672,6232
7308,5672,6232
7312,5676,6236
7312,5672,6236
7308,5664,6224
7300,5660,6220
7304,5660,6220
7304,5664,6224
7300,5660,6216
7304,5664,6220
7308,5664,6220
7304,5660,6220
7308,5668,6224
7304,5664,6220
7304,5660,6220
7308,5664,6220
7304,5660,6220
7308,5664,6220
7304,5660,6216
7304,5660,6212
7304,5660,6216
7300,5656,6212
7300,5656,6208
7296,5656,6208
7300,5660,6212
7300,5660,6216
7304,5660,6212
7300,5660,6212
7296,5656,6208
7292,5652,6200
7288,5640,6184
7284,5636,6180
7284,5636,6180
7284,5628,6176
7276,5620,6168
7276,5620,6168
7276,5620,6168
7280,5620,6168
7280,5620,6168
7284,5624,6176
7284,5624,6172
7284,5624,6172
7284,5624,6172
7280,5624,6172
7280,5624,6172
7280,5624,6172
7284,5628,6176
7284,5632,6180
7288,5636,6184
7284,5632,6180
7288,5632,6180
7292,5640,6184
7292,5644,6192
7300,5656,6204
7300,5656,6208
7300,5660,6212
7304,5664,6212
7308,5672,6220
7312,5680,6232
7308,5676,6232
7316,5684,6236
7316,5684,6236
7316,5688,6244
7320,5692,6248
7324,5696,6252
7324,5700,6252
7324,5700,6252
7320,5696,6248
7320,5692,6244
7316,5684,6236
7312,5680,6232
7312,5680,6232
7312,5680,6232
7312,5676,6232
7312,5676,6232
7320,5680,6236
7320,5680,6240
7312,5680,6236
7316,5680,6236
7312,5680,6236
7312,5680,6236
7316,5684,6240
7316,5684,6236
7316,5688,6244
7312,5684,6240
7312,5684,6240
7316,5692,6248
7320,5696,6252
7328,5704,6264
7328,5704,6264
7332,5708,6268
7332,5712,6268
7332,5716,6272
7328,5712,6268
7332,5716,6272
7336,5720,6276
7340,5724,6284
7344,5728,6284
7340,5728,6284
7340,5728,6288
7340,5728,6288
7336,5724,6280
7336,5724,6280
7344,5732,6288
7336,5728,6280
7328,5712,6264
7320,5700,6252
7320,5696,6248
7320,5696,6248
7316,5688,6240
7312,5684,6236
7320,5692,6248
7328,5700,6260
7324,5696,6252
7324,5692,6252
7328,5700,6264
7332,5708,6268
7332,5708,6272
7332,5708,6272
7336,5708,6272
7336,5708,6272
7332,5704,6264
7332,5704,6268
7336,5712,6276
7336,5712,6272
7336,5712,6276
7344,5720,6288
7348,5732,6296
7352,5736,6304
7352,5736,6304
7348,5732,6300
7348,5736,6300
7352,5740,6308
7352,5740,6308
7356,5744,6308
7356,5744,6312
7356,5748,6312
7356,5744,6308
7356,5744,6312
7356,5748,6312
7356,5748,6312
7356,5744,6308
7356,5748,6312
7352,5744,6304
7344,5728,6288
7336,5716,6272
7332,5708,6264
7324,5696,6252
7320,5688,6244
7308,5672,6228
7312,5672,6228
7308,5668,6224
7308,5660,6216
7304,5656,6212
7304,5660,6212
7304,5656,6212
7300,5652,6208
7300,5652,6208
7300,5652,6208
7300,5652,6204
7300,5656,6208
7300,5652,6204
7300,5652,6204
7300,5656,6208
7308,5664,6216
7304,5660,6212
7304,5664,6216
7308,5668,6220
7312,5672,6224
7312,5672,6224
7312,5672,6224
7324,5684,6240
7324,5688,6244
7316,5684,6236
7320,5688,6240
7324,5692,6248
7328,5696,6252
7324,5700,6252
7324,5700,6252
7324,5700,6252
7328,5708,6260
7324,5704,6256
7324,5704,6252
7320,5696,6248
7320,5696,6248
7316,5692,6244
7316,5688,6244
7316,5688,6240
7324,5692,6248
7328,5700,6256
7324,5696,6252
7332,5704,6264
7336,5712,6272
7340,5716,6280
7336,5716,6276
7336,5716,6280
7344,5724,6284
7344,5728,6288
7348,5732,6292
7348,5736,6300
7348,5740,6304
7348,5744,6308
7356,5752,6316
7356,5756,6320
7368,5768,6336
7372,5776,6344
7372,5780,6348
7372,5780,6348
7372,5780,6348
7372,5784,6352
7376,5792,6360
7380,5796,6364
7380,5796,6364
7380,5800,6368
7384,5804,6376
7384,5808,6376
7388,5808,6380
7384,5808,6376
7384,5808,6376
7392,5812,6384
7388,5812,6380
7388,5808,6376
7384,5800,6368
7384,5800,6364
7380,5792,6360
7372,5784,6348
7372,5776,6344
7376,5780,6348
7376,5780,6348
7372,5772,6340
7372,5772,6340
7372,5772,6340
7368,5768,6340
7368,5768,6336
7364,5760,6328
7360,5756,6324
7360,5760,6328
7360,5760,6328
7364,5764,6332
7364,5764,6332
7372,5772,6336
7364,5768,6332
7364,5768,6336
7368,5772,6340
7364,5772,6340
7376,5780,6348
7372,5776,6344
7364,5768,6332
7364,5768,6332
7364,5768,6332
7368,5772,6340
7364,5772,6336
7372,5780,6348
7372,5784,6352
7380,5788,6356
7376,5784,6356
7368,5780,6344
7368,5780,6344
7376,5784,6352
7376,5784,6352
7368,5772,6336
7360,5764,6324
7356,5756,6320
7356,5752,6316
7352,5748,6308
7348,5740,6304
7348,5736,6300
7344,5732,6296
7344,5728,6292
7348,5732,6296
7348,5732,6296
7340,5724,6288
7332,5712,6276
7336,5716,6276
7340,5716,6276
7340,5716,6276
7336,5712,6272
7332,5708,6268
7332,5708,6268
7332,5708,6264
7332,5708,6264
7328,5708,6268
7336,5716,6272
7340,5720,6280
7336,5716,6276
7336,5720,6276
7336,5716,6276
7340,5720,6276
7332,5716,6272
7336,5720,6276
7336,5716,6272
7336,5720,6276
7336,5716,6272
7332,5720,6272
7332,5716,6272
7328,5716,6268
7328,5712,6264
7324,5708,6260
7324,5712,6260
7324,5708,6256
7320,5700,6244
7312,5692,6236
7308,5688,6236
7308,5684,6232
7308,5680,6224
7308,5676,6220
7308,5676,6220
7312,5680,6224
7312,5684,6232
7316,5688,6240
7320,5696,6244
7316,5692,6240
7324,5696,6248
7324,5704,6256
7328,5708,6260
7328,5708,6260
7328,5712,6264
7328,5712,6264
7332,5720,6272
7336,5728,6284
7344,5736,6292
7352,5748,6308
7360,5760,6320
7360,5764,6324
7364,5772,6332
7364,5772,6336
7368,5776,6340
7368,5780,6344
7368,5784,6344
7376,5792,6356
7376,5792,6356
7384,5804,6368
7380,5804,6368
7384,5808,6372
7388,5808,6376
7384,5808,6372
7392,5816,6384
7384,5812,6376
7380,5808,6368
7380,5804,6364
7380,5804,6364
7384,5804,6368
7380,5800,6364
7372,5792,6356
7376,5796,6356
7376,5788,6356
7372,5788,6352
7368,5788,6352
7368,5788,6352
7372,5788,6352
7372,5788,6348
7372,5788,6356
7372,5788,6356
7372,5788,6352
7376,5796,6360
7376,5796,6360
7384,5800,6368
7380,5800,6364
7384,5804,6372
7384,5804,6372
7388,5812,6380
7380,5804,6372
7380,5804,6368
7384,5808,6372
7384,5808,6372
7380,5804,6368
7380,5804,6372
7380,5808,6376
7388,5816,6380
7388,5816,6380
7392,5820,6388
7392,5824,6392
7392,5820,6388
7388,5816,6384
7384,5816,6380
7384,5816,6380
7384,5816,6380
7384,5808,6372
7380,5804,6364
7376,5796,6356
7372,5792,6352
7372,5784,6348
7364,5776,6336
7360,5772,6332
7364,5772,6336
7360,5768,6328
7364,5768,6328
7356,5764,6324
7356,5760,6324
7356,5756,6316
7352,5752,6312
7352,5752,6312
7352,5752,6312
7352,5752,6312
7352,5752,6312
7352,5748,6312
7356,5756,6316
7352,5752,6312
7360,5760,6320
7360,5764,6324
7360,5764,6328
7360,5764,6328
7360,5764,6324
7360,5760,6324
7356,5760,6320
7356,5760,6320
7356,5756,6316
7352,5752,6312
7352,5752,6308
7352,5756,6312
7356,5760,6316
7360,5764,6320
7352,5756,6312
7348,5748,6304
7340,5740,6296
7344,5744,6296
7340,5736,6288
7328,5724,6272
7328,5716,6264
7320,5708,6252
7316,5696,6244
7312,5688,6236
7312,5684,6232
7308,5684,6228
7312,5688,6236
7312,5688,6236
7312,5684,6232
7312,5684,6232
7308,5680,6228
7304,5676,6220
7300,5668,6212
7300,5664,6208
7300,5664,6208
7300,5668,6212
7304,5672,6216
7308,5676,6220
7300,5676,6220
7304,5676,6220
7308,5684,6228
7312,5688,6236
7316,5696,6240
7316,5700,6244
7320,5704,6252
7324,5708,6256
7324,5712,6260
7324,5712,6260
7324,5716,6260
7332,5724,6272
7336,5728,6276
7340,5732,6280
7340,5736,6284
7336,5736,6284
7340,5740,6288
7344,5744,6292
7348,5748,6300
7344,5748,6296
7340,5740,6288
7340,5740,6288
7344,5740,6292
7340,5740,6288
7344,5744,6292
7352,5752,6304
7348,5744,6300
7348,5744,6300
7348,5748,6300
7344,5748,6300
7348,5752,6308
7352,5756,6312
7352,5756,6316
7356,5760,6320
7356,5764,6320
7356,5768,6324
7364,5772,6332
7360,5772,6332
7364,5776,6336
7364,5780,6336
7368,5784,6344
