5176,3140,3060
5176,3140,3060
5176,3140,3064
5176,3140,3060
5176,3144,3064
5180,3144,3064
5180,3144,3064
5180,3144,3064
5176,3144,3064
5176,3140,3060
5172,3136,3056
5172,3132,3056
5172,3132,3056
5168,3128,3052
5168,3128,3052
5168,3128,3052
5172,3128,3052
5172,3128,3052
5172,3128,3052
5172,3132,3052
5172,3128,3052
5172,3132,3056
5172,3128,3052
5168,3128,3052
5168,3128,3052
5172,3132,3052
5172,3132,3052
5172,3132,3052
5172,3132,3056
5172,3136,3056
5168,3132,3056
5172,3136,3056
5172,3136,3056
5172,3136,3056
5172,3140,3060
5176,3140,3060
5176,3140,3060
5176,3140,3060
5176,3140,3060
5180,3144,3064
5176,3140,3060
5176,3136,3060
5172,3136,3056
5172,3132,3056
5168,3128,3052
5172,3128,3052
5172,3128,3052
5168,3128,3052
5168,3124,3048
5172,3128,3052
5172,3128,3052
5172,3128,3052
5172,3128,3052
5176,3132,3056
5176,3132,3056
5176,3128,3056
5172,3128,3052
5172,3128,3056
5176,3132,3056
5176,3132,3056
5176,3132,3056
5176,3132,3056
5176,3136,3060
5180,3140,3060
5180,3136,3060
5180,3140,3064
5180,3140,3064
5184,3144,3064
5184,3144,3064
5188,3148,3068
5180,3144,3064
5184,3144,3064
5180,3140,3060
5180,3140,3060
5176,3136,3056
5176,3136,3056
5180,3136,3060
5176,3128,3056
5176,3128,3052
5172,3124,3052
5172,3124,3052
5172,3124,3052
5176,3128,3052
5172,3124,3052
5172,3124,3052
5172,3124,3052
5172,3124,3052
5176,3128,3052
5176,3128,3056
5176,3128,3052
5176,3128,3056
5180,3132,3060
5180,3132,3060
5180,3132,3060
5180,3132,3056
5180,3136,3060
5176,3136,3056
5180,3136,3060
5180,3136,3060
5184,3140,3060
5184,3140,3064
5184,3140,3064
5184,3144,3064
5184,3144,3064
5184,3140,3064
5184,3140,3064
5180,3136,3060
5180,3132,3056
5180,3132,3056
5176,3128,3052
5176,3124,3052
5176,3124,3052
5172,3124,3048
5172,3120,3048
5176,3124,3052
5172,3120,3048
5176,3124,3052
5176,3124,3052
5176,3124,3052
5176,3124,3052
5172,3124,3052
5176,3124,3052
5176,3128,3052
5176,3128,3052
5180,3128,3056
5176,3128,3056
5176,3128,3056
5176,3132,3056
5180,3132,3056
5176,3132,3056
5176,3132,3056
5180,3136,3060
5180,3136,3060
5180,3136,3060
5180,3136,3060
5180,3140,3060
5180,3136,3060
5180,3136,3056
5180,3132,3056
5180,3132,3056
5176,3128,3052
5172,3124,3052
5172,3124,3048
5168,3120,3048
5168,3120,3048
5168,3120,3044
5168,3120,3044
5172,3120,3048
5168,3120,3048
5168,3120,3044
5168,3120,3048
5168,3120,3044
5172,3120,3048
5172,3120,3048
5172,3120,3048
5172,3124,3048
5172,3124,3048
5176,3124,3052
5176,3128,3052
5176,3128,3052
5172,3128,3052
5176,3128,3052
5176,3132,3056
5180,3132,3056
5180,3132,3056
5176,3132,3056
5176,3132,3056
5180,3132,3056
5184,3136,3060
5180,3132,3056
5176,3128,3056
5176,3128,3052
5176,3124,3052
5172,3120,3048
5176,3120,3048
5176,3120,3048
5176,3120,3048
5176,3120,3048
5176,3120,3048
5176,3120,3052
5180,3124,3052
5176,3120,3048
5176,3120,3048
5176,3124,3052
5176,3124,3052
5180,3124,3052
5180,3124,3052
5180,3128,3056
5176,3124,3052
5180,3128,3052
5176,3128,3052
5180,3128,3052
5180,3128,3056
5180,3132,3056
5176,3128,3052
5176,3132,3056
5176,3132,3056
5180,3132,3056
5180,3136,3056
5176,3132,3056
5180,3136,3056
5180,3136,3056
5176,3132,3056
5176,3128,3052
5176,3124,3052
5176,3124,3052
5172,3120,3048
5172,3120,3048
5172,3120,3048
5176,3120,3048
5176,3120,3048
5176,3120,3048
5172,3120,3048
5176,3124,3052
5176,3124,3052
5176,3124,3052
5176,3124,3052
5172,3124,3048
5176,3124,3052
5176,3124,3052
5176,3128,3052
5180,3128,3056
5180,3132,3056
5180,3132,3056
5180,3132,3056
5180,3136,3056
5184,3136,3060
5184,3136,3060
5184,3136,3060
5180,3136,3060
5184,3140,3064
5184,3140,3064
5188,3144,3064
5184,3140,3060
5184,3140,3060
5180,3136,3056
5180,3132,3056
5180,3128,3056
5176,3128,3052
5176,3124,3052
5176,3124,3052
5172,3124,3048
5176,3124,3052
5176,3124,3052
5180,3124,3052
5180,3124,3052
5180,3128,3052
5180,3128,3052
5180,3128,3052
5184,3128,3056
5180,3132,3056
5180,3132,3056
5184,3132,3056
5184,3136,3060
5184,3136,3060
5180,3132,3056
5188,3136,3060
5188,3140,3064
5184,3136,3060
5188,3140,3064
5184,3140,3060
5184,3140,3064
5184,3140,3064
5188,3144,3064
5188,3144,3064
5184,3140,3060
5184,3140,3060
5184,3136,3060
5180,3132,3056
5180,3132,3056
5180,3128,3052
5176,3124,3052
5180,3128,3052
5180,3128,3052
5180,3128,3052
5180,3128,3052
5180,3128,3052
5180,3128,3052
5180,3128,3052
5176,3124,3052
5176,3124,3048
5172,3124,3048
5176,3128,3052
5176,3128,3052
5180,3128,3056
5180,3132,3056
5180,3132,3056
5180,3132,3056
5184,3136,3056
5180,3136,3056
5184,3136,3056
5184,3136,3060
5184,3140,3060
5184,3140,3060
5184,3140,3060
5188,3140,3064
5188,3140,3064
5184,3140,3060
5184,3140,3060
5180,3136,3056
5180,3132,3056
5176,3128,3052
5176,3128,3052
5176,3124,3052
5176,3124,3048
5176,3124,3048
5176,3124,3048
5176,3124,3048
5180,3124,3052
5180,3124,3052
5176,3124,3052
5176,3124,3052
5180,3128,3052
5180,3128,3052
5176,3124,3052
5180,3128,3052
5180,3128,3052
5180,3128,3052
5180,3132,3056
5184,3132,3056
5184,3132,3056
5184,3136,3056
5184,3136,3060
5188,3136,3060
5188,3140,3060
5188,3140,3064
5188,3140,3064
5188,3140,3064
5184,3140,3060
5188,3140,3060
5184,3136,3060
5180,3136,3056
5180,3132,3052
5176,3128,3052
5176,3124,3048
5176,3124,3048
5172,3120,3048
5172,3120,3044
5172,3120,3044
5172,3120,3044
5172,3120,3048
5176,3120,3048
5176,3124,3048
5176,3124,3048
5176,3124,3048
5176,3124,3048
5180,3128,3052
5176,3124,3052
5180,3128,3052
5176,3124,3048
5176,3124,3052
5176,3128,3052
5176,3128,3052
5176,3128,3052
5180,3132,3056
5176,3132,3052
5172,3128,3052
5172,3132,3052
5176,3132,3052
5176,3136,3056
5176,3132,3052
5172,3132,3052
5172,3132,3052
5172,3128,3052
5172,3124,3048
5168,3120,3044
5164,3116,3040
5164,3116,3040
5164,3116,3040
5168,3116,3040
5164,3112,3036
5160,3112,3036
5164,3112,3036
5164,3112,3036
5168,3116,3040
5168,3112,3040
5164,3112,3040
5164,3112,3040
5164,3112,3040
5164,3112,3040
5168,3116,3040
5168,3116,3040
5172,3120,3044
5172,3120,3044
5172,3120,3044
5172,3124,3048
5176,3124,3048
5172,3124,3048
5172,3124,3048
5172,3124,3048
5176,3128,3052
5176,3132,3052
5176,3128,3052
5176,3128,3052
5172,3124,3048
5172,3124,3048
5172,3120,3044
5172,3120,3044
5172,3120,3044
5172,3120,3044
5172,3116,3044
5172,3116,3044
5176,3120,3044
5176,3120,3048
5176,3120,3048
5176,3120,3048
5176,3120,3048
5176,3124,3048
5176,3124,3048
5176,3124,3048
5172,3124,3048
5176,3128,3052
5176,3128,3052
5184,3132,3056
5184,3132,3056
5180,3132,3056
5184,3136,3056
5184,3140,3060
5184,3140,3060
5184,3140,3060
5188,3144,3064
5192,3144,3064
5188,3144,3064
5188,3144,3064
5188,3144,3064
5188,3140,3060
5188,3140,3060
5184,3136,3056
5180,3132,3052
5180,3128,3052
5176,3124,3048
5180,3128,3052
5180,3128,3052
5176,3124,3048
5180,3124,3048
5184,3128,3052
5176,3124,3048
5180,3124,3048
5180,3128,3052
5184,3128,3052
5184,3132,3056
5184,3128,3052
5184,3132,3056
5184,3132,3056
5184,3132,3056
5184,3132,3056
5188,3136,3056
5188,3136,3056
5188,3136,3056
5192,3140,3060
5192,3140,3064
5192,3140,3060
5188,3140,3060
5192,3144,3064
5192,3144,3064
5192,3144,3064
5188,3140,3060
5188,3136,3060
5188,3136,3056
5188,3132,3056
5188,3128,3056
5180,3124,3048
5180,3124,3048
5180,3120,3048
5180,3124,3048
5180,3120,3048
5184,3124,3048
5184,3124,3048
5180,3124,3048
5184,3124,3052
5184,3124,3048
5180,3124,3048
5184,3124,3048
5180,3124,3048
5184,3124,3052
5184,3128,3052
5184,3128,3052
5184,3128,3052
5184,3132,3052
5188,3132,3056
5184,3132,3056
5184,3132,3052
5184,3132,3056
5188,3136,3056
5188,3136,3060
5188,3136,3056
5188,3136,3056
5188,3132,3056
5184,3132,3052
5188,3128,3052
5184,3124,3048
5184,3124,3048
5180,3120,3044
5180,3120,3044
5180,3116,3044
5180,3116,3044
5180,3116,3044
5176,3112,3040
5176,3112,3040
5176,3116,3040
5180,3116,3040
5176,3116,3044
5176,3116,3044
5176,3116,3040
5180,3116,3044
5180,3116,3044
5176,3116,3044
5180,3120,3044
5180,3120,3044
5184,3120,3048
5184,3124,3048
5184,3124,3048
5184,3124,3048
5184,3128,3052
5184,3128,3052
5188,3132,3052
5188,3132,3056
5188,3132,3056
5188,3132,3056
5188,3132,3052
5184,3124,3052
5184,3124,3048
5184,3124,3048
5180,3116,3044
5184,3120,3044
5184,3116,3044
5184,3120,3044
5184,3116,3044
5184,3120,3048
5188,3120,3048
5184,3120,3048
5188,3124,3048
5188,3124,3048
5192,3128,3052
5192,3128,3052
5196,3132,3056
5196,3132,3056
5196,3132,3056
5192,3132,3056
5196,3136,3060
5196,3136,3060
5200,3140,3060
5200,3140,3064
5200,3140,3064
5196,3140,3064
5196,3140,3064
5196,3144,3064
5196,3144,3064
5196,3144,3064
5200,3144,3064
5196,3144,3064
5196,3140,3060
5196,3136,3060
5196,3136,3060
5192,3132,3056
5192,3132,3056
5192,3128,3052
5192,3128,3052
5188,3128,3052
5188,3124,3052
5192,3128,3052
5188,3128,3052
5192,3128,3052
5188,3128,3052
5192,3128,3052
5188,3128,3052
5188,3128,3052
5188,3128,3052
5192,3128,3052
5192,3128,3052
5192,3132,3056
5192,3132,3056
5196,3136,3056
5196,3136,3060
5192,3136,3056
5200,3140,3064
5196,3140,3060
5196,3140,3064
5196,3144,3064
5196,3144,3064
5200,3144,3064
5200,3144,3064
5200,3144,3060
5196,3140,3060
5196,3136,3060
5196,3132,3056
5192,3132,3056
5192,3128,3052
5192,3128,3052
5192,3124,3052
5192,3124,3048
5192,3128,3052
5192,3128,3052
5188,3124,3052
5192,3128,3052
5192,3128,3052
5196,3132,3056
5196,3132,3056
5200,3132,3056
5200,3136,3060
5196,3132,3056
5196,3132,3056
5196,3132,3056
5196,3136,3056
5196,3136,3056
5200,3140,3060
5200,3140,3060
5200,3140,3060
5200,3140,3060
5200,3140,3060
5200,3144,3064
5204,3144,3064
5200,3144,3064
5200,3140,3060
5196,3136,3060
5196,3136,3060
5196,3132,3056
5192,3128,3052
5192,3128,3052
5192,3124,3048
5184,3120,3044
5188,3120,3048
5188,3120,3048
5188,3120,3044
5188,3120,3048
5188,3120,3048
5188,3120,3048
5192,3124,3048
5192,3124,3052
5192,3124,3052
5192,3124,3052
5192,3128,3052
5192,3128,3052
5196,3128,3052
5192,3128,3052
5192,3132,3052
5196,3132,3056
5196,3132,3056
5192,3132,3056
5196,3136,3056
5196,3136,3060
5200,3140,3060
5200,3140,3060
5200,3140,3060
5200,3140,3060
5200,3140,3060
5200,3136,3060
5196,3132,3056
5192,3128,3052
5192,3124,3052
5188,3120,3048
5188,3120,3048
5184,3116,3044
5184,3116,3040
5184,3116,3040
5184,3116,3044
5188,3120,3048
5188,3120,3048
5188,3120,3048
5192,3120,3048
5188,3120,3048
5192,3124,3048
5188,3120,3048
5192,3124,3048
5192,3124,3048
5188,3124,3048
5192,3124,3052
5192,3124,3048
5192,3128,3052
5192,3128,3052
5192,3128,3052
5192,3128,3052
5192,3128,3052
5192,3128,3052
5196,3132,3056
5192,3132,3056
5192,3132,3052
5192,3132,3052
5188,3128,3052
5188,3120,3048
5184,3120,3044
5184,3116,3044
5184,3112,3040
5184,3112,3040
5184,3112,3040
5180,3108,3040
5180,3108,3040
5180,3108,3036
5180,3112,3040
5180,3112,3040
5184,3112,3040
5184,3116,3044
5184,3116,3044
5184,3116,3040
5184,3116,3044
5188,3120,3048
5188,3120,3048
5188,3124,3048
5188,3124,3048
5192,3124,3052
5192,3128,3052
5192,3128,3052
5192,3128,3052
5192,3128,3052
5196,3132,3056
5196,3132,3056
5196,3132,3056
5196,3136,3056
5196,3136,3056
5196,3136,3056
5192,3132,3056
5188,3128,3052
5188,3124,3048
5184,3120,3044
5184,3120,3044
5184,3116,3044
5184,3116,3044
5184,3116,3044
5184,3120,3044
5184,3116,3044
5184,3116,3044
5188,3120,3044
5188,3124,3048
5192,3124,3048
5188,3124,3048
5192,3128,3052
5192,3128,3052
5196,3128,3052
5192,3128,3052
5196,3132,3056
5196,3132,3056
5196,3132,3056
5196,3132,3056
5192,3132,3056
5196,3136,3056
5196,3136,3056
5196,3136,3056
5192,3136,3056
5192,3136,3056
5192,3136,3056
5196,3136,3060
5196,3136,3056
5192,3132,3056
5192,3128,3052
5192,3128,3052
5188,3124,3048
5188,3120,3048
5188,3120,3044
5184,3120,3044
5188,3120,3048
5188,3120,3048
5188,3120,3048
5192,3124,3048
5188,3124,3048
5192,3124,3052
5192,3128,3052
5192,3124,3052
5192,3128,3052
5196,3132,3056
5196,3132,3056
5196,3132,3056
5196,3132,3056
5196,3136,3056
5200,3136,3060
5196,3136,3060
5200,3140,3060
5196,3140,3060
5196,3140,3060
5196,3140,3060
5200,3144,3064
5200,3144,3064
5200,3144,3064
5200,3144,3064
5200,3144,3064
5200,3140,3060
5196,3136,3056
5196,3136,3056
5200,3136,3060
5200,3136,3056
5196,3132,3056
5196,3132,3056
5196,3132,3056
5196,3132,3056
5196,3132,3056
5200,3136,3060
5196,3136,3056
5200,3136,3060
5200,3136,3060
5200,3140,3060
5200,3140,3060
5204,3144,3064
5200,3144,3064
5204,3144,3064
5204,3144,3068
5204,3148,3068
5204,3148,3068
5208,3152,3068
5208,3152,3072
5204,3152,3068
5208,3156,3072
5208,3156,3072
5212,3160,3076
5208,3160,3076
5208,3156,3076
5208,3156,3072
5208,3156,3072
5204,3152,3072
5204,3152,3068
5208,3152,3068
5204,3148,3068
5204,3144,3064
5208,3148,3068
5204,3144,3064
5204,3148,3068
5208,3148,3068
5208,3148,3068
5208,3148,3068
5212,3156,3072
5208,3152,3072
5208,3152,3072
5208,3152,3072
5212,3156,3076
5212,3160,3076
5216,3160,3076
5216,3164,3076
5216,3164,3076
5216,3164,3080
5216,3168,3080
5216,3168,3084
5220,3168,3084
5216,3168,3080
5220,3172,3084
5220,3172,3088
5220,3176,3088
5216,3172,3084
5216,3172,3084
5216,3172,3084
5216,3168,3084
5216,3168,3080
5208,3164,3076
5212,3160,3076
5212,3160,3076
5212,3164,3076
5216,3164,3080
5216,3164,3076
5212,3160,3076
5212,3164,3076
5212,3164,3080
5212,3164,3080
5212,3164,3076
5216,3164,3080
5216,3168,3080
5216,3168,3080
5212,3164,3080
5216,3168,3080
5220,3172,3084
5220,3172,3088
5220,3176,3088
5224,3176,3092
5220,3176,3088
5224,3176,3088
5220,3180,3088
5220,3176,3088
5220,3180,3088
5224,3184,3092
5224,3184,3092
5224,3180,3092
5220,3180,3088
5220,3176,3088
5220,3176,3088
5216,3172,3084
5216,3172,3084
5216,3168,3080
5212,3164,3080
5212,3164,3080
5212,3164,3080
5212,3164,3080
5212,3164,3080
5216,3168,3080
5212,3168,3080
5212,3168,3080
5212,3168,3080
5212,3168,3080
5216,3168,3084
5216,3172,3084
5220,3172,3088
5216,3172,3084
5220,3176,3088
5220,3176,3088
5220,3176,3088
5220,3176,3088
5220,3180,3092
5220,3180,3092
5220,3180,3088
5220,3180,3092
5220,3184,3092
5224,3184,3092
5224,3184,3092
5220,3180,3092
5216,3176,3088
5216,3176,3084
5216,3176,3084
5216,3172,3084
5212,3168,3080
5208,3168,3076
5208,3164,3076
5204,3164,3076
5204,3164,3076
5208,3168,3076
5208,3168,3076
5208,3168,3080
5212,3172,3080
5208,3168,3080
5212,3168,3080
5208,3168,3080
5212,3172,3080
5212,3172,3084
5216,3176,3088
5216,3176,3084
5212,3176,3084
5216,3176,3088
5216,3176,3084
5216,3180,3088
5220,3184,3092
5220,3184,3088
5220,3184,3092
5220,3184,3092
5220,3184,3092
5224,3184,3092
5224,3184,3092
5216,3176,3088
5212,3176,3084
5216,3172,3084
5216,3172,3084
5212,3168,3080
5212,3168,3080
5212,3164,3080
5208,3164,3076
5208,3164,3076
5208,3160,3076
5208,3164,3076
5208,3160,3076
5208,3164,3076
5208,3164,3076
5212,3164,3076
5208,3160,3076
5208,3160,3076
5204,3160,3076
5204,3160,3076
5204,3160,3076
5208,3160,3076
5204,3160,3076
5208,3164,3076
5208,3164,3076
5208,3164,3076
5208,3168,3080
5204,3164,3076
5204,3168,3076
5204,3168,3076
5204,3168,3076
5204,3164,3076
5200,3160,3072
5200,3160,3072
5196,3160,3072
5200,3160,3072
5196,3156,3072
5200,3160,3072
5196,3156,3068
5196,3160,3072
5196,3160,3072
5200,3160,3076
5200,3164,3076
5204,3164,3076
5204,3168,3080
5204,3168,3076
5204,3168,3080
5200,3168,3080
5208,3172,3084
5212,3180,3088
5212,3180,3088
5212,3180,3088
5212,3184,3088
5212,3184,3092
5212,3184,3088
5212,3184,3092
5216,3188,3092
5216,3188,3092
5216,3188,3092
5216,3192,3096
5216,3192,3096
5212,3188,3092
5212,3184,3092
5208,3180,3088
5208,3180,3084
5208,3176,3084
5204,3176,3080
5204,3176,3084
5200,3172,3080
5200,3172,3080
5204,3176,3080
5200,3176,3080
5204,3176,3084
5204,3176,3084
5204,3176,3084
5204,3176,3084
5204,3180,3084
5204,3180,3084
5208,3180,3088
5208,3184,3088
5208,3184,3088
5208,3184,3088
5216,3188,3092
5212,3188,3092
5216,3192,3096
5212,3192,3096
5216,3192,3096
5216,3192,3096
5216,3196,3096
5216,3196,3096
5216,3192,3096
5216,3192,3096
5212,3188,3092
5216,3192,3096
5220,3188,3092
5216,3188,3092
5216,3188,3092
5216,3188,3092
5220,3188,3092
5220,3188,3096
5216,3188,3092
5216,3188,3092
5212,3188,3092
5216,3188,3092
5212,3188,3092
5212,3188,3092
5212,3188,3092
5212,3192,3092
5216,3196,3096
5212,3192,3096
5212,3192,3096
5212,3196,3096
5208,3192,3092
5208,3196,3096
5208,3196,3096
5208,3196,3096
5212,3200,3100
5212,3200,3100
5212,3200,3100
5208,3196,3096
5208,3196,3096
5208,3196,3092
5204,3188,3092
5200,3188,3088
5200,3184,3088
5200,3184,3084
5196,3180,3084
5200,3184,3084
5196,3180,3084
5196,3180,3084
5196,3180,3084
5196,3180,3084
5204,3184,3088
5204,3188,3088
5204,3188,3088
5200,3184,3088
5200,3188,3088
5200,3188,3088
5200,3188,3088
5200,3192,3092
5200,3188,3088
5204,3192,3092
5204,3192,3092
5200,3192,3092
5200,3196,3096
5204,3200,3096
5200,3196,3096
5200,3196,3092
5204,3200,3096
5200,3196,3092
5200,3196,3092
5196,3192,3092
5200,3192,3092
5200,3188,3088
5196,3188,3088
5196,3188,3088
5200,3188,3088
5196,3184,3088
5200,3188,3088
5196,3184,3088
5200,3188,3088
5200,3188,3088
5200,3188,3088
5200,3188,3092
5200,3192,3092
5200,3192,3092
5204,3192,3092
5204,3196,3096
5204,3196,3096
5212,3200,3100
5212,3200,3100
5208,3200,3096
5208,3200,3100
5204,3200,3096
5212,3204,3100
5212,3204,3100
5208,3204,3100
5208,3204,3100
5208,3204,3100
5208,3204,3100
5208,3204,3100
5208,3200,3100
5204,3196,3096
5200,3196,3092
5200,3196,3092
5196,3192,3088
5200,3192,3092
5196,3192,3092
5200,3192,3092
5200,3192,3092
5200,3192,3092
5200,3192,3092
5200,3196,3092
5200,3196,3092
5200,3196,3092
5200,3196,3096
5200,3196,3096
5204,3196,3096
5204,3200,3096
5204,3200,3096
5204,3200,3100
5204,3204,3100
5208,3204,3100
5208,3208,3100
5208,3208,3100
5208,3208,3100
5208,3208,3104
5208,3208,3104
5208,3208,3100
5208,3208,3100
5204,3204,3100
5204,3204,3096
5204,3204,3096
5204,3200,3096
5208,3204,3100
5208,3204,3100
5208,3204,3100
5208,3204,3100
5208,3204,3100
5208,3208,3100
5208,3204,3100
5208,3204,3100
5208,3208,3100
5208,3208,3100
5212,3208,3104
5212,3212,3104
5212,3212,3108
5208,3212,3104
5212,3212,3108
5212,3216,3108
5212,3216,3108
5216,3220,3108
5220,3224,3112
5220,3224,3112
5220,3224,3116
5220,3224,3112
5220,3224,3112
5220,3224,3116
5220,3224,3116
5216,3220,3112
5216,3220,3112
5212,3216,3108
5216,3216,3108
5216,3216,3108
5212,3212,3108
5212,3212,3108
5212,3212,3108
5212,3212,3108
5216,3216,3108
5216,3216,3108
5216,3216,3112
5212,3216,3108
5212,3216,3108
5216,3216,3108
5216,3220,3112
5212,3220,3108
5216,3220,3112
5220,3224,3116
5224,3228,3116
5224,3228,3120
5224,3228,3120
5224,3232,3120
5224,3232,3120
5224,3232,3120
5220,3232,3116
5224,3232,3120
5224,3232,3120
5224,3232,3120
5220,3228,3116
5224,3228,3116
5220,3228,3116
5220,3224,3116
5220,3224,3112
5212,3220,3108
5212,3220,3108
5216,3220,3112
5220,3224,3112
5216,3220,3112
5216,3224,3112
5220,3220,3112
5216,3220,3112
5216,3224,3112
5220,3224,3116
5220,3224,3116
5220,3224,3116
5220,3228,3116
5220,3228,3116
5220,3228,3120
5220,3232,3120
5224,3232,3120
5224,3232,3120
5224,3236,3120
5224,3236,3124
5224,3236,3124
5228,3240,3124
5228,3240,3124
5224,3236,3124
5228,3240,3124
5224,3236,3120
5224,3236,3120
5224,3236,3120
5220,3232,3116
5216,3228,3116
5220,3228,3116
5220,3228,3116
5216,3224,3112
5220,3224,3116
5220,3228,3116
5220,3228,3116
5220,3228,3116
5224,3232,3120
5224,3228,3116
5220,3228,3116
5220,3228,3116
5220,3228,3116
5220,3228,3116
5220,3228,3116
5220,3228,3116
5220,3228,3116
5224,3232,3120
5224,3236,3120
5228,3236,3124
5220,3232,3120
5224,3236,3120
5220,3232,3120
5224,3236,3124
5220,3236,3120
5220,3236,3120
5220,3236,3120
5220,3236,3120
5216,3232,3116
5216,3228,3116
5216,3228,3116
5216,3228,3112
5216,3224,3112
5216,3224,3112
5212,3224,3112
5216,3224,3112
5216,3224,3112
5216,3224,3112
5216,3224,3112
5216,3224,3112
5216,3224,3112
5216,3224,3112
5216,3224,3112
5216,3224,3112
5216,3224,3116
5216,3224,3112
5216,3224,3112
5216,3228,3116
5220,3228,3116
5216,3228,3116
5220,3232,3116
5216,3232,3116
5216,3232,3116
5216,3232,3116
5216,3232,3116
5216,3232,3116
5216,3232,3116
5216,3232,3116
5216,3232,3116
5216,3232,3116
5216,3228,3116
5212,3228,3112
5212,3224,3112
5216,3228,3116
5212,3224,3112
5216,3224,3112
5212,3220,3108
5208,3220,3108
5212,3224,3112
5212,3224,3112
5216,3224,3112
5212,3224,3112
5212,3224,3112
5216,3224,3112
5212,3224,3112
5212,3224,3112
5212,3224,3112
5212,3224,3112
5212,3224,3112
5212,3228,3116
5216,3228,3116
5216,3232,3116
5216,3232,3120
5216,3232,3120
5216,3232,3116
5216,3236,3120
5220,3236,3120
5220,3240,3120
5220,3240,3124
5220,3240,3124
5224,3240,3124
5220,3236,3120
5216,3232,3120
5212,3232,3116
5212,3228,3112
5212,3228,3112
5212,3228,3112
5212,3224,3112
5212,3224,3112
5212,3224,3112
5212,3224,3112
5212,3224,3112
5212,3224,3112
5212,3224,3112
5216,3228,3116
5216,3228,3116
5216,3228,3116
5216,3228,3116
5216,3228,3116
5216,3228,3116
5212,3228,3112
5216,3232,3116
5220,3232,3120
5220,3236,3120
5216,3232,3116
5220,3236,3120
5220,3236,3120
5220,3236,3120
5220,3240,3120
5216,3236,3120
5220,3240,3120
5220,3240,3120
5220,3240,3120
5216,3236,3120
5216,3232,3116
5212,3228,3116
5212,3228,3112
5212,3228,3112
5208,3224,3112
5208,3220,3108
5208,3220,3108
5208,3220,3108
5208,3220,3108
5212,3224,3112
5208,3224,3112
5208,3224,3112
5212,3224,3112
5216,3224,3112
5212,3224,3112
5212,3228,3112
5212,3228,3112
5216,3228,3116
5216,3228,3116
5216,3228,3116
5216,3232,3116
5216,3232,3116
5216,3232,3116
5216,3232,3116
5212,3228,3116
5212,3232,3116
5216,3232,3116
5216,3236,3120
5216,3236,3120
5216,3236,3120
5216,3236,3120
5216,3232,3116
5212,3232,3116
5212,3228,3112
5212,3228,3112
5208,3224,3112
5208,3224,3108
5212,3224,3108
5212,3224,3112
5208,3220,3108
5208,3220,3108
5212,3220,3108
5208,3220,3108
5212,3220,3108
5208,3220,3108
5208,3220,3108
5208,3220,3108
5208,3220,3108
5208,3220,3108
5212,3224,3112
5208,3220,3108
5212,3224,3112
5212,3224,3112
5212,3228,3112
5216,3228,3116
5212,3224,3112
5216,3232,3116
5216,3228,3116
5216,3232,3116
5216,3232,3116
5216,3232,3120
5216,3232,3116
5216,3232,3116
5212,3228,3116
5212,3228,3112
5212,3224,3112
5208,3224,3112
5212,3224,3112
5212,3220,3108
5208,3216,3108
5208,3216,3104
5208,3216,3108
5204,3212,3104
5204,3212,3104
5208,3212,3104
5204,3212,3104
5204,3212,3104
5204,3212,3104
5204,3212,3104
5204,3212,3104
5204,3212,3100
5200,3212,3100
5204,3212,3100
5200,3212,3100
5208,3216,3104
5204,3212,3104
5204,3212,3104
5204,3212,3104
5204,3216,3104
5204,3216,3104
5204,3212,3104
5204,3216,3104
5204,3216,3104
5204,3216,3108
5204,3216,3104
5208,3216,3108
5200,3212,3100
5200,3212,3104
5200,3208,3100
5196,3204,3096
5196,3204,3096
5196,3200,3092
5196,3200,3092
5192,3196,3092
5196,3200,3092
5196,3196,3092
5196,3200,3096
5200,3200,3096
5196,3196,3092
5200,3200,3096
5200,3200,3096
5204,3204,3096
5204,3204,3096
5200,3200,3096
5200,3204,3096
5200,3200,3096
5200,3200,3096
5200,3200,3096
5196,3200,3096
5196,3200,3096
5200,3204,3096
5200,3204,3100
5200,3204,3096
5200,3204,3096
5200,3204,3096
5200,3208,3100
5204,3208,3100
5204,3208,3104
5200,3204,3100
5200,3204,3096
5196,3200,3092
5196,3196,3092
5192,3192,3088
5192,3192,3088
5196,3192,3088
5192,3188,3084
5192,3188,3084
5192,3184,3084
5192,3188,3088
5192,3184,3084
5192,3184,3084
5192,3188,3088
5192,3184,3084
5192,3188,3084
5192,3184,3084
5192,3184,3084
5192,3184,3084
5192,3184,3084
5196,3192,3088
5196,3192,3088
5196,3192,3088
5196,3192,3088
5200,3192,3092
5196,3192,3092
5196,3192,3088
5192,3192,3088
5196,3192,3088
5192,3192,3088
5196,3192,3088
5192,3192,3088
5192,3188,3088
5192,3188,3084
5188,3184,3084
5192,3180,3084
5188,3176,3076
5184,3172,3076
5184,3172,3076
5184,3172,3076
5184,3168,3076
5188,3172,3076
5188,3172,3076
5188,3172,3076
5184,3168,3076
5188,3168,3076
5192,3172,3076
5188,3168,3076
5188,3168,3076
5188,3168,3076
5184,3168,3072
5184,3168,3076
5184,3168,3072
5188,3172,3076
5188,3172,3076
5188,3172,3076
5188,3172,3076
5188,3172,3076
5188,3172,3076
5188,3172,3080
5188,3176,3080
5188,3176,3080
5192,3180,3080
5192,3176,3080
5192,3176,3080
5188,3172,3076
5188,3168,3076
5184,3164,3072
5184,3160,3072
5184,3160,3068
5184,3160,3068
5184,3156,3068
5184,3156,3068
5184,3156,3068
5184,3152,3064
5180,3152,3064
5180,3152,3064
5184,3152,3064
5184,3156,3068
5188,3156,3068
5180,3152,3064
5180,3152,3064
5184,3152,3064
5184,3156,3068
5184,3156,3064
5188,3156,3068
5188,3160,3072
5188,3160,3072
5188,3160,3072
5188,3160,3072
5188,3160,3072
5188,3164,3072
5192,3164,3076
5192,3168,3076
5192,3168,3076
5192,3168,3076
5192,3168,3076
5192,3168,3076
5188,3160,3072
5184,3156,3068
5188,3156,3068
5184,3152,3064
5184,3148,3064
5184,3148,3060
5184,3148,3064
5184,3148,3064
5184,3148,3064
5184,3144,3060
5184,3144,3060
5184,3144,3060
5180,3144,3060
5184,3144,3060
5188,3148,3064
5188,3148,3064
5184,3148,3060
5184,3148,3064
5188,3148,3064
5188,3148,3064
5188,3152,3064
5188,3152,3068
5184,3148,3064
5188,3152,3064
5184,3152,3064
5188,3152,3064
5188,3156,3068
5184,3152,3064
5188,3156,3068
5192,3160,3072
5192,3160,3068
5184,3156,3064
5184,3156,3068
5184,3152,3064
5184,3148,3064
5184,3148,3060
5180,3144,3060
5180,3140,3056
5176,3136,3056
5176,3136,3052
5176,3132,3052
5176,3136,3052
5176,3132,3052
5176,3132,3052
5176,3132,3052
5172,3132,3048
5172,3132,3052
5176,3132,3052
5176,3136,3052
5176,3132,3052
5180,3136,3056
5180,3136,3056
5180,3136,3056
5180,3140,3056
5184,3140,3056
5180,3140,3056
5180,3140,3056
5180,3140,3056
5184,3144,3060
5184,3144,3060
5184,3148,3060
5184,3144,3060
5184,3148,3060
5184,3148,3060
5184,3144,3060
5180,3144,3060
5176,3140,3056
5172,3132,3052
5172,3132,3048
5172,3128,3048
5176,3128,3048
5176,3128,3048
5176,3128,3048
5176,3128,3048
5172,3124,3048
5176,3128,3048
5176,3128,3048
5172,3124,3048
5172,3124,3044
5172,3128,3048
5176,3128,3048
5176,3128,3048
5176,3128,3048
5176,3132,3052
5180,3132,3052
5176,3132,3052
5172,3132,3048
5172,3132,3052
5176,3136,3052
5176,3136,3052
5180,3140,3056
5180,3140,3056
5180,3140,3056
5180,3140,3056
5180,3144,3060
5180,3144,3060
5180,3144,3060
5180,3140,3056
5176,3140,3056
5180,3140,3056
5176,3136,3052
5176,3132,3052
5176,3128,3048
5176,3128,3048
5172,3124,3044
5176,3128,3048
5176,3128,3048
5176,3128,3048
5172,3128,3044
5172,3128,3048
5176,3128,3048
5176,3128,3048
5176,3128,3048
5176,3128,3048
5180,3132,3052
5180,3132,3052
5176,3132,3048
5180,3136,3052
5184,3136,3056
5180,3136,3056
5184,3140,3056
5188,3144,3060
5184,3144,3060
5184,3144,3060
5188,3144,3060
5184,3144,3060
5188,3148,3060
5184,3144,3060
5184,3144,3060
5184,3144,3060
5184,3144,3056
5180,3136,3052
5180,3136,3056
5180,3132,3052
5176,3128,3048
5172,3124,3048
5176,3124,3048
5176,3124,3048
5180,3128,3048
5180,3124,3048
5176,3124,3048
5180,3124,3048
5180,3128,3048
5176,3128,3048
5180,3128,3048
5180,3128,3052
5180,3128,3048
5180,3132,3052
5184,3132,3052
5188,3136,3056
5180,3132,3052
5180,3132,3052
5180,3132,3052
5180,3136,3052
5188,3140,3056
5188,3140,3056
5184,3140,3060
5184,3140,3056
5184,3144,3060
5184,3144,3060
5192,3148,3064
5188,3144,3060
5184,3144,3056
5180,3140,3056
5180,3136,3052
5176,3132,3048
5180,3132,3052
5180,3128,3048
5176,3124,3048
5176,3124,3048
5176,3124,3044
5180,3124,3048
5176,3124,3044
5180,3124,3048
5176,3124,3044
5176,3124,3048
5180,3128,3048
5180,3128,3048
5180,3128,3048
5180,3128,3048
5180,3128,3052
5184,3132,3052
5184,3132,3052
5184,3132,3052
5184,3136,3052
5188,3136,3056
5188,3136,3056
5188,3136,3056
5184,3136,3056
5188,3144,3060
5192,3144,3060
5188,3144,3060
5192,3144,3064
5188,3144,3060
5188,3144,3060
5188,3144,3060
5188,3140,3060
5184,3136,3056
5184,3136,3052
5180,3132,3048
5180,3128,3048
5184,3128,3052
5180,3128,3048
5180,3124,3044
5176,3124,3044
5176,3120,3044
5176,3124,3044
5176,3124,3044
5180,3124,3048
5180,3124,3048
5180,3124,3048
5180,3128,3048
5180,3128,3048
5176,3128,3048
5180,3128,3048
5184,3132,3052
5184,3132,3052
5184,3132,3052
5184,3132,3052
5184,3136,3056
5184,3136,3056
5184,3136,3056
5184,3136,3056
5180,3136,3052
5180,3136,3052
5180,3136,3052
5184,3140,3056
5184,3140,3056
5180,3136,3056
5184,3136,3052
5188,3136,3056
5184,3132,3052
5180,3132,3052
5180,3128,3048
5180,3128,3048
5180,3124,3044
5180,3124,3048
5180,3124,3048
5180,3124,3048
5180,3128,3048
5176,3124,3048
5180,3124,3048
5180,3128,3048
5180,3128,3048
5176,3128,3048
5180,3128,3048
5180,3132,3048
5180,3132,3048
5180,3132,3052
5184,3136,3056
5184,3136,3056
5184,3136,3056
5184,3140,3056
5184,3140,3056
5184,3140,3056
5184,3144,3056
5184,3144,3060
5188,3148,3060
5188,3148,3060
5188,3148,3060
5188,3144,3060
5184,3144,3056
5180,3140,3056
5180,3140,3052
5180,3136,3052
5180,3136,3052
5180,3132,3052
5176,3132,3048
5180,3132,3048
5176,3128,3048
5180,3132,3052
5180,3132,3048
5176,3132,3048
5184,3132,3052
5184,3136,3052
5184,3136,3052
5180,3136,3052
5184,3136,3052
5188,3140,3056
5184,3140,3056
5184,3140,3056
5184,3144,3056
5184,3144,3056
5188,3144,3060
5188,3148,3064
5188,3148,3064
5188,3148,3060
5188,3152,3064
5188,3152,3064
5188,3152,3064
5188,3156,3064
5188,3156,3064
5188,3156,3064
5192,3156,3068
5188,3152,3064
5188,3152,3064
5184,3148,3060
5184,3144,3060
5180,3140,3056
5180,3140,3052
5180,3140,3052
5180,3140,3052
5180,3140,3052
5180,3140,3052
5180,3140,3056
5184,3140,3056
5180,3140,3056
5180,3140,3056
5184,3144,3060
5188,3148,3060
5188,3148,3060
5188,3148,3060
5192,3152,3064
5188,3148,3060
5188,3152,3064
5188,3152,3064
5188,3152,3064
5188,3156,3064
5188,3156,3064
5188,3156,3068
5192,3160,3072
5192,3164,3072
5196,3164,3072
5196,3168,3076
5196,3168,3076
5196,3168,3076
5192,3164,3072
5188,3160,3068
5188,3160,3068
5184,3156,3064
5188,3156,3064
5184,3152,3064
5184,3152,3064
5180,3152,3060
5184,3152,3060
5180,3148,3060
5184,3152,3060
5184,3152,3060
5184,3152,3060
5184,3152,3060
5184,3152,3064
5184,3152,3060
5188,3156,3064
5184,3156,3064
5188,3156,3068
5188,3156,3064
5184,3156,3064
5188,3160,3068
5188,3160,3068
5188,3160,3068
5184,3160,3068
5192,3164,3072
5188,3164,3072
5188,3164,3072
5188,3164,3072
5188,3168,3072
5188,3168,3072
5188,3168,3072
5188,3168,3072
5188,3168,3072
5188,3168,3072
5188,3164,3068
5184,3164,3068
5180,3160,3064
5184,3160,3068
5184,3160,3064
5180,3156,3064
5180,3156,3064
5180,3156,3064
5184,3160,3068
5184,3160,3068
5184,3160,3068
5184,3160,3068
5188,3164,3068
5184,3160,3068
5184,3164,3068
5188,3164,3072
5188,3164,3072
5188,3168,3072
5188,3168,3072
5188,3168,3072
5192,3172,3076
5192,3172,3076
5192,3172,3076
5192,3176,3076
5188,3172,3076
5192,3176,3076
5192,3176,3080
5196,3180,3080
5196,3180,3080
5196,3184,3084
5196,3184,3084
5192,3180,3080
5192,3176,3076
5188,3176,3076
5188,3172,3076
5184,3172,3072
5184,3168,3072
5184,3168,3072
5184,3168,3072
5184,3168,3072
5180,3168,3068
5188,3172,3076
5188,3172,3076
5188,3172,3076
5188,3172,3076
5188,3172,3076
5188,3176,3076
5188,3176,3076
5188,3176,3076
5188,3176,3076
5192,3180,3080
5192,3180,3080
5188,3180,3080
5188,3180,3076
5192,3184,3080
5192,3184,3084
5192,3184,3084
5192,3188,3084
5196,3188,3084
5192,3188,3084
5192,3188,3084
5196,3192,3088
5196,3192,3084
5192,3192,3084
5192,3188,3084
5192,3188,3084
5192,3184,3080
5188,3184,3080
5184,3180,3076
5184,3180,3076
5184,3180,3076
5188,3176,3076
5184,3176,3076
5184,3176,3076
5184,3176,3076
5184,3176,3076
5184,3180,3076
5188,3180,3080
5188,3180,3080
5188,3184,3080
5188,3180,3080
5192,3184,3084
5188,3184,3080
5192,3184,3084
5192,3188,3084
5192,3188,3084
5196,3192,3088
5196,3192,3088
5192,3192,3088
5192,3192,3088
5196,3196,3088
5192,3196,3088
5196,3196,3088
5196,3196,3092
5196,3196,3092
5196,3196,3092
5188,3192,3088
5192,3192,3088
5188,3192,3084
5188,3188,3084
5188,3188,3084
5188,3184,3080
5188,3184,3080
5188,3184,3080
5184,3180,3076
5184,3180,3080
5184,3180,3076
5184,3180,3076
5184,3180,3080
5184,3180,3076
5188,3184,3080
5184,3184,3080
5188,3184,3080
5192,3188,3084
5188,3184,3080
5188,3188,3084
5188,3188,3084
5188,3188,3084
5192,3192,3088
5192,3192,3088
5192,3192,3088
5196,3196,3088
5192,3192,3088
5192,3192,3088
5192,3196,3088
5196,3196,3088
5196,3196,3088
5192,3196,3088
5192,3196,3088
5192,3196,3088
5196,3196,3092
5192,3192,3088
5188,3192,3084
5184,3184,3080
5188,3188,3080
5188,3184,3080
5184,3180,3076
5188,3184,3080
5184,3180,3080
5180,3176,3076
5184,3180,3076
5180,3180,3076
5184,3180,3076
5184,3180,3076
5180,3180,3076
5180,3180,3076
5188,3184,3080
5188,3184,3080
5184,3180,3080
5184,3180,3080
5184,3184,3080
5188,3184,3080
5184,3184,3080
5184,3184,3080
5184,3184,3080
5184,3184,3080
5184,3188,3080
5180,3184,3080
5184,3188,3084
5188,3188,3084
5184,3188,3080
5188,3188,3084
5188,3188,3084
5184,3188,3084
5188,3188,3084
5184,3184,3080
5184,3184,3080
5184,3180,3076
5180,3176,3076
5180,3176,3076
5184,3176,3076
5180,3176,3076
5184,3176,3076
5180,3176,3076
5184,3176,3076
5180,3176,3076
5180,3176,3076
5180,3180,3076
5180,3176,3076
5180,3176,3076
5180,3176,3076
5180,3180,3076
5180,3180,3076
5184,3184,3080
5184,3184,3080
5180,3184,3080
5184,3184,3080
5184,3188,3080
5184,3184,3080
5184,3188,3084
5184,3188,3084
5184,3188,3084
5184,3192,3084
5188,3192,3084
5188,3192,3084
5188,3192,3088
5192,3196,3088
5184,3188,3084
5184,3188,3080
5188,3188,3084
5180,3184,3080
5180,3180,3076
5180,3180,3076
5180,3176,3076
5180,3176,3076
5176,3176,3076
5180,3176,3076
5180,3176,3076
5180,3176,3076
5184,3180,3080
5180,3180,3076
5180,3176,3076
5184,3180,3080
5180,3180,3076
5184,3180,3080
5184,3184,3080
5184,3184,3080
5184,3184,3080
5180,3184,3080
5184,3184,3080
5184,3188,3080
5184,3188,3080
5188,3188,3084
5188,3192,3084
5188,3192,3084
5188,3192,3088
5188,3192,3088
5188,3192,3084
5188,3192,3084
5188,3192,3084
5188,3188,3084
5184,3188,3084
5180,3184,3080
5180,3184,3080
5180,3180,3076
5176,3176,3072
5176,3172,3072
5176,3172,3072
5180,3176,3076
5180,3176,3076
5180,3176,3076
5180,3176,3076
5184,3176,3076
5180,3176,3076
5180,3176,3076
5180,3176,3076
5180,3176,3076
5176,3176,3076
5180,3176,3076
5180,3176,3076
5184,3180,3080
5184,3180,3080
5184,3184,3080
5180,3180,3076
5180,3184,3080
5180,3180,3080
5184,3184,3080
5184,3184,3080
5184,3184,3080
5184,3184,3080
5184,3184,3080
5184,3184,3080
5184,3184,3080
5180,3184,3080
5180,3180,3076
5176,3176,3076
5176,3172,3072
5176,3172,3072
5172,3168,3068
5176,3168,3072
5176,3168,3068
5172,3164,3068
5176,3164,3068
5176,3168,3068
5172,3164,3064
5172,3164,3068
5172,3164,3068
5172,3164,3068
5172,3164,3064
5172,3164,3068
5172,3164,3068
5176,3168,3068
5176,3168,3072
5172,3168,3068
5176,3168,3072
5176,3168,3072
5176,3168,3072
5180,3172,3072
5180,3172,3072
5176,3168,3072
5176,3172,3072
5176,3172,3072
5176,3172,3072
5176,3172,3072
5176,3168,3072
5176,3168,3068
5172,3164,3068
5172,3164,3068
5172,3160,3064
5172,3160,3064
5168,3156,3060
5172,3156,3064
5168,3156,3060
5168,3152,3060
5168,3156,3060
5172,3156,3064
5172,3156,3064
5168,3156,3060
5172,3156,3060
5172,3156,3064
5172,3156,3060
5168,3156,3060
5172,3156,3064
5176,3160,3064
5172,3160,3064
5172,3160,3064
5172,3160,3064
5172,3160,3064
5168,3160,3064
5172,3160,3064
5168,3160,3064
5168,3160,3064
5168,3160,3064
5172,3164,3064
5172,3164,3068
5172,3164,3068
5176,3168,3068
5176,3164,3068
5172,3160,3064
5172,3160,3064
5172,3156,3064
5168,3156,3060
5168,3152,3060
5168,3152,3060
5164,3148,3056
5168,3148,3056
5164,3148,3056
5164,3148,3056
5164,3148,3056
5164,3148,3056
5164,3148,3056
5160,3144,3056
5164,3148,3056
5164,3148,3056
5168,3148,3056
5168,3152,3060
5168,3152,3060
5168,3152,3060
5168,3152,3060
5168,3156,3060
5168,3156,3060
5168,3156,3060
5172,3160,3064
5172,3160,3064
5172,3160,3064
5168,3160,3064
5172,3164,3068
5176,3164,3068
5176,3164,3068
5172,3164,3068
5176,3164,3068
5172,3160,3064
5172,3156,3060
5168,3152,3060
5164,3148,3056
5164,3144,3056
5168,3144,3056
5164,3144,3052
5168,3144,3056
5168,3144,3056
5168,3144,3056
5168,3144,3056
5172,3144,3056
5168,3144,3056
5164,3144,3052
5164,3144,3052
5168,3144,3056
5168,3144,3056
5168,3144,3056
5168,3144,3056
5168,3144,3056
5168,3144,3056
5164,3148,3056
5168,3148,3060
5168,3148,3060
5168,3148,3056
5168,3148,3056
5168,3148,3056
5168,3152,3056
5168,3152,3060
5168,3152,3060
5168,3152,3060
5168,3152,3060
5168,3148,3056
5164,3144,3052
5164,3140,3052
5160,3140,3048
5164,3136,3048
5156,3132,3044
5156,3128,3044
5156,3128,3044
5156,3128,3044
5160,3128,3044
5160,3128,3044
5156,3128,3044
5160,3128,3044
5156,3128,3040
5156,3128,3040
5160,3128,3044
5164,3128,3044
5160,3128,3044
5160,3128,3044
5160,3132,3044
5164,3132,3044
5160,3128,3044
5160,3132,3044
5160,3132,3044
5160,3132,3044
5156,3132,3044
5160,3132,3048
5164,3136,3048
5160,3136,3048
5160,3136,3048
5164,3136,3048
5164,3140,3052
5164,3136,3048
5164,3132,3048
5160,3128,3044
5160,3128,3044
5156,3124,3040
5156,3120,3040
5152,3116,3036
5156,3120,3036
5156,3120,3036
5156,3116,3036
5156,3120,3036
5156,3120,3036
5152,3116,3036
5152,3116,3036
5156,3120,3036
5156,3120,3036
5156,3120,3040
5156,3120,3036
5156,3120,3040
5152,3120,3036
5156,3124,3040
5160,3128,3044
5156,3124,3040
5160,3128,3044
5160,3132,3044
5160,3128,3044
5160,3132,3044
5164,3132,3048
5160,3132,3048
5164,3136,3048
5164,3136,3048
5164,3136,3048
5164,3136,3048
5160,3132,3044
5160,3128,3044
5160,3128,3040
5160,3124,3040
5160,3120,3040
5152,3116,3036
5156,3116,3036
5148,3112,3032
5152,3116,3032
5152,3112,3032
5152,3112,3032
5152,3116,3032
5156,3116,3036
5156,3116,3036
5156,3116,3036
5156,3120,3036
5156,3120,3036
5160,3120,3040
5164,3124,3044
5164,3128,3044
5164,3128,3044
5164,3128,3044
5164,3128,3044
5164,3128,3044
5164,3132,3044
5160,3128,3044
5164,3132,3044
5164,3132,3048
5164,3132,3048
5164,3132,3044
5164,3136,3048
5168,3136,3052
5164,3132,3048
5164,3132,3044
5160,3128,3044
5160,3124,3040
5160,3120,3040
5156,3120,3036
5156,3116,3036
5160,3116,3036
5156,3116,3036
5156,3112,3032
5156,3112,3036
5156,3116,3032
5160,3116,3036
5160,3116,3040
5160,3116,3036
5160,3116,3036
5160,3116,3036
5160,3120,3036
5160,3120,3036
5160,3120,3040
5160,3120,3040
5164,3120,3040
5164,3124,3040
5160,3124,3040
5164,3124,3040
5160,3124,3040
5164,3128,3044
5164,3128,3044
5164,3128,3044
5160,3128,3044
5164,3128,3044
5164,3128,3044
5160,3124,3040
5160,3124,3040
5160,3120,3036
5160,3120,3036
5156,3116,3036
5156,3116,3036
5156,3112,3032
5156,3112,3032
5152,3108,3032
5152,3108,3028
5152,3108,3028
5152,3108,3028
5152,3104,3028
5152,3108,3028
5152,3108,3028
5152,3108,3028
5148,3108,3028
5152,3108,3028
5152,3108,3028
5156,3112,3032
5152,3112,3032
5152,3112,3032
5152,3112,3032
5152,3112,3032
5152,3112,3032
5152,3116,3032
5152,3116,3032
5156,3116,3036
5156,3116,3036
5152,3116,3032
5156,3120,3036
5156,3120,3036
5152,3116,3036
5156,3116,3036
5156,3116,3036
5152,3112,3032
5152,3108,3028
5152,3108,3028
5148,3104,3028
5148,3104,3024
5148,3100,3024
5148,3104,3024
5148,3104,3024
5148,3104,3024
5152,3104,3028
5152,3104,3028
5148,3104,3028
5148,3104,3024
5152,3108,3028
5148,3108,3028
5148,3108,3028
5152,3108,3028
5152,3108,3032
5152,3112,3032
5152,3112,3032
5152,3116,3032
5156,3116,3036
5156,3116,3036
5156,3116,3036
5156,3120,3036
5156,3120,3036
5156,3120,3040
5156,3120,3036
5156,3124,3036
5156,3120,3036
5156,3120,3036
5156,3120,3036
5152,3116,3032
5152,3112,3032
5152,3112,3032
5152,3108,3028
5148,3104,3024
5148,3108,3028
5148,3104,3024
5148,3104,3028
5152,3108,3028
5156,3108,3028
5152,3108,3028
5156,3108,3032
5156,3112,3032
5156,3112,3032
5152,3112,3032
5156,3112,3032
5156,3112,3032
5156,3116,3032
5160,3116,3036
5156,3116,3036
5160,3120,3036
5160,3120,3036
5156,3120,3036
5160,3124,3040
5160,3124,3040
5160,3124,3040
5156,3124,3036
5160,3124,3040
5164,3128,3044
5164,3128,3044
5160,3124,3040
5156,3124,3036
5156,3120,3036
5156,3120,3036
5152,3112,3032
5152,3112,3028
5152,3108,3032
5156,3112,3032
5156,3112,3032
5156,3108,3032
5152,3108,3028
5156,3108,3032
5152,3108,3028
5152,3108,3028
5152,3108,3028
5156,3108,3032
5156,3112,3032
5156,3112,3032
5156,3112,3032
5156,3112,3032
5156,3116,3032
5156,3116,3032
5160,3116,3036
5156,3116,3036
5160,3116,3036
5160,3120,3036
5160,3120,3036
5160,3120,3036
5160,3124,3040
5160,3124,3040
5164,3124,3040
5160,3124,3040
5160,3124,3040
5160,3120,3036
5160,3120,3036
5156,3112,3032
5152,3108,3028
5148,3104,3028
5152,3104,3028
5148,3104,3024
5148,3100,3024
5148,3100,3024
5148,3100,3024
5152,3104,3028
5152,3104,3024
5152,3104,3028
5152,3104,3028
5156,3108,3028
5152,3108,3028
5152,3104,3028
5152,3108,3028
5152,3108,3028
5152,3108,3028
5152,3108,3028
5152,3108,3028
5156,3112,3032
5156,3112,3032
5156,3116,3032
5156,3116,3032
5156,3116,3032
5152,3116,3032
5156,3116,3036
5156,3116,3032
5156,3116,3036
5152,3116,3032
5152,3112,3032
5148,3108,3028
5148,3104,3024
5148,3104,3024
5148,3100,3024
5148,3100,3024
5148,3100,3020
5148,3100,3024
5148,3100,3024
5148,3100,3024
5152,3100,3024
5148,3100,3024
5148,3100,3020
5148,3100,3024
5148,3104,3024
5152,3104,3028
5152,3104,3028
5148,3104,3024
5148,3104,3028
5148,3108,3028
5152,3108,3028
5148,3108,3028
5152,3112,3032
5156,3112,3032
5152,3112,3032
5156,3116,3032
5156,3116,3032
5156,3116,3036
5152,3116,3032
5156,3120,3036
5156,3120,3036
5156,3120,3036
5152,3112,3032
5148,3108,3028
5148,3108,3024
5148,3104,3024
5144,3104,3024
5148,3100,3024
5148,3104,3024
5148,3100,3024
5148,3100,3024
5148,3104,3024
5152,3104,3024
5152,3104,3024
5152,3104,3024
5148,3104,3024
5148,3104,3024
5148,3104,3024
5148,3108,3024
5152,3108,3028
5148,3108,3028
5152,3112,3028
5152,3112,3028
5152,3112,3032
5156,3116,3032
5156,3116,3032
5156,3116,3036
5156,3120,3036
5156,3120,3036
5156,3120,3036
5156,3120,3036
5160,3124,3036
5156,3120,3036
5156,3120,3036
5152,3116,3032
5148,3112,3028
5148,3108,3024
5148,3104,3024
5144,3104,3024
5144,3100,3020
5144,3100,3020
5148,3104,3024
5148,3104,3024
5144,3100,3020
5144,3100,3020
5148,3104,3024
5148,3104,3024
5148,3104,3024
5148,3104,3024
5148,3104,3024
5152,3108,3028
5148,3104,3024
5148,3104,3024
5148,3108,3024
5152,3108,3028
5148,3108,3028
5152,3112,3028
5148,3112,3028
5152,3112,3028
5152,3116,3032
5152,3116,3032
5152,3116,3032
5152,3116,3032
5152,3112,3032
5148,3112,3028
5148,3108,3028
5148,3108,3024
5144,3104,3020
5144,3100,3020
5144,3100,3020
5144,3096,3020
5140,3096,3016
5144,3096,3020
5140,3096,3016
5144,3096,3020
5148,3100,3020
5148,3100,3020
5148,3100,3024
5148,3100,3024
5148,3100,3020
5144,3100,3024
5148,3104,3024
5148,3100,3020
5148,3104,3024
5148,3104,3024
5148,3104,3024
5148,3108,3024
5148,3108,3028
5148,3108,3028
5148,3108,3028
5152,3112,3028
5152,3112,3032
5156,3116,3032
5156,3116,3032
5156,3116,3032
5152,3112,3032
5148,3112,3028
5148,3108,3024
5148,3104,3024
5144,3104,3020
5144,3100,3020
5144,3100,3020
5144,3096,3020
5144,3100,3020
5148,3100,3020
5144,3100,3020
5144,3100,3020
5144,3100,3020
5144,3100,3020
5148,3100,3024
5148,3104,3024
5144,3104,3020
5148,3104,3024
5152,3108,3028
5148,3108,3028
5152,3112,3028
5148,3112,3028
5148,3108,3028
5148,3112,3028
5148,3112,3028
5152,3116,3032
5152,3116,3032
5152,3116,3032
5152,3120,3032
5152,3120,3036
5152,3120,3032
5152,3116,3032
5152,3116,3032
5152,3116,3032
5148,3112,3028
5148,3112,3028
5148,3108,3024
5148,3108,3024
5144,3104,3024
5144,3104,3020
5144,3104,3024
5144,3104,3024
5148,3104,3024
5148,3104,3024
5148,3108,3024
5148,3104,3024
5144,3108,3024
5144,3108,3024
5144,3108,3024
5144,3108,3024
5148,3112,3028
5148,3112,3028
5148,3112,3028
5148,3116,3028
5152,3116,3032
5156,3120,3032
5156,3120,3036
5156,3124,3036
5156,3124,3036
5156,3124,3036
5160,3128,3040
5160,3128,3040
5160,3128,3040
5156,3124,3036
5152,3124,3036
5152,3120,3032
5148,3120,3032
5152,3116,3032
5148,3112,3028
5148,3112,3028
5148,3112,3024
5148,3112,3028
5148,3108,3028
5148,3112,3028
5144,3108,3024
5144,3112,3028
5148,3112,3028
5144,3112,3024
5144,3112,3028
5148,3116,3028
5152,3116,3032
5152,3116,3032
5156,3120,3032
5156,3120,3032
5156,3120,3036
5156,3120,3036
5152,3120,3032
5152,3124,3036
5156,3124,3036
5156,3124,3036
5152,3124,3036
5152,3124,3036
5156,3128,3040
5152,3128,3040
5152,3128,3036
5152,3128,3036
5152,3124,3036
5148,3120,3032
5148,3116,3032
5144,3112,3028
5144,3112,3028
5144,3112,3024
5144,3112,3028
5144,3108,3024
5140,3104,3024
5140,3108,3020
5140,3108,3024
5140,3108,3024
5140,3108,3024
5140,3108,3024
5140,3108,3024
5140,3108,3020
5140,3108,3024
5140,3112,3024
5144,3112,3028
5144,3112,3024
5148,3116,3028
5144,3116,3028
5140,3112,3024
5144,3116,3028
5144,3116,3028
5144,3116,3028
5144,3116,3028
5144,3116,3028
5144,3120,3032
5140,3116,3028
5140,3116,3028
5144,3116,3028
5140,3116,3028
5136,3112,3024
5144,3112,3028
5140,3108,3024
5136,3104,3020
5136,3104,3020
5136,3104,3020
5136,3104,3020
5136,3104,3020
5136,3104,3020
5136,3104,3020
5136,3104,3020
5136,3104,3020
5136,3108,3020
5136,3108,3020
5136,3108,3024
5140,3112,3024
5140,3112,3024
5140,3112,3024
5140,3116,3028
5140,3116,3028
5136,3116,3024
5136,3116,3024
5136,3116,3028
5132,3120,3028
5136,3124,3032
5136,3124,3032
5144,3128,3036
5140,3128,3036
5140,3128,3036
5136,3128,3036
5136,3128,3032
5132,3124,3032
5132,3120,3028
5128,3116,3024
5128,3112,3024
5128,3108,3024
5132,3108,3020
5132,3108,3024
5132,3108,3024
5136,3108,3024
5140,3112,3028
5140,3112,3028
5140,3116,3028
5140,3116,3032
5148,3120,3036
5144,3116,3032
5152,3124,3040
5152,3128,3040
5156,3136,3048
5160,3140,3052
5160,3144,3056
5168,3148,3064
5168,3152,3064
5164,3152,3064
5168,3156,3068
5168,3160,3068
5172,3160,3072
5176,3164,3076
5180,3168,3076
5180,3172,3080
5184,3172,3080
5184,3176,3084
5184,3176,3084
5184,3176,3084
5180,3172,3084
5180,3172,3080
5180,3172,3080
5180,3168,3080
5180,3168,3080
5180,3168,3076
5180,3168,3080
5180,3168,3080
5180,3168,3080
5184,3172,3080
5180,3168,3080
5176,3168,3076
5180,3172,3080
5180,3172,3080
5180,3168,3076
5176,3168,3076
5180,3172,3080
5180,3172,3080
5184,3176,3084
5184,3176,3084
5184,3176,3084
5184,3176,3084
5180,3176,3084
5180,3180,3084
5184,3180,3088
5184,3184,3092
5184,3184,3088
5184,3184,3092
5180,3184,3088
5184,3188,3092
5180,3184,3088
5176,3180,3084
5180,3180,3084
5176,3176,3084
5176,3176,3080
5172,3172,3080
5176,3172,3080
5172,3168,3076
5172,3168,3080
5172,3168,3076
5172,3168,3076
5172,3168,3076
5176,3168,3080
5176,3172,3080
5180,3172,3084
5176,3172,3080
5176,3168,3080
5176,3172,3080
5176,3172,3080
5176,3172,3080
5176,3176,3080
5176,3176,3080
5176,3176,3080
5176,3176,3080
5176,3176,3080
5176,3176,3084
5176,3180,3084
5176,3180,3084
5176,3180,3084
5180,3180,3084
5180,3184,3088
5176,3180,3084
5180,3180,3084
5176,3176,3084
5176,3176,3084
5180,3180,3084
5176,3176,3084
5176,3172,3080
5176,3172,3080
5176,3168,3080
5176,3168,3080
5176,3168,3080
5176,3168,3080
5176,3168,3080
5172,3168,3080
5172,3168,3080
5172,3168,3076
5172,3172,3080
5172,3172,3080
5172,3172,3080
5176,3172,3080
5180,3176,3084
5180,3180,3088
5180,3180,3084
5180,3180,3084
5180,3180,3088
5180,3180,3088
5180,3180,3088
5184,3184,3088
5184,3184,3092
5184,3188,3092
5188,3188,3092
5184,3188,3092
5184,3188,3092
5180,3184,3088
5184,3184,3092
5180,3184,3088
5180,3180,3088
5180,3180,3088
5180,3180,3084
5176,3176,3084
5176,3176,3084
5180,3176,3084
5184,3180,3088
5184,3180,3088
5184,3180,3088
5184,3180,3088
5184,3180,3088
5184,3180,3088
5184,3184,3088
5184,3180,3088
5184,3184,3088
5184,3184,3088
5184,3184,3092
5184,3184,3088
5184,3188,3092
5180,3184,3092
5184,3188,3092
5184,3192,3096
5184,3192,3092
5188,3192,3096
5188,3192,3096
5188,3196,3096
5184,3192,3096
5184,3192,3096
5184,3192,3092
5184,3188,3092
5180,3184,3088
5180,3184,3088
5176,3180,3088
5176,3180,3084
5176,3180,3084
5176,3176,3084
5176,3180,3084
5176,3176,3084
5176,3180,3084
5176,3180,3084
5176,3180,3084
5176,3180,3088
5176,3184,3088
5180,3184,3088
5180,3188,3092
5184,3188,3092
5184,3188,3092
5184,3188,3092
5180,3188,3092
5184,3192,3092
5184,3192,3096
5184,3192,3096
5184,3196,3096
5180,3192,3092
5180,3192,3096
5176,3192,3092
5184,3196,3096
5180,3196,3096
5180,3192,3092
5180,3192,3096
5176,3192,3092
5176,3188,3092
5176,3188,3088
5176,3188,3088
5172,3184,3088
5172,3184,3084
5172,3184,3088
5176,3184,3088
5172,3184,3084
5172,3184,3088
5172,3184,3088
5172,3184,3088
5176,3184,3088
5176,3184,3088
5172,3184,3088
5172,3184,3084
5172,3184,3088
5172,3188,3088
5172,3188,3088
5176,3188,3092
5176,3188,3092
5176,3192,3092
5176,3192,3092
5176,3192,3092
5176,3192,3092
5176,3192,3092
5180,3196,3096
5180,3196,3096
5180,3196,3096
5176,3196,3096
5176,3196,3092
5172,3188,3088
5176,3192,3092
5176,3192,3092
5172,3188,3088
5172,3188,3088
5172,3184,3088
5172,3188,3088
5168,3184,3084
5172,3184,3088
5172,3184,3088
5172,3188,3088
5172,3188,3088
5172,3188,3088
5172,3188,3088
5172,3188,3088
5172,3188,3088
5176,3192,3092
5176,3192,3092
5180,3192,3092
5176,3192,3092
5176,3196,3096
5176,3196,3096
5180,3200,3096
5180,3196,3096
5176,3196,3096
5180,3200,3100
5180,3204,3100
5184,3204,3104
5184,3204,3100
5184,3204,3104
5180,3204,3100
5184,3204,3100
5180,3200,3100
5176,3200,3096
5180,3200,3096
5184,3200,3096
5176,3196,3092
5176,3196,3096
5176,3196,3092
5176,3192,3092
5176,3196,3092
5172,3192,3092
5172,3192,3092
5176,3196,3096
5176,3196,3092
5176,3196,3096
5180,3196,3096
5176,3196,3092
5176,3196,3092
5172,3196,3092
5176,3196,3096
5176,3200,3096
5176,3200,3096
5180,3204,3100
5180,3204,3100
5176,3200,3096
5176,3204,3096
5180,3204,3100
5180,3208,3100
5176,3204,3100
5180,3208,3100
5180,3208,3104
5180,3208,3100
5180,3204,3100
5176,3200,3096
5176,3200,3096
5176,3200,3096
5176,3196,3096
5172,3196,3092
5172,3196,3092
5172,3192,3092
5172,3192,3092
5172,3196,3092
5172,3196,3092
5172,3192,3092
5172,3192,3092
5172,3192,3092
5172,3192,3092
5172,3192,3092
5172,3192,3092
5172,3196,3092
5176,3196,3092
5172,3196,3092
5172,3196,3092
5176,3200,3096
5176,3200,3096
5176,3200,3096
5172,3200,3096
5172,3196,3092
5176,3200,3096
5172,3200,3096
5172,3200,3096
5172,3200,3092
5172,3200,3096
5172,3200,3096
5172,3196,3092
5168,3196,3092
5168,3196,3092
5172,3196,3092
5168,3192,3088
5172,3192,3088
5172,3192,3092
5168,3188,3088
5168,3188,3088
5172,3192,3088
5172,3192,3088
5168,3192,3088
5164,3188,3088
5168,3188,3088
5168,3188,3088
5168,3192,3088
5172,3192,3092
5172,3192,3092
5168,3192,3092
5172,3192,3092
5172,3196,3092
5172,3196,3092
5168,3192,3092
5168,3192,3088
5168,3196,3092
5168,3196,3092
5168,3192,3092
5168,3196,3092
5168,3196,3092
5168,3196,3092
5168,3196,3092
5164,3192,3088
5164,3192,3088
5164,3192,3088
5160,3188,3084
5160,3188,3084
5160,3188,3084
5164,3188,3084
5160,3184,3084
5160,3184,3084
5164,3188,3084
5164,3188,3084
5164,3188,3084
5164,3188,3084
5164,3188,3084
5164,3188,3084
5168,3192,3088
5164,3188,3088
5164,3188,3088
5164,3188,3088
5168,3192,3088
5168,3192,3088
5164,3192,3088
5164,3192,3088
5164,3192,3088
5164,3192,3088
5164,3196,3092
5164,3196,3092
5168,3196,3092
5164,3196,3092
5164,3196,3092
5164,3200,3092
5164,3196,3092
5168,3200,3092
5168,3200,3092
5168,3196,3092
5164,3196,3092
5164,3196,3092
5168,3196,3092
5164,3192,3088
5160,3192,3088
5164,3192,3088
5164,3188,3088
5160,3188,3088
5164,3188,3088
5160,3188,3084
5164,3192,3088
5164,3192,3088
5160,3192,3088
5164,3192,3088
5164,3192,3088
5164,3192,3088
5164,3196,3092
5164,3192,3088
5164,3196,3092
5164,3192,3088
5164,3196,3092
5164,3196,3088
5164,3196,3092
5160,3196,3092
5164,3196,3092
5164,3196,3092
5164,3196,3092
5164,3200,3092
5164,3200,3092
5164,3200,3092
5164,3196,3092
5164,3196,3092
5160,3192,3088
5160,3192,3088
5160,3188,3084
5160,3188,3088
5160,3188,3084
5160,3184,3084
5156,3184,3084
5160,3184,3084
5160,3184,3084
5160,3184,3084
5160,3184,3084
5160,3184,3084
5160,3184,3084
5156,3184,3084
5156,3184,3084
5160,3188,3084
5164,3188,3088
5160,3188,3084
5156,3188,3084
5160,3188,3084
5164,3192,3088
5160,3188,3088
5164,3192,3088
5164,3192,3088
5160,3192,3088
5164,3192,3088
5164,3192,3088
5164,3196,3088
5164,3196,3092
5164,3196,3092
5164,3192,3088
5160,3188,3084
5160,3188,3088
5156,3184,3080
5160,3184,3084
5156,3180,3080
5156,3180,3080
5160,3180,3080
5156,3176,3080
5152,3176,3076
5152,3176,3076
5152,3176,3076
5152,3176,3076
5152,3176,3076
5152,3176,3076
5152,3176,3076
5152,3176,3076
5148,3172,3076
5152,3172,3076
5148,3172,3076
5148,3172,3076
5148,3172,3076
5148,3172,3072
5148,3172,3076
5148,3176,3076
5148,3176,3076
5148,3172,3076
5148,3176,3076
5148,3172,3072
5144,3172,3072
5144,3172,3072
5144,3168,3072
5140,3168,3068
5140,3168,3068
5140,3164,3068
5136,3160,3064
5136,3160,3060
5132,3156,3060
5132,3152,3056
5128,3148,3056
5128,3148,3056
5128,3148,3056
5124,3144,3052
5124,3144,3052
5124,3144,3048
5124,3144,3048
5124,3140,3048
5124,3144,3048
5124,3140,3052
5120,3140,3048
5120,3136,3044
5116,3136,3044
5116,3132,3040
5116,3136,3044
5116,3132,3040
5112,3132,3040
5112,3132,3040
5112,3132,3040
5112,3132,3040
5112,3128,3036
5108,3128,3036
5108,3124,3032
5108,3124,3036
5104,3124,3032
5108,3120,3032
5104,3116,3028
5104,3116,3028
5108,3116,3028
5108,3116,3028
5108,3112,3028
5108,3112,3024
5108,3112,3028
5108,3112,3028
5108,3108,3024
5108,3108,3024
5108,3108,3024
5104,3104,3024
5100,3104,3020
5100,3104,3020
5100,3104,3020
5100,3104,3020
5100,3104,3020
5100,3104,3020
5100,3104,3020
5100,3104,3020
5104,3108,3024
5108,3108,3028
5108,3108,3028
5112,3112,3028
5112,3112,3028
5116,3116,3032
5112,3112,3028
5112,3112,3028
5112,3112,3028
5108,3108,3028
5108,3108,3024
5108,3104,3024
5108,3104,3024
5112,3104,3024
5108,3100,3020
5108,3100,3020
5108,3100,3020
5108,3100,3020
5108,3100,3020
5112,3100,3024
5108,3100,3020
5108,3100,3020
5112,3100,3024
5108,3100,3024
5108,3100,3024
5108,3100,3024
5112,3104,3024
5112,3104,3024
5112,3104,3024
5112,3104,3024
5116,3108,3028
5116,3108,3028
5112,3108,3028
5112,3108,3028
5116,3108,3028
5116,3112,3032
5120,3112,3032
5116,3112,3032
5116,3112,3032
5116,3112,3032
5112,3112,3028
5120,3112,3032
5116,3108,3028
5112,3104,3028
5116,3104,3028
5112,3104,3024
5116,3104,3028
5116,3104,3028
5116,3104,3028
5120,3108,3032
5120,3108,3032
5120,3108,3028
5120,3108,3032
5120,3108,3032
5120,3112,3032
5124,3112,3032
5120,3112,3032
5124,3112,3036
5124,3112,3036
5132,3120,3040
5128,3120,3040
5132,3120,3040
5128,3120,3040
5128,3120,3040
5128,3120,3040
5132,3124,3044
5132,3124,3044
5132,3124,3044
5132,3128,3044
5132,3128,3044
5132,3128,3044
5136,3128,3044
5132,3124,3044
5128,3120,3040
5132,3120,3044
5128,3120,3040
5128,3116,3036
5132,3120,3040
5132,3116,3040
5132,3120,3040
5128,3116,3040
5132,3120,3040
5132,3120,3040
5132,3120,3040
5132,3124,3040
5132,3124,3044
5136,3124,3044
5132,3124,3044
5132,3124,3044
5136,3128,3044
5136,3128,3048
5132,3128,3044
5136,3132,3048
5136,3132,3048
5136,3136,3052
5136,3136,3052
5136,3136,3052
5140,3140,3056
5136,3140,3052
5140,3140,3056
5140,3144,3056
5140,3140,3056
5140,3144,3056
5136,3140,3052
5136,3136,3052
5136,3136,3052
5136,3136,3052
5136,3136,3048
5140,3140,3052
5136,3136,3052
5136,3136,3048
5136,3136,3052
5136,3140,3052
5136,3140,3052
5136,3140,3052
5136,3140,3052
5140,3144,3052
5136,3140,3052
5136,3140,3052
5136,3144,3052
5140,3148,3056
5140,3148,3056
5140,3148,3056
5136,3148,3056
5132,3148,3056
5136,3148,3056
5136,3152,3056
5136,3152,3060
5136,3152,3060
5136,3152,3060
5136,3152,3060
5136,3156,3060
5132,3156,3060
5136,3156,3060
5136,3156,3060
5136,3156,3060
5136,3156,3060
5132,3156,3060
5132,3152,3056
5132,3156,3060
5132,3156,3060
5132,3156,3060
5132,3156,3060
5132,3156,3060
5136,3160,3064
5136,3160,3064
5136,3164,3064
5136,3160,3064
5136,3164,3064
5136,3164,3064
5136,3164,3064
5136,3164,3064
5132,3164,3064
5132,3164,3064
5132,3168,3064
5132,3168,3068
5132,3168,3064
5136,3172,3068
5132,3172,3068
5136,3172,3068
5136,3176,3072
5140,3176,3072
5136,3176,3072
5136,3176,3072
5136,3180,3072
5136,3176,3072
5136,3180,3072
5136,3180,3072
5136,3180,3076
5136,3180,3076
5140,3184,3076
5140,3184,3076
5140,3184,3076
5140,3184,3076
5140,3188,3080
5140,3188,3076
5140,3188,3080
5136,3188,3080
5136,3188,3076
5136,3188,3080
5136,3192,3080
5136,3192,3080
5136,3192,3080
5140,3196,3084
5140,3196,3084
5140,3196,3084
5144,3200,3088
5140,3200,3084
5140,3200,3088
5140,3204,3088
5140,3204,3088
5140,3204,3088
5140,3204,3088
5144,3208,3092
5144,3208,3092
5148,3212,3096
5144,3212,3092
5144,3212,3096
5144,3212,3092
5144,3212,3092
5148,3216,3096
5144,3216,3096
5144,3212,3096
5144,3216,3096
5144,3216,3096
5144,3216,3096
5144,3216,3096
5144,3220,3096
5144,3220,3100
5144,3220,3100
5144,3220,3100
5144,3224,3100
5144,3224,3100
5144,3224,3100
5144,3224,3100
5144,3228,3104
5152,3232,3108
5152,3232,3108
5152,3236,3108
5152,3236,3112
5152,3236,3112
5152,3240,3112
5152,3240,3112
5152,3240,3112
5156,3240,3116
5152,3240,3112
5156,3244,3116
5156,3244,3116
5156,3244,3116
5156,3244,3116
5156,3244,3116
5156,3244,3116
5152,3244,3116
5152,3244,3112
5152,3240,3112
5152,3244,3112
5148,3244,3112
5152,3244,3116
5148,3244,3112
5148,3244,3112
5152,3244,3116
5152,3244,3116
5152,3248,3116
5152,3248,3116
5148,3244,3116
5156,3252,3120
5148,3248,3116
5148,3248,3116
5148,3248,3116
5148,3248,3116
5148,3248,3116
5152,3248,3116
5148,3252,3116
5144,3248,3116
5144,3248,3116
5148,3252,3116
5144,3248,3116
5144,3248,3116
5144,3248,3116
5144,3248,3112
5144,3248,3116
5144,3248,3116
5144,3248,3112
5144,3248,3116
5144,3248,3116
5144,3248,3116
5140,3248,3112
5140,3248,3112
5144,3248,3116
5140,3248,3112
5140,3248,3112
5140,3248,3112
5140,3248,3116
5144,3248,3116
5140,3248,3112
5140,3248,3112
5144,3252,3116
5144,3252,3120
5144,3252,3120
5144,3252,3120
5148,3256,3120
5148,3256,3120
5148,3256,3120
5148,3256,3120
5148,3256,3124
5144,3256,3120
5148,3256,3120
5144,3256,3120
5144,3256,3120
5148,3256,3124
5148,3256,3120
5144,3256,3120
5144,3256,3120
5148,3256,3120
5148,3256,3120
5148,3256,3120
5148,3260,3124
5148,3260,3124
5148,3260,3124
5148,3256,3124
5148,3260,3124
5152,3260,3124
5152,3260,3124
5148,3260,3124
5152,3264,3128
5152,3264,3124
5148,3260,3124
5148,3260,3124
5144,3260,3124
5144,3260,3124
5144,3260,3124
5148,3260,3124
5144,3260,3124
5144,3264,3124
5148,3264,3128
5144,3264,3124
5144,3264,3124
5148,3264,3124
5148,3264,3124
5148,3268,3128
5148,3268,3128
5148,3268,3128
5152,3268,3128
5148,3268,3128
5148,3268,3128
5148,3268,3128
5148,3268,3128
5148,3268,3128
5148,3268,3128
5148,3268,3128
5148,3268,3128
5148,3268,3128
5148,3268,3128
5148,3268,3128
5148,3268,3128
5148,3268,3128
5148,3268,3128
5148,3268,3128
5148,3268,3128
5152,3272,3132
5148,3272,3132
5148,3272,3132
5148,3272,3132
5148,3272,3132
5152,3272,3132
5148,3272,3132
5148,3272,3128
5148,3272,3132
5152,3272,3132
5152,3276,3132
5152,3276,3136
5152,3276,3136
5152,3276,3136
5152,3276,3136
5152,3276,3132
5152,3276,3132
5148,3272,3132
5144,3272,3128
5148,3272,3132
5148,3272,3132
5148,3272,3132
5148,3272,3132
5148,3272,3132
5152,3272,3132
5152,3272,3132
5148,3272,3132
5152,3272,3132
5148,3268,3132
5148,3272,3132
5152,3272,3132
5152,3268,3132
5148,3268,3132
5148,3268,3132
5148,3268,3128
5148,3268,3128
5148,3268,3128
5148,3268,3132
5144,3264,3128
5144,3264,3128
5148,3264,3128
5148,3268,3128
5148,3268,3132
5148,3268,3128
5148,3264,3128
5148,3264,3128
5148,3264,3128
5152,3264,3128
5148,3264,3128
5140,3260,3124
5140,3260,3124
5140,3256,3120
5136,3252,3120
5136,3252,3116
5132,3248,3116
5136,3248,3116
5132,3244,3112
5132,3244,3112
5132,3244,3112
5132,3244,3112
5132,3240,3108
5132,3240,3112
5132,3240,3108
5132,3236,3108
5132,3236,3108
5132,3236,3108
5128,3236,3108
5128,3236,3108
5128,3232,3104
5128,3232,3104
5128,3232,3104
5128,3232,3104
5128,3232,3104
5128,3232,3104
5128,3232,3104
5128,3232,3104
5128,3232,3104
5128,3228,3104
5128,3228,3104
5128,3232,3104
5132,3232,3108
5132,3232,3108
5128,3228,3104
5132,3228,3104
5132,3228,3104
5128,3224,3100
5128,3224,3100
5128,3224,3100
5128,3224,3100
5128,3220,3096
5128,3220,3096
5128,3216,3096
5128,3220,3096
5128,3216,3096
5124,3216,3096
5124,3216,3092
5124,3212,3092
5124,3216,3096
5124,3212,3092
5124,3212,3096
5124,3212,3096
5124,3212,3092
5124,3212,3092
5128,3216,3096
5124,3212,3096
5128,3216,3096
5128,3212,3096
5128,3216,3096
5128,3212,3096
5128,3216,3096
5128,3216,3096
5128,3216,3096
5128,3216,3096
5132,3216,3100
5128,3216,3096
5128,3212,3096
5124,3208,3092
5124,3208,3088
5124,3204,3088
5124,3204,3088
5120,3200,3088
5120,3196,3084
5116,3196,3084
5116,3196,3080
5120,3196,3084
5120,3196,3084
5120,3196,3084
5120,3196,3080
5124,3196,3084
5120,3196,3084
5124,3196,3084
5120,3192,3080
5120,3196,3084
5120,3196,3084
5120,3196,3084
5124,3196,3084
5124,3196,3084
5124,3196,3084
5124,3200,3088
5128,3200,3088
5128,3200,3088
5124,3200,3088
5124,3200,3088
5128,3200,3088
5128,3200,3088
5128,3200,3088
5128,3200,3088
5128,3196,3088
5124,3196,3084
5124,3192,3084
5124,3192,3084
5120,3188,3080
5120,3184,3080
5120,3184,3076
5120,3184,3076
5120,3180,3076
5120,3184,3076
5120,3180,3076
5124,3184,3076
5120,3180,3076
5120,3180,3076
5120,3180,3076
5124,3184,3080
5120,3180,3076
5124,3180,3076
5124,3180,3076
5124,3180,3076
5124,3180,3076
5124,3180,3076
5124,3184,3080
5120,3180,3076
5120,3180,3076
5120,3180,3076
5120,3180,3076
5120,3180,3076
5120,3180,3076
5116,3180,3072
5116,3176,3072
5116,3176,3072
5116,3176,3072
5112,3172,3068
5112,3172,3068
5112,3168,3068
5112,3168,3064
5112,3164,3064
5112,3164,3064
5108,3160,3060
5108,3160,3060
5112,3160,3060
5108,3160,3060
5108,3156,3060
5108,3156,3060
5112,3160,3060
5108,3156,3060
5104,3156,3056
5108,3156,3060
5108,3156,3056
5108,3156,3056
5108,3156,3060
5108,3156,3056
5108,3156,3060
5108,3156,3060
5108,3156,3060
5108,3156,3060
5108,3156,3056
5108,3156,3060
5104,3156,3056
5108,3160,3060
5104,3156,3060
5104,3156,3056
5108,3160,3060
5104,3156,3056
5104,3152,3056
5100,3152,3052
5104,3152,3052
5104,3148,3052
5104,3148,3052
5100,3144,3048
5104,3144,3052
5104,3144,3052
5108,3148,3052
5108,3148,3056
5108,3148,3052
5108,3148,3052
5108,3148,3056
5112,3152,3056
5108,3148,3056
5108,3148,3056
5112,3152,3056
5112,3152,3056
5112,3152,3056
5112,3152,3056
5112,3152,3060
5112,3152,3056
5108,3152,3056
5112,3156,3060
5112,3156,3060
5112,3160,3060
5112,3156,3060
5112,3156,3060
5116,3160,3064
5116,3160,3064
5116,3160,3064
5116,3160,3064
5116,3160,3064
5116,3160,3064
5116,3156,3060
5112,3152,3056
5108,3148,3052
5104,3144,3052
5104,3144,3052
5104,3144,3052
5104,3144,3052
5104,3144,3048
5104,3144,3048
5104,3144,3048
5100,3140,3044
5100,3136,3044
5104,3140,3048
5104,3144,3048
5108,3144,3052
5108,3148,3052
5108,3148,3052
5112,3152,3056
5116,3152,3056
5112,3152,3056
5112,3152,3056
5112,3152,3056
5116,3156,3056
5112,3156,3056
5116,3156,3060
5116,3156,3060
5120,3160,3060
5116,3156,3060
5116,3156,3060
5116,3156,3060
5112,3152,3056
5112,3152,3056
5112,3148,3052
5108,3144,3052
5104,3140,3048
5100,3136,3044
5104,3140,3044
5100,3136,3044
5096,3136,3040
5096,3132,3040
5096,3132,3040
5096,3132,3036
5096,3132,3036
5096,3132,3036
5092,3128,3032
5092,3128,3036
5092,3124,3036
5092,3124,3032
5092,3128,3036
5092,3124,3032
5092,3124,3032
5088,3120,3032
5084,3120,3028
5084,3120,3024
5080,3116,3024
5080,3116,3024
5076,3116,3024
5076,3116,3020
5076,3112,3020
5076,3112,3020
5080,3112,3020
5080,3112,3020
5080,3112,3020
5076,3108,3016
5072,3104,3012
5072,3100,3012
5068,3100,3012
5064,3096,3008
5064,3092,3004
5064,3092,3004
5060,3088,3004
5060,3088,3000
5056,3084,3000
5056,3084,2996
5056,3084,3000
5056,3084,2996
5052,3084,2996
5052,3084,2996
5052,3084,2996
5048,3080,2992
5044,3076,2988
5044,3076,2988
5044,3076,2988
5048,3080,2992
5048,3080,2992
5048,3080,2992
5052,3080,2996
5052,3084,2996
5056,3084,2996
5060,3084,3000
5060,3084,3000
5060,3084,3000
5060,3084,2996
5060,3084,3000
5056,3080,2996
5060,3080,2996
5056,3076,2992
5056,3076,2992
5056,3076,2992
5060,3076,2992
5060,3076,2996
5060,3076,2996
5064,3080,2996
5064,3080,2996
5064,3080,2996
5060,3080,2996
5056,3076,2992
5060,3080,2992
5060,3080,2996
5064,3080,2996
5064,3084,3000
5064,3084,3000
5068,3088,3000
5064,3088,3000
5060,3084,2996
5064,3088,3000
5060,3088,3000
5060,3088,3000
5060,3088,3000
5060,3088,3000
5064,3092,3004
5064,3092,3004
5068,3092,3004
5068,3092,3004
5064,3088,3000
5064,3088,3000
5064,3088,3000
5064,3084,3000
5064,3084,3000
5064,3084,3000
5064,3084,3000
5064,3084,3000
5064,3084,3000
5068,3088,3000
5068,3088,3000
5068,3088,3004
5072,3092,3004
5068,3088,3004
5072,3092,3004
5072,3092,3004
5072,3096,3008
5072,3096,3008
5076,3096,3008
5072,3096,3008
5076,3100,3008
5072,3100,3008
5076,3100,3012
5072,3100,3008
5072,3100,3012
5076,3104,3012
5072,3104,3012
5076,3104,3016
5076,3104,3012
5076,3104,3012
5072,3100,3008
5072,3100,3008
5072,3100,3008
5072,3096,3008
5068,3096,3008
5068,3092,3004
5072,3096,3008
5068,3092,3004
5068,3092,3004
5072,3096,3008
5068,3092,3004
5072,3096,3008
5072,3096,3008
5068,3092,3004
5072,3096,3008
5072,3096,3008
5076,3100,3012
5076,3100,3008
5076,3100,3012
5076,3100,3012
5076,3100,3012
5076,3104,3012
5076,3104,3012
5076,3104,3012
5076,3104,3012
5076,3104,3012
5072,3104,3012
5076,3108,3012
5072,3104,3012
5076,3108,3016
5072,3104,3012
5072,3104,3012
5072,3104,3012
5068,3100,3008
5068,3100,3008
5072,3100,3008
5072,3104,3012
5072,3104,3012
5068,3100,3008
5076,3104,3012
5076,3108,3016
5072,3108,3016
5076,3112,3016
5076,3112,3016
5080,3112,3020
5076,3112,3016
5080,3116,3020
5080,3116,3020
5080,3120,3024
5080,3120,3024
5084,3124,3024
5084,3124,3028
5084,3128,3028
5084,3128,3028
5084,3128,3028
5088,3132,3032
5088,3132,3032
5088,3132,3036
5092,3136,3036
5092,3136,3036
5092,3136,3036
5092,3136,3036
5092,3132,3032
5088,3128,3032
5088,3128,3032
5088,3128,3032
5088,3132,3032
5088,3132,3032
5088,3132,3032
5088,3136,3032
5092,3136,3036
5088,3136,3032
5088,3136,3036
5092,3140,3036
5092,3140,3040
5088,3140,3036
5092,3140,3040
5096,3144,3040
5092,3144,3040
5096,3148,3044
5096,3148,3044
5100,3152,3048
5100,3152,3048
5104,3156,3048
5104,3156,3048
5100,3156,3048
5104,3156,3052
5104,3160,3052
5100,3156,3048
5100,3156,3048
5100,3156,3048
5100,3156,3048
5100,3152,3048
5100,3152,3048
5104,3156,3048
5104,3156,3048
5100,3152,3048
5104,3156,3048
5104,3156,3052
5100,3156,3048
5104,3156,3048
5100,3156,3048
5104,3156,3048
5104,3156,3052
5104,3160,3052
5104,3160,3052
5108,3160,3052
5108,3164,3056
5108,3164,3056
5104,3164,3052
5104,3164,3052
5112,3168,3056
5108,3168,3056
5108,3168,3060
5112,3172,3060
5112,3172,3060
5112,3172,3060
5108,3168,3056
5108,3168,3060
5108,3168,3056
5104,3168,3056
5108,3168,3056
5104,3164,3052
5104,3164,3052
5104,3164,3052
5104,3164,3052
5100,3164,3052
5104,3164,3052
5100,3160,3052
5100,3164,3052
5104,3164,3052
5104,3164,3052
5100,3164,3052
5100,3164,3052
5100,3164,3052
5100,3164,3052
5100,3164,3052
5104,3168,3056
5100,3168,3052
5104,3168,3056
5104,3168,3056
5100,3168,3052
5104,3168,3056
5104,3168,3056
5104,3172,3056
5104,3172,3060
5104,3172,3060
5100,3172,3056
5104,3172,3056
5104,3172,3056
5104,3172,3056
5104,3172,3056
5104,3168,3056
5104,3168,3056
5100,3168,3052
5100,3164,3052
5104,3168,3056
5104,3168,3056
5108,3172,3056
5104,3168,3056
5104,3168,3056
5104,3168,3056
5104,3168,3056
5108,3172,3056
5104,3172,3056
5108,3172,3056
5108,3172,3060
5108,3172,3060
5108,3176,3060
5108,3176,3060
5108,3172,3060
5108,3176,3060
5108,3176,3060
5108,3176,3060
5112,3180,3064
5116,3184,3068
5112,3184,3064
5108,3180,3064
5108,3180,3064
5108,3180,3064
5112,3180,3064
5108,3180,3064
5108,3180,3064
5108,3180,3064
5108,3180,3064
5112,3180,3064
5108,3180,3060
5112,3180,3064
5108,3180,3064
5112,3180,3064
5108,3180,3064
5112,3184,3064
5112,3184,3064
5112,3184,3068
5112,3184,3068
5112,3184,3064
5116,3184,3068
5116,3188,3068
5112,3184,3068
5112,3188,3068
5112,3188,3068
5116,3188,3072
5112,3188,3068
5112,3188,3068
5112,3192,3068
5112,3192,3072
5112,3192,3072
5116,3192,3072
5116,3196,3072
5120,3196,3076
5112,3196,3072
5116,3196,3072
5112,3192,3072
5112,3192,3072
5112,3192,3068
5112,3192,3072
5112,3192,3068
5112,3188,3068
5112,3192,3068
5112,3192,3072
5112,3192,3072
5112,3192,3072
5116,3196,3072
5116,3192,3072
5116,3196,3072
5116,3196,3072
5112,3196,3072
5112,3196,3072
5116,3196,3076
5112,3196,3072
5116,3200,3076
5112,3196,3076
5116,3200,3076
5116,3200,3076
5112,3200,3076
5112,3200,3076
5112,3200,3076
5116,3204,3076
5116,3204,3076
5116,3204,3076
5116,3204,3076
5112,3204,3076
5116,3204,3080
5112,3200,3076
5112,3200,3076
5112,3200,3076
5108,3196,3072
5104,3196,3072
5104,3196,3072
5104,3192,3068
5104,3192,3068
5104,3192,3068
5104,3196,3068
5108,3196,3072
5104,3192,3072
5104,3196,3072
5104,3192,3068
5104,3196,3072
5104,3192,3068
5104,3192,3068
5104,3192,3068
5104,3196,3072
5104,3192,3068
5104,3192,3068
5100,3192,3068
5100,3192,3068
5100,3192,3068
5096,3192,3064
5100,3192,3068
5100,3192,3068
5100,3192,3068
5096,3192,3064
5096,3192,3064
5096,3188,3064
5096,3188,3064
5096,3188,3064
5096,3192,3064
5096,3188,3064
5096,3188,3064
5096,3188,3064
5096,3188,3064
5096,3188,3064
5096,3188,3064
5096,3192,3068
5100,3192,3068
5104,3196,3072
5104,3196,3072
5104,3196,3072
5108,3200,3076
5104,3200,3076
5104,3200,3076
5104,3204,3076
5108,3204,3080
5108,3208,3080
5112,3208,3084
5112,3212,3084
5116,3216,3088
5120,3216,3088
5124,3220,3092
5120,3220,3092
5124,3224,3096
5124,3224,3096
5120,3224,3096
5120,3228,3096
5120,3228,3096
5116,3224,3092
5116,3224,3092
5112,3224,3092
5112,3224,3092
5112,3220,3092
5112,3220,3088
5112,3224,3092
5116,3224,3092
5116,3224,3092
5116,3224,3092
5120,3228,3096
5120,3228,3096
5116,3228,3096
5116,3228,3096
5120,3228,3096
5116,3228,3096
5116,3228,3096
5120,3232,3100
5120,3236,3100
5120,3236,3100
5120,3236,3100
5124,3236,3100
5124,3236,3100
5124,3240,3104
5128,3240,3104
5124,3236,3104
5128,3240,3104
5128,3240,3104
5132,3244,3108
5132,3244,3108
5136,3244,3112
5136,3244,3112
5136,3244,3108
5128,3236,3104
5132,3240,3104
5128,3236,3104
5124,3232,3104
5124,3232,3100
5124,3232,3100
5124,3232,3100
5124,3232,3100
5124,3232,3100
5128,3236,3104
5128,3236,3104
5124,3232,3100
5124,3236,3100
5124,3232,3100
5124,3232,3100
5124,3232,3100
5124,3232,3100
5124,3232,3100
5124,3232,3100
5124,3232,3100
5120,3232,3100
5120,3232,3096
5120,3232,3096
5120,3232,3100
5116,3228,3096
5120,3232,3096
5116,3228,3096
5116,3224,3092
5116,3224,3092
5112,3224,3088
5108,3220,3088
5108,3216,3084
5108,3212,3084
5100,3208,3080
5104,3208,3080
5104,3208,3080
5104,3208,3080
5100,3204,3076
5104,3208,3080
5104,3208,3080
5104,3204,3080
5104,3204,3080
5104,3204,3080
5104,3204,3076
5108,3208,3080
5104,3204,3080
5104,3204,3080
5104,3204,3080
5104,3204,3080
5104,3208,3080
5104,3208,3080
5104,3208,3080
5108,3212,3084
5104,3208,3080
5104,3208,3084
5108,3212,3084
5108,3212,3084
5108,3212,3084
5112,3212,3084
5112,3216,3088
5108,3212,3084
5112,3208,3084
5108,3208,3084
5108,3208,3080
5108,3208,3084
5112,3208,3084
5112,3208,3084
5116,3212,3088
5116,3212,3088
5112,3212,3084
5116,3212,3088
5116,3212,3088
5120,3216,3088
5120,3216,3092
5124,3220,3092
5120,3216,3092
5120,3216,3092
5120,3220,3092
5124,3224,3096
5124,3220,3096
5120,3220,3096
5120,3224,3096
5124,3224,3100
5124,3224,3096
5124,3228,3100
5124,3224,3096
5124,3224,3096
5124,3224,3096
5120,3224,3096
5120,3224,3096
5124,3224,3096
5120,3220,3092
5120,3220,3092
5120,3216,3092
5120,3216,3092
5116,3216,3088
5120,3216,3088
5116,3212,3088
5116,3216,3088
5120,3216,3092
5120,3216,3092
5116,3212,3088
5120,3216,3088
5116,3212,3088
5116,3216,3088
5120,3216,3092
5120,3216,3092
5120,3216,3092
5124,3220,3092
5124,3220,3092
5124,3220,3092
5124,3224,3096
5124,3220,3096
5120,3220,3096
5124,3220,3096
5124,3224,3096
5124,3224,3096
5124,3224,3096
5120,3220,3092
5120,3220,3092
5120,3216,3092
5120,3216,3092
5120,3216,3092
5116,3212,3088
5116,3212,3084
5112,3208,3084
5116,3208,3084
5116,3208,3084
5112,3208,3084
5112,3208,3084
5112,3208,3084
5112,3208,3084
5116,3208,3084
5116,3208,3084
5116,3212,3088
5116,3208,3084
5116,3212,3084
5116,3212,3088
5116,3208,3084
5116,3212,3088
5116,3212,3084
5116,3212,3088
5116,3212,3088
5120,3216,3088
5120,3216,3088
5120,3216,3092
5120,3216,3092
5116,3216,3088
5116,3216,3088
5116,3212,3088
5116,3212,3088
5112,3208,3084
5112,3208,3084
5116,3208,3084
5112,3208,3084
5116,3208,3084
5112,3204,3084
5112,3204,3080
5112,3204,3080
5112,3204,3080
5112,3204,3080
5112,3204,3080
5112,3204,3080
5112,3204,3080
5112,3204,3080
5112,3204,3080
5112,3204,3080
5116,3204,3084
5116,3208,3084
5116,3208,3084
5116,3208,3084
5120,3208,3088
5120,3208,3088
5120,3212,3088
5124,3212,3088
5124,3212,3092
5124,3216,3092
5124,3216,3092
5120,3216,3092
5124,3216,3092
5120,3216,3088
5120,3212,3088
5120,3212,3088
5120,3212,3088
5116,3208,3084
5116,3208,3084
5120,3212,3088
5120,3208,3088
5120,3212,3088
5116,3208,3088
5120,3212,3088
5124,3216,3092
5124,3216,3092
5120,3212,3092
5124,3216,3092
5124,3216,3092
5120,3216,3092
5124,3216,3092
5124,3216,3092
5124,3216,3092
5124,3220,3092
5128,3220,3096
5128,3220,3096
5128,3220,3096
5128,3224,3096
5124,3220,3096
5124,3220,3096
5128,3224,3096
5124,3224,3096
5128,3224,3096
5128,3224,3096
5128,3224,3096
5128,3224,3096
5124,3220,3096
5124,3220,3096
5124,3220,3092
5124,3216,3092
5124,3216,3092
5124,3212,3092
5120,3212,3088
5120,3212,3088
5120,3212,3088
5124,3212,3088
5120,3208,3084
5120,3208,3084
5120,3208,3088
5116,3208,3084
5116,3204,3084
5112,3204,3080
5116,3204,3084
5112,3204,3084
5116,3208,3084
5112,3208,3084
5116,3208,3084
5112,3204,3080
5108,3204,3080
5108,3204,3080
5112,3204,3080
5112,3208,3084
5112,3208,3084
5112,3208,3084
5112,3208,3084
5112,3204,3080
5112,3204,3080
5112,3204,3080
5108,3200,3080
5112,3200,3080
5108,3200,3076
5112,3200,3080
5108,3196,3076
5108,3196,3076
5108,3196,3076
5108,3196,3076
5104,3196,3076
5108,3196,3076
5108,3196,3076
5108,3196,3076
5108,3196,3076
5108,3196,3076
5108,3196,3076
5108,3196,3076
5108,3196,3076
5108,3196,3080
5108,3196,3076
5108,3196,3076
5108,3200,3080
5108,3200,3076
5112,3200,3080
5108,3200,3076
5108,3200,3080
5112,3204,3080
5112,3204,3084
5116,3208,3084
5112,3204,3080
5108,3200,3080
5112,3200,3080
5108,3196,3076
5108,3196,3076
5104,3192,3072
5104,3192,3072
5104,3196,3076
5108,3196,3076
5108,3192,3076
5108,3192,3076
5104,3192,3072
5104,3192,3072
5104,3192,3072
5104,3192,3072
5104,3192,3072
5104,3192,3076
5108,3196,3076
5104,3196,3076
5104,3196,3076
5104,3192,3076
5104,3196,3076
5108,3196,3076
5108,3196,3076
5108,3196,3076
5108,3196,3076
5108,3200,3080
5108,3200,3080
5108,3200,3080
5108,3200,3080
5108,3200,3080
5108,3200,3080
5108,3200,3076
5108,3196,3076
5108,3196,3076
5108,3196,3076
5108,3196,3076
5108,3196,3076
5108,3196,3076
5112,3196,3076
5108,3196,3076
5108,3196,3076
5108,3196,3076
5112,3196,3076
5112,3196,3080
5112,3200,3080
5112,3196,3080
5116,3200,3080
5116,3200,3080
5116,3200,3084
5116,3200,3080
5116,3200,3080
5116,3200,3080
5120,3204,3084
5116,3204,3084
5116,3204,3080
5116,3204,3084
5116,3204,3084
5120,3208,3084
5116,3208,3084
5116,3204,3084
5116,3204,3084
5116,3204,3084
5116,3204,3084
5112,3200,3080
5116,3200,3080
5112,3200,3080
5108,3196,3076
5112,3196,3076
5112,3192,3076
5112,3192,3076
5108,3192,3076
5108,3192,3072
5112,3192,3076
5112,3192,3076
5108,3192,3072
5108,3188,3072
5108,3188,3076
5108,3192,3076
5108,3188,3072
5108,3192,3076
5108,3192,3076
5112,3192,3076
5112,3192,3076
5112,3192,3076
5112,3196,3076
5116,3196,3080
5116,3196,3080
5116,3196,3076
5116,3196,3080
5112,3196,3080
5116,3196,3080
5108,3192,3076
5108,3192,3076
5108,3192,3076
5108,3188,3072
5104,3184,3068
5108,3184,3072
5108,3184,3072
5108,3180,3068
5108,3180,3068
5108,3180,3068
5104,3180,3068
5108,3180,3068
5108,3180,3068
5108,3180,3068
5104,3176,3064
5108,3176,3068
5104,3176,3068
5108,3180,3068
5104,3176,3068
5108,3180,3068
5104,3176,3064
5108,3180,3068
5108,3180,3068
5112,3184,3072
5112,3184,3072
5112,3184,3072
5108,3180,3072
5108,3180,3068
5108,3184,3068
5104,3180,3068
5104,3180,3068
5108,3180,3068
5104,3180,3068
5104,3176,3064
5100,3172,3064
5104,3172,3060
5100,3168,3060
5104,3172,3060
5104,3168,3060
5104,3168,3060
5100,3168,3060
5104,3168,3060
5100,3164,3060
5096,3164,3056
5096,3164,3056
5096,3160,3056
5096,3160,3056
5096,3160,3052
5096,3160,3052
5096,3160,3056
5096,3164,3056
5096,3164,3056
5096,3164,3056
5100,3168,3060
5100,3164,3056
5096,3164,3056
5096,3164,3056
5100,3168,3056
5096,3164,3056
5096,3164,3056
5096,3164,3056
5100,3168,3060
5100,3168,3060
5100,3168,3060
5096,3164,3056
5096,3164,3056
5096,3160,3052
5092,3156,3052
5092,3156,3052
5092,3156,3052
5092,3152,3048
5096,3156,3052
5092,3156,3048
5092,3152,3048
5096,3156,3052
5096,3156,3052
5096,3156,3052
5096,3156,3052
5100,3160,3056
5096,3156,3052
5100,3156,3052
5100,3156,3052
5100,3160,3056
5096,3156,3052
5100,3160,3056
5104,3164,3056
5104,3164,3060
5104,3164,3060
5104,3168,3060
5104,3168,3060
5104,3168,3060
5104,3168,3060
5108,3172,3064
5104,3168,3060
5100,3164,3060
5100,3164,3060
5100,3164,3056
5104,3164,3060
5104,3164,3060
5104,3160,3056
5104,3160,3056
5104,3160,3056
5104,3160,3056
5104,3156,3056
5104,3156,3056
5104,3156,3052
5100,3156,3052
5100,3156,3052
5104,3152,3052
5104,3156,3056
5100,3152,3052
5104,3156,3056
5108,3156,3056
5104,3156,3056
5104,3156,3052
5104,3156,3056
5108,3160,3056
5108,3160,3060
5108,3160,3056
5104,3160,3056
5104,3160,3056
5104,3160,3056
5104,3160,3056
5104,3160,3056
5104,3160,3056
5104,3160,3056
5104,3160,3056
5104,3156,3056
5104,3156,3052
5104,3152,3052
5100,3152,3052
5100,3148,3048
5100,3148,3048
5100,3144,3048
5096,3144,3044
5100,3144,3048
5100,3144,3048
5100,3144,3044
5100,3144,3044
5100,3144,3048
5100,3144,3048
5100,3144,3044
5100,3144,3048
5100,3144,3048
5104,3144,3048
5104,3148,3048
5100,3144,3044
5100,3144,3044
5100,3144,3044
5104,3148,3048
5104,3148,3048
5104,3148,3048
5100,3148,3048
5104,3148,3052
5100,3148,3048
5100,3148,3048
5100,3148,3048
5100,3148,3048
5100,3148,3048
5100,3148,3048
5096,3140,3044
5096,3140,3040
5096,3136,3044
5096,3136,3040
5092,3132,3036
5096,3132,3040
5096,3132,3040
5096,3132,3040
5096,3132,3040
5096,3132,3036
5096,3132,3040
5096,3132,3036
5096,3132,3040
5096,3132,3040
5092,3128,3036
5096,3132,3036
5096,3132,3036
5096,3132,3040
5096,3132,3040
5096,3136,3040
5096,3132,3040
5092,3132,3040
5096,3136,3040
5092,3132,3040
5096,3136,3040
5096,3136,3040
5096,3140,3044
5096,3136,3040
5100,3140,3044
5096,3140,3040
5096,3136,3040
5096,3136,3040
5092,3132,3036
5088,3128,3032
5088,3128,3032
5088,3124,3032
5092,3128,3032
5092,3124,3032
5088,3124,3032
5088,3124,3032
5088,3124,3032
5092,3124,3032
5096,3128,3036
5092,3124,3032
5096,3128,3036
5096,3128,3036
5096,3128,3036
5096,3128,3036
5096,3128,3036
5096,3128,3036
5096,3128,3036
5096,3128,3036
5100,3132,3040
5100,3132,3040
5096,3132,3040
5100,3136,3040
5104,3136,3044
5104,3136,3044
5104,3140,3044
5104,3140,3044
5108,3140,3044
5108,3140,3048
5104,3140,3044
5104,3136,3044
5100,3136,3040
5100,3132,3040
5100,3132,3040
5100,3132,3040
5100,3128,3036
5096,3124,3036
5100,3128,3040
5096,3124,3036
5104,3128,3040
5100,3128,3036
5100,3128,3036
5104,3128,3036
5104,3128,3040
5100,3128,3036
5104,3128,3040
5104,3132,3040
5104,3128,3040
5100,3128,3040
5104,3132,3040
5104,3132,3040
5108,3136,3044
5108,3136,3044
5108,3140,3044
5104,3136,3044
5108,3140,3044
5108,3140,3044
5108,3140,3044
5112,3140,3048
5112,3140,3048
5112,3140,3048
5108,3140,3048
5108,3136,3044
5108,3136,3044
5104,3128,3040
5104,3128,3040
5104,3128,3036
5104,3124,3036
5100,3124,3036
5104,3124,3036
5104,3124,3036
5100,3120,3036
5100,3120,3032
5100,3120,3032
5104,3124,3036
5100,3120,3032
5104,3124,3036
5104,3124,3036
5104,3124,3036
5104,3124,3036
5108,3128,3036
5108,3128,3040
5108,3128,3040
5108,3128,3040
5104,3128,3036
5104,3128,3036
5104,3128,3040
5108,3128,3040
5104,3128,3040
5108,3132,3040
5112,3136,3044
5112,3132,3044
5108,3132,3040
5104,3128,3040
5104,3128,3036
5100,3124,3036
5100,3120,3032
5100,3120,3032
5096,3116,3028
5100,3116,3028
5100,3116,3028
5100,3116,3028
5096,3112,3028
5092,3108,3024
5092,3108,3020
5088,3104,3020
5088,3104,3020
5084,3104,3020
5084,3104,3016
5084,3104,3016
5080,3104,3016
5076,3100,3016
5076,3100,3012
5072,3100,3012
5072,3100,3012
5068,3100,3008
5064,3096,3008
5064,3096,3008
5064,3100,3008
5064,3100,3008
5068,3104,3012
5068,3108,3012
5068,3108,3012
5068,3108,3016
5072,3112,3016
5072,3112,3016
5072,3112,3016
5072,3112,3020
5072,3112,3016
5072,3112,3016
5072,3112,3020
5076,3112,3016
5068,3108,3016
5072,3112,3016
5076,3112,3020
5080,3116,3020
5080,3120,3024
5084,3120,3024
5080,3120,3024
5084,3120,3024
5084,3124,3028
5084,3120,3024
5088,3124,3028
5084,3124,3028
5088,3124,3028
5084,3124,3028
5084,3124,3028
5084,3124,3028
5084,3124,3028
5088,3128,3028
5084,3124,3028
5084,3124,3028
5084,3128,3028
5084,3128,3028
5084,3128,3028
5084,3128,3032
5084,3128,3028
5084,3124,3028
5084,3124,3028
5084,3124,3028
5088,3124,3028
5088,3124,3028
5088,3120,3028
5088,3124,3028
5096,3128,3036
5100,3128,3036
5096,3128,3036
5100,3132,3036
5100,3132,3036
5100,3132,3036
5100,3132,3040
5100,3132,3040
5104,3132,3040
5104,3136,3040
5104,3132,3040
5104,3136,3040
5104,3136,3040
5104,3136,3040
5104,3136,3040
5100,3136,3040
5096,3136,3040
5100,3136,3040
5100,3136,3040
5096,3136,3040
5096,3136,3040
5096,3136,3040
5096,3136,3040
5100,3136,3040
5096,3132,3036
5092,3128,3032
5088,3124,3028
5088,3120,3028
5092,3120,3028
5092,3120,3028
5092,3120,3028
5088,3116,3024
5088,3116,3024
5088,3116,3024
5088,3116,3024
5088,3116,3024
5088,3116,3024
5092,3116,3028
5092,3116,3028
5088,3116,3024
5088,3116,3024
5088,3116,3024
5088,3116,3028
5088,3116,3024
5088,3120,3028
5088,3116,3028
5088,3116,3024
5084,3116,3024
5084,3120,3024
5088,3120,3028
5092,3124,3032
5092,3128,3032
5092,3124,3032
5092,3124,3032
5088,3120,3028
5092,3124,3032
5088,3120,3028
5092,3116,3028
5088,3116,3024
5088,3112,3024
5088,3112,3024
5088,3112,3020
5088,3112,3024
5092,3112,3024
5092,3112,3024
5088,3112,3024
5088,3112,3024
5088,3116,3024
5092,3116,3028
5092,3120,3028
5096,3120,3028
5096,3120,3032
5096,3124,3032
5100,3124,3032
5100,3124,3036
5100,3128,3036
5100,3128,3036
5100,3128,3036
5100,3128,3036
5104,3132,3040
5104,3136,3040
5108,3136,3044
5108,3140,3044
5104,3136,3044
5100,3136,3040
5100,3132,3036
5096,3128,3036
5092,3128,3032
5092,3124,3032
5092,3124,3032
5092,3124,3032
5096,3124,3032
5096,3124,3032
5096,3124,3032
5100,3128,3036
5104,3128,3036
5104,3132,3040
5104,3132,3040
5108,3136,3044
5104,3132,3040
5108,3136,3044
5108,3136,3044
5108,3140,3044
5108,3140,3044
5108,3140,3044
5116,3148,3052
5112,3148,3052
5116,3148,3052
5120,3152,3056
5120,3156,3056
5124,3156,3060
5116,3152,3056
5120,3156,3056
5120,3156,3056
5120,3156,3056
5120,3156,3056
5120,3152,3056
5116,3148,3052
5116,3148,3052
5112,3144,3048
5112,3144,3048
5116,3144,3048
5116,3144,3048
5116,3144,3048
5116,3144,3048
5116,3148,3052
5116,3144,3048
5116,3144,3048
5116,3148,3048
5112,3144,3048
5116,3148,3052
5116,3148,3052
5116,3152,3052
5116,3152,3052
5116,3152,3056
5120,3156,3056
5120,3156,3060
5120,3156,3056
5120,3160,3056
5120,3160,3060
5120,3160,3060
5120,3160,3060
5120,3160,3060
5120,3160,3060
5120,3160,3056
5116,3160,3056
5116,3156,3056
5120,3156,3056
5116,3152,3052
5112,3152,3052
5116,3152,3052
5112,3152,3052
5112,3152,3052
5112,3148,3048
5116,3152,3052
5112,3152,3052
5116,3152,3052
5112,3152,3052
5116,3152,3052
5112,3152,3052
5112,3156,3052
5116,3156,3056
5116,3156,3056
5116,3160,3056
5112,3156,3056
5112,3160,3056
5116,3160,3056
5116,3160,3056
5116,3164,3060
5116,3164,3060
5116,3164,3060
5116,3164,3060
5116,3168,3060
5116,3168,3060
5116,3168,3060
5116,3168,3060
5116,3164,3060
5116,3164,3060
5112,3160,3056
5112,3160,3056
5112,3160,3056
5112,3160,3056
5116,3164,3060
5116,3160,3056
5116,3164,3056
5116,3164,3056
5120,3164,3060
5116,3164,3056
5116,3164,3060
5120,3168,3060
5116,3168,3060
5120,3168,3064
5116,3168,3060
5120,3172,3064
5124,3172,3068
5124,3176,3068
5124,3176,3068
5120,3176,3068
5120,3176,3068
5124,3180,3068
5124,3180,3072
5124,3180,3072
5124,3180,3072
5124,3184,3072
5120,3180,3068
5120,3180,3068
5120,3180,3068
5116,3176,3064
5120,3176,3068
5120,3176,3068
5120,3176,3068
5120,3176,3068
5116,3176,3064
5120,3176,3068
5120,3176,3068
5120,3180,3068
5120,3180,3068
5124,3184,3072
5124,3180,3072
5128,3188,3076
5124,3184,3072
5124,3184,3072
5128,3188,3076
5128,3192,3080
5128,3192,3076
5128,3192,3080
5132,3192,3080
5132,3196,3080
5136,3200,3084
5132,3196,3080
5128,3196,3080
5132,3200,3084
5132,3200,3084
5132,3200,3084
5132,3200,3084
5132,3200,3084
5132,3200,3084
5128,3200,3080
5124,3196,3080
5128,3196,3080
5128,3196,3080
5128,3196,3080
5132,3196,3080
5128,3196,3080
5128,3192,3076
5128,3196,3080
5128,3192,3080
5128,3192,3080
5128,3196,3080
5128,3196,3080
5128,3196,3080
5128,3196,3080
5128,3196,3080
5132,3196,3080
5128,3196,3080
5132,3200,3080
5128,3200,3084
5132,3200,3084
5132,3204,3084
5136,3204,3088
5132,3204,3084
5132,3204,3088
5136,3208,3088
5136,3208,3088
5132,3208,3088
5136,3208,3088
5132,3204,3088
5136,3204,3088
5132,3204,3084
5128,3200,3080
5128,3196,3080
5128,3200,3080
5132,3200,3084
5132,3196,3080
5128,3196,3080
5124,3192,3076
5124,3192,3080
5124,3196,3080
5124,3192,3076
5128,3196,3080
5124,3192,3076
5132,3196,3080
5128,3196,3080
5128,3196,3080
5132,3200,3084
5128,3196,3080
5128,3200,3084
5128,3200,3080
5128,3200,3084
5128,3200,3084
5128,3200,3084
5128,3200,3084
5132,3204,3084
5128,3204,3084
5128,3204,3084
5128,3204,3084
5128,3204,3084
5128,3200,3084
5128,3200,3084
5128,3200,3080
5128,3200,3080
5128,3200,3080
5128,3196,3080
5124,3196,3080
5124,3192,3076
5124,3192,3076
5128,3192,3080
5128,3192,3080
5124,3192,3080
5124,3192,3076
5124,3192,3080
5124,3192,3076
5124,3192,3080
5124,3192,3080
5128,3196,3080
5124,3192,3080
5124,3196,3080
5128,3196,3080
5124,3196,3080
5124,3196,3080
5124,3196,3080
5124,3196,3080
5124,3196,3080
5124,3200,3080
5128,3200,3084
5124,3200,3080
5124,3200,3080
5124,3200,3080
5128,3200,3084
5128,3200,3080
5124,3196,3080
5124,3196,3080
5120,3192,3076
5120,3192,3076
5120,3192,3076
5116,3188,3072
5116,3188,3072
5112,3184,3072
5116,3184,3072
5120,3188,3072
5120,3188,3076
5116,3188,3072
5116,3188,3072
5116,3188,3072
5116,3184,3072
5112,3184,3072
5112,3188,3072
5116,3188,3072
5120,3192,3076
5120,3192,3076
5120,3192,3076
5120,3192,3080
5120,3192,3076
5120,3192,3076
5120,3192,3076
5120,3196,3080
5120,3192,3076
5120,3196,3080
5124,3196,3080
5124,3196,3080
5124,3200,3080
5124,3196,3080
5120,3196,3076
5120,3192,3076
5124,3192,3076
5120,3192,3076
5120,3188,3076
5120,3192,3076
5124,3192,3076
5120,3188,3076
5124,3192,3076
5120,3188,3076
5120,3192,3076
5120,3192,3076
5120,3192,3076
5124,3192,3080
5124,3192,3080
5124,3196,3080
5124,3196,3080
5128,3196,3084
5128,3200,3080
5132,3200,3084
5128,3200,3084
5132,3204,3084
5132,3204,3088
5128,3204,3084
5132,3204,3088
5128,3204,3088
5128,3204,3088
5132,3208,3088
5132,3204,3088
5128,3204,3088
5128,3204,3084
5128,3204,3084
5124,3200,3080
5124,3196,3080
5120,3196,3076
5124,3196,3080
5120,3192,3076
5120,3192,3076
5124,3196,3080
5124,3192,3080
5128,3196,3080
5128,3196,3080
5128,3196,3080
5124,3196,3080
5124,3192,3080
5124,3192,3080
5124,3192,3080
5132,3196,3084
5128,3196,3080
5128,3196,3080
5128,3196,3080
5128,3200,3084
5132,3204,3088
5132,3204,3088
5128,3200,3084
5128,3200,3084
5132,3204,3088
5132,3204,3088
5132,3204,3088
5132,3204,3088
5132,3204,3088
5132,3204,3088
5132,3200,3084
5128,3196,3084
5128,3196,3080
5124,3192,3080
5128,3192,3080
5124,3188,3076
5128,3188,3076
5124,3184,3076
5124,3184,3076
5124,3184,3076
5124,3184,3076
5120,3184,3072
5120,3184,3072
5124,3184,3076
5124,3188,3076
5120,3184,3076
5124,3184,3072
5124,3188,3076
5124,3184,3076
5124,3188,3076
5124,3188,3076
5124,3188,3076
5124,3188,3080
5124,3188,3076
5124,3188,3076
5124,3188,3076
5124,3192,3080
5124,3192,3080
5128,3192,3080
5124,3192,3080
5128,3192,3080
5124,3192,3080
5124,3188,3076
5124,3188,3076
5120,3184,3072
5124,3180,3072
5120,3176,3068
5120,3176,3068
5120,3176,3068
5120,3176,3068
5124,3176,3068
5120,3176,3068
5120,3176,3068
5120,3176,3068
5120,3176,3068
5120,3172,3068
5120,3172,3068
5120,3172,3068
