5060,5208,5228,1388,868,552,23
5064,5216,5236,1388,868,552,24
5060,5220,5236,1388,868,552,23
5060,5224,5236,1388,868,552,23
5064,5228,5240,1388,868,552,24
5064,5232,5244,1388,868,552,23
5060,5232,5244,1388,868,552,23
5064,5240,5248,1388,868,552,24
5064,5244,5252,1388,868,552,23
5064,5244,5252,1388,872,552,24
5064,5240,5248,1388,868,552,23
5064,5228,5240,1388,868,552,23
5060,5216,5232,1388,868,552,24
5052,5196,5220,1388,868,552,23
5052,5176,5208,1384,868,552,23
5048,5164,5196,1384,868,552,24
5044,5152,5188,1384,868,552,23
5044,5144,5184,1384,868,552,23
5044,5140,5184,1384,868,552,24
5040,5136,5180,1384,868,552,23
5044,5136,5180,1384,868,552,23
5044,5140,5184,1384,868,552,24
5048,5144,5188,1384,868,552,23
5048,5144,5188,1384,868,552,24
5044,5148,5188,1384,868,552,23
5048,5148,5188,1384,868,552,23
5048,5152,5188,1384,868,552,24
5048,5156,5192,1384,868,552,23
5048,5156,5196,1384,868,552,23
5052,5160,5200,1384,868,552,24
5052,5164,5200,1384,868,552,23
5048,5164,5200,1384,868,552,23
5048,5168,5204,1388,868,552,24
5052,5176,5208,1388,868,552,23
5052,5180,5208,1384,868,552,23
5052,5184,5212,1384,868,552,24
5052,5188,5216,1384,868,552,23
5052,5192,5216,1388,868,552,24
5056,5200,5220,1388,868,552,23
5060,5208,5228,1384,868,552,23
5060,5212,5232,1384,868,552,24
5060,5216,5236,1384,868,552,23
5060,5220,5236,1388,868,552,23
5060,5224,5240,1388,868,552,24
5060,5228,5240,1384,868,552,23
5064,5236,5248,1388,868,552,23
5060,5236,5244,1388,868,552,24
5064,5240,5248,1388,868,552,23
5060,5240,5248,1388,868,552,23
5060,5236,5244,1388,868,552,24
5056,5224,5236,1388,868,552,23
5052,5208,5228,1388,868,552,24
5052,5192,5216,1388,868,552,23
5048,5180,5208,1384,868,552,23
5048,5168,5200,1384,868,552,24
5048,5156,5196,1384,868,552,23
5040,5148,5184,1384,864,552,23
5040,5144,5184,1384,868,552,24
5040,5140,5184,1384,864,552,23
5044,5144,5184,1384,864,552,23
5044,5144,5184,1384,864,552,24
5048,5148,5192,1384,864,552,23
5044,5148,5188,1384,864,552,23
5048,5152,5192,1384,864,552,24
5044,5152,5188,1384,864,552,23
5044,5152,5188,1384,864,552,23
5044,5156,5192,1384,864,552,24
5044,5156,5192,1384,864,552,23
5044,5160,5196,1384,864,552,24
5044,5164,5196,1384,864,552,23
5048,5168,5200,1384,864,552,23
5048,5172,5204,1384,864,552,24
5048,5180,5208,1384,864,552,23
5056,5192,5220,1384,864,552,23
5056,5196,5220,1384,868,552,24
5056,5196,5220,1384,868,552,23
5056,5200,5224,1384,868,552,23
5056,5208,5228,1384,868,552,24
5060,5212,5232,1384,868,552,23
5056,5212,5228,1384,868,552,23
5056,5216,5232,1384,868,552,24
5056,5220,5236,1384,868,552,23
5056,5228,5240,1384,868,552,24
5056,5228,5240,1388,868,552,23
5060,5236,5244,1384,868,552,23
5060,5240,5248,1384,868,552,24
5060,5244,5248,1384,868,552,23
5060,5244,5248,1384,868,552,23
5060,5236,5244,1384,868,552,24
5056,5224,5236,1384,868,552,23
5052,5208,5228,1384,868,552,23
5048,5192,5216,1384,868,552,24
5048,5188,5212,1384,868,552,23
5048,5176,5204,1384,864,552,23
5048,5176,5208,1384,864,552,24
5044,5168,5200,1384,864,552,23
5044,5168,5200,1384,864,552,24
5048,5168,5200,1384,864,552,23
5048,5172,5204,1384,864,552,23
5048,5176,5208,1384,864,552,24
5052,5180,5208,1384,864,552,23
5048,5180,5208,1384,864,552,23
5052,5184,5212,1384,864,552,24
5048,5184,5212,1384,864,552,23
5048,5188,5212,1384,864,552,23
5048,5188,5216,1384,864,552,24
5052,5196,5220,1384,864,552,23
5056,5200,5224,1384,864,552,23
5056,5204,5228,1384,864,552,24
5056,5212,5232,1384,864,552,23
5056,5212,5232,1384,864,552,24
5056,5220,5236,1384,864,552,23
5056,5224,5240,1384,864,552,23
5060,5232,5244,1384,864,552,24
5060,5236,5244,1384,864,552,23
5060,5240,5248,1384,864,552,23
5060,5244,5248,1384,864,552,24
5060,5248,5252,1384,868,552,23
5056,5252,5252,1384,868,552,23
5060,5256,5256,1384,868,552,24
5064,5264,5264,1384,868,552,23
5068,5272,5268,1384,868,552,23
5068,5276,5272,1384,868,552,24
5064,5276,5272,1384,868,552,23
5064,5280,5272,1384,868,552,23
5068,5284,5276,1384,868,552,24
5064,5276,5268,1384,868,552,23
5060,5264,5264,1384,868,552,24
5056,5248,5252,1384,868,552,23
5052,5232,5240,1384,868,552,23
5048,5216,5232,1384,864,552,24
5048,5204,5224,1384,864,552,23
5044,5200,5220,1384,864,552,23
5048,5196,5216,1384,864,552,24
5044,5192,5212,1384,864,552,23
5048,5192,5216,1384,864,552,23
5048,5192,5216,1384,864,552,24
5048,5192,5216,1384,864,552,23
5048,5196,5220,1384,864,552,24
5048,5200,5220,1384,864,552,23
5048,5204,5224,1384,864,552,23
5048,5200,5220,1384,864,552,24
5052,5204,5224,1384,864,552,23
5052,5208,5228,1384,864,552,23
5052,5212,5228,1384,864,552,24
5052,5212,5228,1384,864,552,23
5052,5216,5232,1384,864,552,23
5052,5220,5236,1384,864,552,24
5052,5224,5236,1384,864,552,23
5052,5228,5240,1384,864,552,23
5052,5232,5240,1384,864,552,24
5056,5240,5244,1384,864,552,23
5056,5244,5248,1384,864,552,24
5056,5248,5252,1384,868,552,23
5060,5252,5256,1384,864,552,23
5056,5256,5256,1384,868,552,24
5056,5260,5256,1384,868,552,23
5060,5264,5260,1384,868,552,23
5060,5264,5260,1384,868,552,24
5060,5268,5264,1384,868,552,23
5064,5276,5272,1384,868,552,23
5064,5280,5272,1384,868,552,24
5064,5284,5276,1384,868,552,23
5064,5284,5276,1384,868,552,23
5064,5288,5276,1384,868,552,24
5060,5284,5272,1384,868,552,23
5064,5276,5272,1384,868,552,23
5060,5260,5260,1384,868,552,24
5052,5240,5248,1384,868,552,23
5048,5224,5236,1384,868,552,24
5048,5216,5228,1384,864,552,23
5044,5208,5224,1384,864,552,23
5048,5204,5224,1384,864,552,24
5044,5200,5220,1384,864,552,23
5044,5196,5216,1384,864,552,23
5044,5196,5216,1384,864,552,24
5044,5200,5220,1384,864,552,23
5044,5204,5224,1384,864,552,23
5048,5208,5224,1384,864,552,24
5048,5212,5228,1384,864,552,23
5048,5212,5228,1384,864,552,23
5052,5216,5232,1384,864,552,24
5052,5220,5232,1384,864,552,23
5052,5220,5236,1384,864,552,24
5056,5228,5240,1384,864,552,23
5052,5228,5240,1384,868,552,23
5056,5232,5240,1384,864,552,24
5056,5240,5248,1384,864,552,23
5056,5244,5248,1384,868,552,23
5056,5248,5252,1384,868,552,24
5060,5252,5256,1384,868,552,23
5056,5252,5256,1384,868,552,23
5060,5260,5260,1384,868,552,24
5060,5264,5260,1384,868,552,23
5060,5272,5268,1384,868,552,23
5060,5272,5268,1384,868,552,24
5060,5276,5268,1384,868,552,23
5060,5280,5272,1384,868,552,24
5064,5288,5276,1384,868,552,23
5064,5288,5276,1384,868,552,23
5064,5292,5280,1384,868,552,24
5064,5296,5280,1384,868,552,23
5064,5296,5284,1384,868,552,23
5064,5300,5284,1388,868,552,24
5060,5296,5280,1384,868,552,23
5060,5288,5276,1388,868,552,23
5056,5272,5264,1384,868,552,24
5052,5252,5252,1388,868,552,23
5048,5236,5240,1384,868,552,23
5044,5224,5232,1384,868,552,24
5044,5212,5224,1384,868,552,23
5044,5208,5224,1384,864,552,24
5044,5204,5220,1384,864,552,23
5044,5200,5220,1384,864,552,23
5044,5200,5220,1384,864,552,24
5044,5204,5220,1384,864,552,23
5044,5204,5220,1384,864,552,23
5048,5204,5224,1384,864,552,24
5048,5208,5224,1384,864,552,23
5048,5208,5224,1384,864,552,23
5048,5208,5224,1384,864,552,24
5044,5208,5224,1384,864,552,23
5048,5208,5228,1384,864,552,23
5044,5208,5224,1384,864,552,24
5048,5212,5228,1384,864,552,23
5048,5212,5228,1384,864,552,23
5048,5220,5232,1384,864,552,24
5048,5220,5232,1384,864,552,23
5048,5224,5236,1384,868,552,24
5048,5228,5236,1384,868,552,23
5052,5232,5240,1384,868,552,23
5052,5236,5240,1384,868,552,24
5052,5236,5244,1384,868,552,23
5048,5240,5244,1384,868,552,23
5052,5244,5248,1384,868,552,24
5056,5252,5252,1384,868,552,23
5052,5252,5252,1384,868,552,23
5052,5252,5252,1384,868,552,24
5056,5256,5256,1384,868,552,23
5056,5260,5260,1384,868,552,23
5056,5264,5260,1384,868,552,24
5056,5264,5260,1384,868,552,23
5056,5260,5260,1384,868,552,24
5052,5252,5252,1384,868,552,23
5048,5232,5240,1384,868,552,23
5044,5216,5228,1384,868,552,24
5040,5200,5216,1384,868,552,23
5040,5188,5212,1384,868,552,23
5040,5180,5204,1384,868,552,24
5036,5172,5200,1384,864,552,23
5036,5168,5200,1384,868,552,23
5040,5168,5200,1384,868,552,24
5040,5172,5200,1384,868,552,23
5040,5176,5204,1384,868,552,23
5040,5176,5204,1384,868,552,24
5040,5176,5204,1384,868,552,23
5040,5176,5204,1384,864,552,24
5040,5180,5208,1384,868,552,23
5040,5180,5208,1384,864,552,23
5044,5180,5208,1384,868,552,24
5044,5180,5208,1384,864,552,23
5040,5184,5212,1384,864,552,23
5048,5192,5216,1384,868,552,24
5048,5192,5216,1384,868,552,23
5044,5196,5216,1384,864,552,23
5044,5196,5216,1384,868,552,24
5048,5204,5224,1384,868,552,23
5048,5208,5224,1384,868,552,23
5052,5212,5232,1384,868,552,24
5052,5216,5232,1384,868,552,23
5048,5216,5232,1384,868,552,24
5048,5220,5232,1384,868,552,23
5048,5224,5232,1384,868,552,23
5048,5228,5236,1384,868,552,24
5052,5236,5244,1384,868,552,23
5048,5236,5240,1384,868,552,23
5052,5244,5248,1384,868,552,24
5052,5240,5244,1384,868,552,23
5048,5236,5240,1384,868,552,23
5048,5228,5236,1384,868,552,24
5044,5208,5224,1384,868,552,23
5040,5192,5212,1384,868,552,23
5036,5172,5200,1384,868,552,24
5032,5160,5192,1384,868,552,23
5032,5152,5188,1384,868,552,24
5028,5144,5180,1384,864,552,23
5032,5140,5180,1384,864,552,23
5032,5140,5180,1384,864,552,24
5032,5140,5180,1384,864,552,23
5032,5144,5180,1384,864,552,23
5032,5144,5180,1384,864,552,24
5032,5144,5184,1384,864,552,23
5036,5148,5184,1384,864,552,23
5036,5148,5188,1384,864,552,24
5036,5152,5188,1384,864,552,23
5036,5152,5188,1384,864,552,23
5040,5156,5192,1384,864,552,24
5036,5156,5188,1384,864,552,23
5040,5160,5192,1384,864,552,24
5040,5164,5196,1384,864,552,23
5040,5168,5200,1384,864,552,23
5044,5176,5204,1384,864,552,24
5040,5176,5204,1384,864,552,23
5044,5180,5208,1384,868,552,23
5044,5184,5208,1384,868,552,24
5044,5188,5212,1384,868,552,23
5048,5192,5216,1384,868,552,23
5044,5196,5216,1384,868,552,24
5044,5200,5220,1384,868,552,23
5044,5200,5220,1384,868,552,23
5048,5208,5224,1384,868,552,24
5044,5208,5224,1384,868,552,23
5044,5212,5224,1384,868,552,24
5048,5216,5228,1384,868,552,23
5048,5216,5232,1384,868,552,23
5044,5216,5228,1384,868,552,24
5044,5200,5220,1384,868,552,23
5040,5188,5208,1384,868,552,23
5036,5168,5200,1384,868,552,24
5032,5152,5188,1384,868,552,23
5028,5140,5180,1384,864,552,23
5024,5124,5168,1384,864,552,24
5020,5116,5160,1384,864,552,23
5024,5112,5160,1384,864,552,23
5024,5108,5156,1384,864,552,24
5024,5108,5156,1384,864,552,23
5020,5108,5156,1384,864,552,24
5024,5112,5160,1384,864,552,23
5024,5112,5160,1384,864,552,23
5028,5116,5164,1384,864,552,24
5028,5116,5164,1384,864,552,23
5024,5116,5164,1384,864,552,23
5028,5120,5168,1384,864,552,24
5028,5120,5168,1384,864,552,23
5028,5120,5168,1384,864,552,23
5028,5124,5168,1384,864,552,24
5032,5128,5172,1384,864,552,23
5032,5132,5176,1384,864,552,23
5032,5132,5176,1384,864,552,24
5032,5140,5176,1384,864,552,23
5032,5144,5184,1384,864,552,23
5036,5148,5188,1384,864,552,24
5036,5152,5188,1384,864,552,23
5036,5156,5188,1384,864,552,24
5036,5160,5192,1384,864,552,23
5036,5164,5196,1384,864,552,23
5036,5168,5196,1384,864,552,24
5036,5168,5200,1384,864,552,23
5036,5172,5200,1384,864,552,23
5036,5176,5204,1384,864,552,24
5036,5180,5204,1384,864,552,23
5036,5180,5204,1384,864,552,23
5036,5184,5208,1384,864,552,24
5040,5188,5212,1384,864,552,23
5036,5180,5204,1384,864,552,23
5032,5164,5192,1384,864,552,24
5028,5144,5184,1384,864,552,23
5028,5132,5172,1384,864,552,24
5024,5120,5164,1384,864,552,23
5020,5112,5160,1384,864,552,23
5020,5104,5156,1384,864,552,24
5016,5096,5152,1380,864,552,23
5020,5096,5152,1380,864,552,23
5020,5096,5152,1384,864,552,24
5020,5100,5152,1380,864,552,23
5028,5104,5156,1380,864,552,23
5024,5104,5156,1384,864,552,24
5028,5108,5160,1380,864,552,23
5024,5108,5156,1380,864,552,23
5024,5112,5160,1384,864,552,24
5028,5112,5164,1380,864,552,23
5028,5112,5164,1384,864,552,24
5024,5116,5164,1384,864,552,23
5028,5120,5168,1384,864,552,23
5024,5124,5168,1384,864,552,24
5028,5128,5172,1384,864,552,23
5032,5136,5176,1384,864,552,23
5032,5140,5180,1384,864,552,24
5036,5148,5184,1384,864,552,23
5032,5148,5188,1384,864,552,23
5032,5152,5188,1384,864,552,24
5036,5160,5192,1384,864,552,23
5036,5164,5196,1384,864,552,23
5036,5168,5196,1384,864,552,24
5036,5172,5200,1384,864,552,23
5040,5180,5204,1384,864,552,24
5040,5184,5212,1384,864,552,23
5040,5188,5208,1384,864,552,23
5040,5188,5212,1384,864,552,24
5040,5192,5216,1384,864,552,23
5036,5188,5208,1384,864,552,23
5032,5176,5204,1384,864,552,24
5032,5164,5196,1384,864,552,23
5028,5148,5184,1384,864,552,23
5020,5128,5168,1384,864,552,24
5020,5120,5164,1380,864,552,23
5020,5108,5156,1380,864,552,23
5020,5104,5156,1380,864,552,24
5020,5104,5152,1380,864,552,23
5020,5100,5156,1380,860,552,24
5020,5100,5152,1380,860,552,23
5024,5104,5156,1380,860,552,23
5020,5104,5156,1380,864,552,24
5020,5108,5156,1380,864,552,23
5024,5112,5160,1380,860,552,23
5024,5112,5160,1380,864,552,24
5020,5112,5160,1380,864,552,23
5024,5116,5164,1380,864,552,23
5024,5116,5164,1380,864,552,24
5020,5120,5164,1380,864,552,23
5024,5128,5172,1380,864,552,23
5028,5132,5176,1380,864,552,24
5028,5136,5176,1384,864,552,23
5024,5136,5176,1384,864,552,24
5028,5144,5180,1380,864,552,23
5028,5148,5180,1380,864,552,23
5028,5152,5188,1384,864,552,24
5032,5156,5188,1384,864,552,23
5032,5160,5192,1384,864,552,23
5028,5164,5192,1384,864,552,24
5032,5168,5196,1384,864,552,23
5028,5168,5196,1384,864,552,23
5032,5176,5200,1384,864,552,24
5032,5180,5204,1384,864,552,23
5032,5184,5204,1384,864,552,24
5036,5188,5212,1384,864,552,23
5036,5192,5212,1384,864,552,23
5036,5192,5212,1384,864,552,24
5036,5196,5216,1384,864,552,23
5036,5196,5216,1384,864,552,23
5032,5188,5208,1384,864,552,24
5032,5172,5200,1384,864,552,23
5020,5148,5184,1384,864,552,23
5020,5136,5176,1384,864,552,24
5020,5120,5164,1384,864,552,23
5012,5108,5156,1384,864,552,23
5012,5100,5152,1384,864,552,24
5012,5092,5148,1380,864,552,23
5012,5092,5144,1384,864,552,24
5012,5088,5144,1380,860,552,23
5012,5092,5144,1380,860,552,23
5012,5092,5148,1380,860,552,24
5016,5096,5148,1380,860,552,23
5016,5096,5152,1384,864,552,23
5016,5096,5152,1380,864,552,24
5016,5100,5152,1380,860,552,23
5016,5100,5156,1380,860,552,23
5020,5104,5156,1380,864,552,24
5016,5104,5156,1380,864,552,23
5020,5108,5156,1380,864,552,23
5020,5112,5160,1380,864,552,24
5020,5112,5160,1380,864,552,23
5020,5116,5164,1380,864,552,23
5024,5124,5168,1384,864,552,24
5024,5128,5172,1380,864,552,23
5020,5128,5172,1380,864,552,24
5028,5136,5176,1380,864,552,23
5024,5140,5180,1380,864,552,23
5024,5140,5180,1380,864,552,24
5024,5144,5180,1380,864,552,23
5024,5148,5184,1380,864,552,23
5024,5152,5188,1380,864,552,24
5024,5152,5184,1380,864,552,23
5032,5164,5196,1380,864,552,23
5028,5164,5192,1380,864,552,24
5032,5168,5196,1380,864,552,23
5032,5172,5200,1380,864,552,24
5032,5176,5200,1380,864,552,23
5028,5176,5200,1380,864,552,23
5028,5176,5200,1380,864,552,24
5028,5168,5196,1380,864,552,23
5028,5156,5188,1380,864,552,23
5024,5136,5176,1380,864,552,24
5016,5120,5164,1380,864,552,23
5016,5104,5156,1380,864,552,23
5012,5092,5148,1380,864,552,24
5012,5084,5144,1380,864,552,23
5012,5080,5140,1380,860,548,23
5012,5076,5136,1380,864,552,24
5016,5080,5144,1380,860,548,23
5012,5080,5140,1380,860,548,24
5012,5080,5140,1380,864,552,23
5012,5076,5136,1380,860,552,23
5012,5080,5140,1380,864,552,24
5016,5084,5144,1380,860,552,23
5016,5084,5144,1380,864,552,23
5016,5084,5144,1380,864,552,24
5012,5084,5144,1380,864,552,23
5012,5084,5144,1380,864,552,23
5016,5088,5148,1380,864,552,24
5016,5092,5148,1380,864,552,23
5020,5100,5156,1380,864,552,23
5016,5100,5152,1384,864,552,24
5020,5108,5156,1380,864,552,23
5016,5108,5156,1380,864,552,24
5020,5112,5160,1380,864,552,23
5020,5116,5164,1380,864,552,23
5020,5120,5164,1380,864,552,24
5024,5124,5172,1380,864,552,23
5024,5128,5172,1380,864,552,23
5024,5132,5176,1380,864,552,24
5024,5136,5176,1380,864,552,23
5028,5140,5180,1380,864,552,23
5024,5144,5180,1384,864,552,24
5024,5144,5184,1384,864,552,23
5028,5152,5188,1384,864,552,23
5024,5148,5184,1384,864,552,24
5028,5152,5188,1384,864,552,23
5024,5144,5184,1384,864,552,24
5020,5132,5172,1384,864,552,23
5020,5112,5160,1384,864,552,23
5016,5092,5148,1380,864,552,24
5008,5076,5136,1384,864,552,23
5008,5064,5132,1380,864,552,23
5008,5056,5124,1380,864,552,24
5008,5048,5120,1380,864,552,23
5008,5044,5116,1380,864,552,23
5008,5044,5116,1380,864,552,24
5004,5044,5116,1380,864,552,23
5008,5048,5120,1380,864,552,23
5008,5052,5120,1380,864,552,24
5012,5052,5124,1380,864,552,23
5008,5052,5124,1380,864,552,24
5008,5052,5124,1380,864,552,23
5012,5056,5124,1380,864,552,23
5008,5056,5124,1380,864,552,24
5012,5060,5128,1380,864,552,23
5012,5060,5128,1380,864,552,23
5012,5064,5132,1384,864,552,24
5016,5072,5136,1380,864,552,23
5016,5076,5136,1380,864,552,23
5016,5076,5140,1380,864,552,24
5020,5084,5144,1380,864,552,23
5016,5088,5144,1384,864,552,23
5016,5092,5148,1384,864,552,24
5020,5096,5152,1380,864,552,23
5020,5100,5152,1380,864,552,24
5020,5104,5156,1380,864,552,23
5020,5108,5156,1380,864,552,23
5024,5116,5164,1384,864,552,24
5020,5112,5160,1380,864,552,23
5020,5120,5164,1380,864,552,23
5020,5124,5168,1384,864,552,24
5024,5128,5172,1384,864,552,23
5016,5128,5168,1384,864,552,23
5020,5132,5172,1384,864,552,24
5016,5128,5168,1380,864,552,23
5016,5124,5164,1384,864,552,23
5016,5108,5156,1380,864,552,24
5012,5088,5144,1380,864,552,23
5004,5068,5132,1380,864,552,24
5004,5052,5120,1380,864,552,23
5004,5044,5116,1380,864,552,23
5000,5036,5108,1380,864,552,24
4996,5028,5104,1380,864,552,23
4996,5024,5100,1380,864,552,23
5000,5028,5104,1380,864,552,24
5004,5028,5104,1380,864,552,23
5000,5028,5104,1380,864,552,23
5000,5032,5108,1380,864,552,24
5000,5032,5108,1380,864,552,23
5000,5036,5108,1380,864,552,23
5000,5036,5108,1380,864,552,24
5000,5036,5108,1380,864,552,23
5004,5040,5112,1380,864,552,24
5004,5044,5116,1380,864,552,23
5008,5048,5120,1380,864,552,23
5004,5048,5116,1380,864,552,24
5008,5056,5124,1380,864,552,23
5008,5060,5128,1380,864,552,23
5008,5064,5128,1380,864,552,24
5008,5068,5132,1380,864,552,23
5012,5076,5136,1380,864,552,23
5012,5080,5136,1380,864,552,24
5012,5084,5144,1380,864,552,23
5012,5088,5144,1380,864,552,23
5012,5092,5148,1380,864,552,24
5012,5092,5148,1380,864,552,23
5012,5100,5152,1380,864,552,24
5012,5104,5152,1380,864,552,23
5012,5108,5156,1380,864,552,23
5012,5108,5156,1384,864,552,24
5012,5112,5156,1384,864,552,23
5012,5116,5160,1380,864,552,23
5012,5116,5160,1380,864,552,24
5016,5120,5164,1380,864,552,23
5012,5112,5156,1380,864,552,23
5008,5096,5144,1380,864,552,24
5004,5080,5136,1380,864,552,23
5000,5064,5124,1380,864,552,23
5000,5048,5116,1380,864,552,24
5000,5040,5108,1380,864,552,23
4996,5028,5104,1380,864,552,24
4996,5024,5100,1380,864,552,23
4996,5016,5096,1380,864,552,23
4992,5016,5096,1380,864,552,24
4996,5016,5096,1380,864,552,23
4992,5016,5096,1380,864,552,23
4996,5020,5100,1380,860,552,24
5000,5028,5104,1380,860,552,23
4996,5028,5104,1380,864,552,23
5000,5032,5108,1380,864,552,24
5000,5032,5104,1380,864,552,23
5004,5036,5112,1380,864,552,23
5000,5036,5108,1380,864,552,24
5004,5040,5112,1380,864,552,23
5000,5044,5112,1380,864,552,24
5004,5048,5116,1380,864,552,23
5004,5052,5120,1380,864,552,23
5008,5060,5124,1380,864,552,24
5008,5064,5128,1380,864,552,23
5008,5064,5128,1380,864,552,23
5008,5068,5132,1380,864,552,24
5008,5072,5132,1380,864,552,23
5008,5080,5136,1380,864,552,23
5012,5084,5144,1380,864,552,24
5012,5088,5144,1380,864,552,23
5008,5088,5140,1380,864,552,23
5008,5092,5144,1380,864,552,24
5012,5096,5148,1384,864,552,23
5008,5100,5148,1380,864,552,24
5012,5108,5156,1380,864,552,23
5012,5112,5156,1384,864,552,23
5012,5108,5156,1380,864,552,24
5012,5104,5152,1380,864,552,23
5012,5096,5148,1380,864,552,23
5004,5076,5136,1380,864,552,24
5004,5064,5124,1380,864,552,23
5004,5052,5120,1380,864,552,23
5000,5040,5112,1380,864,552,24
5000,5032,5108,1380,864,552,23
5000,5032,5104,1380,864,552,23
4996,5028,5104,1380,864,552,24
4996,5028,5104,1380,864,552,23
4996,5032,5104,1380,864,552,24
5000,5036,5108,1380,864,552,23
5000,5036,5108,1380,864,552,23
4996,5036,5108,1380,864,552,24
5000,5044,5112,1380,864,552,23
5000,5044,5116,1380,864,552,23
5000,5048,5116,1380,864,552,24
5004,5052,5120,1380,864,552,23
5004,5056,5124,1380,864,552,23
5008,5060,5128,1380,864,552,24
5004,5064,5128,1380,864,552,23
5008,5068,5128,1380,864,552,23
5008,5076,5136,1380,864,552,24
5008,5076,5136,1380,864,552,23
5008,5084,5140,1380,864,552,24
5008,5088,5144,1380,864,552,23
5008,5092,5144,1380,864,552,23
5012,5100,5148,1380,864,552,24
5012,5104,5152,1380,864,552,23
5016,5112,5156,1380,864,552,23
5012,5112,5156,1380,864,552,24
5016,5116,5160,1380,864,552,23
5016,5120,5164,1380,864,552,23
5016,5124,5164,1380,864,552,24
5016,5132,5168,1380,864,552,23
5016,5136,5172,1380,864,552,23
5016,5132,5168,1380,864,552,24
5012,5124,5164,1380,864,552,23
5008,5108,5152,1380,864,552,24
5008,5092,5144,1380,864,552,23
5004,5080,5136,1380,864,552,23
5000,5068,5128,1380,864,552,24
5000,5060,5120,1380,864,552,23
5000,5052,5116,1380,864,552,23
5000,5048,5116,1380,864,552,24
5000,5044,5112,1380,864,552,23
5000,5044,5116,1380,864,552,23
5000,5048,5116,1380,864,552,24
5004,5056,5120,1380,860,552,23
5004,5060,5124,1380,860,552,23
5004,5060,5124,1380,864,552,24
5004,5060,5124,1380,864,552,23
5004,5060,5124,1380,864,552,24
5004,5064,5128,1380,864,552,23
5008,5068,5128,1380,864,552,23
5004,5068,5128,1380,864,552,24
5008,5076,5136,1380,864,552,23
5008,5076,5136,1380,864,552,23
5008,5080,5136,1380,864,552,24
5004,5084,5140,1380,864,552,23
5008,5092,5140,1380,864,552,23
5008,5096,5144,1380,864,552,24
5008,5104,5152,1380,864,552,23
5008,5104,5152,1380,864,552,23
5012,5112,5156,1380,864,552,24
5012,5116,5160,1384,864,552,23
5012,5120,5160,1380,864,552,24
5020,5128,5168,1380,864,552,23
5016,5132,5168,1380,864,552,23
5016,5136,5172,1380,864,552,24
5016,5140,5172,1380,864,552,23
5020,5144,5176,1380,864,552,23
5016,5144,5176,1380,864,552,24
5012,5148,5176,1380,864,552,23
5012,5144,5172,1380,864,552,23
5012,5136,5168,1380,864,552,24
5008,5120,5160,1380,864,552,23
5004,5104,5148,1380,864,552,23
5000,5088,5140,1380,864,552,24
5000,5076,5132,1380,864,552,23
4996,5068,5124,1380,864,552,24
4996,5060,5120,1380,860,552,23
4996,5056,5116,1380,860,552,23
4996,5052,5116,1380,860,552,24
5000,5056,5120,1380,864,552,23
4996,5056,5116,1380,860,552,23
5000,5056,5120,1380,860,552,24
5000,5060,5124,1380,860,552,23
5000,5064,5124,1380,860,552,23
4996,5060,5124,1380,864,552,24
5000,5068,5128,1380,860,552,23
5000,5068,5128,1380,860,552,23
5000,5072,5128,1380,860,552,24
5000,5072,5128,1380,860,552,23
5000,5072,5128,1380,860,552,24
5004,5080,5136,1380,860,552,23
5004,5084,5140,1380,860,552,23
5004,5088,5140,1380,860,552,24
5008,5096,5144,1380,860,548,23
5008,5096,5148,1380,860,548,23
5004,5100,5148,1380,864,552,24
5004,5104,5148,1380,864,552,23
5004,5108,5152,1380,864,552,23
5004,5112,5156,1380,864,552,24
5004,5112,5156,1380,864,552,23
5004,5116,5156,1380,864,552,23
5008,5124,5160,1380,864,552,24
5008,5128,5164,1380,864,552,23
5008,5132,5164,1380,864,552,24
5008,5132,5168,1380,864,552,23
5008,5136,5168,1380,864,552,23
5012,5140,5172,1380,864,552,24
5008,5128,5164,1380,864,552,23
5004,5112,5156,1380,864,552,23
5000,5096,5144,1380,864,552,24
4996,5084,5136,1380,860,552,23
4992,5064,5124,1380,860,548,23
4992,5056,5120,1380,860,548,24
4992,5052,5116,1380,860,548,23
4988,5044,5108,1380,860,548,23
4988,5040,5108,1380,860,548,24
4988,5040,5108,1380,860,548,23
4992,5044,5108,1380,860,548,24
4988,5044,5112,1376,860,548,23
4992,5048,5112,1380,860,548,23
4992,5052,5116,1380,860,548,24
4996,5056,5116,1380,860,548,23
4996,5056,5120,1380,860,548,23
4992,5056,5120,1380,860,548,24
4996,5060,5124,1380,860,548,23
4996,5064,5124,1380,860,548,23
4996,5068,5128,1380,860,548,24
4996,5072,5128,1380,860,548,23
4996,5072,5128,1380,860,548,23
4996,5076,5132,1380,860,548,24
4996,5080,5132,1380,860,548,23
5000,5084,5136,1380,860,548,24
5000,5088,5140,1380,860,548,23
5000,5092,5144,1380,860,548,23
5004,5100,5148,1380,860,548,24
5004,5100,5148,1380,860,552,23
5004,5104,5152,1380,860,552,23
5004,5108,5156,1380,860,552,24
5004,5112,5156,1380,860,548,23
5004,5112,5156,1380,860,548,23
5004,5116,5156,1380,860,548,24
5004,5116,5156,1380,860,552,23
5000,5112,5156,1380,860,552,23
5000,5104,5148,1380,860,552,24
4996,5088,5140,1380,860,552,23
4992,5072,5128,1380,860,548,23
4992,5064,5120,1380,860,548,24
4988,5048,5112,1380,860,548,23
4984,5040,5108,1380,860,548,24
4984,5032,5104,1376,860,548,23
4984,5032,5100,1380,860,548,23
4984,5028,5100,1376,860,548,24
4984,5028,5100,1380,860,548,23
4988,5032,5104,1380,860,548,23
4988,5036,5104,1380,860,548,24
4988,5036,5108,1376,860,548,23
4988,5040,5108,1376,860,548,23
4988,5040,5108,1380,860,548,24
4992,5044,5112,1380,860,548,23
4988,5044,5112,1376,860,548,24
4992,5048,5116,1380,860,548,23
4992,5052,5116,1380,860,548,23
4996,5056,5120,1380,860,548,24
4996,5060,5124,1376,860,548,23
4996,5064,5124,1380,860,548,23
5000,5068,5128,1380,860,548,24
5000,5076,5132,1380,860,548,23
5000,5076,5132,1380,860,548,23
5000,5080,5136,1380,860,548,24
5000,5084,5140,1380,860,548,23
5004,5088,5144,1380,860,548,23
5004,5092,5144,1380,860,548,24
5004,5096,5144,1380,860,548,23
5004,5096,5148,1380,860,548,24
5004,5104,5148,1380,860,552,23
5004,5108,5152,1380,860,552,23
5008,5112,5156,1380,860,552,24
5004,5108,5152,1380,860,552,23
5000,5092,5144,1380,860,548,23
4996,5080,5132,1380,860,548,24
4992,5064,5124,1380,860,548,23
4992,5056,5120,1376,860,548,23
4988,5040,5112,1380,860,548,24
4988,5036,5104,1376,860,548,23
4988,5028,5100,1376,860,548,23
4984,5024,5096,1376,860,548,24
4988,5024,5100,1380,860,548,23
4988,5028,5100,1376,860,548,24
4988,5028,5104,1380,860,548,23
4992,5036,5108,1376,860,548,23
4992,5036,5108,1376,860,548,24
4992,5040,5108,1376,860,548,23
4996,5040,5112,1376,860,548,23
4996,5044,5112,1376,860,548,24
4992,5044,5112,1380,860,548,23
4996,5044,5112,1376,860,548,23
4992,5048,5116,1380,860,548,24
4992,5052,5116,1380,860,548,23
4996,5056,5120,1380,860,548,23
4996,5060,5124,1380,860,548,24
4996,5064,5128,1380,860,548,23
4996,5068,5128,1380,860,548,24
4996,5072,5132,1380,860,548,23
4996,5076,5132,1380,860,548,23
4996,5080,5136,1380,860,548,24
5004,5088,5140,1380,860,548,23
5004,5092,5144,1380,860,548,23
5000,5092,5140,1380,860,548,24
4996,5092,5140,1380,860,548,23
5000,5096,5144,1380,860,548,23
5000,5100,5148,1380,860,548,24
4996,5104,5148,1380,860,548,23
5000,5100,5148,1380,860,548,23
4996,5092,5140,1380,860,548,24
4996,5076,5132,1380,860,548,23
4988,5060,5120,1380,860,548,24
4984,5040,5108,1380,860,548,23
4980,5028,5100,1380,860,548,23
4980,5016,5092,1380,860,548,24
4980,5012,5084,1376,860,548,23
4976,5004,5080,1376,856,548,23
4980,5004,5084,1376,856,548,24
4980,5004,5084,1376,856,548,23
4984,5008,5088,1376,856,548,23
4984,5012,5088,1376,856,548,24
4980,5012,5088,1380,856,548,23
4984,5016,5092,1380,856,548,23
4988,5020,5096,1376,856,548,24
4984,5016,5092,1376,856,548,23
4988,5020,5096,1380,860,548,23
4988,5024,5100,1380,860,548,24
4992,5028,5100,1380,860,548,23
4988,5032,5100,1376,856,548,24
4992,5036,5104,1376,856,548,23
4992,5040,5108,1380,860,548,23
4988,5040,5108,1380,860,548,24
4988,5044,5108,1380,860,548,23
4988,5044,5108,1380,860,548,23
4992,5052,5116,1380,860,548,24
4992,5056,5120,1380,860,548,23
4992,5060,5120,1380,860,548,23
4992,5064,5124,1380,860,548,24
4996,5072,5128,1380,860,548,23
4992,5072,5128,1380,860,548,23
4992,5076,5128,1380,860,548,24
4996,5080,5132,1380,860,548,23
4996,5084,5136,1380,860,548,24
4992,5084,5136,1380,860,548,23
4996,5092,5140,1380,860,548,23
4996,5088,5136,1380,860,548,24
4996,5084,5136,1380,860,548,23
4992,5068,5128,1380,860,548,23
4988,5052,5112,1380,860,548,24
4984,5032,5100,1380,860,548,23
4980,5016,5092,1380,860,548,23
4976,5004,5084,1376,856,548,24
4980,5000,5080,1380,860,548,23
4976,4992,5076,1380,856,548,23
4976,4988,5072,1376,856,548,24
4976,4988,5072,1380,856,548,23
4972,4984,5072,1380,856,548,24
4976,4992,5076,1380,856,548,23
4976,4992,5072,1380,856,548,23
4980,4996,5076,1380,856,548,24
4980,4996,5080,1380,856,548,23
4980,5000,5080,1380,856,548,23
4980,5000,5080,1380,856,548,24
4980,5000,5084,1380,856,548,23
4980,5004,5080,1380,856,548,23
4984,5008,5084,1380,856,548,24
4984,5012,5088,1380,860,548,23
4980,5012,5084,1380,856,548,23
4984,5020,5092,1376,856,548,24
4980,5020,5092,1376,856,548,23
4984,5024,5096,1380,860,548,24
4988,5032,5100,1376,860,548,23
4988,5036,5104,1376,860,548,23
4988,5040,5104,1380,860,548,24
4988,5044,5108,1380,860,548,23
4988,5044,5112,1380,860,548,23
4988,5048,5112,1380,860,548,24
4988,5052,5116,1380,860,548,23
4992,5060,5120,1380,860,548,23
4992,5060,5120,1380,860,548,24
4992,5064,5120,1380,860,548,23
4992,5068,5124,1380,860,548,23
4992,5068,5124,1380,860,548,24
4992,5064,5124,1380,860,548,23
4988,5052,5116,1380,860,548,24
4988,5040,5108,1380,860,548,23
4984,5020,5096,1380,860,548,23
4980,5008,5084,1376,860,548,24
4980,5000,5080,1376,860,548,23
4980,4992,5076,1380,856,548,23
4976,4984,5072,1376,856,548,24
4976,4984,5072,1376,856,548,23
4980,4988,5076,1380,856,548,23
4980,4992,5076,1376,856,548,24
4984,4996,5080,1376,856,548,23
4984,5000,5084,1376,856,548,23
4984,5000,5080,1376,856,548,24
4984,5004,5084,1376,856,548,23
4984,5008,5088,1376,856,548,24
4988,5012,5092,1380,860,548,23
4988,5012,5092,1380,860,548,23
4984,5012,5088,1376,856,548,24
4988,5016,5092,1380,860,548,23
4988,5020,5092,1376,860,548,23
4988,5024,5096,1380,860,548,24
4988,5028,5096,1376,860,548,23
4988,5036,5104,1380,860,548,23
4988,5036,5104,1380,860,548,24
4988,5044,5108,1380,860,548,23
4992,5048,5112,1380,860,548,23
4992,5052,5112,1380,860,548,24
4992,5056,5116,1380,860,548,23
4992,5056,5116,1380,860,548,24
4992,5060,5120,1380,860,548,23
4992,5068,5124,1380,860,548,23
4992,5072,5124,1380,860,548,24
4992,5076,5128,1380,860,548,23
4996,5084,5132,1380,860,548,23
4996,5080,5132,1380,860,548,24
4992,5068,5124,1380,860,548,23
4988,5056,5116,1380,860,548,23
4984,5036,5104,1380,860,548,24
4980,5020,5092,1380,860,548,23
4976,5008,5084,1376,860,548,23
4976,5000,5080,1380,860,548,24
4976,4992,5076,1376,856,548,23
4976,4992,5072,1380,860,548,23
4976,4988,5072,1380,860,548,24
4976,4988,5072,1376,856,548,23
4976,4992,5076,1380,860,548,24
4980,4996,5076,1376,856,548,23
4980,4996,5076,1376,856,548,23
4980,5000,5080,1376,856,548,24
4984,5004,5084,1376,856,548,23
4980,5004,5080,1376,856,548,23
4980,5004,5080,1376,856,548,24
4976,5004,5080,1376,856,548,23
4980,5008,5084,1376,856,548,23
4984,5016,5088,1376,856,548,24
4984,5020,5092,1380,860,548,23
4988,5020,5096,1376,860,548,23
4988,5028,5096,1380,860,548,24
4988,5032,5100,1380,860,548,23
4988,5032,5100,1380,860,548,24
4988,5040,5104,1380,860,548,23
4988,5040,5108,1380,860,548,23
4992,5048,5112,1380,860,548,24
4988,5052,5112,1380,860,548,23
4992,5056,5116,1380,860,548,23
4992,5060,5116,1380,860,548,24
4992,5064,5120,1380,860,548,23
4988,5060,5120,1380,860,548,23
4992,5068,5124,1380,860,548,24
4988,5068,5124,1380,860,548,23
4992,5072,5124,1380,860,548,23
4992,5076,5128,1380,860,548,24
4988,5072,5124,1380,860,548,23
4984,5060,5116,1380,860,548,24
4980,5044,5108,1380,860,548,23
4980,5028,5096,1380,860,548,23
4976,5012,5084,1376,860,548,24
4972,4996,5080,1380,860,548,23
4972,4988,5068,1376,860,548,23
4972,4980,5064,1376,860,548,24
4968,4976,5060,1376,860,548,23
4968,4968,5056,1376,856,548,23
4968,4972,5060,1376,856,548,24
4972,4976,5060,1376,856,548,23
4972,4976,5060,1376,856,548,23
4972,4980,5064,1376,856,548,24
4976,4984,5068,1376,856,548,23
4980,4988,5072,1376,856,548,24
4976,4984,5068,1376,856,548,23
4972,4984,5068,1376,856,548,23
4976,4988,5072,1376,856,548,24
4976,4988,5072,1376,856,548,23
4972,4992,5072,1376,856,548,23
4976,4992,5072,1376,856,548,24
4976,4996,5076,1376,856,548,23
4976,5000,5080,1376,856,548,23
4976,5004,5080,1376,860,548,24
4976,5008,5084,1376,856,548,23
4980,5016,5088,1376,860,548,23
4976,5016,5088,1376,860,548,24
4976,5020,5088,1376,860,548,23
4980,5024,5092,1376,860,548,24
4980,5028,5096,1380,860,548,23
4984,5032,5100,1376,860,548,23
4984,5036,5100,1376,860,548,24
4980,5036,5100,1376,860,548,23
4984,5040,5104,1380,860,548,23
4984,5048,5108,1380,860,548,24
4984,5048,5108,1376,860,548,23
4984,5052,5112,1376,860,548,23
4988,5060,5120,1380,860,548,24
4988,5060,5120,1376,860,548,23
4984,5056,5116,1376,860,548,23
4980,5048,5108,1376,860,548,24
4980,5032,5100,1380,860,548,23
4972,5016,5084,1380,860,548,24
4976,5004,5080,1380,860,548,23
4968,4988,5072,1376,860,548,23
4968,4976,5060,1376,860,548,24
4964,4972,5056,1376,860,548,23
4968,4968,5056,1376,856,548,23
4964,4964,5052,1376,856,548,24
4964,4960,5052,1376,856,548,23
4968,4968,5056,1376,856,548,23
4968,4972,5056,1376,856,548,24
4968,4968,5056,1376,860,548,23
4972,4976,5060,1376,856,548,23
4972,4980,5064,1376,860,548,24
4972,4980,5064,1376,856,548,23
4972,4980,5068,1376,856,548,24
4972,4984,5064,1376,860,548,23
4972,4984,5068,1376,860,548,23
4972,4988,5068,1376,860,548,24
4972,4992,5072,1376,860,548,23
4972,4996,5072,1376,860,548,23
4972,5000,5076,1380,860,548,24
4976,5004,5080,1380,860,548,23
4972,5004,5080,1376,860,548,23
4972,5012,5084,1380,860,548,24
4972,5016,5084,1380,860,548,23
4972,5020,5088,1380,860,548,23
4972,5020,5088,1380,860,548,24
4976,5028,5092,1380,860,548,23
4976,5028,5092,1380,860,548,23
4980,5040,5100,1380,860,548,24
4980,5040,5100,1380,860,548,23
4980,5044,5104,1380,860,548,24
4980,5048,5108,1380,860,548,23
4980,5052,5108,1380,860,552,23
4984,5060,5112,1380,860,548,24
4980,5056,5108,1380,860,552,23
4984,5052,5112,1380,860,552,23
4984,5044,5104,1380,860,552,24
4984,5024,5096,1380,860,548,23
4980,5008,5084,1376,860,548,23
4972,4992,5072,1376,860,548,24
4972,4984,5068,1380,860,548,23
4972,4980,5064,1376,860,548,23
4968,4972,5060,1376,860,548,24
4972,4976,5060,1376,860,548,23
4972,4976,5064,1376,860,548,24
4972,4976,5064,1376,860,548,23
4972,4980,5064,1376,860,548,23
4976,4984,5068,1376,860,548,24
4976,4988,5072,1376,860,548,23
4972,4984,5068,1376,860,548,23
4976,4988,5072,1376,860,548,24
4976,4992,5072,1376,860,548,23
4976,4992,5072,1376,860,548,23
4976,4996,5072,1380,860,548,24
4976,4996,5076,1376,860,548,23
4980,5004,5080,1376,860,548,23
4976,5004,5084,1380,860,548,24
4976,5008,5084,1376,860,548,23
4980,5016,5088,1376,860,548,24
4980,5020,5092,1376,860,548,23
4980,5024,5092,1380,860,548,23
4980,5028,5096,1376,860,548,24
4980,5032,5100,1380,860,548,23
4980,5036,5100,1376,860,548,23
4984,5040,5104,1380,860,548,24
4984,5044,5108,1380,860,552,23
4984,5048,5108,1380,860,552,23
4984,5052,5108,1380,860,552,24
4980,5056,5112,1380,860,548,23
4984,5056,5116,1380,860,552,23
4984,5064,5116,1380,860,552,24
4984,5064,5120,1380,860,552,23
4988,5068,5120,1380,860,552,23
4984,5064,5120,1380,860,552,24
4980,5048,5108,1380,860,552,23
4976,5032,5096,1380,860,548,24
4972,5016,5084,1380,860,552,23
4972,5000,5076,1380,860,552,23
4968,4988,5068,1376,860,548,24
4968,4976,5060,1376,860,548,23
4968,4972,5056,1376,860,548,23
4968,4968,5056,1376,860,548,24
4964,4964,5052,1376,856,548,23
4968,4964,5052,1376,856,548,23
4968,4968,5056,1376,860,548,24
4972,4972,5060,1376,860,548,23
4968,4972,5060,1376,860,548,23
4968,4972,5060,1376,856,548,24
4968,4972,5060,1376,860,548,23
4968,4972,5060,1376,860,548,24
4972,4976,5064,1376,860,548,23
4972,4980,5068,1376,860,548,23
4976,4984,5068,1380,860,548,24
4972,4984,5068,1376,860,548,23
4976,4992,5072,1376,860,548,23
4976,4996,5076,1380,860,548,24
4976,4996,5076,1376,860,548,23
4976,5000,5076,1376,860,548,23
4972,5000,5076,1376,860,548,24
4976,5004,5080,1376,860,548,23
4976,5012,5084,1376,860,548,23
4976,5012,5084,1376,860,548,24
4976,5020,5088,1380,860,548,23
4976,5020,5088,1380,860,548,24
4976,5024,5092,1380,860,548,23
4976,5028,5092,1376,860,548,23
4980,5032,5100,1376,860,548,24
4980,5036,5100,1376,860,548,23
4984,5040,5104,1376,860,548,23
4980,5040,5100,1380,860,548,24
4984,5044,5108,1380,860,548,23
4980,5044,5104,1380,860,548,23
4980,5044,5104,1376,860,548,24
4976,5032,5100,1376,860,548,23
4972,5020,5088,1376,860,548,23
4968,5000,5076,1376,860,548,24
4964,4984,5064,1380,860,548,23
4964,4972,5056,1376,860,548,24
4964,4964,5052,1376,860,548,23
4964,4956,5048,1376,856,548,23
4964,4952,5044,1376,856,548,24
4964,4948,5044,1376,856,548,23
4968,4952,5048,1376,856,548,23
4964,4952,5044,1376,856,548,24
4964,4952,5048,1376,856,548,23
4964,4952,5048,1376,856,548,23
4964,4956,5048,1376,856,548,24
4968,4960,5052,1376,856,548,23
4964,4956,5048,1376,856,548,23
4964,4956,5048,1376,856,548,24
4964,4960,5048,1376,856,548,23
4964,4964,5052,1376,856,548,24
4968,4964,5056,1376,856,548,23
4968,4972,5060,1376,856,548,23
4968,4972,5060,1376,856,548,24
4968,4976,5064,1376,856,548,23
4968,4980,5064,1376,856,548,23
4972,4984,5068,1376,856,548,24
4968,4988,5068,1376,860,548,23
4968,4992,5072,1376,856,548,23
4972,5000,5072,1376,860,548,24
4972,5004,5076,1376,860,548,23
4976,5008,5084,1376,860,548,23
4976,5012,5084,1376,860,548,24
4976,5016,5088,1376,860,548,23
4976,5016,5088,1376,860,548,24
4976,5020,5088,1376,860,548,23
4980,5032,5096,1376,860,548,23
4984,5036,5100,1376,860,548,24
4984,5032,5100,1376,860,548,23
4976,5020,5088,1376,860,548,23
4972,5008,5084,1376,860,548,24
4972,4992,5072,1376,860,548,23
4968,4980,5064,1376,860,548,23
4964,4964,5052,1376,856,548,24
4964,4956,5048,1376,856,548,23
4968,4952,5048,1376,856,548,23
4964,4948,5040,1376,856,548,24
4960,4944,5040,1376,856,548,23
4960,4944,5036,1376,856,548,24
4964,4952,5044,1376,856,548,23
4964,4952,5044,1376,856,548,23
4968,4956,5048,1376,856,548,24
4968,4960,5052,1376,856,548,23
4968,4960,5052,1376,856,548,23
4968,4964,5052,1376,856,548,24
4964,4960,5052,1376,856,548,23
4968,4968,5056,1376,856,548,23
4968,4972,5060,1376,856,548,24
4968,4972,5060,1376,856,548,23
4972,4980,5060,1376,856,548,23
4968,4980,5064,1376,856,548,24
4972,4988,5068,1376,856,548,23
4972,4992,5072,1376,856,548,24
4972,4996,5072,1376,856,548,23
4972,5000,5072,1376,856,548,23
4972,5004,5080,1376,856,548,24
4972,5008,5080,1376,856,548,23
4972,5008,5080,1376,860,548,23
4976,5016,5084,1376,856,548,24
4972,5016,5088,1376,856,548,23
4972,5020,5088,1380,860,548,23
4976,5024,5092,1376,860,548,24
4976,5028,5092,1376,860,548,23
4976,5032,5096,1376,860,548,23
4976,5036,5096,1380,860,548,24
4976,5036,5100,1380,860,548,23
4976,5032,5096,1380,860,548,24
4972,5024,5088,1376,860,548,23
4968,5008,5080,1376,860,548,23
4964,4992,5068,1376,860,548,24
4960,4976,5060,1376,856,548,23
4960,4964,5052,1376,856,548,23
4956,4952,5044,1376,856,548,24
4956,4948,5040,1376,856,548,23
4956,4944,5036,1376,856,548,23
4956,4944,5036,1376,856,548,24
4956,4940,5036,1376,856,548,23
4956,4944,5036,1376,856,548,23
4956,4948,5036,1376,856,548,24
4960,4952,5040,1376,856,548,23
4960,4956,5048,1376,856,548,24
4960,4956,5048,1376,856,548,23
4960,4956,5044,1376,856,548,23
4960,4960,5052,1376,856,548,24
4964,4960,5048,1376,856,548,23
4964,4964,5052,1376,856,548,23
4960,4964,5052,1376,856,548,24
4960,4968,5052,1376,856,548,23
4960,4972,5056,1376,856,548,23
4964,4976,5060,1376,856,548,24
4968,4984,5064,1376,856,548,23
4968,4992,5068,1376,856,548,23
4968,4992,5068,1376,856,548,24
4968,4992,5072,1376,856,548,23
4964,4996,5072,1376,856,548,24
4968,5004,5076,1376,856,548,23
4968,5004,5076,1376,856,548,23
4968,5008,5080,1376,856,548,24
4968,5012,5080,1376,856,548,23
4968,5016,5084,1376,856,548,23
4968,5016,5084,1376,856,548,24
4968,5020,5084,1376,856,548,23
4972,5028,5092,1376,856,548,23
4972,5028,5092,1376,856,548,24
4972,5032,5096,1376,856,548,23
4972,5036,5096,1376,856,548,23
4972,5032,5096,1376,860,548,24
4968,5020,5084,1376,860,548,23
4964,5008,5080,1376,856,548,24
4964,4996,5072,1376,856,548,23
4960,4980,5060,1376,856,548,23
4960,4968,5052,1376,856,548,24
4960,4960,5048,1376,856,548,23
4956,4952,5044,1376,856,548,23
4956,4948,5040,1376,856,548,24
4956,4948,5040,1376,856,548,23
4960,4952,5044,1376,856,548,23
4960,4956,5044,1376,856,548,24
4960,4960,5048,1376,856,548,23
4960,4964,5052,1376,856,548,23
4964,4968,5052,1376,856,548,24
4960,4964,5052,1376,856,548,23
4964,4968,5056,1376,856,548,24
4960,4968,5056,1376,856,548,23
4964,4976,5056,1376,856,548,23
4964,4980,5060,1376,856,548,24
4968,4984,5064,1376,856,548,23
4964,4988,5064,1376,856,548,23
4964,4992,5068,1376,856,548,24
4968,4996,5072,1376,856,548,23
4968,5004,5076,1376,856,548,23
4968,5008,5080,1376,856,548,24
4972,5016,5084,1376,856,548,23
4976,5020,5088,1376,856,548,23
4972,5024,5088,1376,860,548,24
4976,5028,5092,1376,860,548,23
4976,5032,5096,1376,860,548,23
4976,5036,5100,1376,860,548,24
4980,5044,5104,1376,860,548,23
4980,5048,5108,1376,860,548,24
4980,5052,5108,1376,860,548,23
4980,5056,5112,1376,860,548,23
4980,5064,5116,1380,860,548,24
4984,5068,5120,1380,860,548,23
4980,5060,5116,1380,860,548,23
4976,5048,5104,1380,860,548,24
4972,5032,5096,1380,860,548,23
4972,5020,5088,1380,860,548,23
4972,5008,5080,1376,860,548,24
4968,5000,5076,1376,856,548,23
4968,4992,5068,1376,856,548,23
4968,4984,5064,1376,856,548,24
4964,4984,5064,1376,856,548,23
4964,4980,5064,1376,856,548,24
4968,4984,5068,1376,856,548,23
4968,4988,5068,1376,856,548,23
4972,4996,5072,1376,856,548,24
4968,4996,5072,1376,856,548,23
4968,4996,5072,1376,856,548,23
4972,5000,5076,1376,856,548,24
4972,5004,5076,1376,860,548,23
4968,5004,5076,1376,856,548,23
4968,5004,5076,1376,856,548,24
4972,5012,5080,1376,860,548,23
4972,5016,5084,1376,860,548,23
4972,5020,5084,1376,856,548,24
4972,5024,5088,1376,860,548,23
4976,5032,5092,1376,860,548,24
4976,5036,5096,1376,860,548,23
4976,5040,5100,1376,860,548,23
4976,5044,5100,1376,860,548,24
4976,5044,5104,1380,860,548,23
4980,5052,5108,1380,860,548,23
4980,5056,5108,1380,860,548,24
4980,5060,5112,1380,860,548,23
4980,5064,5116,1380,860,548,23
4980,5068,5116,1380,860,552,24
4980,5072,5120,1380,860,548,23
4980,5076,5120,1380,860,552,23
4984,5080,5124,1380,860,552,24
4984,5080,5124,1380,860,552,23
4984,5076,5124,1380,860,552,24
4980,5064,5116,1380,860,552,23
4976,5048,5108,1380,860,552,23
4972,5028,5092,1380,860,552,24
4968,5012,5080,1380,860,548,23
4968,5004,5076,1380,860,548,23
4968,4992,5068,1380,860,548,24
4964,4988,5064,1376,860,548,23
4968,4980,5064,1376,860,548,23
4964,4976,5060,1376,860,548,24
4964,4980,5060,1376,860,548,23
4964,4980,5060,1376,856,548,23
4968,4984,5064,1376,860,548,24
4968,4988,5068,1376,860,548,23
4968,4988,5064,1376,856,548,24
4968,4992,5068,1376,860,548,23
4968,4992,5068,1376,860,548,23
4968,4992,5068,1376,860,548,24
4964,4992,5068,1376,860,548,23
4964,4992,5068,1376,860,548,23
4964,4996,5068,1376,860,548,24
4968,5000,5072,1376,860,548,23
4968,5004,5076,1376,860,548,23
4968,5008,5080,1376,860,548,24
4968,5016,5080,1376,860,548,23
4968,5020,5084,1376,860,548,24
4972,5024,5088,1380,860,548,23
4972,5028,5092,1376,860,548,23
4972,5032,5092,1376,860,548,24
4976,5036,5096,1380,860,548,23
4972,5040,5096,1376,860,548,23
4972,5040,5100,1380,860,548,24
4976,5044,5104,1380,860,552,23
4976,5048,5104,1380,860,548,23
4976,5048,5104,1380,860,548,24
4976,5056,5108,1380,860,552,23
4976,5056,5108,1380,860,552,23
4976,5056,5108,1380,860,552,24
4976,5060,5112,1380,860,552,23
4972,5056,5108,1380,860,552,23
4972,5044,5100,1380,860,552,24
4968,5032,5092,1380,860,552,23
4968,5016,5084,1380,860,552,24
4964,5000,5072,1376,860,548,23
4964,4988,5068,1376,860,548,23
4964,4980,5060,1376,860,548,24
4964,4972,5056,1376,860,548,23
4960,4968,5052,1376,860,548,23
4960,4964,5052,1376,860,548,24
4960,4964,5052,1376,860,548,23
4964,4968,5052,1376,860,548,23
4964,4968,5056,1376,860,548,24
4960,4968,5052,1376,860,548,23
4964,4976,5060,1376,860,548,23
4964,4976,5056,1376,860,548,24
4964,4972,5056,1376,860,548,23
4964,4980,5060,1376,860,548,24
4964,4980,5060,1376,860,548,23
4964,4984,5064,1376,860,548,23
4964,4984,5064,1376,860,548,24
4964,4988,5064,1376,860,548,23
4964,4992,5068,1376,860,548,23
4964,4996,5072,1376,860,548,24
4968,5000,5076,1376,860,548,23
4968,5004,5076,1376,860,548,23
4968,5008,5080,1376,860,548,24
4968,5012,5080,1376,860,548,23
4972,5020,5084,1380,860,548,23
4972,5024,5088,1376,860,548,24
4968,5024,5088,1376,860,548,23
4968,5028,5092,1376,860,548,24
4972,5036,5096,1376,860,548,23
4976,5044,5100,1376,860,548,23
4976,5044,5100,1376,860,548,24
4976,5044,5104,1380,860,552,23
4976,5048,5104,1376,860,548,23
4976,5048,5104,1376,860,548,24
4972,5036,5096,1376,860,548,23
4968,5020,5084,1376,860,548,23
4964,5004,5076,1376,860,548,24
4960,4988,5064,1376,860,548,23
4960,4976,5060,1376,860,548,23
4960,4968,5052,1376,860,548,24
4960,4964,5048,1376,860,548,23
4956,4956,5044,1376,860,548,24
4956,4952,5044,1376,860,548,23
4960,4956,5044,1376,856,548,23
4960,4956,5044,1376,856,548,24
4960,4960,5048,1376,860,548,23
4960,4960,5048,1376,860,548,23
4960,4964,5048,1376,856,548,24
4960,4968,5052,1376,860,548,23
4960,4968,5052,1376,860,548,23
4964,4972,5056,1376,860,548,24
4964,4976,5056,1376,856,548,23
4960,4976,5056,1376,860,548,23
4964,4980,5060,1376,860,548,24
4964,4984,5064,1376,860,548,23
4964,4988,5068,1376,860,548,24
4960,4992,5068,1376,860,548,23
4964,4996,5072,1376,860,548,23
4964,5004,5072,1376,860,548,24
4968,5008,5080,1376,860,548,23
4968,5012,5080,1376,860,548,23
4968,5016,5084,1376,860,548,24
4968,5020,5088,1376,860,548,23
4968,5024,5088,1376,860,548,23
4972,5032,5092,1376,860,548,24
4972,5036,5096,1376,860,548,23
4976,5044,5100,1380,860,548,23
4976,5044,5100,1376,860,548,24
4976,5052,5104,1376,860,548,23
4980,5056,5108,1376,860,548,24
4976,5048,5104,1380,860,552,23
4976,5040,5100,1376,860,552,23
4968,5024,5088,1376,860,548,24
4964,5004,5076,1380,860,552,23
4964,4992,5068,1376,860,548,23
4960,4972,5056,1380,860,548,24
4956,4960,5048,1376,860,548,23
4956,4956,5044,1376,860,548,23
4956,4948,5040,1376,860,548,24
4956,4948,5040,1376,860,548,23
4956,4948,5040,1376,860,548,23
4960,4948,5040,1376,860,548,24
4956,4948,5040,1376,860,548,23
4960,4952,5044,1376,860,548,24
4960,4960,5044,1376,860,548,23
4960,4960,5048,1376,860,548,23
4960,4960,5048,1376,860,548,24
4960,4960,5048,1376,860,548,23
4960,4964,5048,1376,860,548,23
4960,4964,5052,1376,860,548,24
4960,4968,5052,1376,860,548,23
4960,4972,5056,1376,860,548,23
4964,4980,5060,1376,860,548,24
4964,4984,5064,1376,860,548,23
4964,4988,5064,1376,860,548,23
4964,4992,5068,1376,860,548,24
4964,4992,5068,1376,860,548,23
4964,4996,5072,1376,860,548,24
4964,5000,5076,1376,860,548,23
4968,5008,5076,1376,860,548,23
4968,5012,5080,1376,860,548,24
4968,5012,5080,1376,860,548,23
4968,5020,5084,1380,860,548,23
4968,5020,5088,1376,860,548,24
4972,5028,5088,1376,860,548,23
4972,5028,5092,1376,860,548,23
4972,5032,5092,1376,860,548,24
4972,5036,5096,1376,860,548,23
4972,5032,5092,1376,860,548,23
4968,5020,5088,1376,860,548,24
4964,5012,5080,1376,860,548,23
4960,4992,5068,1376,860,548,24
4956,4972,5056,1376,860,548,23
4960,4964,5048,1376,860,548,23
4956,4952,5040,1376,860,548,24
4956,4944,5040,1376,860,548,23
4956,4940,5036,1376,856,548,23
4952,4936,5032,1376,860,548,24
4952,4940,5032,1376,856,548,23
4956,4944,5036,1376,856,548,23
4956,4948,5036,1376,856,548,24
4956,4948,5040,1376,860,548,23
4956,4952,5040,1376,860,548,23
4956,4952,5040,1376,860,548,24
4956,4952,5040,1376,860,548,23
4960,4956,5044,1376,860,548,24
4960,4956,5044,1376,860,548,23
4960,4960,5048,1376,860,548,23
4964,4968,5052,1376,860,548,24
4960,4968,5052,1376,860,548,23
4964,4976,5056,1376,860,548,23
4964,4980,5060,1376,860,548,24
4964,4984,5060,1376,860,548,23
4964,4988,5064,1376,860,548,23
4968,4996,5072,1376,860,548,24
4968,5000,5072,1376,860,548,23
4968,5000,5072,1376,860,548,23
4968,5004,5076,1376,860,548,24
4968,5008,5076,1376,860,548,23
4968,5012,5080,1376,860,548,24
4968,5016,5084,1380,860,548,23
4968,5020,5088,1376,860,548,23
4968,5028,5088,1380,860,552,24
4972,5028,5088,1380,860,552,23
4972,5032,5092,1380,860,552,23
4968,5028,5092,1380,860,552,24
4968,5016,5084,1380,860,552,23
4964,5000,5072,1380,860,552,23
4964,4988,5064,1376,860,548,24
4960,4972,5052,1376,860,548,23
4956,4964,5048,1376,860,548,23
4956,4956,5044,1376,860,548,24
4956,4952,5040,1376,860,548,23
4956,4948,5036,1376,860,548,24
4956,4948,5036,1376,860,548,23
4956,4952,5040,1376,860,548,23
4956,4952,5044,1376,860,548,24
4960,4956,5044,1376,860,548,23
4960,4960,5044,1376,860,548,23
4960,4964,5048,1376,860,548,24
4960,4964,5048,1376,860,548,23
4964,4972,5056,1376,860,548,23
4964,4976,5056,1376,860,548,24
4964,4976,5056,1376,860,548,23
4960,4976,5056,1376,860,548,23
4964,4980,5060,1380,860,548,24
4964,4984,5060,1376,860,548,23
4964,4988,5064,1376,860,548,24
4964,4992,5068,1376,860,548,23
4964,4996,5068,1380,860,548,23
4964,5000,5072,1376,860,548,24
4964,5004,5072,1376,860,548,23
4964,5008,5076,1376,860,548,23
4968,5016,5080,1376,860,548,24
4968,5020,5084,1380,860,548,23
4968,5020,5084,1380,860,552,23
4968,5024,5084,1380,860,548,24
4968,5032,5092,1380,860,552,23
4972,5036,5096,1380,860,552,23
4972,5040,5096,1380,860,552,24
4968,5040,5096,1380,860,552,23
4968,5040,5096,1380,860,552,24
4968,5032,5092,1380,860,552,23
4968,5020,5084,1380,860,552,23
4964,5004,5072,1380,860,552,24
4960,4984,5060,1380,860,552,23
4956,4968,5048,1380,860,548,23
4952,4956,5040,1376,860,548,24
4952,4948,5036,1376,860,548,23
4952,4940,5032,1380,860,548,23
4948,4936,5028,1376,860,548,24
4948,4936,5028,1376,860,548,23
4952,4936,5028,1376,860,548,23
4952,4940,5032,1376,860,548,24
4952,4944,5032,1376,860,548,23
4952,4944,5032,1376,860,548,24
4952,4944,5032,1376,860,548,23
4952,4944,5036,1376,860,548,23
4952,4948,5036,1376,860,548,24
4952,4948,5036,1376,860,548,23
4952,4952,5040,1376,860,548,23
4952,4952,5040,1376,860,548,24
4956,4960,5044,1376,860,548,23
4952,4960,5044,1376,860,548,23
4952,4960,5044,1376,860,548,24
4956,4968,5048,1376,860,548,23
4956,4972,5048,1376,860,548,23
4956,4976,5056,1376,860,548,24
4960,4984,5060,1376,860,548,23
4960,4988,5064,1376,860,548,24
4960,4992,5064,1380,860,548,23
4960,4992,5064,1376,860,548,23
4960,4996,5068,1376,860,548,24
4956,4996,5068,1376,860,548,23
4960,5000,5072,1380,860,548,23
4960,5004,5072,1376,860,548,24
4960,5004,5072,1376,860,548,23
4964,5008,5076,1376,860,548,23
4960,5012,5076,1380,860,552,24
4964,5012,5076,1376,860,548,23
4960,5004,5072,1376,860,548,23
4960,4992,5064,1376,860,548,24
4952,4972,5052,1376,860,548,23
4944,4948,5036,1376,860,548,23
4944,4932,5024,1376,860,548,24
4940,4920,5016,1376,860,548,23
4944,4916,5012,1376,860,548,24
4940,4908,5008,1376,856,548,23
4940,4904,5008,1376,856,548,23
4940,4900,5004,1376,856,548,24
4940,4904,5008,1376,856,548,23
4944,4908,5008,1376,856,548,23
4944,4912,5012,1376,856,548,24
4944,4912,5012,1376,856,548,23
4944,4912,5012,1376,856,548,23
4948,4916,5016,1376,856,548,24
4948,4916,5016,1376,856,548,23
4944,4916,5016,1376,856,548,23
4944,4916,5016,1376,860,548,24
4944,4920,5016,1376,860,548,23
4948,4924,5020,1376,856,548,24
4948,4928,5024,1376,860,548,23
4952,4932,5028,1376,860,548,23
4952,4936,5032,1376,860,548,24
4952,4940,5032,1376,860,548,23
4952,4944,5036,1376,860,548,23
4952,4944,5036,1376,860,548,24
4956,4952,5040,1376,860,548,23
4956,4956,5040,1376,860,548,23
4956,4960,5044,1376,860,548,24
4956,4960,5048,1376,860,548,23
4956,4968,5048,1376,860,548,23
4960,4972,5056,1376,860,548,24
4960,4976,5056,1376,860,548,23
4960,4980,5060,1376,860,548,24
4960,4980,5060,1376,860,548,23
4960,4980,5056,1376,860,548,23
4960,4972,5052,1376,860,548,24
4952,4952,5040,1376,860,548,23
4948,4936,5028,1376,860,548,23
4944,4916,5016,1376,860,548,24
4944,4904,5008,1376,860,548,23
4936,4892,4996,1376,856,548,23
4936,4884,4996,1376,856,548,24
4936,4880,4992,1376,856,548,23
4936,4876,4988,1376,856,548,23
4940,4880,4992,1376,856,548,24
4940,4884,4996,1376,856,548,23
4940,4888,4996,1376,856,548,24
4940,4888,4996,1376,856,548,23
4940,4892,5000,1376,856,548,23
4944,4892,5000,1376,856,548,24
4944,4896,5004,1376,856,548,23
4944,4896,5004,1376,856,548,23
4944,4900,5004,1376,860,548,24
4944,4900,5004,1376,856,548,23
4944,4900,5008,1376,856,548,23
4948,4908,5012,1376,856,548,24
4948,4908,5012,1376,856,548,23
4948,4912,5016,1376,856,548,23
4952,4920,5020,1376,856,548,24
4952,4924,5024,1376,856,548,23
4952,4928,5024,1376,860,548,24
4956,4936,5028,1376,860,548,23
4956,4940,5032,1376,860,548,23
4952,4940,5032,1376,860,548,24
4956,4944,5036,1380,860,548,23
4956,4948,5036,1376,860,548,23
4956,4952,5040,1376,860,548,24
4952,4952,5040,1376,860,548,23
4956,4960,5044,1376,860,548,23
4956,4960,5044,1376,860,548,24
4952,4960,5044,1380,860,548,23
4952,4960,5044,1376,860,548,23
4952,4952,5036,1380,860,548,24
4948,4936,5028,1380,860,548,23
4944,4920,5020,1376,860,548,24
4936,4896,5000,1376,860,548,23
4936,4884,4992,1376,860,548,23
4932,4868,4984,1376,856,548,24
4932,4860,4976,1376,856,548,23
4928,4852,4972,1376,856,548,23
4932,4852,4972,1376,856,548,24
4932,4848,4968,1376,856,548,23
4932,4852,4972,1376,856,548,23
4932,4852,4972,1376,856,548,24
4932,4856,4976,1376,856,548,23
4932,4856,4972,1376,856,548,23
4932,4860,4976,1376,856,548,24
4932,4860,4976,1376,856,548,23
4936,4864,4980,1376,856,548,24
4936,4864,4980,1376,856,548,23
4936,4868,4984,1376,856,548,23
4936,4872,4984,1376,856,548,24
4936,4872,4984,1376,856,548,23
4932,4872,4984,1376,856,548,23
4936,4880,4992,1376,856,548,24
4936,4884,4992,1376,856,548,23
4940,4892,4996,1376,856,548,23
4940,4896,5000,1376,856,548,24
4940,4900,5000,1376,856,548,23
4944,4904,5008,1376,856,548,23
4940,4908,5008,1376,856,548,24
4944,4908,5008,1376,856,548,23
4944,4916,5012,1376,856,548,24
4948,4920,5016,1376,856,548,23
4944,4924,5016,1376,856,548,23
4944,4924,5016,1376,860,548,24
4944,4928,5020,1376,856,548,23
4948,4932,5024,1376,860,548,23
4944,4936,5024,1376,860,548,24
4944,4936,5024,1376,860,548,23
4948,4936,5024,1376,860,548,23
4940,4924,5016,1376,860,548,24
4940,4904,5004,1376,860,548,23
4936,4884,4992,1376,856,548,23
4932,4868,4980,1376,856,548,24
4928,4856,4972,1376,856,548,23
4932,4848,4968,1376,856,548,24
4928,4840,4960,1376,856,548,23
4924,4832,4956,1376,856,548,23
4928,4832,4960,1376,856,548,24
4928,4832,4956,1376,856,548,23
4928,4836,4960,1376,856,548,23
4932,4840,4964,1376,856,548,24
4932,4844,4964,1376,856,548,23
4932,4844,4968,1376,856,548,23
4936,4848,4968,1376,856,548,24
4932,4848,4968,1376,856,548,23
4932,4848,4972,1376,856,548,23
4936,4856,4976,1376,856,548,24
4940,4860,4976,1376,856,548,23
4940,4860,4980,1376,856,548,24
4940,4868,4984,1376,856,548,23
4940,4868,4984,1376,856,548,23
4940,4872,4984,1376,856,548,24
4940,4876,4988,1376,856,548,23
4940,4880,4992,1376,856,548,23
4940,4888,4992,1376,856,548,24
4944,4892,4996,1376,856,548,23
4944,4896,5000,1376,856,548,23
4944,4900,5004,1376,856,548,24
4944,4904,5004,1376,856,548,23
4944,4908,5008,1376,856,548,23
4944,4912,5008,1376,856,548,24
4940,4912,5008,1376,856,548,23
4948,4920,5016,1376,860,548,24
4948,4924,5020,1376,860,548,23
4944,4920,5016,1376,860,548,23
4948,4924,5016,1376,860,548,24
4948,4912,5012,1376,860,548,23
4940,4896,5000,1376,860,548,23
4936,4876,4988,1376,860,548,24
4932,4860,4976,1376,856,548,23
4932,4852,4968,1376,856,548,23
4932,4848,4968,1376,856,548,24
4932,4840,4964,1376,856,548,23
4932,4840,4964,1376,856,548,23
4936,4840,4964,1376,856,548,24
4932,4844,4964,1376,856,548,23
4936,4848,4968,1376,856,548,24
4936,4852,4972,1376,856,548,23
4936,4856,4976,1376,856,548,23
4940,4860,4976,1376,856,548,24
4940,4864,4980,1376,856,548,23
4944,4868,4984,1376,856,548,23
4944,4872,4988,1376,856,548,24
4940,4872,4984,1376,856,548,23
4940,4876,4988,1376,856,548,23
4940,4880,4988,1376,856,548,24
4944,4884,4996,1376,856,548,23
4944,4892,4996,1376,856,548,23
4944,4896,5000,1376,856,548,24
4944,4900,5000,1376,856,548,23
4948,4904,5008,1376,856,548,24
4948,4912,5008,1376,860,548,23
4944,4912,5012,1376,860,548,23
4948,4920,5012,1376,860,548,24
4952,4928,5024,1376,860,548,23
4952,4932,5024,1376,860,548,23
4952,4936,5024,1376,860,548,24
4952,4936,5028,1380,860,548,23
4952,4944,5028,1376,860,548,23
4952,4948,5032,1376,860,548,24
4952,4952,5036,1376,860,548,23
4952,4952,5036,1380,860,548,23
4952,4948,5032,1376,860,548,24
4948,4932,5020,1376,860,548,23
4944,4916,5012,1376,860,548,24
4940,4900,5000,1376,860,548,23
4936,4880,4988,1376,856,548,23
4932,4868,4976,1376,856,548,24
4932,4860,4976,1376,856,548,23
4932,4860,4972,1376,856,548,23
4932,4856,4972,1376,856,548,24
4936,4856,4972,1376,856,548,23
4936,4860,4976,1376,856,548,23
4932,4860,4972,1376,856,548,24
4936,4868,4980,1376,856,548,23
4936,4868,4980,1376,856,548,23
4936,4868,4980,1376,856,548,24
4936,4872,4984,1376,856,548,23
4936,4876,4984,1376,856,548,23
4936,4872,4984,1376,856,548,24
4936,4880,4988,1376,856,548,23
4936,4884,4988,1376,856,548,24
4940,4888,4992,1376,856,548,23
4940,4888,4992,1376,856,548,23
4940,4896,4996,1376,856,548,24
4940,4900,5000,1376,856,548,23
4940,4900,5000,1376,856,548,23
4940,4908,5004,1376,856,548,24
4940,4912,5008,1376,856,548,23
4940,4920,5012,1376,856,548,23
4944,4924,5016,1376,856,548,24
4944,4928,5016,1376,856,548,23
4944,4932,5020,1376,856,548,23
4948,4940,5024,1376,860,548,24
4948,4944,5028,1376,860,548,23
4948,4944,5028,1376,860,548,24
4948,4948,5032,1376,860,548,23
4948,4952,5036,1376,860,548,23
4952,4956,5040,1376,860,548,24
4948,4960,5040,1376,860,548,23
4948,4956,5036,1376,860,548,23
4944,4944,5028,1376,860,548,24
4936,4924,5012,1376,860,548,23
4936,4908,5004,1376,860,548,23
4932,4892,4996,1376,860,548,24
4928,4880,4984,1376,856,548,23
4928,4872,4980,1376,856,548,23
4932,4868,4980,1376,856,548,24
4928,4868,4976,1376,856,548,23
4932,4868,4980,1376,856,548,24
4932,4868,4976,1376,856,548,23
4932,4872,4980,1376,856,548,23
4932,4876,4984,1376,856,548,24
4932,4880,4988,1376,856,548,23
4936,4880,4988,1376,856,548,23
4932,4880,4988,1376,856,548,24
4936,4888,4992,1376,856,548,23
4936,4888,4992,1376,856,548,23
4936,4888,4992,1376,856,548,24
4936,4892,4996,1376,856,548,23
4940,4900,5000,1376,856,548,23
4940,4900,5000,1376,856,548,24
4940,4908,5004,1376,860,548,23
4944,4916,5012,1376,860,548,24
4948,4920,5016,1376,860,548,23
4944,4920,5012,1376,860,548,23
4948,4928,5020,1376,860,548,24
4948,4932,5020,1376,860,548,23
4948,4936,5024,1380,860,548,23
4948,4940,5028,1380,860,548,24
4948,4944,5028,1376,860,548,23
4944,4944,5028,1376,860,548,23
4948,4948,5032,1376,860,548,24
4948,4952,5036,1380,860,552,23
4948,4956,5036,1380,860,552,23
4952,4964,5040,1380,860,548,24
4952,4964,5044,1380,860,552,23
4948,4960,5040,1380,860,552,23
4944,4944,5028,1376,860,548,24
4944,4936,5020,1376,860,548,23
4940,4916,5012,1376,860,548,24
4936,4904,5000,1376,860,548,23
4936,4892,4996,1376,860,548,23
4940,4892,4996,1376,860,548,24
4936,4884,4992,1376,860,548,23
4936,4884,4988,1376,860,548,23
4936,4884,4988,1376,860,548,24
4940,4888,4996,1376,860,548,23
4940,4892,4996,1376,860,548,23
4940,4896,5000,1376,860,548,24
4940,4896,5000,1376,860,548,23
4940,4900,5000,1376,860,548,23
4944,4904,5004,1376,860,548,24
4944,4908,5008,1376,860,548,23
4940,4908,5004,1376,860,548,24
4944,4912,5008,1376,860,548,23
4944,4916,5012,1376,860,548,23
4944,4916,5012,1376,860,548,24
4940,4920,5012,1380,860,548,23
4944,4924,5016,1376,860,548,23
4944,4928,5020,1380,860,552,24
4948,4936,5028,1376,860,548,23
4948,4944,5032,1380,860,552,23
4948,4948,5032,1380,860,552,24
4952,4952,5036,1376,860,548,23
4952,4956,5040,1376,860,548,23
4948,4960,5040,1380,860,552,24
4952,4968,5044,1380,860,552,23
4948,4964,5044,1380,860,552,24
4952,4972,5044,1380,860,552,23
4948,4972,5048,1376,860,552,23
4952,4980,5052,1376,860,552,24
4956,4984,5056,1380,860,552,23
4952,4984,5056,1380,864,552,23
4948,4976,5048,1380,864,552,24
4944,4960,5040,1380,860,552,23
4944,4948,5028,1380,864,552,23
4940,4928,5016,1380,860,552,24
4936,4912,5008,1380,860,552,23
4936,4904,5000,1380,860,552,23
4932,4896,4996,1376,860,552,24
4936,4888,4992,1376,860,548,23
4932,4880,4988,1376,860,548,24
4932,4880,4988,1376,860,548,23
4936,4884,4992,1376,860,548,23
4936,4892,4996,1376,860,548,24
4932,4892,4992,1376,860,548,23
4932,4892,4996,1376,860,548,23
4936,4896,4996,1376,860,548,24
4936,4896,4996,1376,860,548,23
4936,4896,4996,1376,860,548,23
4936,4900,5000,1376,860,548,24
4936,4904,5004,1376,860,548,23
4936,4904,5004,1376,860,548,23
4936,4908,5004,1376,860,548,24
4936,4912,5008,1376,860,548,23
4940,4916,5008,1376,860,548,24
4940,4920,5012,1376,860,548,23
4940,4924,5016,1376,860,548,23
4944,4928,5020,1376,860,548,24
4940,4932,5020,1376,860,548,23
4940,4932,5020,1376,860,548,23
4944,4940,5024,1376,860,548,24
4940,4940,5024,1380,860,552,23
4944,4944,5028,1376,860,552,23
4944,4948,5032,1376,860,552,24
4944,4948,5028,1376,860,552,23
4944,4952,5032,1376,860,552,23
4940,4952,5032,1376,860,552,24
4944,4960,5036,1376,860,552,23
4944,4964,5040,1376,860,552,24
4944,4964,5040,1376,860,552,23
4944,4960,5040,1376,860,552,23
4940,4948,5028,1380,860,552,24
4936,4928,5016,1376,860,552,23
4932,4912,5004,1376,860,552,23
4932,4900,5000,1376,860,552,24
4928,4888,4992,1376,860,552,23
4928,4884,4988,1376,860,552,23
4928,4876,4984,1376,860,548,24
4928,4872,4984,1376,860,548,23
4928,4872,4980,1376,860,548,23
4932,4876,4984,1376,860,548,24
4928,4876,4984,1376,860,548,23
4932,4880,4988,1376,860,548,24
4932,4884,4988,1376,860,548,23
4932,4884,4992,1376,860,548,23
4936,4888,4992,1376,860,548,24
4936,4888,4996,1376,860,548,23
4932,4888,4992,1376,860,548,23
4936,4892,4996,1376,860,548,24
4936,4892,4996,1376,860,548,23
4936,4896,4996,1376,860,548,23
4936,4900,5000,1376,860,548,24
4936,4904,5004,1376,860,548,23
4936,4908,5004,1376,860,548,23
4940,4916,5012,1376,860,548,24
4944,4924,5016,1376,860,548,23
4940,4920,5012,1376,860,548,24
4940,4924,5016,1376,860,552,23
4944,4936,5024,1376,860,552,23
4944,4936,5024,1376,860,552,24
4940,4940,5024,1376,860,552,23
4944,4944,5028,1376,860,552,23
4944,4948,5032,1376,860,552,24
4944,4948,5032,1376,860,552,23
4944,4952,5032,1376,860,552,23
4944,4956,5036,1376,860,552,24
4944,4952,5032,1380,860,552,23
4940,4944,5028,1376,860,552,23
4940,4932,5020,1376,860,552,24
4932,4908,5004,1376,860,552,23
4928,4892,4992,1376,860,548,24
4928,4880,4984,1376,860,548,23
4924,4872,4980,1376,860,548,23
4924,4864,4976,1376,860,548,24
4924,4860,4972,1376,860,548,23
4924,4860,4972,1376,860,548,23
4928,4860,4972,1376,860,548,24
4928,4864,4976,1376,860,548,23
4928,4868,4980,1376,860,548,23
4928,4872,4980,1376,860,548,24
4932,4876,4984,1376,860,548,23
4928,4872,4980,1376,860,548,23
4932,4876,4988,1376,860,548,24
4932,4876,4984,1376,860,548,23
4932,4880,4984,1376,860,548,24
4932,4880,4988,1376,860,548,23
4932,4884,4988,1376,860,548,23
4928,4884,4988,1376,860,548,24
4932,4892,4992,1376,860,548,23
4932,4892,4992,1376,860,548,23
4932,4900,5000,1376,860,548,24
4932,4900,5000,1376,860,548,23
4932,4904,5000,1376,860,548,23
4932,4908,5004,1376,860,548,24
4936,4916,5008,1376,860,552,23
4936,4920,5012,1376,860,548,23
4940,4924,5016,1376,860,552,24
4936,4924,5016,1376,860,552,23
4936,4928,5016,1376,860,552,24
4936,4932,5016,1376,860,552,23
4936,4932,5020,1380,860,552,23
4940,4940,5024,1376,860,552,24
4936,4940,5024,1376,860,552,23
4936,4940,5024,1376,860,552,23
4940,4932,5024,1376,860,552,24
4936,4916,5012,1376,860,552,23
4928,4896,4996,1376,860,552,23
4924,4876,4980,1376,860,552,24
4920,4856,4968,1376,860,548,23
4916,4844,4960,1376,860,548,23
4916,4836,4952,1376,860,548,24
4916,4828,4948,1376,860,548,23
4916,4828,4952,1376,860,548,23
4916,4824,4948,1376,856,548,24
4916,4824,4948,1376,856,548,23
4916,4828,4952,1376,856,548,24
4916,4828,4952,1376,856,548,23
4920,4832,4952,1376,856,548,23
4920,4836,4956,1376,856,548,24
4920,4836,4956,1376,856,548,23
4920,4836,4956,1376,856,548,23
4924,4840,4960,1376,856,548,24
4920,4840,4960,1376,856,548,23
4924,4844,4964,1376,856,548,23
4924,4848,4968,1376,856,548,24
4928,4856,4968,1376,856,548,23
4928,4856,4972,1376,860,548,23
4924,4860,4972,1376,860,548,24
4928,4864,4976,1376,860,548,23
4928,4868,4976,1376,860,548,24
4928,4868,4976,1376,860,548,23
4928,4872,4980,1376,860,548,23
4932,4880,4988,1376,860,548,24
4928,4880,4984,1376,860,548,23
4928,4884,4988,1376,860,548,23
4932,4888,4992,1376,860,548,24
4932,4892,4996,1376,860,548,23
4932,4892,4996,1376,860,548,23
4932,4896,4996,1376,860,548,24
4936,4904,5000,1376,860,548,23
4932,4904,5000,1376,860,548,23
4936,4904,5004,1376,860,548,24
4932,4896,4996,1376,860,548,23
4928,4884,4988,1376,860,548,23
4924,4864,4976,1376,860,548,24
4920,4844,4960,1376,860,548,23
4916,4828,4952,1376,860,548,24
4912,4816,4940,1376,856,548,23
4916,4808,4940,1376,856,548,23
4916,4804,4936,1376,856,548,24
4912,4796,4928,1376,856,548,23
4916,4800,4932,1376,856,548,23
4916,4804,4936,1376,856,548,24
4916,4804,4936,1376,856,548,23
4916,4808,4940,1376,856,548,23
4920,4812,4940,1376,856,548,24
4920,4812,4940,1376,856,548,23
4920,4812,4940,1376,856,548,24
4916,4808,4940,1376,856,548,23
4920,4816,4944,1376,856,548,23
4920,4816,4944,1376,856,548,24
4920,4820,4944,1376,856,548,23
4920,4820,4948,1376,856,548,23
4924,4828,4952,1376,856,548,24
4924,4832,4956,1376,856,548,23
4924,4836,4956,1376,856,548,23
4924,4844,4964,1376,856,548,24
4924,4848,4964,1376,856,548,23
4924,4848,4964,1376,856,548,23
4924,4852,4968,1376,856,548,24
4924,4856,4968,1376,856,548,23
4924,4860,4968,1376,856,548,23
4928,4864,4976,1376,856,548,24
4932,4872,4980,1376,856,548,23
4932,4876,4984,1376,856,548,24
4932,4880,4988,1376,860,548,23
4936,4884,4992,1376,856,548,23
4936,4888,4992,1376,860,548,24
4932,4884,4988,1376,860,548,23
4932,4880,4988,1376,860,548,23
4928,4864,4976,1376,860,548,24
4924,4848,4968,1376,860,548,23
4920,4832,4956,1376,856,548,23
4916,4816,4944,1376,856,548,24
4916,4808,4940,1376,856,548,23
4916,4800,4932,1376,856,548,23
4916,4796,4932,1376,856,548,24
4916,4796,4928,1376,856,548,23
4916,4796,4928,1376,856,548,24
4916,4796,4932,1376,856,548,23
4916,4800,4932,1376,856,548,23
4916,4808,4936,1376,856,548,24
4916,4808,4940,1376,856,548,23
4916,4812,4940,1376,856,548,23
4920,4812,4944,1376,856,548,24
4920,4816,4944,1376,856,548,23
4920,4820,4944,1376,856,548,23
4920,4820,4948,1376,856,548,24
4920,4828,4952,1376,856,548,23
4920,4828,4952,1376,856,548,23
4920,4832,4952,1376,856,548,24
4924,4840,4960,1376,856,548,23
4924,4844,4964,1376,856,548,24
4924,4852,4968,1376,856,548,23
4928,4860,4972,1376,856,548,23
4928,4864,4972,1376,856,548,24
4928,4864,4976,1376,856,548,23
4928,4872,4980,1376,856,548,23
4928,4872,4980,1376,856,548,24
4928,4876,4980,1376,856,548,23
4928,4880,4984,1376,860,548,23
4928,4884,4988,1376,860,548,24
4932,4888,4992,1376,860,548,23
4928,4892,4992,1376,860,548,23
4932,4900,4996,1376,860,548,24
4928,4892,4992,1376,860,548,23
4928,4880,4988,1376,860,548,24
4924,4860,4972,1376,856,548,23
4920,4844,4960,1376,856,548,23
4916,4824,4948,1376,856,548,24
4912,4812,4940,1376,856,548,23
4912,4804,4936,1376,856,548,23
4912,4800,4932,1376,856,548,24
4912,4796,4928,1376,856,548,23
4912,4796,4928,1376,856,548,23
4912,4796,4928,1376,856,548,24
4916,4800,4932,1372,856,548,23
4912,4804,4936,1376,856,548,23
4912,4804,4936,1376,856,548,24
4916,4812,4940,1376,856,548,23
4916,4812,4940,1376,856,548,24
4916,4816,4944,1376,856,548,23
4916,4812,4940,1372,856,548,23
4916,4816,4944,1372,856,548,24
4916,4820,4948,1376,856,548,23
4920,4828,4948,1376,856,548,23
4920,4828,4952,1372,856,548,24
4920,4832,4952,1376,856,548,23
4920,4840,4956,1376,856,548,23
4920,4840,4960,1376,856,548,24
4920,4848,4964,1376,856,548,23
4924,4852,4968,1376,856,548,23
4920,4856,4968,1376,856,548,24
4924,4864,4972,1376,856,548,23
4928,4864,4976,1376,856,548,23
4928,4872,4980,1376,856,548,24
4932,4876,4984,1376,856,548,23
4932,4880,4988,1376,856,548,24
4928,4884,4988,1376,856,548,23
4928,4884,4988,1376,856,548,23
4928,4888,4992,1376,856,548,24
4928,4892,4992,1376,856,548,23
4932,4896,4996,1376,856,548,23
4928,4892,4992,1376,856,548,24
4928,4888,4988,1376,856,548,23
4924,4868,4976,1376,856,548,23
4920,4848,4964,1376,856,548,24
4916,4828,4952,1376,856,548,23
4912,4816,4940,1376,856,548,23
4912,4804,4936,1376,856,548,24
4912,4800,4932,1376,856,548,23
4912,4796,4928,1372,856,548,24
4908,4788,4924,1372,852,548,23
4912,4788,4924,1372,852,548,23
4912,4792,4928,1372,852,548,24
4916,4796,4932,1376,856,548,23
4916,4800,4936,1376,856,548,23
4916,4804,4940,1376,856,548,24
4916,4808,4940,1376,856,548,23
4916,4808,4940,1372,856,548,23
4916,4808,4940,1376,856,548,24
4916,4812,4940,1376,856,548,23
4916,4816,4944,1376,856,548,23
4920,4820,4948,1376,856,548,24
4920,4824,4948,1376,856,548,23
4920,4824,4952,1376,856,548,24
4920,4828,4952,1376,856,548,23
4920,4832,4952,1376,856,548,23
4920,4836,4956,1376,856,548,24
4924,4844,4960,1376,856,548,23
4924,4848,4964,1376,856,548,23
4924,4852,4968,1376,856,548,24
4924,4852,4968,1376,856,548,23
4928,4860,4972,1376,856,548,23
4924,4860,4972,1376,856,548,24
4924,4864,4976,1376,856,548,23
4924,4864,4976,1376,856,548,23
4928,4872,4980,1376,856,548,24
4928,4872,4980,1376,856,548,23
4928,4876,4984,1376,856,548,24
4928,4880,4984,1376,856,548,23
4928,4876,4984,1376,856,548,23
4924,4864,4976,1376,856,548,24
4920,4848,4964,1376,856,548,23
4920,4832,4956,1376,856,548,23
4916,4812,4940,1376,856,548,24
4916,4804,4936,1376,856,548,23
4912,4792,4928,1376,856,548,23
4912,4788,4924,1372,856,548,24
4908,4780,4920,1372,852,548,23
4916,4788,4928,1372,852,548,23
4916,4792,4928,1372,852,548,24
4916,4792,4932,1372,852,548,23
4916,4796,4932,1376,856,548,23
4916,4804,4936,1372,852,548,24
4920,4804,4936,1372,852,548,23
4916,4804,4940,1372,852,548,24
4916,4804,4940,1376,856,548,23
4916,4808,4940,1376,856,548,23
4920,4816,4944,1376,856,548,24
4920,4820,4948,1376,856,548,23
4916,4816,4948,1376,856,548,23
4920,4824,4952,1376,856,548,24
4924,4832,4956,1376,856,548,23
4924,4836,4956,1376,856,548,23
4920,4840,4956,1376,856,548,24
4924,4844,4964,1376,856,548,23
4924,4848,4964,1376,856,548,23
4924,4852,4968,1376,856,548,24
4924,4856,4972,1376,856,548,23
4924,4860,4972,1376,856,548,24
4928,4868,4980,1376,856,548,23
4928,4872,4984,1376,856,548,23
4928,4876,4984,1376,856,548,24
4928,4880,4984,1376,856,548,23
4928,4880,4988,1376,856,548,23
4928,4884,4988,1376,856,548,24
4928,4888,4988,1376,856,548,23
4924,4876,4984,1376,856,548,23
4924,4868,4980,1376,856,548,24
4920,4848,4964,1376,856,548,23
4920,4832,4956,1376,856,548,24
4916,4816,4944,1376,856,548,23
4916,4808,4940,1376,856,548,23
4912,4796,4932,1376,856,548,24
4912,4792,4928,1376,856,548,23
4912,4788,4928,1372,852,548,23
4908,4784,4924,1372,852,548,24
4912,4788,4928,1372,852,548,23
4912,4796,4928,1372,852,548,23
4912,4800,4932,1372,852,548,24
4908,4796,4932,1372,852,548,23
4912,4800,4932,1372,852,548,23
4912,4804,4936,1372,852,548,24
4912,4808,4940,1372,852,548,23
4916,4812,4944,1372,856,548,24
4916,4812,4940,1372,856,548,23
4916,4816,4944,1372,856,548,23
4916,4820,4948,1372,856,548,24
4920,4828,4952,1376,856,548,23
4920,4828,4952,1376,856,548,23
4920,4836,4956,1376,856,548,24
4920,4840,4960,1372,856,548,23
4924,4844,4964,1376,856,548,23
4924,4852,4968,1376,856,548,24
4924,4852,4968,1376,856,548,23
4920,4852,4968,1376,856,548,23
4924,4860,4976,1376,856,548,24
4920,4860,4972,1376,856,548,23
4924,4868,4976,1376,856,548,24
4924,4868,4976,1376,856,548,23
4924,4876,4984,1376,856,548,23
4924,4880,4984,1376,856,548,24
4924,4880,4988,1376,856,548,23
4924,4884,4984,1376,856,548,23
4924,4884,4984,1376,856,548,24
4920,4880,4984,1376,856,548,23
4920,4864,4972,1376,856,548,23
4920,4848,4964,1376,856,548,24
4916,4832,4952,1376,856,548,23
4912,4816,4944,1376,856,548,23
4908,4804,4936,1376,856,548,24
4904,4792,4928,1376,856,548,23
4900,4784,4920,1372,856,548,24
4904,4784,4924,1372,852,548,23
4904,4784,4920,1372,852,548,23
4908,4784,4924,1372,852,548,24
4908,4788,4924,1372,852,548,23
4908,4788,4928,1372,852,548,23
4908,4792,4928,1372,852,548,24
4908,4792,4928,1372,852,548,23
4908,4796,4928,1372,852,548,23
4908,4796,4932,1372,852,548,24
4912,4800,4932,1376,856,548,23
4912,4804,4936,1372,856,548,23
4908,4804,4936,1372,856,548,24
4912,4808,4940,1372,856,548,23
4912,4812,4940,1372,856,548,23
4912,4816,4944,1372,856,548,24
4912,4820,4944,1372,856,548,23
4916,4828,4952,1376,856,548,24
4912,4828,4952,1376,856,548,23
4916,4836,4956,1376,856,548,23
4916,4840,4960,1376,856,548,24
4916,4844,4964,1376,856,548,23
4920,4852,4968,1376,856,548,23
4920,4852,4968,1376,856,548,24
4920,4856,4968,1376,856,548,23
4920,4860,4972,1376,856,548,23
4924,4864,4976,1376,856,548,24
4924,4868,4980,1376,856,548,23
4920,4868,4980,1376,856,548,23
4920,4872,4980,1376,856,548,24
4924,4880,4984,1376,856,548,23
4924,4876,4984,1376,856,548,24
4924,4868,4980,1376,856,548,23
4920,4848,4968,1376,856,548,23
4916,4832,4952,1376,856,548,24
4916,4820,4948,1372,856,548,23
4908,4804,4936,1376,856,548,23
4908,4796,4932,1372,856,548,24
4912,4792,4932,1372,856,548,23
4908,4788,4928,1372,856,548,23
4908,4788,4928,1372,852,548,24
4908,4788,4928,1372,856,548,23
4912,4792,4928,1372,852,548,23
4916,4800,4936,1372,852,548,24
4912,4804,4936,1372,856,548,23
4916,4804,4940,1372,856,548,24
4916,4808,4940,1372,856,548,23
4912,4808,4940,1372,856,548,23
4916,4808,4940,1376,856,548,24
4912,4808,4940,1376,856,548,23
4916,4812,4944,1376,856,548,23
4916,4816,4944,1376,856,548,24
4916,4820,4948,1376,856,548,23
4916,4824,4952,1376,856,548,23
4916,4828,4952,1376,856,548,24
4916,4836,4952,1376,856,548,23
4916,4840,4956,1376,856,548,23
4916,4844,4960,1376,856,548,24
4920,4848,4964,1376,856,548,23
4916,4852,4964,1376,856,548,24
4920,4856,4968,1376,856,548,23
4920,4860,4972,1376,856,548,23
4920,4864,4976,1376,856,548,24
4924,4868,4980,1376,856,548,23
4924,4872,4980,1376,856,548,23
4924,4876,4984,1376,856,548,24
4924,4880,4984,1376,856,548,23
4924,4880,4984,1376,856,548,23
4924,4876,4984,1376,856,548,24
4924,4864,4976,1376,856,548,23
4916,4844,4964,1376,856,548,23
4912,4828,4952,1376,856,548,24
4908,4808,4936,1376,856,548,23
4908,4800,4932,1376,856,548,24
4908,4792,4928,1376,856,548,23
4908,4788,4924,1376,856,548,23
4908,4788,4924,1376,856,548,24
4908,4788,4924,1376,856,548,23
4912,4792,4928,1376,856,548,23
4912,4796,4928,1376,856,548,24
4912,4796,4928,1376,856,548,23
4912,4800,4932,1376,856,548,23
4912,4800,4932,1376,856,548,24
4912,4804,4936,1376,856,548,23
4912,4804,4936,1376,856,548,23
4916,4812,4944,1376,856,548,24
4916,4812,4940,1376,856,548,23
4916,4816,4944,1376,856,548,24
4916,4816,4944,1376,856,548,23
4916,4820,4944,1376,856,548,23
4916,4828,4952,1376,856,548,24
4916,4828,4952,1376,856,548,23
4916,4836,4956,1376,856,548,23
4916,4840,4956,1376,856,548,24
4916,4840,4960,1376,856,548,23
4916,4848,4960,1376,856,548,23
4916,4852,4964,1376,856,548,24
4920,4856,4968,1376,856,548,23
4920,4860,4972,1376,856,548,23
4920,4864,4972,1376,856,548,24
4920,4868,4976,1376,856,548,23
4916,4868,4972,1376,856,548,24
4916,4872,4976,1376,856,548,23
4920,4876,4980,1376,856,548,23
4920,4880,4980,1376,856,548,24
4920,4884,4984,1376,856,548,23
4920,4880,4980,1376,856,548,23
4916,4868,4976,1376,856,548,24
4912,4848,4960,1376,856,548,23
4912,4832,4952,1376,856,548,23
4908,4812,4936,1376,856,548,24
4904,4800,4928,1376,856,548,23
4900,4788,4920,1376,856,548,23
4900,4780,4916,1372,856,548,24
4900,4776,4912,1376,856,548,23
4900,4772,4912,1372,856,548,24
4900,4772,4912,1372,852,548,23
4900,4776,4916,1376,856,548,23
4904,4780,4920,1372,852,548,24
4904,4784,4920,1376,856,548,23
4904,4788,4924,1376,856,548,23
4904,4788,4924,1372,852,548,24
4908,4792,4924,1372,856,548,23
4908,4792,4928,1372,852,548,23
4904,4792,4924,1376,856,548,24
4908,4796,4928,1372,852,548,23
4908,4800,4928,1372,856,548,23
4908,4800,4932,1376,856,548,24
4908,4808,4936,1376,856,548,23
4908,4812,4940,1376,856,548,23
4912,4816,4944,1372,852,548,24
4912,4820,4944,1376,856,548,23
4912,4824,4948,1372,856,548,24
4912,4828,4952,1372,856,548,23
4912,4832,4952,1372,856,548,23
4916,4840,4956,1372,856,548,24
4916,4840,4960,1376,856,548,23
4916,4844,4964,1376,856,548,23
4920,4852,4964,1376,856,548,24
4916,4852,4964,1376,856,548,23
4920,4856,4968,1372,856,548,23
4920,4864,4972,1376,856,548,24
4920,4864,4976,1376,856,548,23
4920,4868,4976,1376,856,548,23
4920,4872,4976,1376,856,548,24
4920,4864,4972,1376,856,548,23
4916,4848,4964,1376,856,548,24
4912,4828,4948,1376,856,548,23
4912,4812,4940,1376,856,548,23
4908,4796,4932,1376,856,548,24
4904,4788,4924,1372,856,548,23
4904,4780,4920,1376,856,548,23
4904,4776,4920,1372,852,548,24
4904,4776,4916,1372,852,548,23
4908,4780,4920,1376,852,548,23
4904,4780,4916,1376,852,548,24
4908,4784,4920,1372,852,548,23
4908,4788,4924,1372,852,548,23
4912,4792,4928,1372,852,548,24
4912,4796,4928,1376,852,548,23
4912,4800,4936,1372,852,548,24
4912,4800,4932,1376,852,548,23
4912,4800,4936,1372,852,548,23
4912,4804,4936,1376,856,548,24
4912,4808,4940,1372,852,548,23
4912,4812,4940,1372,852,548,23
4916,4816,4944,1376,856,548,24
4916,4820,4948,1376,856,548,23
4912,4824,4948,1372,856,548,23
4912,4828,4948,1376,856,548,24
4916,4832,4952,1376,856,548,23
4916,4840,4956,1376,856,548,23
4916,4844,4960,1376,856,548,24
4920,4852,4968,1376,856,548,23
4920,4852,4968,1376,856,548,24
4920,4860,4972,1376,856,548,23
4920,4860,4972,1376,856,548,23
4920,4864,4976,1376,856,548,24
4924,4872,4976,1376,856,548,23
4920,4872,4980,1376,856,548,23
4924,4880,4984,1376,856,548,24
4920,4880,4984,1376,856,548,23
4920,4876,4980,1376,856,548,23
4920,4868,4976,1376,856,548,24
4916,4852,4964,1376,856,548,23
4908,4832,4952,1376,856,548,23
4904,4812,4936,1376,856,548,24
4908,4804,4936,1376,856,548,23
4904,4792,4928,1376,856,548,24
4900,4784,4920,1372,852,548,23
4900,4780,4920,1376,852,548,23
4900,4776,4916,1372,852,548,24
4900,4780,4916,1372,852,548,23
4904,4784,4920,1376,852,548,23
4908,4788,4928,1372,852,548,24
4908,4792,4928,1372,852,548,23
4908,4792,4928,1372,852,548,23
4908,4792,4928,1376,852,548,24
4908,4796,4932,1376,852,548,23
4908,4800,4932,1372,852,548,23
4908,4800,4932,1372,852,548,24
4908,4804,4932,1376,852,548,23
4908,4808,4936,1376,852,548,24
4908,4808,4936,1376,852,548,23
4904,4812,4936,1376,852,548,23
4908,4816,4944,1376,856,548,24
4912,4824,4948,1376,852,548,23
4912,4828,4952,1376,856,548,23
4912,4832,4952,1376,856,548,24
4912,4836,4952,1376,856,548,23
4912,4840,4956,1376,856,548,23
4916,4844,4960,1376,856,548,24
4912,4844,4960,1376,856,548,23
4912,4848,4960,1376,856,548,23
4916,4856,4968,1376,856,548,24
4916,4860,4968,1376,856,548,23
4916,4864,4972,1376,856,548,24
4916,4864,4972,1376,856,548,23
4916,4868,4972,1376,856,548,23
4916,4872,4976,1376,856,548,24
4916,4872,4976,1376,856,548,23
4916,4868,4976,1376,856,548,23
4912,4860,4968,1376,856,548,24
4908,4840,4956,1376,856,548,23
4904,4820,4944,1376,856,548,23
4900,4800,4928,1376,852,548,24
4900,4784,4920,1376,852,548,23
4892,4772,4912,1376,852,548,23
4896,4764,4904,1372,852,548,24
4896,4760,4904,1372,852,548,23
4896,4760,4904,1372,852,548,24
4896,4760,4904,1372,852,548,23
4900,4764,4908,1372,852,548,23
4900,4764,4908,1372,852,548,24
4900,4768,4912,1372,852,544,23
4900,4768,4912,1372,852,548,23
4900,4768,4912,1372,852,548,24
4896,4764,4908,1372,852,544,23
4900,4768,4912,1372,852,548,23
4904,4772,4916,1372,852,544,24
4904,4772,4916,1372,852,544,23
4900,4772,4912,1372,852,548,23
4900,4772,4912,1372,852,544,24
4900,4780,4916,1372,852,548,23
4904,4784,4920,1372,852,548,24
4900,4784,4920,1372,852,544,23
4900,4784,4920,1372,852,544,23
4904,4788,4924,1372,852,544,24
4904,4792,4928,1372,852,544,23
4908,4800,4932,1372,852,544,23
4904,4800,4932,1372,852,544,24
4904,4800,4932,1372,852,548,23
4908,4808,4936,1372,852,548,23
4908,4808,4936,1372,852,544,24
4908,4812,4936,1372,852,548,23
4904,4812,4936,1372,852,548,23
4908,4816,4940,1372,852,548,24
4912,4820,4948,1372,852,548,23
4908,4816,4944,1372,852,548,24
4908,4816,4944,1376,852,548,23
4904,4808,4936,1372,852,548,23
4904,4796,4932,1372,852,548,24
4900,4780,4920,1372,852,544,23
4896,4760,4908,1372,852,544,23
4896,4748,4896,1372,852,544,24
4892,4736,4888,1372,852,544,23
4892,4724,4884,1372,848,544,23
4888,4716,4876,1372,848,544,24
4888,4716,4876,1372,848,544,23
4892,4716,4876,1372,848,544,23
4892,4716,4876,1372,848,544,24
4892,4716,4876,1372,848,544,23
4892,4720,4880,1372,848,544,24
4892,4724,4880,1372,848,544,23
4892,4728,4884,1372,848,544,23
4896,4728,4884,1372,848,544,24
4896,4728,4884,1372,848,544,23
4896,4732,4888,1372,848,544,23
4896,4732,4888,1372,848,544,24
4896,4736,4888,1372,852,544,23
4896,4740,4892,1372,848,544,23
4900,4744,4896,1372,848,544,24
4900,4752,4900,1372,852,544,23
4896,4752,4904,1372,848,544,23
4900,4760,4908,1372,852,544,24
4900,4764,4908,1372,852,544,23
4904,4772,4912,1372,852,544,24
4904,4776,4916,1372,852,544,23
4900,4776,4916,1372,852,544,23
4900,4780,4920,1372,852,544,24
4904,4788,4924,1372,852,544,23
4904,4788,4924,1372,852,544,23
4904,4792,4928,1372,852,548,24
4908,4800,4932,1372,852,548,23
4908,4804,4936,1372,852,544,23
4908,4808,4936,1372,852,548,24
4908,4804,4932,1372,852,544,23
4900,4788,4924,1372,852,548,23
4900,4772,4912,1372,852,544,24
4896,4756,4904,1372,852,544,23
4892,4740,4892,1372,848,544,24
4892,4728,4884,1372,848,544,23
4892,4724,4884,1372,848,544,23
4888,4716,4876,1372,848,544,24
4888,4716,4876,1372,848,544,23
4892,4716,4880,1372,848,544,23
4892,4716,4876,1372,848,544,24
4888,4720,4880,1372,848,544,23
4892,4724,4884,1372,848,544,23
4892,4728,4888,1372,848,544,24
4896,4732,4888,1372,848,544,23
4896,4736,4892,1372,848,544,23
4896,4736,4892,1372,848,544,24
4896,4740,4892,1372,848,544,23
4896,4740,4896,1372,848,544,23
4896,4744,4896,1372,848,544,24
4900,4748,4900,1372,848,544,23
4896,4748,4900,1372,848,544,24
4896,4756,4904,1372,848,544,23
4896,4760,4904,1372,848,544,23
4900,4764,4908,1372,848,544,24
4900,4768,4908,1372,848,544,23
4900,4772,4912,1372,848,544,23
4900,4772,4912,1372,848,544,24
4900,4776,4916,1372,852,544,23
4900,4780,4920,1372,852,544,23
4900,4784,4920,1372,852,544,24
4900,4788,4920,1372,852,544,23
4904,4792,4924,1372,852,544,23
4904,4796,4928,1372,852,544,24
4904,4796,4928,1372,852,544,23
4904,4800,4932,1372,852,544,24
4904,4804,4932,1372,852,544,23
4900,4800,4932,1372,852,544,23
4900,4788,4924,1372,852,544,24
4896,4768,4912,1372,852,544,23
4892,4752,4900,1372,852,544,23
4888,4732,4888,1372,848,544,24
4888,4716,4876,1372,848,544,23
4884,4708,4872,1372,848,544,23
4888,4704,4868,1372,848,544,24
4884,4700,4864,1372,848,544,23
4880,4696,4860,1372,848,544,23
4884,4696,4860,1372,848,544,24
4884,4696,4860,1372,848,544,23
4884,4700,4864,1372,848,544,24
4884,4704,4868,1372,848,544,23
4884,4708,4868,1372,848,544,23
4884,4708,4868,1372,848,544,24
4884,4708,4872,1372,848,544,23
4884,4712,4872,1372,848,544,23
4888,4712,4872,1372,848,544,24
4884,4712,4872,1372,848,544,23
4884,4716,4872,1372,848,544,23
4884,4716,4872,1372,848,544,24
4884,4720,4876,1372,848,544,23
4888,4728,4880,1372,848,544,23
4888,4728,4884,1372,848,544,24
4888,4732,4884,1372,848,544,23
4888,4736,4888,1372,848,544,24
4888,4740,4888,1372,848,544,23
4888,4744,4892,1372,848,544,23
4888,4748,4896,1372,848,544,24
4892,4752,4896,1372,848,544,23
4888,4752,4896,1372,848,544,23
4892,4760,4900,1372,848,544,24
4888,4760,4904,1372,848,544,23
4888,4760,4904,1372,848,544,23
4888,4764,4904,1372,848,544,24
4888,4768,4908,1372,848,544,23
4892,4772,4912,1372,848,544,23
4892,4772,4912,1372,848,544,24
4892,4768,4908,1372,848,544,23
4888,4752,4900,1372,848,544,24
4884,4736,4888,1372,848,544,23
4884,4716,4876,1372,848,544,23
4880,4704,4864,1372,848,544,24
4880,4692,4860,1372,848,544,23
4876,4684,4852,1368,848,544,23
4876,4676,4848,1372,848,544,24
4872,4672,4844,1368,848,544,23
4876,4676,4848,1368,848,544,23
4880,4680,4852,1368,848,544,24
4880,4684,4856,1368,848,544,23
4876,4684,4852,1368,848,544,23
4880,4688,4856,1368,848,544,24
4880,4692,4856,1368,848,544,23
4880,4692,4860,1368,848,544,24
4880,4692,4856,1372,848,544,23
4880,4696,4864,1368,848,544,23
4880,4696,4860,1372,848,544,24
4880,4696,4864,1368,848,544,23
4880,4700,4864,1372,848,544,23
4884,4708,4868,1368,848,544,24
4884,4708,4868,1372,848,544,23
4888,4716,4876,1368,848,544,23
4884,4716,4876,1372,848,544,24
4888,4720,4880,1372,848,544,23
4888,4728,4884,1372,848,544,23
4888,4732,4884,1372,848,544,24
4888,4732,4884,1372,848,544,23
4888,4736,4888,1372,848,544,23
4892,4740,4892,1372,848,544,24
4888,4744,4892,1372,848,544,23
4892,4748,4896,1372,848,544,24
4888,4748,4896,1372,848,544,23
4888,4752,4896,1372,848,544,23
4892,4756,4900,1372,852,544,24
4896,4760,4904,1372,848,544,23
4892,4760,4904,1372,852,544,23
4888,4748,4896,1372,852,544,24
4888,4732,4888,1372,852,544,23
4884,4716,4872,1372,848,544,23
4880,4696,4864,1372,848,544,24
4876,4684,4852,1372,848,544,23
4876,4680,4848,1372,848,544,23
4876,4672,4848,1372,848,544,24
4876,4672,4844,1372,848,544,23
4876,4668,4844,1372,848,544,24
4872,4668,4844,1372,848,544,23
4872,4672,4844,1372,848,544,23
4876,4676,4848,1372,848,544,24
4876,4684,4852,1372,848,544,23
4880,4688,4856,1372,848,544,23
4876,4684,4852,1372,848,544,24
4876,4684,4852,1372,848,544,23
4876,4688,4856,1372,848,544,23
4880,4692,4856,1372,848,544,24
4880,4696,4860,1372,848,544,23
4880,4696,4860,1372,848,544,23
4876,4700,4860,1372,848,544,24
4880,4704,4864,1372,848,544,23
4876,4708,4864,1372,848,544,24
4880,4716,4872,1372,848,544,23
4880,4716,4872,1372,848,544,23
4884,4720,4876,1372,848,544,24
4884,4728,4880,1372,852,544,23
4884,4732,4884,1372,852,544,23
4888,4736,4884,1372,852,544,24
4884,4740,4888,1372,852,544,23
4884,4740,4884,1372,852,544,23
4888,4748,4892,1372,852,544,24
4888,4752,4896,1372,852,544,23
4888,4752,4896,1372,852,544,23
4888,4756,4900,1372,852,544,24
4888,4756,4900,1372,852,548,23
4884,4748,4896,1372,852,548,23
4884,4740,4888,1372,852,548,24
4880,4720,4876,1372,852,544,23
4876,4700,4860,1372,852,548,24
4876,4688,4852,1372,852,548,23
4872,4676,4844,1372,852,544,23
4872,4668,4840,1372,852,544,24
4872,4664,4836,1372,848,544,23
4868,4660,4836,1372,848,544,23
4872,4660,4832,1372,848,544,24
4872,4664,4836,1372,848,544,23
4876,4668,4840,1372,848,544,23
4872,4672,4844,1372,848,544,24
4876,4676,4848,1372,848,544,23
4876,4676,4848,1372,848,544,24
4872,4676,4844,1372,848,544,23
4876,4684,4852,1372,848,544,23
4876,4684,4852,1372,852,544,24
4876,4684,4852,1372,848,544,23
4876,4684,4852,1372,848,544,23
4872,4688,4852,1372,852,544,24
4876,4692,4856,1372,852,544,23
4876,4696,4860,1372,852,544,23
4876,4700,4864,1372,852,544,24
4876,4704,4864,1372,852,544,23
4876,4712,4868,1372,852,544,23
4880,4712,4868,1372,852,544,24
4880,4720,4872,1372,852,544,23
4880,4724,4876,1372,852,544,24
4880,4724,4876,1372,852,544,23
4880,4728,4880,1372,852,548,23
4880,4732,4884,1372,852,544,24
4884,4736,4884,1372,852,548,23
4884,4740,4884,1372,852,544,23
4880,4740,4888,1372,852,544,24
4884,4748,4892,1372,852,548,23
4884,4752,4896,1372,852,548,23
4884,4752,4896,1372,852,548,24
4884,4748,4892,1372,852,548,23
4880,4736,4884,1372,852,548,23
4876,4716,4872,1372,852,548,24
4876,4704,4864,1372,852,548,23
4868,4680,4848,1372,852,544,24
4868,4668,4840,1372,852,544,23
4868,4660,4832,1372,852,544,23
4864,4652,4828,1372,852,544,24
4864,4648,4824,1372,852,544,23
4868,4648,4828,1372,848,544,23
4868,4648,4824,1372,848,544,24
4868,4652,4828,1372,848,544,23
4868,4656,4832,1372,848,544,23
4868,4660,4832,1372,848,544,24
4872,4664,4840,1372,848,544,23
4868,4660,4836,1372,852,544,23
4872,4664,4836,1372,852,544,24
4872,4668,4840,1372,848,544,23
4872,4668,4844,1372,852,544,24
4872,4668,4840,1372,852,544,23
4868,4672,4840,1372,852,544,23
4872,4676,4844,1372,852,544,24
4872,4680,4852,1372,852,544,23
4872,4684,4852,1372,852,544,23
4872,4688,4856,1372,852,544,24
4876,4696,4856,1372,852,548,23
4880,4700,4864,1372,852,548,23
4876,4704,4864,1372,852,548,24
4876,4704,4864,1372,852,548,23
4876,4712,4868,1372,852,548,23
4876,4712,4868,1372,852,548,24
4876,4716,4872,1372,852,548,23
4880,4720,4876,1372,852,548,23
4880,4724,4880,1372,852,548,24
4884,4728,4880,1372,852,548,23
4880,4732,4880,1372,852,548,24
4880,4732,4880,1372,852,548,23
4884,4740,4888,1372,852,548,23
4880,4740,4888,1372,852,548,24
4880,4732,4884,1372,852,548,23
4880,4720,4876,1372,852,548,23
4876,4700,4864,1372,852,548,24
4876,4684,4856,1372,852,548,23
4872,4672,4844,1372,852,548,23
4868,4660,4832,1372,852,548,24
4868,4652,4828,1372,852,548,23
4864,4648,4828,1372,852,548,24
4864,4644,4824,1372,852,548,23
4868,4648,4824,1372,852,544,23
4868,4652,4828,1372,852,548,24
4868,4656,4832,1372,852,548,23
4868,4660,4832,1372,852,548,23
4872,4664,4840,1372,852,548,24
4868,4664,4836,1372,852,544,23
4868,4664,4836,1372,852,548,23
4868,4668,4840,1372,852,548,24
4868,4668,4840,1372,852,548,23
4868,4672,4844,1372,852,548,23
4872,4676,4848,1372,852,548,24
4872,4680,4848,1372,852,548,23
4868,4684,4848,1372,852,548,24
4872,4688,4852,1372,852,548,23
4872,4696,4856,1372,852,548,23
4876,4700,4860,1372,852,548,24
4872,4700,4860,1372,852,548,23
4872,4708,4864,1372,852,548,23
4876,4712,4868,1372,852,548,24
4872,4712,4868,1372,852,548,23
4876,4716,4872,1372,852,548,23
4876,4720,4872,1372,852,548,24
4876,4724,4876,1372,852,548,23
4880,4732,4880,1372,852,548,23
4876,4732,4880,1372,852,548,24
4880,4736,4884,1372,852,548,23
4876,4740,4884,1372,852,548,24
4880,4740,4884,1372,856,548,23
4876,4736,4884,1372,856,548,23
4876,4728,4880,1372,852,548,24
4872,4708,4864,1372,852,548,23
4868,4688,4852,1372,852,548,23
4864,4668,4840,1372,852,548,24
4864,4660,4832,1372,852,548,23
4864,4648,4828,1372,852,548,23
4860,4644,4820,1372,852,548,24
4860,4640,4820,1372,852,548,23
4864,4640,4820,1372,852,548,23
4864,4644,4820,1372,852,548,24
4868,4648,4828,1372,852,548,23
4864,4652,4828,1372,852,548,24
4864,4652,4828,1372,852,548,23
4868,4664,4836,1372,852,548,23
4868,4664,4836,1372,852,548,24
4868,4664,4836,1372,852,548,23
4868,4664,4836,1372,852,544,23
4872,4668,4840,1372,852,548,24
4872,4672,4844,1372,852,548,23
4872,4672,4844,1372,852,548,23
4868,4676,4844,1372,852,548,24
4872,4680,4848,1372,852,548,23
4872,4684,4848,1372,852,548,23
4872,4692,4856,1372,852,548,24
4872,4692,4856,1372,852,548,23
4872,4696,4856,1372,852,548,24
4876,4704,4860,1372,852,548,23
4872,4704,4864,1372,852,548,23
4872,4708,4864,1372,852,548,24
4872,4712,4864,1372,852,548,23
4872,4716,4868,1372,852,548,23
4872,4716,4868,1372,852,548,24
4872,4720,4872,1372,852,548,23
4876,4724,4876,1372,852,548,23
4876,4728,4876,1372,852,548,24
4876,4732,4880,1372,852,548,23
4872,4732,4880,1372,852,548,23
4876,4740,4884,1372,852,548,24
4876,4736,4884,1372,852,548,23
4876,4724,4872,1372,852,548,23
4872,4704,4864,1372,852,548,24
4864,4680,4848,1372,852,548,23
4864,4664,4836,1372,852,548,24
4860,4652,4824,1372,852,548,23
4856,4640,4816,1372,852,544,23
4856,4632,4812,1372,852,544,24
4856,4628,4812,1372,852,544,23
4856,4628,4812,1372,852,544,23
4856,4628,4812,1372,852,544,24
4856,4632,4812,1368,848,544,23
4860,4636,4816,1368,848,544,23
4860,4640,4820,1368,848,544,24
4860,4644,4820,1368,848,544,23
4860,4648,4824,1368,848,544,23
4864,4652,4828,1368,848,544,24
4864,4652,4828,1372,852,544,23
4864,4656,4828,1368,848,544,24
4864,4660,4832,1368,848,544,23
4864,4660,4832,1368,848,544,23
4864,4664,4832,1368,852,544,24
4864,4668,4840,1372,852,544,23
4864,4672,4840,1372,852,544,23
4868,4676,4844,1372,852,544,24
4868,4684,4852,1372,852,544,23
4868,4684,4848,1372,852,544,23
4868,4692,4852,1372,852,548,24
4868,4692,4856,1372,852,548,23
4872,4700,4860,1372,852,544,23
4868,4700,4856,1372,852,548,24
4872,4708,4864,1372,852,544,23
4876,4712,4868,1372,852,544,24
4876,4716,4868,1372,852,548,23
4876,4716,4872,1372,852,548,23
4876,4720,4872,1372,852,548,24
4876,4720,4872,1372,852,548,23
4872,4724,4876,1372,852,548,23
4876,4728,4876,1372,852,548,24
4876,4724,4876,1372,852,548,23
4872,4712,4868,1372,852,548,23
4868,4692,4852,1372,852,548,24
4864,4676,4844,1372,852,548,23
4860,4660,4832,1372,852,548,23
4860,4648,4824,1372,852,548,24
4860,4644,4820,1368,852,544,23
4860,4640,4820,1372,852,544,24
4856,4636,4812,1368,852,544,23
4856,4636,4816,1372,852,544,23
4860,4640,4820,1372,852,544,24
4860,4644,4820,1372,852,544,23
4860,4648,4824,1372,852,548,23
4860,4652,4824,1372,852,544,24
4860,4652,4824,1372,852,544,23
4864,4656,4832,1372,852,544,23
4864,4656,4832,1372,852,548,24
4864,4660,4828,1372,852,548,23
4864,4660,4832,1372,852,544,23
4860,4660,4832,1372,852,544,24
4864,4668,4836,1372,852,544,23
4860,4668,4836,1372,852,544,24
4856,4668,4832,1372,852,544,23
4860,4672,4840,1372,852,544,23
4860,4676,4840,1372,852,544,24
4864,4680,4844,1372,852,544,23
4864,4680,4844,1372,852,544,23
4864,4684,4848,1372,852,544,24
4868,4688,4852,1368,852,544,23
4868,4688,4852,1372,852,544,23
4864,4692,4852,1368,852,544,24
4868,4696,4856,1372,852,544,23
4868,4696,4856,1372,852,544,23
4868,4700,4856,1368,852,544,24
4868,4700,4856,1368,852,544,23
4872,4704,4860,1368,852,544,24
4868,4704,4860,1368,852,544,23
4868,4704,4860,1368,852,544,23
4872,4700,4856,1368,852,544,24
4860,4676,4840,1368,852,544,23
4860,4660,4832,1368,852,544,23
4856,4640,4816,1368,848,544,24
4852,4624,4808,1368,848,544,23
4852,4616,4804,1368,848,544,23
4848,4608,4796,1368,848,544,24
4848,4604,4796,1368,848,544,23
4848,4600,4792,1368,848,544,23
4848,4604,4792,1368,848,544,24
4848,4604,4792,1368,848,544,23
4852,4612,4796,1368,848,544,24
4852,4616,4804,1368,848,544,23
4856,4620,4808,1368,848,544,23
4856,4620,4808,1368,848,544,24
4852,4620,4808,1368,848,544,23
4852,4624,4808,1368,848,544,23
4852,4620,4804,1368,848,544,24
4856,4628,4808,1368,848,544,23
4852,4624,4808,1368,848,544,23
4852,4628,4808,1368,848,544,24
4856,4636,4812,1368,848,544,23
4856,4636,4812,1368,848,544,23
4856,4640,4816,1368,848,544,24
4856,4644,4820,1368,848,544,23
4856,4648,4824,1368,848,544,24
4856,4652,4824,1368,848,544,23
4856,4652,4824,1368,848,544,23
4856,4656,4828,1368,848,544,24
4856,4660,4828,1368,848,544,23
4856,4664,4832,1368,848,544,23
4860,4668,4836,1368,848,544,24
4860,4672,4840,1368,848,544,23
4860,4672,4840,1368,848,544,23
4860,4676,4840,1368,848,544,24
4860,4680,4840,1368,848,544,23
4860,4684,4844,1368,848,544,23
4864,4684,4848,1368,848,544,24
4864,4688,4848,1368,848,544,23
4864,4684,4848,1368,848,544,23
4860,4664,4832,1368,848,544,24
4852,4640,4816,1368,848,544,23
4848,4620,4804,1368,848,544,24
4844,4608,4792,1368,848,544,23
4844,4596,4788,1368,848,544,23
4840,4588,4780,1368,848,544,24
4840,4584,4776,1368,848,544,23
4840,4584,4780,1368,848,544,23
4840,4584,4776,1368,848,544,24
4844,4588,4780,1368,848,544,23
4840,4588,4780,1368,844,544,23
4844,4592,4784,1368,848,544,24
4844,4596,4788,1368,848,544,23
4844,4600,4788,1368,848,544,23
4844,4600,4792,1368,848,544,24
4844,4600,4788,1368,848,544,23
4844,4604,4792,1368,848,544,24
4848,4608,4796,1368,848,544,23
4848,4608,4796,1368,848,544,23
4848,4612,4800,1368,848,544,24
4848,4616,4800,1368,848,544,23
4852,4620,4804,1368,848,544,23
4852,4624,4808,1368,848,544,24
4852,4628,4808,1368,848,544,23
4852,4632,4808,1368,848,544,23
4848,4632,4812,1368,848,544,24
4848,4636,4812,1368,848,544,23
4848,4640,4816,1368,848,544,24
4848,4644,4816,1368,848,544,23
4848,4644,4820,1368,848,544,23
4852,4652,4824,1368,848,544,24
4852,4656,4824,1368,848,544,23
4852,4656,4824,1368,848,544,23
4852,4660,4828,1368,848,544,24
4856,4668,4836,1368,848,544,23
4860,4672,4836,1368,848,544,23
4856,4672,4840,1368,848,544,24
4860,4676,4840,1368,848,544,23
4856,4676,4840,1368,848,544,23
4852,4664,4832,1368,848,544,24
4852,4648,4824,1368,848,544,23
4848,4632,4808,1368,848,544,23
4848,4616,4804,1368,848,544,24
4844,4600,4792,1368,848,544,23
4840,4596,4784,1368,848,544,24
4844,4592,4784,1368,848,544,23
4844,4592,4784,1368,848,544,23
4840,4588,4784,1368,848,544,24
4844,4592,4784,1368,848,544,23
4844,4596,4788,1368,848,544,23
4844,4600,4788,1368,848,544,24
4844,4604,4792,1368,848,544,23
4844,4608,4792,1368,848,544,23
4844,4608,4792,1368,848,544,24
4844,4612,4796,1368,848,544,23
4844,4612,4796,1368,848,544,23
4844,4616,4800,1368,848,544,24
4848,4620,4804,1368,848,544,23
4844,4620,4800,1368,848,544,24
4844,4624,4804,1368,848,544,23
4844,4628,4804,1368,848,544,23
4844,4632,4808,1368,848,544,24
4844,4636,4812,1368,848,544,23
4848,4640,4812,1368,848,544,23
4844,4640,4816,1368,848,544,24
4844,4644,4816,1368,848,544,23
4852,4652,4820,1368,848,544,23
4852,4656,4828,1368,848,544,24
4852,4660,4828,1368,848,544,23
4856,4664,4832,1368,848,544,23
4852,4668,4832,1368,848,544,24
4856,4668,4836,1368,848,544,23
4856,4672,4836,1368,848,544,24
4856,4676,4840,1368,848,544,23
4852,4676,4840,1368,848,544,23
4852,4676,4840,1368,848,544,24
4852,4668,4832,1368,848,544,23
4848,4656,4824,1368,848,544,23
4848,4636,4812,1368,848,544,24
4844,4620,4800,1368,848,544,23
4844,4608,4792,1368,848,544,23
4840,4596,4784,1368,848,544,24
4840,4588,4780,1368,848,544,23
4836,4580,4776,1368,848,544,23
4836,4580,4772,1368,848,544,24
4836,4580,4772,1368,848,544,23
4836,4584,4776,1368,848,544,24
4836,4584,4776,1368,848,544,23
4840,4592,4780,1368,848,544,23
4840,4596,4784,1368,848,544,24
4840,4596,4784,1368,848,544,23
4840,4596,4784,1368,848,544,23
4840,4600,4788,1368,848,544,24
4836,4596,4784,1368,848,544,23
4836,4600,4784,1368,848,544,23
4836,4600,4784,1368,848,544,24
4840,4604,4788,1368,848,544,23
4840,4608,4792,1368,848,544,23
4844,4616,4796,1368,848,544,24
4840,4616,4800,1368,848,544,23
4840,4620,4800,1368,848,544,23
4840,4624,4800,1368,848,544,24
4844,4628,4804,1368,848,544,23
4844,4632,4804,1368,848,544,24
4840,4632,4808,1368,848,544,23
4844,4636,4812,1368,848,544,23
4844,4640,4812,1368,848,544,24
4844,4644,4816,1368,848,544,23
4848,4648,4816,1368,848,544,23
4848,4652,4820,1368,848,544,24
4848,4652,4820,1368,848,544,23
4848,4656,4824,1368,848,544,23
4844,4656,4820,1368,848,544,24
4848,4660,4828,1368,848,544,23
4848,4656,4824,1368,848,544,24
4844,4644,4816,1368,848,544,23
4840,4628,4804,1368,848,544,23
4836,4612,4796,1368,848,544,24
4832,4592,4780,1368,848,544,23
4828,4580,4768,1368,848,544,23
4828,4568,4764,1368,844,544,24
4828,4564,4760,1364,844,544,23
4824,4556,4756,1364,844,544,23
4828,4560,4760,1364,844,544,24
4832,4564,4764,1364,844,544,23
4828,4564,4760,1368,844,544,23
4832,4568,4768,1368,844,544,24
4832,4572,4768,1364,844,544,23
4832,4576,4772,1364,844,544,24
4832,4576,4772,1364,844,544,23
4832,4576,4768,1364,844,544,23
4828,4576,4768,1364,844,544,24
4832,4580,4772,1368,844,544,23
4832,4580,4772,1364,844,544,23
4832,4584,4776,1368,844,544,24
4836,4588,4776,1364,844,544,23
4836,4588,4780,1364,844,544,23
4836,4592,4780,1364,844,544,24
4836,4600,4788,1364,844,544,23
4840,4604,4788,1368,848,544,23
4840,4604,4792,1368,848,544,24
4840,4612,4796,1368,848,544,23
4836,4612,4792,1368,848,544,24
4840,4616,4796,1368,848,544,23
4840,4620,4796,1368,848,544,23
4840,4620,4800,1368,848,544,24
4840,4624,4804,1368,848,544,23
4840,4628,4808,1368,848,544,23
4840,4632,4808,1364,848,544,24
4840,4636,4808,1368,848,544,23
4844,4640,4812,1368,848,544,23
4844,4644,4816,1368,848,544,24
4844,4648,4816,1368,848,544,23
4844,4644,4816,1368,848,544,23
4844,4636,4812,1368,848,544,24
4836,4620,4800,1368,848,544,23
4836,4608,4792,1368,848,544,23
4832,4592,4780,1368,848,544,24
4832,4580,4772,1368,848,544,23
4828,4572,4768,1364,844,544,24
4828,4568,4764,1364,844,544,23
4832,4568,4764,1364,844,544,23
4828,4564,4760,1364,844,544,24
4828,4568,4760,1364,844,544,23
4828,4572,4764,1364,844,544,23
4832,4580,4772,1364,844,544,24
4832,4584,4776,1364,844,544,23
4832,4584,4772,1364,848,544,23
4832,4588,4776,1364,844,544,24
4832,4588,4776,1364,844,544,23
4832,4588,4780,1368,848,544,23
4832,4588,4776,1364,848,544,24
4836,4596,4784,1364,848,544,23
4840,4604,4792,1368,848,544,24
4832,4600,4784,1368,848,544,23
4840,4608,4792,1368,848,544,23
4836,4612,4792,1368,848,544,24
4836,4612,4792,1368,848,544,23
4836,4620,4800,1368,848,544,23
4836,4624,4800,1368,848,544,24
4836,4628,4804,1368,848,544,23
4840,4632,4808,1368,848,544,23
4840,4636,4812,1368,848,544,24
4840,4636,4812,1368,848,544,23
4840,4640,4812,1368,848,544,23
4844,4644,4812,1368,848,544,24
4844,4648,4820,1368,848,544,23
4840,4648,4816,1368,848,544,24
4844,4656,4820,1368,848,544,23
4844,4656,4824,1368,848,544,23
4844,4656,4824,1368,848,544,24
4840,4648,4816,1368,848,544,23
4840,4636,4808,1368,848,544,23
4836,4616,4796,1368,848,544,24
4832,4600,4784,1368,848,544,23
4828,4584,4772,1368,848,544,23
4828,4580,4772,1364,848,544,24
4828,4572,4768,1364,848,544,23
4828,4572,4764,1364,848,544,23
4828,4572,4764,1368,848,544,24
4828,4572,4764,1364,844,544,23
4832,4576,4772,1364,848,544,24
4832,4584,4772,1364,844,544,23
4828,4584,4776,1364,844,544,23
4832,4588,4780,1364,844,544,24
4832,4588,4776,1364,848,544,23
4832,4596,4780,1364,848,544,23
4836,4596,4784,1368,848,544,24
4832,4596,4780,1364,848,544,23
4832,4596,4780,1368,848,544,23
4832,4600,4784,1368,848,544,24
4832,4604,4784,1364,848,544,23
4832,4604,4788,1364,848,544,23
4832,4608,4788,1364,848,544,24
4832,4612,4788,1368,848,544,23
4832,4612,4792,1368,848,544,24
4836,4620,4796,1368,848,544,23
4836,4624,4800,1368,848,544,23
4832,4628,4804,1368,848,544,24
4836,4628,4804,1368,848,544,23
4836,4632,4804,1368,848,544,23
4836,4636,4808,1368,848,544,24
4836,4640,4808,1368,848,544,23
4840,4644,4812,1368,848,544,23
4836,4648,4816,1368,848,544,24
4840,4652,4816,1368,848,544,23
4840,4652,4820,1368,848,544,24
4840,4656,4820,1368,848,544,23
4840,4660,4824,1368,848,544,23
4840,4656,4824,1368,848,544,24
4836,4644,4812,1368,848,544,23
4832,4628,4800,1368,848,544,23
4832,4608,4788,1368,848,544,24
4824,4588,4776,1368,848,544,23
4820,4576,4768,1364,848,544,23
4820,4568,4760,1368,848,544,24
4820,4564,4756,1364,844,544,23
4820,4560,4756,1364,844,544,23
4820,4560,4756,1364,844,544,24
4820,4560,4756,1364,844,544,23
4820,4564,4760,1364,844,544,24
4820,4568,4760,1364,844,544,23
4828,4576,4768,1368,848,544,23
4824,4576,4768,1364,844,544,24
4824,4580,4768,1364,848,544,23
4824,4580,4768,1364,848,544,23
4824,4580,4772,1364,848,544,24
4824,4580,4768,1364,848,544,23
4824,4584,4772,1364,848,544,23
4828,4588,4776,1364,848,544,24
4828,4592,4776,1364,848,544,23
4828,4592,4780,1368,848,544,23
4832,4600,4784,1364,848,544,24
4832,4604,4788,1364,848,544,23
4828,4604,4788,1364,848,544,24
4828,4604,4788,1364,848,544,23
4828,4608,4788,1364,848,544,23
4828,4612,4792,1364,848,544,24
4832,4620,4796,1364,848,544,23
4836,4624,4800,1364,848,544,23
4836,4624,4800,1364,848,544,24
4836,4628,4804,1368,848,544,23
4836,4632,4808,1364,848,544,23
4836,4632,4808,1368,848,544,24
4832,4636,4808,1368,848,544,23
4840,4644,4812,1368,848,544,23
4840,4648,4816,1364,848,544,24
4840,4648,4820,1368,848,544,23
4840,4648,4816,1368,848,544,24
4836,4636,4808,1364,848,544,23
4832,4620,4800,1364,848,544,23
4828,4600,4784,1364,848,544,24
4828,4592,4780,1364,848,544,23
4824,4580,4772,1364,848,544,23
4824,4572,4764,1364,848,544,24
4824,4568,4764,1364,844,544,23
4824,4568,4764,1364,844,544,23
4824,4568,4760,1364,844,544,24
4824,4568,4764,1364,844,544,23
4824,4576,4764,1364,844,544,23
4828,4580,4772,1364,844,544,24
4828,4584,4776,1364,844,544,23
4828,4588,4772,1364,848,544,23
4828,4588,4776,1364,848,544,24
4828,4592,4776,1364,848,544,23
4828,4592,4780,1364,848,544,24
4828,4596,4780,1364,848,544,23
4828,4596,4780,1364,848,544,23
4828,4600,4784,1364,848,544,24
4828,4604,4784,1364,848,544,23
4828,4608,4788,1364,848,544,23
4828,4612,4788,1364,848,544,24
4832,4616,4796,1364,848,544,23
4832,4620,4800,1364,848,544,23
4836,4628,4800,1364,848,544,24
4836,4632,4808,1364,848,544,23
4836,4636,4808,1368,848,544,24
4836,4636,4808,1364,848,544,23
4836,4640,4812,1364,848,544,23
4836,4644,4812,1364,848,544,24
4836,4648,4816,1368,848,544,23
4840,4652,4820,1368,848,544,23
4840,4652,4820,1368,848,544,24
4840,4656,4820,1368,848,544,23
4840,4656,4824,1368,848,544,23
4844,4660,4824,1368,848,544,24
4840,4648,4816,1368,848,544,23
4836,4632,4808,1364,848,544,23
4832,4612,4796,1364,848,544,24
4832,4600,4784,1368,848,544,23
4828,4584,4776,1364,848,544,23
4824,4576,4768,1364,848,544,24
4824,4572,4764,1364,848,544,23
4820,4568,4764,1364,848,544,24
4824,4568,4764,1364,848,544,23
4824,4572,4764,1368,848,544,23
4820,4572,4764,1364,848,544,24
4824,4580,4768,1364,848,544,23
4824,4580,4772,1364,848,544,23
4824,4584,4772,1368,848,544,24
4828,4584,4776,1368,848,544,23
4824,4584,4772,1364,848,544,23
4824,4584,4772,1364,848,544,24
4824,4588,4772,1364,848,544,23
4824,4588,4772,1364,848,544,23
4824,4592,4776,1364,848,544,24
4824,4596,4780,1364,848,544,23
4824,4596,4780,1364,844,544,24
4824,4600,4780,1364,848,544,23
4828,4608,4788,1364,848,544,23
4828,4608,4792,1364,848,544,24
4828,4612,4788,1364,848,544,23
4824,4612,4792,1364,848,544,23
4828,4616,4796,1364,848,544,24
4828,4620,4796,1364,848,544,23
4828,4624,4800,1364,848,544,23
4828,4628,4800,1364,848,544,24
4828,4628,4804,1364,848,544,23
4832,4632,4808,1364,848,544,23
4832,4636,4804,1364,848,544,24
4832,4640,4808,1364,848,544,23
4836,4644,4816,1364,848,544,24
4832,4644,4812,1364,848,544,23
4836,4648,4816,1364,848,544,23
4832,4636,4808,1364,848,544,24
4828,4624,4800,1364,848,544,23
4824,4604,4784,1364,848,544,23
4820,4584,4772,1364,848,544,24
4816,4572,4764,1364,848,544,23
4816,4560,4756,1364,848,544,23
4816,4556,4752,1364,844,544,24
4816,4552,4752,1364,844,544,23
4812,4548,4748,1364,844,544,23
4812,4552,4748,1364,844,544,24
4816,4556,4756,1364,844,544,23
4820,4564,4760,1364,844,544,23
4820,4568,4764,1364,844,544,24
4820,4572,4764,1364,844,544,23
4820,4572,4764,1364,844,544,24
4824,4576,4768,1364,844,544,23
4824,4576,4768,1364,844,544,23
4824,4576,4772,1364,844,544,24
4820,4576,4768,1364,844,544,23
4820,4580,4768,1364,844,544,23
4820,4580,4772,1364,844,544,24
4824,4588,4776,1364,844,544,23
4824,4588,4776,1364,844,544,23
4824,4592,4780,1364,844,544,24
4828,4600,4784,1364,844,544,23
4828,4600,4784,1364,844,544,23
4824,4604,4784,1364,844,544,24
4824,4604,4788,1364,844,544,23
4824,4608,4788,1364,848,544,24
4824,4612,4792,1364,848,544,23
4824,4612,4792,1364,848,544,23
4828,4620,4796,1364,848,544,24
4828,4620,4800,1364,848,544,23
4828,4624,4804,1364,848,544,23
4828,4628,4804,1368,848,544,24
4828,4632,4808,1364,848,544,23
4832,4640,4812,1364,848,544,23
4832,4640,4812,1364,848,544,24
4832,4640,4812,1364,848,544,23
4832,4636,4808,1364,848,544,23
4828,4620,4796,1364,848,544,24
4824,4604,4788,1364,848,544,23
4820,4588,4776,1364,848,544,24
4816,4576,4768,1364,844,544,23
4816,4568,4764,1364,844,544,23
4816,4568,4760,1364,844,544,24
4816,4564,4760,1364,844,544,23
4816,4564,4760,1364,844,544,23
4816,4568,4760,1364,844,544,24
4816,4572,4764,1364,844,544,23
4816,4576,4764,1364,844,544,23
4820,4580,4772,1364,844,544,24
4820,4584,4772,1364,844,544,23
4820,4588,4772,1364,844,544,23
4820,4588,4776,1364,848,544,24
4820,4592,4780,1364,844,544,23
4820,4592,4776,1364,844,544,24
4820,4592,4776,1364,844,544,23
4820,4596,4780,1364,844,544,23
4820,4604,4784,1364,844,544,24
4820,4604,4784,1364,844,544,23
4824,4608,4788,1364,844,544,23
4824,4616,4792,1364,848,544,24
4824,4620,4796,1364,848,544,23
4824,4620,4796,1364,848,544,23
4824,4624,4800,1364,848,544,24
4824,4628,4800,1364,848,544,23
4828,4632,4808,1364,848,544,23
4828,4636,4808,1364,848,544,24
4828,4636,4808,1364,848,544,23
4824,4640,4808,1364,848,544,24
4828,4644,4812,1364,848,544,23
4828,4648,4812,1368,848,544,23
4828,4652,4816,1364,848,544,24
4832,4656,4820,1364,848,544,23
4832,4652,4820,1364,848,544,23
4828,4644,4812,1364,848,544,24
4824,4628,4804,1364,848,544,23
4824,4612,4792,1364,848,544,23
4820,4596,4780,1364,848,544,24
4816,4584,4772,1364,848,544,23
4820,4576,4772,1364,844,544,23
4816,4572,4764,1364,844,544,24
4816,4568,4760,1364,844,544,23
4816,4568,4764,1364,844,544,24
4812,4564,4760,1364,844,544,23
4816,4572,4764,1364,844,544,23
4816,4576,4764,1364,844,544,24
4816,4576,4768,1364,844,544,23
4820,4580,4772,1364,844,544,23
4816,4580,4768,1364,844,544,24
4816,4580,4768,1364,844,544,23
4812,4580,4768,1364,844,544,23
4816,4580,4768,1364,844,544,24
4820,4588,4772,1364,844,544,23
4816,4584,4772,1364,844,544,23
4816,4588,4776,1364,844,544,24
4816,4592,4776,1364,844,544,23
4820,4600,4780,1364,844,544,24
4816,4600,4780,1364,844,544,23
4816,4600,4780,1364,844,544,23
4816,4604,4784,1364,844,544,24
4816,4604,4784,1364,844,544,23
4820,4612,4792,1364,844,544,23
4824,4620,4796,1364,848,544,24
4820,4616,4796,1364,848,544,23
4824,4624,4800,1364,848,544,23
4824,4624,4796,1368,848,544,24
4820,4624,4800,1364,848,544,23
4824,4628,4804,1364,848,544,23
4824,4632,4804,1364,848,544,24
4824,4632,4804,1364,848,544,23
4824,4636,4808,1364,848,544,24
4824,4636,4808,1364,848,544,23
4824,4628,4800,1364,848,544,23
4820,4612,4792,1364,848,544,24
4816,4592,4776,1364,848,544,23
4812,4576,4764,1364,844,544,23
4808,4560,4756,1364,844,544,24
4808,4548,4748,1364,844,544,23
4804,4540,4744,1364,844,544,23
4808,4540,4740,1364,844,544,24
4804,4532,4736,1364,844,544,23
4804,4536,4736,1364,844,544,23
4804,4536,4740,1364,844,544,24
4808,4544,4744,1364,844,544,23
4812,4548,4748,1364,844,544,24
4812,4548,4748,1364,844,544,23
4812,4548,4752,1364,844,544,23
4812,4552,4752,1364,844,544,24
4808,4552,4748,1364,844,544,23
4812,4552,4752,1364,844,544,23
4812,4556,4752,1364,844,544,24
4812,4556,4756,1364,844,544,23
4812,4560,4756,1364,844,544,23
4812,4564,4756,1364,844,544,24
4812,4564,4760,1364,844,544,23
4812,4568,4760,1364,844,544,23
4816,4576,4764,1364,844,544,24
4816,4580,4768,1364,844,544,23
4816,4580,4772,1364,844,544,24
4816,4584,4772,1364,848,544,23
4816,4588,4772,1364,844,544,23
4820,4592,4780,1364,844,544,24
4816,4596,4780,1364,848,544,23
4816,4596,4780,1364,848,544,23
4820,4600,4780,1364,848,544,24
4820,4604,4784,1364,848,544,23
4820,4604,4784,1364,848,544,23
4820,4608,4792,1364,848,544,24
4824,4616,4792,1364,848,544,23
4824,4616,4796,1364,848,544,23
4820,4608,4788,1368,848,544,24
4816,4600,4784,1364,848,544,23
4812,4580,4768,1364,848,544,24
4812,4564,4756,1364,848,544,23
4804,4548,4748,1364,844,544,23
4804,4540,4740,1364,844,544,24
4804,4536,4736,1364,844,544,23
4804,4532,4736,1364,844,544,23
4804,4532,4736,1364,844,544,24
4808,4536,4736,1364,844,544,23
4808,4536,4740,1364,844,544,23
4808,4544,4744,1364,844,544,24
4808,4544,4744,1364,844,544,23
4808,4548,4748,1364,844,544,23
4808,4552,4748,1364,844,544,24
4808,4552,4752,1364,844,544,23
4808,4556,4752,1364,844,544,23
4804,4552,4748,1364,844,544,24
4808,4556,4752,1364,844,544,23
4808,4560,4752,1364,844,544,24
4808,4564,4756,1364,844,544,23
4808,4564,4756,1364,844,544,23
4808,4568,4760,1364,848,544,24
4808,4572,4760,1364,844,544,23
4812,4576,4764,1364,844,544,23
4812,4580,4768,1364,844,544,24
4812,4584,4768,1364,848,544,23
4812,4588,4772,1364,848,544,23
4812,4588,4772,1364,848,544,24
4812,4592,4776,1364,848,544,23
4820,4600,4780,1364,848,544,23
4816,4600,4784,1364,848,544,24
4816,4604,4784,1364,848,544,23
4816,4604,4784,1364,848,544,24
4820,4608,4788,1364,848,544,23
4820,4612,4792,1364,848,544,23
4820,4616,4792,1364,848,544,24
4816,4612,4788,1364,848,544,23
4812,4596,4780,1364,848,544,23
4812,4584,4772,1364,848,544,24
4804,4560,4756,1364,844,544,23
4804,4548,4748,1364,844,544,23
4804,4536,4740,1364,844,544,24
4804,4528,4732,1364,844,544,23
4804,4524,4732,1364,844,544,23
4800,4524,4728,1364,844,544,24
4804,4524,4732,1364,844,544,23
4804,4524,4732,1364,844,544,24
4804,4528,4732,1364,844,544,23
4800,4528,4732,1364,844,544,23
4804,4536,4736,1364,844,544,24
4804,4536,4740,1364,844,544,23
4808,4540,4740,1364,844,544,23
4804,4540,4740,1364,844,544,24
4804,4540,4744,1364,844,544,23
4804,4544,4744,1364,844,544,23
4808,4548,4748,1364,844,544,24
4804,4548,4744,1364,844,544,23
4804,4552,4748,1364,844,544,23
4804,4556,4748,1364,844,544,24
4808,4556,4752,1364,844,544,23
4808,4564,4756,1364,844,544,24
4808,4564,4756,1364,844,544,23
4808,4568,4756,1364,844,544,23
4808,4572,4764,1364,844,544,24
4808,4576,4764,1364,844,544,23
4812,4580,4768,1364,844,544,23
4812,4580,4772,1364,844,544,24
4812,4584,4772,1364,844,544,23
4812,4588,4772,1364,844,544,23
4816,4596,4780,1364,844,544,24
4812,4596,4780,1364,844,544,23
4812,4596,4780,1364,844,544,23
4812,4596,4780,1364,848,544,24
4816,4600,4780,1364,844,544,23
4816,4604,4784,1364,844,544,24
4816,4604,4784,1364,844,544,23
4812,4592,4776,1364,848,544,23
4808,4576,4764,1364,844,544,24
4804,4560,4752,1364,844,544,23
4800,4540,4740,1364,844,544,23
4800,4528,4736,1364,844,544,24
4800,4520,4728,1364,844,544,23
4800,4512,4720,1364,844,544,23
4800,4516,4724,1364,844,544,24
4804,4516,4724,1364,844,544,23
4796,4512,4720,1364,844,544,23
4796,4512,4720,1364,844,544,24
4800,4516,4724,1364,844,544,23
4796,4520,4724,1364,844,544,24
4800,4524,4732,1364,844,544,23
4800,4524,4732,1364,844,544,23
4800,4528,4732,1364,844,544,24
4800,4528,4728,1364,844,544,23
4800,4528,4732,1364,844,544,23
4800,4532,4732,1364,844,544,24
4800,4532,4736,1364,844,544,23
4800,4536,4740,1364,844,544,23
4800,4540,4740,1364,844,544,24
4800,4544,4744,1364,844,544,23
4800,4548,4744,1364,844,544,23
4800,4552,4748,1364,844,544,24
4804,4556,4752,1364,844,544,23
4804,4560,4756,1364,844,544,24
4808,4564,4756,1364,844,544,23
4808,4568,4760,1364,844,544,23
4808,4572,4764,1364,844,544,24
4808,4576,4764,1364,844,544,23
4812,4580,4768,1364,844,544,23
4808,4584,4768,1364,844,544,24
4812,4588,4776,1364,844,544,23
4812,4588,4772,1364,844,544,23
4816,4596,4780,1364,844,544,24
4812,4596,4780,1364,848,544,23
4816,4600,4784,1364,844,544,23
4812,4596,4776,1364,848,544,24
4812,4592,4776,1364,848,544,23
4808,4576,4764,1364,844,544,24
4804,4556,4752,1364,844,544,23
4800,4540,4740,1364,844,544,23
4796,4532,4732,1364,844,544,24
4800,4532,4732,1364,844,544,23
4800,4528,4732,1364,844,544,23
4800,4524,4728,1364,844,544,24
4800,4524,4732,1364,844,544,23
4800,4532,4736,1364,844,544,23
4800,4532,4736,1360,844,544,24
4800,4536,4736,1364,844,544,23
4800,4540,4740,1364,844,544,23
4800,4544,4740,1364,844,544,24
4800,4544,4744,1364,844,544,23
4800,4544,4744,1364,844,544,24
4800,4548,4744,1364,844,544,23
4800,4552,4744,1364,844,544,23
4800,4552,4748,1364,844,544,24
4804,4560,4752,1364,844,544,23
4804,4564,4756,1364,844,544,23
4804,4564,4756,1364,844,544,24
4804,4568,4760,1364,844,544,23
4804,4572,4760,1364,844,544,23
4804,4576,4760,1364,844,544,24
4808,4580,4764,1364,844,544,23
4808,4584,4768,1364,844,544,23
4808,4588,4772,1364,844,544,24
4808,4588,4772,1364,844,544,23
4804,4588,4772,1364,848,544,24
4808,4596,4776,1364,848,544,23
4812,4600,4780,1364,848,544,23
4812,4600,4784,1364,848,544,24
4812,4604,4784,1364,848,544,23
4812,4608,4784,1364,848,544,23
4812,4608,4784,1364,848,544,24
4812,4608,4784,1364,848,544,23
4808,4600,4780,1364,848,544,23
4804,4588,4772,1364,848,544,24
4804,4572,4760,1364,848,544,23
4800,4552,4748,1364,844,544,23
4796,4540,4736,1364,844,544,24
4796,4532,4732,1364,844,544,23
4796,4524,4728,1364,844,544,24
4792,4516,4720,1364,844,544,23
4792,4516,4720,1364,844,544,23
4792,4516,4720,1364,844,544,24
4792,4520,4724,1364,844,544,23
4792,4520,4720,1364,844,544,23
4796,4532,4732,1364,844,544,24
4796,4532,4732,1364,844,544,23
4800,4536,4736,1364,844,544,23
4800,4536,4736,1364,844,544,24
4796,4532,4732,1364,844,544,23
4796,4532,4732,1364,844,544,23
4796,4536,4732,1364,844,544,24
4792,4536,4732,1364,844,544,23
4796,4540,4736,1364,844,544,24
4796,4540,4740,1364,844,544,23
4796,4544,4740,1364,844,544,23
4800,4552,4744,1364,844,544,24
4800,4552,4748,1364,844,544,23
4800,4560,4748,1364,844,544,23
4800,4560,4752,1364,844,544,24
4800,4564,4752,1364,844,544,23
4800,4564,4752,1364,844,544,23
4800,4564,4752,1364,844,544,24
4800,4568,4756,1364,844,544,23
4800,4572,4760,1364,844,544,23
4804,4576,4760,1364,844,544,24
4808,4580,4764,1364,844,544,23
4804,4580,4764,1364,844,544,24
4804,4580,4768,1364,844,544,23
4804,4584,4768,1364,844,544,23
4804,4588,4768,1364,844,544,24
4800,4584,4764,1364,844,544,23
4800,4576,4760,1364,844,544,23
4796,4560,4752,1364,844,544,24
4796,4544,4740,1364,844,544,23
4788,4524,4724,1364,844,544,23
4788,4512,4716,1364,844,544,24
4784,4500,4712,1364,844,544,23
4784,4496,4712,1364,844,544,23
4788,4496,4712,1364,844,544,24
4788,4492,4708,1360,844,544,23
4788,4496,4712,1360,844,544,23
4788,4496,4708,1364,844,544,24
4792,4500,4716,1364,844,544,23
4788,4504,4716,1364,844,544,24
4788,4504,4716,1364,844,544,23
4788,4508,4716,1364,844,544,23
4788,4504,4716,1364,844,544,24
4788,4504,4712,1364,844,544,23
4788,4508,4716,1364,844,544,23
4788,4508,4712,1364,844,544,24
4788,4508,4716,1364,844,544,23
4788,4512,4716,1360,844,544,23
4788,4516,4716,1364,844,544,24
4792,4520,4720,1360,844,544,23
4792,4524,4724,1364,844,544,23
4792,4524,4724,1364,844,544,24
4792,4532,4728,1360,844,544,23
4796,4532,4732,1364,844,544,24
4792,4536,4732,1364,844,544,23
4792,4540,4736,1364,844,544,23
4796,4544,4740,1364,844,544,24
4796,4548,4740,1364,844,544,23
4800,4552,4744,1364,844,544,23
4800,4556,4748,1364,844,544,24
4796,4556,4748,1364,844,544,23
4796,4556,4748,1364,844,544,23
4804,4564,4756,1364,844,544,24
4800,4564,4756,1364,844,544,23
4804,4568,4756,1364,844,544,23
4804,4568,4760,1364,844,544,24
4800,4556,4748,1364,844,544,23
4796,4540,4736,1364,844,544,23
4796,4528,4728,1364,844,544,24
4788,4512,4716,1364,844,544,23
4784,4500,4712,1364,844,544,24
4780,4492,4704,1364,844,544,23
4780,4488,4700,1364,844,544,23
4784,4488,4704,1364,844,544,24
4784,4488,4704,1364,844,544,23
4788,4496,4712,1364,844,544,23
4788,4500,4712,1364,844,544,24
4792,4504,4716,1364,844,544,23
4788,4508,4716,1364,844,544,23
4788,4508,4716,1364,844,544,24
4788,4508,4716,1364,844,544,23
4788,4508,4716,1364,844,544,24
4788,4512,4712,1364,844,544,23
4788,4512,4716,1364,844,544,23
4788,4512,4716,1364,844,544,24
4792,4520,4720,1364,844,544,23
4792,4524,4720,1364,844,544,23
4796,4528,4728,1364,844,544,24
4792,4532,4728,1364,844,544,23
4792,4536,4732,1364,844,544,23
4796,4540,4736,1364,844,544,24
4796,4544,4740,1364,844,544,23
4796,4548,4740,1364,844,544,23
4800,4556,4748,1364,844,544,24
4796,4552,4744,1364,844,544,23
4800,4556,4748,1364,844,544,24
4804,4564,4752,1364,844,544,23
4804,4564,4752,1364,844,544,23
4804,4568,4756,1364,844,544,24
4804,4572,4756,1364,844,544,23
4804,4572,4760,1364,844,544,23
4800,4572,4760,1364,844,544,24
4796,4560,4752,1364,844,544,23
4796,4552,4744,1364,844,544,23
4792,4532,4728,1364,844,544,24
4788,4516,4716,1364,844,544,23
4788,4500,4712,1364,844,544,23
4784,4492,4704,1364,844,544,24
4784,4488,4700,1360,844,544,23
4784,4484,4700,1364,844,544,23
4784,4484,4696,1360,844,544,24
4784,4484,4700,1360,844,544,23
4780,4484,4700,1364,844,544,24
4784,4492,4704,1364,844,544,23
4784,4496,4704,1364,844,544,23
4784,4496,4708,1364,844,544,24
4784,4500,4708,1364,844,544,23
4784,4500,4712,1364,844,544,23
4784,4500,4708,1364,844,544,24
4784,4500,4708,1364,844,544,23
4784,4504,4712,1364,844,544,23
4784,4504,4712,1364,844,544,24
4784,4508,4712,1364,844,544,23
4784,4512,4716,1364,844,544,23
4784,4512,4716,1364,844,544,24
4788,4520,4716,1364,844,544,23
4788,4520,4720,1364,844,544,24
4788,4524,4720,1364,844,544,23
4788,4528,4724,1364,844,544,23
4788,4528,4724,1364,844,544,24
4792,4532,4728,1364,844,544,23
4796,4540,4736,1364,844,544,23
4792,4540,4732,1364,844,544,24
4792,4540,4736,1364,844,544,23
4788,4540,4732,1364,844,544,23
4792,4544,4736,1364,844,544,24
4792,4548,4740,1364,844,544,23
4792,4548,4740,1364,844,544,23
4792,4552,4744,1364,844,544,24
4792,4548,4736,1364,844,544,23
4792,4532,4732,1364,844,544,24
4784,4516,4716,1364,844,544,23
4784,4496,4708,1364,844,544,23
4780,4476,4692,1360,844,544,24
4776,4464,4684,1360,844,544,23
4772,4456,4676,1360,840,544,23
4772,4448,4672,1360,840,544,24
4776,4448,4672,1360,840,544,23
4772,4448,4672,1360,840,544,23
4776,4448,4676,1360,840,540,24
4776,4452,4676,1360,840,540,23
4776,4456,4680,1360,840,544,23
4776,4460,4680,1360,840,540,24
4776,4460,4684,1360,840,544,23
4776,4460,4680,1360,840,544,24
4776,4460,4680,1360,840,540,23
4776,4464,4680,1360,840,540,23
4776,4464,4684,1364,840,544,24
4780,4468,4688,1360,840,540,23
4776,4468,4684,1360,840,540,23
4776,4468,4684,1360,840,544,24
4776,4472,4688,1360,840,540,23
4776,4472,4688,1360,840,540,23
4776,4476,4692,1364,844,544,24
4776,4480,4692,1360,840,544,23
4780,4484,4696,1360,840,544,23
4780,4488,4700,1360,840,544,24
4780,4492,4704,1360,840,544,23
4780,4496,4704,1360,844,544,24
4780,4496,4704,1360,844,544,23
4780,4500,4708,1364,844,544,23
4784,4504,4712,1360,844,544,24
4784,4508,4716,1360,844,544,23
4784,4508,4712,1360,844,544,23
4784,4512,4716,1360,844,544,24
4784,4516,4716,1364,844,544,23
4788,4520,4720,1364,844,544,23
4788,4524,4724,1364,844,544,24
4788,4516,4720,1364,844,544,23
4784,4504,4712,1360,844,544,23
4780,4484,4700,1360,844,544,24
4776,4468,4688,1360,844,544,23
4772,4452,4676,1360,840,544,23
4772,4444,4672,1360,840,540,24
4772,4440,4668,1360,840,540,23
4768,4436,4664,1360,840,540,24
4772,4436,4664,1360,840,540,23
4772,4436,4668,1360,840,540,23
4772,4444,4668,1360,840,544,24
4772,4448,4672,1360,840,540,23
4772,4448,4672,1360,840,540,23
4772,4452,4676,1360,840,540,24
4776,4456,4680,1360,840,540,23
4776,4456,4676,1360,840,540,23
4772,4456,4680,1360,840,540,24
4776,4460,4680,1360,840,540,23
4780,4468,4688,1360,840,544,24
4776,4468,4684,1360,840,544,23
4780,4472,4692,1360,840,544,23
4780,4476,4692,1360,840,544,24
4780,4480,4696,1360,840,544,23
4780,4484,4700,1360,844,544,23
4784,4488,4700,1360,844,544,24
4788,4496,4712,1364,844,544,23
4784,4500,4708,1364,844,544,23
4788,4504,4716,1364,844,544,24
4788,4508,4712,1364,844,544,23
4784,4508,4712,1364,844,544,23
4788,4512,4716,1364,844,544,24
4788,4516,4716,1364,844,544,23
4788,4520,4720,1364,844,544,23
4792,4524,4724,1364,844,544,24
4788,4528,4728,1364,844,544,23
4792,4532,4732,1364,844,544,24
4788,4532,4728,1364,844,544,23
4788,4528,4728,1364,844,544,23
