3420,2508,2520,1292,820,524,23
3420,2512,2520,1288,820,524,24
3420,2512,2524,1288,820,524,23
3424,2512,2524,1288,820,524,23
3420,2508,2520,1288,820,524,24
3420,2508,2520,1288,820,524,23
3420,2512,2524,1288,820,524,23
3420,2508,2524,1288,820,524,24
3420,2512,2524,1288,820,524,23
3420,2512,2524,1288,820,524,23
3420,2508,2520,1288,820,524,24
3420,2508,2520,1292,820,524,23
3416,2508,2516,1288,820,524,23
3416,2504,2512,1288,820,524,24
3412,2500,2508,1288,816,524,23
3412,2500,2508,1288,820,524,24
3412,2500,2508,1288,820,524,23
3412,2500,2508,1288,820,524,23
3416,2504,2512,1288,820,524,24
3416,2504,2512,1288,820,524,23
3416,2508,2516,1288,820,524,23
3420,2508,2516,1288,820,524,24
3420,2508,2516,1288,820,524,23
3420,2508,2516,1288,820,524,23
3420,2508,2516,1288,820,524,24
3420,2512,2520,1288,820,524,23
3420,2512,2520,1288,820,524,23
3420,2516,2520,1288,820,524,24
3420,2516,2524,1288,820,524,23
3420,2516,2524,1288,820,524,23
3412,2508,2512,1292,820,524,24
3408,2500,2504,1288,820,524,23
3404,2492,2496,1288,820,524,24
3400,2488,2492,1292,820,524,23
3400,2484,2488,1292,820,524,23
3396,2480,2484,1292,820,524,24
3396,2480,2484,1292,820,524,23
3400,2480,2484,1288,820,524,23
3400,2484,2488,1292,820,524,24
3404,2488,2492,1288,820,524,23
3404,2488,2492,1292,820,524,23
3404,2488,2496,1292,820,524,24
3404,2488,2496,1288,820,524,23
3404,2488,2496,1292,820,524,23
3408,2492,2500,1288,820,524,24
3412,2500,2508,1292,820,524,23
3412,2496,2504,1292,820,524,24
3408,2492,2500,1288,820,524,23
3408,2496,2500,1288,820,524,23
3412,2500,2508,1288,820,524,24
3412,2504,2512,1288,820,524,23
3412,2500,2508,1288,820,524,23
3412,2500,2504,1288,820,524,24
3408,2496,2504,1288,820,524,23
3412,2500,2508,1288,820,524,23
3412,2504,2512,1288,820,524,24
3416,2508,2512,1288,820,524,23
3416,2508,2512,1288,820,524,23
3416,2512,2516,1288,820,524,24
3420,2512,2520,1288,820,524,23
3416,2512,2516,1288,820,524,24
3416,2508,2512,1288,820,524,23
3416,2508,2512,1288,820,524,23
3416,2512,2516,1288,820,524,24
3416,2512,2516,1292,820,524,23
3420,2512,2520,1292,820,524,23
3420,2516,2520,1292,820,524,24
3412,2508,2512,1292,820,524,23
3408,2500,2504,1292,820,524,23
3404,2492,2496,1292,820,524,24
3400,2488,2488,1292,820,524,23
3396,2480,2484,1292,820,524,23
3392,2476,2480,1292,820,524,24
3392,2476,2480,1292,820,524,23
3396,2480,2484,1292,820,524,23
3396,2480,2484,1292,820,524,24
3396,2480,2484,1292,820,524,23
3400,2480,2488,1292,820,524,24
3396,2480,2488,1288,820,524,23
3400,2484,2488,1292,820,524,23
3400,2484,2492,1292,820,524,24
3400,2484,2492,1292,820,524,23
3404,2488,2492,1288,820,524,23
3400,2484,2492,1292,820,524,24
3400,2484,2492,1292,820,524,23
3400,2484,2492,1288,820,524,23
3404,2492,2496,1288,820,524,24
3408,2496,2500,1288,820,524,23
3408,2496,2504,1292,820,524,23
3404,2496,2500,1292,820,524,24
3412,2500,2504,1292,820,524,23
3408,2500,2508,1292,820,524,24
3412,2504,2512,1292,820,524,23
3416,2508,2512,1292,820,524,23
3416,2512,2516,1292,820,524,24
3416,2512,2520,1288,820,524,23
3412,2508,2512,1288,820,524,23
3416,2512,2516,1292,820,524,24
3416,2512,2520,1292,820,524,23
3420,2516,2524,1292,820,524,23
3424,2520,2528,1288,820,524,24
3428,2528,2536,1292,820,524,23
3428,2532,2536,1292,820,524,23
3428,2532,2540,1292,820,524,24
3424,2524,2528,1292,820,524,23
3420,2516,2520,1292,820,524,24
3416,2512,2516,1292,820,524,23
3408,2504,2508,1292,820,524,23
3408,2500,2504,1292,820,524,24
3408,2500,2504,1292,820,524,23
3408,2500,2508,1292,820,524,23
3412,2504,2508,1292,820,524,24
3412,2504,2508,1292,820,524,23
3412,2504,2512,1288,820,524,23
3416,2508,2512,1292,820,524,24
3412,2504,2512,1288,820,524,23
3416,2504,2512,1292,820,524,23
3416,2508,2516,1292,820,524,24
3420,2508,2516,1292,820,524,23
3416,2512,2520,1292,820,524,23
3420,2512,2520,1288,820,524,24
3420,2512,2520,1288,820,524,23
3420,2512,2524,1288,820,524,24
3420,2512,2520,1288,820,524,23
3420,2516,2524,1288,820,524,23
3420,2512,2520,1288,820,524,24
3416,2512,2520,1288,820,524,23
3416,2512,2520,1292,820,524,23
3416,2512,2520,1288,820,524,24
3420,2516,2524,1288,820,524,23
3424,2520,2528,1288,820,524,23
3424,2520,2528,1288,820,524,24
3424,2524,2532,1292,820,524,23
3424,2524,2532,1288,820,524,23
3428,2532,2540,1288,820,524,24
3432,2536,2544,1288,820,524,23
3436,2540,2548,1292,820,524,24
3436,2540,2548,1292,820,524,23
3432,2536,2548,1292,820,524,23
3432,2536,2544,1292,820,524,24
3428,2532,2540,1292,820,524,23
3424,2528,2536,1288,820,524,23
3424,2524,2532,1292,820,524,24
3420,2520,2528,1292,820,524,23
3416,2516,2520,1292,820,524,23
3420,2512,2520,1292,820,524,24
3420,2512,2524,1292,820,524,23
3420,2516,2524,1288,820,524,23
3424,2516,2528,1292,820,524,24
3420,2516,2524,1292,820,524,23
3424,2516,2528,1292,820,524,24
3420,2512,2520,1288,820,524,23
3416,2508,2516,1288,820,524,23
3416,2508,2520,1292,820,524,24
3416,2508,2516,1288,820,524,23
3412,2500,2512,1288,820,524,23
3412,2500,2512,1288,820,524,24
3416,2504,2516,1288,820,524,23
3420,2512,2520,1288,820,524,23
3416,2512,2520,1288,820,524,24
3420,2512,2524,1288,820,524,23
3420,2516,2524,1288,820,524,23
3424,2520,2528,1288,820,524,24
3424,2520,2532,1288,820,524,23
3428,2524,2536,1288,820,524,24
3428,2528,2536,1288,820,524,23
3428,2528,2536,1288,820,524,23
3428,2528,2540,1288,820,524,24
3432,2532,2540,1288,820,524,23
3436,2532,2544,1288,820,524,23
3436,2536,2548,1288,820,524,24
3436,2536,2548,1288,820,524,23
3436,2540,2552,1288,820,524,23
3440,2548,2560,1292,820,524,24
3440,2544,2556,1288,820,524,23
3440,2544,2556,1288,820,524,23
3436,2540,2552,1288,820,524,24
3432,2536,2544,1288,820,524,23
3424,2524,2536,1288,820,524,24
3424,2520,2532,1288,820,524,23
3420,2516,2524,1288,820,524,23
3420,2516,2524,1288,820,524,24
3424,2520,2528,1288,820,524,23
3428,2520,2532,1292,820,524,23
3428,2520,2532,1288,820,524,24
3424,2516,2528,1288,820,524,23
3424,2516,2528,1288,820,524,23
3424,2516,2528,1288,820,524,24
3428,2520,2532,1288,820,524,23
3428,2524,2536,1288,820,524,23
3428,2524,2536,1288,820,524,24
3428,2520,2532,1288,820,524,23
3424,2520,2532,1288,820,524,23
3428,2520,2532,1288,820,524,24
3432,2524,2540,1288,820,524,23
3428,2524,2536,1288,820,524,24
3428,2524,2536,1288,820,524,23
3424,2524,2536,1288,820,524,23
3428,2524,2540,1288,820,524,24
3432,2532,2544,1288,820,524,23
3436,2536,2548,1288,820,524,23
3436,2540,2552,1288,820,524,24
3440,2544,2560,1288,820,524,23
3444,2552,2564,1288,820,524,23
3448,2556,2568,1288,820,524,24
3452,2560,2576,1288,820,524,23
3460,2572,2588,1292,820,524,23
3460,2576,2592,1288,820,524,24
3460,2572,2592,1288,820,524,23
3456,2572,2584,1288,820,524,24
3452,2560,2576,1288,820,524,23
3444,2548,2560,1288,820,524,23
3436,2536,2548,1288,820,524,24
3428,2532,2540,1288,820,524,23
3428,2528,2536,1288,820,524,23
3424,2524,2532,1288,820,524,24
3424,2524,2532,1288,820,524,23
3432,2528,2540,1288,820,524,23
3432,2528,2544,1288,820,524,24
3432,2532,2544,1288,820,524,23
3432,2528,2544,1288,820,524,23
3428,2524,2536,1288,820,524,24
3424,2520,2532,1288,820,524,23
3428,2520,2536,1288,820,524,24
3432,2528,2540,1288,820,524,23
3428,2524,2536,1288,820,524,23
3428,2524,2536,1288,820,524,24
3424,2520,2532,1288,820,524,23
3428,2524,2536,1288,816,524,23
3432,2528,2544,1288,816,524,24
3436,2532,2548,1288,816,524,23
3436,2536,2548,1288,816,524,23
3440,2540,2552,1288,816,524,24
3444,2544,2560,1288,816,524,23
3448,2548,2564,1288,816,524,23
3444,2548,2564,1288,816,524,24
3448,2556,2568,1288,816,524,23
3452,2560,2572,1288,816,524,23
3452,2560,2576,1288,816,524,24
3452,2560,2576,1288,816,524,23
3452,2564,2576,1288,820,524,24
3456,2568,2584,1288,816,524,23
3460,2572,2588,1288,816,524,23
3464,2576,2592,1288,820,524,24
3464,2580,2596,1288,816,524,23
3460,2576,2592,1288,816,524,23
3456,2568,2580,1288,820,524,24
3452,2560,2572,1288,820,524,23
3448,2556,2568,1288,820,524,23
3444,2556,2568,1288,820,524,24
3444,2552,2564,1288,820,524,23
3444,2548,2560,1288,820,524,23
3440,2544,2556,1288,820,524,24
3436,2540,2552,1288,820,524,23
3436,2540,2552,1288,816,524,24
3440,2540,2556,1288,816,524,23
3436,2540,2552,1288,816,524,23
3440,2536,2552,1288,816,524,24
3436,2536,2552,1288,816,524,23
3436,2536,2548,1288,816,524,23
3440,2540,2556,1288,816,524,24
3436,2536,2552,1288,816,524,23
3440,2536,2552,1288,816,524,23
3436,2536,2548,1288,816,524,24
3436,2532,2548,1288,816,524,23
3440,2536,2552,1288,816,524,23
3440,2540,2552,1288,816,524,24
3444,2544,2560,1288,816,524,23
3444,2548,2560,1288,816,524,24
3444,2548,2564,1288,816,524,23
3440,2544,2560,1288,816,524,23
3440,2544,2560,1288,816,524,24
3444,2548,2560,1288,816,524,23
3444,2548,2564,1288,816,524,23
3444,2552,2564,1288,816,524,24
3444,2552,2564,1288,816,524,23
3448,2552,2568,1288,816,524,23
3444,2552,2568,1288,816,524,24
3448,2556,2568,1288,816,524,23
3448,2556,2568,1288,816,524,23
3456,2564,2576,1288,816,524,24
3456,2568,2580,1288,816,524,23
3444,2556,2568,1288,820,524,23
3436,2544,2552,1288,816,524,24
3428,2532,2544,1288,820,524,23
3428,2528,2536,1288,820,524,24
3424,2520,2528,1288,820,524,23
3420,2516,2524,1288,820,524,23
3416,2512,2520,1288,820,524,24
3420,2512,2520,1288,820,524,23
3416,2508,2520,1288,820,524,23
3416,2508,2516,1288,816,524,24
3416,2512,2520,1288,816,524,23
3416,2508,2520,1288,816,524,23
3416,2504,2516,1288,816,524,24
3416,2508,2520,1288,816,524,23
3420,2512,2520,1288,816,524,24
3420,2516,2524,1288,816,524,23
3424,2516,2528,1288,816,524,23
3424,2516,2528,1288,816,524,24
3428,2520,2532,1288,816,524,23
3428,2524,2536,1288,816,524,23
3436,2532,2544,1288,816,524,24
3436,2536,2548,1288,816,524,23
3440,2536,2548,1288,816,524,23
3440,2540,2552,1288,816,524,24
3444,2548,2560,1288,816,524,23
3440,2544,2556,1288,816,524,23
3440,2544,2556,1288,816,524,24
3444,2548,2560,1288,816,524,23
3444,2548,2560,1288,816,524,23
3444,2552,2564,1288,816,524,24
3448,2552,2564,1288,816,524,23
3448,2556,2568,1288,816,524,24
3448,2560,2572,1288,816,524,23
3452,2560,2576,1288,816,524,23
3456,2568,2580,1288,816,524,24
3460,2572,2584,1288,816,524,23
3460,2572,2588,1288,816,524,23
3452,2564,2576,1288,816,524,24
3444,2556,2564,1288,816,524,23
3444,2552,2560,1288,820,524,23
3440,2548,2560,1288,816,524,24
3440,2544,2556,1288,816,524,23
3436,2544,2552,1288,820,524,23
3440,2540,2552,1288,820,524,24
3436,2536,2548,1288,816,524,23
3436,2536,2548,1288,816,524,24
3436,2536,2548,1288,816,524,23
3436,2536,2548,1288,816,524,23
3440,2536,2552,1288,816,524,24
3436,2532,2544,1288,816,524,23
3436,2532,2544,1288,816,524,23
3436,2536,2548,1288,816,524,24
3440,2540,2552,1288,816,524,23
3440,2540,2552,1288,816,524,23
3436,2532,2544,1288,816,524,24
3436,2536,2548,1288,816,524,23
3436,2536,2548,1288,816,524,23
3440,2540,2552,1288,816,524,24
3440,2544,2556,1288,816,524,23
3444,2544,2560,1288,816,524,24
3444,2548,2560,1288,816,524,23
3444,2548,2564,1288,816,524,23
3448,2556,2568,1288,816,524,24
3456,2564,2580,1288,816,524,23
3460,2568,2584,1288,816,524,23
3464,2576,2588,1288,816,524,24
3460,2576,2592,1288,816,524,23
3468,2584,2600,1288,816,524,23
3468,2584,2604,1288,816,524,24
3468,2584,2604,1288,816,520,23
3472,2588,2604,1288,816,524,23
3472,2588,2608,1288,816,524,24
3472,2588,2604,1288,816,524,23
3468,2588,2600,1288,816,524,24
3464,2580,2592,1288,816,524,23
3460,2572,2588,1288,816,524,23
3456,2568,2580,1288,816,524,24
3456,2568,2580,1288,820,524,23
3456,2568,2580,1288,816,524,23
3456,2564,2576,1288,816,524,24
3452,2564,2576,1288,816,524,23
3452,2560,2576,1288,816,524,23
3452,2560,2576,1288,816,524,24
3452,2560,2576,1288,816,524,23
3448,2556,2568,1288,816,524,23
3444,2548,2560,1288,816,524,24
3444,2544,2560,1288,816,524,23
3444,2544,2560,1288,816,524,23
3444,2548,2564,1288,816,520,24
3444,2548,2560,1288,816,524,23
3444,2544,2560,1288,816,524,24
3448,2548,2564,1288,816,524,23
3448,2552,2568,1288,816,524,23
3448,2556,2572,1288,816,524,24
3452,2560,2572,1288,816,524,23
3452,2560,2576,1288,816,524,23
3452,2560,2572,1288,816,524,24
3452,2560,2576,1288,816,520,23
3452,2564,2576,1288,816,520,23
3456,2564,2580,1288,816,524,24
3460,2572,2588,1288,816,520,23
3460,2572,2588,1288,816,520,23
3460,2572,2588,1288,816,520,24
3460,2572,2588,1288,816,524,23
3460,2576,2592,1288,816,520,24
3464,2576,2592,1288,816,520,23
3468,2584,2600,1288,816,520,23
3468,2588,2604,1288,816,520,24
3472,2588,2604,1288,816,524,23
3468,2588,2604,1288,816,520,23
3464,2580,2596,1288,816,524,24
3460,2572,2588,1288,816,524,23
3456,2568,2580,1288,816,524,23
3456,2564,2576,1288,816,524,24
3448,2560,2572,1288,816,524,23
3448,2556,2568,1288,816,524,23
3448,2556,2568,1288,816,524,24
3452,2556,2572,1288,816,524,23
3452,2560,2576,1288,816,524,24
3456,2564,2576,1288,816,524,23
3456,2564,2580,1288,816,524,23
3452,2560,2576,1288,816,524,24
3452,2560,2572,1288,816,520,23
3456,2560,2576,1288,816,524,23
3452,2560,2576,1288,816,524,24
3452,2560,2572,1288,816,524,23
3452,2556,2572,1288,816,524,23
3452,2560,2576,1288,816,524,24
3452,2560,2576,1288,816,524,23
3456,2568,2580,1288,816,524,23
3456,2568,2584,1288,816,524,24
3456,2568,2580,1288,816,520,23
3460,2568,2584,1288,816,524,23
3456,2568,2584,1288,816,520,24
3460,2572,2584,1288,816,520,23
3464,2576,2592,1288,816,524,24
3460,2576,2592,1288,816,524,23
3464,2580,2592,1288,816,520,23
3464,2580,2596,1288,816,520,24
3464,2580,2596,1288,816,524,23
3464,2580,2596,1288,816,520,23
3468,2584,2600,1288,816,520,24
3468,2588,2600,1288,816,524,23
3468,2588,2604,1288,816,524,23
3472,2592,2604,1288,816,524,24
3472,2592,2604,1288,816,524,23
3464,2584,2596,1288,816,524,23
3464,2580,2592,1288,816,524,24
3456,2572,2584,1288,816,524,23
3456,2568,2576,1288,816,524,24
3448,2560,2572,1288,816,524,23
3448,2556,2568,1288,820,524,23
3448,2556,2568,1288,816,524,24
3448,2556,2568,1288,816,524,23
3452,2560,2572,1288,820,524,23
3452,2564,2576,1288,816,524,24
3456,2564,2576,1288,816,524,23
3456,2564,2576,1288,816,524,23
3452,2564,2576,1288,816,524,24
3456,2564,2576,1288,816,524,23
3456,2564,2580,1288,816,524,23
3456,2564,2580,1288,816,524,24
3460,2568,2580,1288,816,524,23
3460,2568,2584,1288,816,520,23
3460,2572,2588,1288,816,524,24
3464,2576,2588,1288,816,524,23
3464,2576,2592,1288,816,524,24
3464,2580,2596,1288,816,524,23
3464,2580,2596,1288,816,524,23
3468,2580,2596,1288,816,524,24
3472,2588,2604,1288,816,524,23
3476,2592,2612,1288,816,524,23
3476,2600,2616,1288,816,524,24
3480,2600,2616,1288,816,520,23
3480,2600,2616,1288,816,524,23
3484,2604,2624,1288,816,520,24
3484,2604,2620,1288,816,524,23
3484,2608,2624,1288,816,524,23
3488,2612,2628,1288,816,524,24
3488,2616,2632,1288,816,520,23
3488,2616,2636,1288,816,520,24
3488,2620,2636,1288,816,520,23
3488,2616,2632,1288,816,524,23
3484,2608,2624,1288,816,524,24
3480,2604,2620,1288,816,524,23
3476,2600,2616,1288,816,524,23
3476,2596,2612,1288,816,524,24
3472,2592,2608,1288,820,524,23
3472,2592,2608,1288,820,524,23
3472,2592,2608,1288,816,524,24
3476,2596,2616,1288,816,524,23
3480,2600,2620,1288,816,524,23
3484,2604,2624,1288,816,524,24
3480,2600,2620,1288,816,524,23
3480,2600,2620,1288,816,524,23
3476,2596,2620,1288,816,524,24
3480,2600,2620,1288,816,524,23
3484,2604,2624,1288,816,524,24
3484,2608,2628,1288,816,524,23
3484,2608,2628,1288,816,524,23
3488,2612,2632,1288,816,524,24
3488,2612,2636,1288,816,524,23
3488,2616,2640,1288,816,524,23
3492,2620,2644,1288,816,524,24
3496,2624,2644,1288,816,524,23
3496,2624,2648,1284,816,520,23
3496,2628,2652,1284,816,520,24
3500,2632,2656,1288,816,524,23
3504,2640,2664,1284,816,520,23
3508,2640,2668,1288,816,524,24
3508,2644,2672,1288,816,520,23
3508,2640,2668,1288,816,520,24
3508,2640,2668,1288,816,520,23
3508,2644,2668,1284,816,520,23
3508,2644,2672,1284,816,520,24
3512,2648,2676,1284,816,520,23
3508,2644,2672,1284,816,520,23
3504,2640,2664,1288,816,520,24
3504,2636,2660,1288,816,524,23
3496,2628,2652,1284,816,524,23
3492,2620,2644,1288,816,524,24
3488,2612,2636,1288,816,524,23
3484,2608,2632,1288,816,524,23
3484,2604,2628,1288,816,524,24
3484,2604,2628,1288,816,524,23
3484,2604,2628,1288,816,524,23
3484,2604,2628,1284,816,524,24
3484,2608,2632,1284,816,524,23
3484,2608,2632,1288,816,524,24
3484,2604,2628,1284,816,524,23
3480,2600,2624,1284,816,524,23
3484,2604,2628,1284,816,524,24
3484,2604,2628,1288,816,524,23
3484,2604,2628,1288,816,524,23
3484,2604,2628,1288,816,524,24
3484,2604,2628,1284,816,524,23
3484,2604,2628,1284,816,520,23
3488,2608,2632,1288,816,524,24
3492,2612,2636,1284,816,520,23
3488,2608,2632,1284,816,520,23
3488,2608,2632,1284,816,520,24
3488,2612,2636,1284,816,520,23
3488,2612,2640,1284,816,520,24
3492,2616,2640,1284,816,520,23
3492,2616,2640,1284,816,520,23
3488,2612,2636,1284,816,520,24
3488,2612,2636,1284,816,524,23
3488,2612,2636,1284,816,520,23
3488,2612,2636,1284,816,520,24
3492,2616,2640,1288,816,520,23
3492,2620,2644,1288,816,524,23
3488,2616,2640,1288,816,524,24
3484,2608,2632,1288,816,524,23
3476,2600,2620,1288,816,524,23
3476,2596,2616,1288,816,524,24
3472,2588,2608,1288,816,524,23
3468,2584,2604,1288,816,524,23
3468,2580,2600,1288,816,524,24
3468,2580,2600,1288,816,524,23
3468,2580,2600,1288,816,524,24
3468,2580,2600,1288,816,524,23
3468,2580,2600,1288,816,524,23
3468,2580,2600,1288,816,524,24
3468,2580,2604,1288,816,524,23
3468,2580,2604,1284,816,524,23
3468,2580,2600,1284,816,524,24
3468,2580,2604,1284,816,524,23
3468,2584,2604,1288,816,524,23
3472,2584,2608,1288,816,524,24
3468,2580,2604,1284,816,524,23
3468,2580,2604,1284,816,520,23
3472,2584,2608,1284,816,520,24
3472,2584,2608,1288,816,524,23
3472,2584,2608,1288,816,524,24
3472,2588,2612,1284,816,520,23
3472,2588,2612,1284,816,520,23
3480,2596,2616,1288,816,524,24
3480,2600,2624,1288,816,524,23
3484,2604,2628,1288,816,524,23
3484,2604,2628,1288,816,524,24
3480,2600,2624,1288,816,524,23
3480,2600,2624,1288,816,524,23
3484,2604,2628,1288,816,524,24
3488,2612,2636,1288,816,520,23
3492,2616,2644,1288,816,524,23
3496,2620,2644,1288,816,524,24
3492,2616,2640,1288,816,524,23
3484,2612,2632,1288,816,524,23
3480,2604,2624,1288,816,524,24
3476,2600,2620,1288,816,524,23
3472,2592,2612,1288,816,524,24
3472,2588,2608,1288,816,524,23
3468,2584,2604,1288,816,524,23
3468,2580,2600,1288,816,524,24
3464,2580,2600,1288,816,524,23
3468,2580,2600,1288,816,524,23
3472,2584,2608,1288,816,524,24
3472,2588,2612,1288,816,524,23
3476,2592,2616,1288,816,524,23
3476,2588,2612,1288,816,524,24
3476,2588,2612,1288,816,524,23
3476,2588,2612,1284,816,524,23
3476,2588,2616,1284,816,520,24
3476,2592,2616,1284,816,520,23
3476,2592,2616,1288,816,524,24
3480,2592,2616,1288,816,524,23
3480,2592,2616,1288,816,524,23
3480,2596,2620,1284,816,520,24
3480,2596,2620,1288,816,524,23
3480,2596,2620,1288,816,520,23
3484,2604,2628,1284,816,520,24
3484,2604,2628,1288,816,524,23
3484,2604,2632,1288,816,520,23
3488,2608,2632,1288,816,520,24
3484,2608,2632,1288,816,524,23
3484,2608,2632,1288,816,524,23
3488,2608,2632,1288,816,520,24
3484,2608,2632,1288,816,524,23
3488,2612,2636,1288,816,520,23
3492,2616,2640,1288,816,524,24
3492,2616,2640,1288,816,524,23
3492,2620,2644,1288,816,524,24
3488,2612,2636,1288,816,520,23
3484,2604,2624,1288,816,524,23
3476,2596,2616,1288,816,524,24
3468,2584,2604,1288,816,524,23
3468,2580,2600,1288,816,524,23
3464,2576,2596,1288,816,524,24
3460,2572,2588,1288,816,524,23
3456,2568,2584,1288,816,524,23
3456,2564,2584,1288,816,524,24
3456,2564,2584,1288,816,524,23
3460,2568,2592,1288,816,524,23
3464,2572,2592,1288,816,524,24
3460,2568,2592,1288,816,524,23
3460,2564,2584,1288,816,524,23
3460,2564,2584,1288,816,524,24
3460,2568,2588,1288,816,524,23
3460,2568,2588,1288,816,524,24
3460,2568,2588,1288,816,524,23
3464,2572,2592,1288,816,524,23
3464,2572,2592,1288,816,524,24
3468,2580,2600,1284,816,520,23
3472,2580,2604,1288,816,524,23
3468,2580,2604,1288,816,524,24
3472,2584,2604,1288,816,520,23
3476,2588,2608,1288,816,524,23
3472,2588,2608,1288,816,520,24
3476,2592,2612,1284,816,520,23
3480,2596,2620,1288,816,524,23
3480,2596,2620,1288,816,524,24
3480,2600,2620,1288,816,524,23
3480,2600,2620,1288,816,524,24
3484,2600,2624,1288,816,520,23
3484,2600,2624,1288,816,520,23
3484,2604,2628,1288,816,520,24
3488,2612,2636,1288,816,524,23
3492,2616,2640,1288,816,520,23
3488,2612,2632,1288,816,520,24
3480,2604,2624,1288,816,524,23
3476,2596,2616,1288,816,524,23
3476,2592,2612,1288,816,524,24
3472,2588,2604,1288,816,524,23
3468,2580,2600,1288,816,524,23
3464,2572,2592,1288,816,524,24
3464,2572,2592,1288,816,524,23
3464,2572,2592,1288,816,524,24
3464,2576,2596,1288,816,524,23
3464,2576,2596,1288,816,524,23
3464,2572,2596,1284,816,524,24
3460,2568,2592,1284,816,524,23
3460,2568,2592,1284,816,520,23
3464,2572,2592,1284,816,520,24
3464,2576,2596,1288,816,524,23
3464,2572,2596,1284,816,524,23
3464,2572,2592,1288,816,524,24
3464,2572,2592,1284,816,524,23
3468,2576,2600,1288,816,524,23
3468,2580,2600,1284,816,520,24
3472,2580,2604,1284,816,520,23
3472,2584,2604,1284,816,520,24
3472,2584,2604,1284,816,520,23
3472,2588,2608,1284,816,520,23
3480,2592,2616,1284,816,520,24
3480,2596,2620,1284,816,520,23
3480,2596,2620,1284,816,520,23
3484,2600,2624,1284,816,520,24
3484,2600,2624,1284,816,520,23
3480,2600,2620,1284,816,520,23
3480,2600,2624,1284,816,520,24
3484,2604,2624,1284,816,520,23
3488,2608,2632,1284,816,520,23
3492,2612,2636,1284,816,520,24
3492,2616,2640,1284,816,520,23
3488,2612,2636,1284,816,520,24
3484,2604,2624,1284,816,520,23
3480,2596,2616,1284,816,520,23
3476,2588,2608,1284,816,520,24
3472,2584,2604,1284,816,520,23
3468,2580,2600,1284,816,524,23
3464,2576,2592,1284,816,520,24
3464,2572,2592,1284,816,524,23
3460,2572,2588,1284,816,520,23
3464,2572,2592,1284,816,520,24
3464,2572,2592,1284,816,520,23
3468,2572,2596,1284,816,520,23
3464,2572,2592,1284,816,520,24
3464,2568,2588,1284,816,520,23
3464,2568,2588,1284,816,520,24
3464,2568,2588,1284,816,520,23
3464,2568,2592,1284,816,520,23
3460,2568,2588,1284,816,520,24
3460,2568,2588,1284,816,520,23
3460,2568,2592,1284,816,520,23
3464,2572,2596,1284,816,520,24
3468,2576,2600,1284,816,520,23
3472,2580,2604,1284,816,520,23
3472,2584,2604,1284,816,520,24
3472,2584,2608,1284,816,520,23
3476,2588,2612,1284,816,520,23
3480,2592,2616,1284,816,520,24
3480,2596,2620,1284,816,520,23
3484,2600,2624,1284,816,520,23
3484,2600,2624,1284,816,520,24
3484,2600,2624,1284,816,520,23
3484,2604,2624,1284,816,520,24
3484,2604,2628,1284,816,520,23
3484,2604,2628,1284,816,520,23
3488,2608,2632,1284,816,520,24
3484,2604,2628,1284,816,520,23
3480,2600,2624,1284,816,520,23
3480,2596,2620,1284,816,520,24
3472,2588,2612,1284,816,520,23
3468,2584,2604,1284,816,520,23
3464,2576,2596,1284,816,520,24
3460,2568,2588,1284,816,520,23
3456,2568,2584,1288,816,524,23
3456,2564,2584,1284,816,524,24
3460,2564,2584,1284,816,524,23
3460,2568,2588,1284,816,524,23
3460,2568,2592,1284,816,524,24
3464,2572,2596,1284,816,524,23
3460,2568,2592,1284,816,520,24
3460,2564,2588,1284,816,520,23
3460,2564,2588,1284,816,520,23
3464,2568,2592,1284,816,520,24
3464,2572,2596,1284,816,520,23
3464,2572,2596,1284,816,520,23
3464,2568,2592,1284,816,520,24
3464,2572,2596,1284,816,520,23
3468,2576,2600,1284,816,520,23
3468,2580,2604,1284,816,520,24
3468,2580,2604,1284,816,520,23
3472,2580,2604,1284,816,520,23
3472,2580,2604,1284,816,520,24
3472,2584,2608,1284,816,520,23
3476,2588,2616,1284,816,520,24
3480,2592,2616,1284,816,520,23
3476,2592,2616,1284,816,520,23
3476,2592,2616,1284,816,520,24
3480,2596,2620,1284,816,520,23
3480,2596,2620,1284,816,520,23
3480,2596,2624,1284,816,520,24
3480,2600,2624,1284,816,520,23
3480,2600,2624,1284,816,520,23
3480,2596,2620,1284,816,520,24
3480,2596,2620,1284,816,520,23
3476,2588,2612,1284,816,520,23
3472,2584,2608,1284,816,520,24
3468,2576,2600,1284,816,520,23
3460,2568,2588,1284,816,520,23
3456,2564,2584,1284,816,524,24
3456,2560,2584,1284,816,524,23
3460,2564,2588,1284,816,524,24
3460,2564,2584,1284,816,524,23
3460,2564,2588,1284,816,520,23
3460,2564,2588,1284,816,524,24
3456,2560,2584,1284,816,520,23
3456,2556,2580,1284,816,520,23
3456,2556,2580,1284,816,520,24
3456,2556,2580,1284,816,520,23
3452,2556,2580,1284,816,520,23
3452,2552,2576,1284,812,520,24
3452,2552,2572,1284,812,520,23
3452,2552,2572,1284,816,520,23
3452,2552,2572,1284,816,520,24
3448,2548,2572,1284,816,520,23
3448,2548,2568,1284,816,520,24
3444,2544,2564,1284,816,520,23
3436,2532,2552,1284,812,520,23
3432,2524,2544,1284,816,520,24
3420,2508,2524,1284,812,520,23
3408,2492,2508,1284,816,520,23
3404,2488,2500,1284,816,520,24
3396,2480,2488,1284,812,520,23
3384,2456,2464,1284,812,520,23
3364,2436,2440,1284,812,520,24
3364,2432,2436,1284,816,520,23
3356,2420,2424,1284,816,520,23
3348,2412,2412,1284,812,520,24
3344,2408,2408,1284,816,520,23
3344,2404,2404,1284,816,520,23
3332,2392,2388,1284,816,520,24
3316,2368,2364,1284,816,520,23
3300,2340,2336,1284,816,520,24
3288,2324,2316,1284,816,520,23
3276,2308,2300,1284,816,520,23
3264,2296,2284,1284,816,520,24
3260,2284,2276,1284,816,520,23
3252,2276,2268,1284,812,520,23
3252,2276,2264,1284,812,520,24
3252,2276,2268,1284,816,520,23
3252,2276,2268,1284,816,520,23
3248,2272,2260,1284,812,520,24
3244,2264,2256,1284,816,520,23
3244,2264,2252,1284,816,520,23
3240,2260,2248,1284,816,520,24
3248,2268,2256,1284,812,520,23
3248,2272,2260,1284,816,520,23
3252,2272,2264,1284,812,520,24
3256,2276,2268,1284,816,520,23
3264,2288,2276,1284,812,520,24
3272,2300,2292,1284,812,520,23
3284,2316,2308,1284,816,520,23
3288,2320,2312,1284,816,520,24
3284,2316,2308,1284,816,520,23
3280,2312,2304,1284,816,520,23
3280,2312,2304,1284,816,520,24
3276,2308,2300,1284,816,520,23
3276,2308,2300,1284,816,520,23
3280,2316,2308,1284,816,520,24
3292,2332,2324,1284,816,520,23
3304,2348,2344,1284,816,520,23
3320,2368,2364,1284,816,520,24
3324,2376,2376,1284,816,520,23
3320,2372,2368,1284,816,520,24
3304,2352,2344,1284,816,520,23
3292,2332,2328,1284,816,520,23
3292,2332,2324,1284,816,520,24
3304,2352,2344,1284,816,520,23
3320,2372,2372,1284,816,520,23
3344,2404,2404,1284,816,524,24
3356,2424,2428,1284,816,524,23
3364,2436,2440,1284,816,524,23
3372,2440,2448,1284,816,524,24
3372,2444,2452,1284,816,520,23
3380,2452,2460,1284,816,520,23
3384,2460,2472,1284,816,520,24
3396,2476,2488,1284,816,520,23
3400,2484,2496,1284,816,520,23
3400,2480,2496,1284,816,520,24
3392,2468,2480,1284,816,520,23
3380,2448,2460,1284,816,520,24
3360,2424,2432,1284,816,520,23
3348,2408,2416,1284,816,520,23
3340,2400,2400,1284,816,520,24
3336,2392,2396,1284,816,520,23
3340,2400,2400,1284,816,520,23
3348,2408,2412,1284,816,520,24
3352,2416,2420,1284,816,520,23
3364,2432,2436,1284,816,520,23
3368,2440,2444,1284,816,520,24
3364,2436,2440,1284,816,520,23
3356,2420,2424,1284,816,520,23
3348,2412,2416,1284,816,520,24
3348,2412,2412,1284,816,520,23
3356,2420,2424,1284,816,520,24
3372,2448,2452,1284,816,520,23
3388,2468,2476,1284,816,520,23
3408,2500,2512,1284,816,520,24
3424,2524,2536,1284,816,520,23
3432,2532,2548,1284,816,520,23
3428,2528,2544,1284,816,520,24
3420,2520,2536,1284,816,520,23
3416,2516,2528,1284,816,520,23
3416,2512,2524,1284,816,524,24
3416,2508,2524,1284,816,524,23
3420,2512,2524,1284,816,524,23
3416,2508,2520,1284,816,520,24
3408,2500,2512,1284,816,520,23
3404,2488,2504,1284,816,520,23
3400,2484,2500,1284,816,524,24
3400,2484,2496,1284,816,524,23
3392,2472,2488,1284,816,520,24
3384,2464,2476,1284,816,520,23
3380,2456,2464,1284,816,520,23
3376,2448,2456,1284,816,520,24
3368,2440,2448,1284,812,520,23
3364,2432,2440,1284,816,520,23
3356,2424,2428,1284,816,520,24
3352,2416,2424,1284,816,520,23
3352,2416,2424,1284,812,520,23
3352,2416,2424,1284,812,520,24
3352,2420,2424,1284,812,520,23
3356,2420,2424,1284,812,520,23
3356,2420,2428,1284,812,520,24
3360,2424,2432,1284,812,520,23
3364,2432,2436,1284,812,520,24
3364,2432,2440,1284,812,520,23
3368,2440,2448,1284,812,520,23
3376,2448,2456,1284,812,520,24
3384,2460,2472,1284,816,520,23
3392,2472,2484,1284,816,520,23
3396,2480,2492,1284,812,520,24
3400,2484,2496,1284,816,520,23
3400,2488,2500,1284,816,520,23
3404,2492,2504,1284,816,520,24
3404,2492,2508,1284,816,520,23
3408,2496,2512,1284,816,520,23
3408,2496,2512,1284,816,520,24
3404,2492,2508,1284,816,520,23
3400,2488,2500,1284,816,520,24
3400,2484,2500,1284,816,520,23
3400,2484,2496,1284,816,520,23
3400,2484,2500,1284,812,520,24
3404,2488,2504,1284,812,520,23
3404,2488,2504,1284,816,520,23
3400,2484,2500,1284,812,520,24
3400,2480,2496,1284,812,520,23
3400,2480,2496,1284,812,520,23
3396,2476,2492,1284,812,520,24
3396,2476,2492,1284,812,520,23
3396,2476,2492,1284,812,520,23
3400,2484,2496,1284,812,520,24
3404,2484,2500,1284,812,520,23
3404,2488,2504,1284,812,520,24
3408,2492,2508,1284,812,520,23
3412,2496,2516,1284,812,520,23
3412,2500,2520,1284,812,520,24
3420,2512,2528,1284,812,520,23
3424,2516,2536,1280,812,520,23
3428,2520,2540,1284,812,520,24
3432,2528,2548,1284,812,520,23
3440,2536,2556,1284,812,520,23
3444,2544,2564,1284,812,520,24
3448,2552,2572,1280,812,520,23
3452,2556,2580,1284,812,520,23
3452,2560,2580,1284,812,520,24
3452,2560,2584,1284,812,520,23
3452,2556,2580,1284,812,520,24
3448,2552,2572,1284,812,520,23
3444,2548,2568,1284,812,520,23
3444,2544,2564,1284,816,520,24
3444,2544,2564,1284,816,520,23
3440,2540,2560,1284,816,520,23
3440,2536,2560,1284,816,520,24
3440,2540,2560,1284,812,520,23
3444,2540,2564,1284,812,520,23
3444,2540,2564,1284,812,520,24
3444,2544,2568,1284,812,520,23
3444,2544,2568,1284,812,520,23
3440,2536,2560,1284,812,520,24
3440,2536,2560,1284,812,520,23
3444,2540,2564,1284,812,520,24
3444,2544,2568,1280,812,520,23
3444,2544,2564,1284,812,520,23
3444,2544,2568,1280,812,520,24
3444,2544,2568,1284,812,520,23
3444,2544,2568,1280,812,520,23
3448,2544,2568,1284,812,520,24
3452,2552,2576,1280,812,520,23
3452,2552,2576,1284,812,520,23
3452,2556,2580,1284,812,520,24
3452,2560,2584,1284,812,520,23
3456,2564,2588,1280,812,520,23
3460,2568,2592,1284,812,520,24
3460,2568,2592,1284,812,520,23
3460,2572,2596,1284,812,520,24
3460,2572,2596,1284,812,520,23
3464,2576,2600,1284,812,520,23
3468,2580,2608,1280,812,520,24
3468,2580,2604,1284,812,520,23
3464,2576,2600,1284,812,520,23
3460,2572,2592,1284,816,520,24
3452,2560,2580,1284,816,520,23
3444,2548,2568,1284,816,520,23
3436,2540,2560,1284,816,520,24
3436,2536,2552,1284,816,520,23
3428,2528,2544,1284,816,520,23
3424,2520,2536,1284,816,520,24
3420,2516,2532,1284,816,520,23
3416,2508,2524,1284,816,520,23
3412,2504,2520,1284,816,520,24
3416,2504,2520,1284,816,520,23
3416,2508,2524,1284,816,520,24
3412,2500,2520,1284,812,520,23
3412,2500,2516,1284,812,520,23
3416,2508,2524,1284,812,520,24
3424,2512,2532,1284,816,520,23
3424,2516,2532,1284,816,520,23
3424,2516,2532,1284,816,520,24
3424,2516,2532,1284,812,520,23
3424,2516,2536,1284,816,520,23
3424,2520,2536,1284,812,520,24
3428,2524,2544,1284,812,520,23
3432,2528,2544,1284,812,520,23
3428,2528,2544,1284,812,520,24
3428,2528,2544,1284,812,520,23
3428,2528,2544,1284,812,520,24
3428,2524,2540,1284,812,520,23
3424,2520,2536,1284,812,520,23
3420,2520,2536,1284,812,520,24
3420,2516,2532,1280,812,520,23
3420,2520,2536,1280,812,520,23
3420,2520,2536,1280,812,520,24
3424,2524,2540,1280,812,520,23
3424,2528,2544,1284,812,520,23
3424,2528,2540,1280,812,520,24
3420,2520,2532,1280,812,520,23
3412,2508,2520,1280,812,520,23
3404,2500,2512,1280,812,520,24
3400,2492,2504,1284,812,520,23
3396,2488,2500,1284,812,520,24
3392,2484,2492,1284,816,520,23
3388,2476,2484,1284,812,520,23
3388,2472,2480,1280,812,520,24
3384,2472,2480,1280,812,520,23
3384,2472,2480,1280,812,520,23
3388,2472,2484,1280,812,520,24
3388,2472,2484,1280,812,520,23
3388,2472,2484,1280,812,520,23
3388,2472,2484,1280,812,520,24
3388,2472,2484,1284,812,520,23
3388,2476,2484,1280,812,520,23
3384,2468,2480,1280,812,520,24
3384,2468,2476,1280,812,520,23
3384,2468,2476,1280,812,520,23
3384,2472,2480,1280,812,520,24
3388,2472,2480,1280,812,520,23
3384,2472,2480,1280,812,520,24
3384,2468,2476,1280,812,520,23
3384,2472,2480,1280,812,520,23
3384,2472,2480,1280,812,520,24
3384,2472,2480,1280,812,520,23
3384,2476,2484,1280,812,520,23
3388,2480,2488,1280,812,520,24
3392,2484,2492,1280,812,520,23
3392,2484,2492,1280,812,520,23
3396,2488,2496,1280,812,520,24
3396,2492,2500,1280,812,520,23
3400,2492,2500,1280,812,520,23
3404,2500,2508,1280,812,520,24
3404,2504,2512,1284,812,520,23
3400,2500,2508,1280,812,520,24
3396,2492,2496,1280,812,520,23
3388,2480,2484,1280,812,520,23
3384,2476,2480,1284,816,520,24
3384,2472,2476,1280,812,520,23
3380,2468,2472,1284,816,520,23
3376,2464,2472,1280,812,520,24
3376,2464,2468,1280,812,520,23
3376,2460,2464,1280,816,520,23
3376,2460,2464,1280,812,520,24
3376,2460,2468,1280,812,520,23
3380,2464,2468,1280,812,520,23
3380,2464,2468,1280,812,520,24
3380,2468,2472,1280,812,520,23
3380,2468,2476,1280,812,520,23
3384,2468,2476,1280,812,520,24
3384,2468,2476,1280,812,520,23
3380,2468,2476,1280,812,520,24
3380,2468,2476,1280,812,520,23
3384,2472,2480,1280,812,520,23
3388,2480,2484,1284,812,520,24
3392,2480,2488,1280,812,520,23
3396,2488,2496,1280,812,520,23
3396,2492,2500,1280,812,520,24
3400,2496,2504,1280,812,520,23
3400,2496,2508,1280,812,520,23
3400,2496,2508,1280,812,520,24
3400,2500,2508,1280,812,520,23
3396,2496,2504,1280,812,520,23
3400,2496,2504,1280,812,520,24
3400,2500,2508,1280,812,520,23
3404,2504,2516,1280,812,520,24
3404,2508,2516,1284,816,520,23
3408,2512,2520,1280,812,520,23
3412,2516,2528,1280,812,520,24
3412,2520,2528,1280,816,520,23
3412,2520,2528,1280,816,520,23
3408,2512,2520,1280,816,520,24
3400,2500,2508,1280,816,520,23
3392,2492,2500,1284,816,520,23
3392,2488,2492,1284,816,520,24
3388,2484,2492,1284,816,520,23
3384,2480,2488,1280,816,520,23
3384,2476,2484,1280,816,520,24
3380,2472,2476,1284,816,520,23
3384,2472,2480,1284,816,520,24
3384,2476,2484,1280,816,520,23
3384,2476,2484,1284,816,520,23
3388,2476,2484,1284,816,520,24
3388,2480,2484,1284,816,520,23
3388,2480,2488,1284,816,520,23
3392,2484,2492,1280,816,520,24
3396,2492,2500,1284,816,520,23
3400,2496,2508,1284,816,520,23
3404,2500,2512,1284,816,520,24
3404,2500,2512,1284,816,520,23
3404,2504,2512,1284,816,520,23
3404,2504,2516,1284,816,520,24
3408,2508,2520,1284,816,520,23
3408,2512,2524,1280,812,520,23
3408,2512,2520,1280,816,520,24
3412,2512,2524,1280,812,520,23
3412,2516,2528,1280,812,520,24
3416,2520,2536,1280,812,520,23
3416,2524,2536,1280,812,520,23
3420,2528,2540,1280,812,520,24
3424,2532,2544,1280,812,520,23
3428,2540,2552,1280,812,520,23
3428,2540,2556,1280,812,520,24
3432,2548,2560,1280,812,520,23
3436,2552,2568,1280,812,520,23
3440,2556,2572,1280,816,520,24
3440,2560,2576,1280,812,520,23
3440,2556,2572,1280,816,520,23
3436,2552,2568,1284,816,520,24
3432,2544,2560,1284,816,520,23
3428,2540,2556,1284,816,520,24
3428,2540,2556,1284,816,520,23
3428,2540,2556,1284,816,520,23
3428,2540,2556,1284,816,520,24
3428,2540,2556,1284,816,520,23
3432,2544,2560,1284,816,520,23
3432,2544,2564,1284,816,520,24
3436,2548,2568,1284,816,520,23
3436,2548,2568,1280,816,520,23
3436,2548,2568,1280,816,520,24
3436,2552,2572,1284,816,520,23
3440,2556,2580,1280,816,520,23
3444,2564,2584,1280,816,520,24
3448,2564,2584,1280,812,520,23
3448,2564,2584,1280,812,520,24
3448,2564,2584,1280,812,520,23
3448,2568,2588,1280,812,520,23
3452,2572,2592,1280,812,520,24
3456,2576,2600,1280,812,520,23
3456,2580,2600,1280,816,520,23
3460,2580,2604,1280,812,520,24
3464,2588,2612,1280,812,520,23
3464,2592,2616,1280,812,520,23
3468,2596,2620,1280,812,520,24
3468,2600,2624,1280,812,520,23
3472,2604,2628,1280,812,520,23
3476,2608,2632,1280,812,520,24
3476,2612,2636,1280,812,520,23
3480,2616,2640,1280,812,520,23
3480,2616,2644,1280,812,520,24
3484,2620,2644,1280,812,520,23
3480,2616,2644,1280,812,520,24
3480,2616,2640,1280,812,520,23
3476,2612,2636,1280,816,520,23
3472,2608,2632,1280,816,520,24
3472,2604,2628,1280,816,520,23
3468,2596,2624,1280,816,520,23
3464,2596,2620,1280,816,520,24
3464,2592,2616,1280,816,520,23
3464,2592,2620,1280,816,520,23
3468,2596,2624,1280,812,520,24
3472,2604,2628,1280,816,520,23
3472,2604,2632,1280,816,520,23
3472,2604,2632,1280,812,520,24
3472,2600,2624,1280,812,520,23
3468,2596,2624,1280,812,520,24
3472,2600,2628,1280,812,520,23
3472,2600,2628,1280,812,520,23
3472,2600,2628,1280,812,520,24
3472,2600,2628,1280,816,520,23
3468,2596,2624,1280,812,520,23
3468,2596,2624,1280,812,520,24
3472,2604,2628,1280,812,520,23
3472,2604,2632,1280,812,520,23
3476,2608,2636,1280,812,520,24
3480,2616,2644,1280,812,520,23
3484,2616,2648,1280,812,520,23
3484,2620,2652,1280,812,520,24
3488,2628,2656,1280,812,520,23
3492,2628,2660,1280,812,520,23
3492,2632,2660,1280,812,520,24
3492,2632,2664,1280,812,520,23
3492,2636,2668,1280,812,520,24
3496,2640,2672,1280,812,520,23
3500,2648,2680,1280,812,520,23
3504,2652,2684,1280,812,520,24
3504,2652,2684,1280,812,520,23
3500,2644,2676,1280,812,520,23
3492,2636,2664,1280,812,520,24
3488,2632,2660,1280,816,520,23
3484,2624,2652,1280,816,520,23
3480,2620,2648,1280,816,520,24
3480,2616,2644,1280,816,520,23
3480,2616,2644,1284,816,520,23
3480,2616,2644,1280,816,520,24
3480,2616,2644,1280,816,520,23
3480,2616,2644,1280,816,520,24
3484,2620,2648,1280,816,520,23
3484,2620,2652,1280,812,520,23
3484,2620,2648,1280,816,520,24
3484,2620,2652,1280,816,520,23
3488,2624,2656,1284,816,520,23
3492,2632,2664,1280,812,520,24
3496,2636,2668,1280,812,520,23
3496,2636,2672,1280,812,520,23
3500,2644,2676,1280,812,520,24
3504,2648,2684,1280,812,520,23
3508,2656,2688,1280,812,520,23
3512,2660,2696,1280,812,520,24
3520,2668,2704,1280,812,520,23
3520,2672,2712,1280,812,520,24
3520,2676,2712,1280,816,520,23
3524,2680,2716,1280,812,520,23
3528,2684,2724,1284,816,520,24
3528,2688,2728,1280,812,520,23
3532,2692,2728,1280,812,520,23
3532,2692,2728,1280,812,520,24
3532,2692,2732,1280,812,520,23
3532,2696,2732,1280,812,520,23
3536,2696,2736,1280,812,520,24
3540,2704,2740,1280,812,520,23
3540,2704,2744,1280,816,520,23
3532,2696,2732,1284,816,520,24
3524,2684,2720,1280,816,520,23
3516,2672,2704,1280,816,520,23
3512,2664,2696,1280,816,520,24
3504,2652,2684,1280,816,520,23
3500,2648,2680,1280,816,520,24
3500,2644,2672,1280,816,520,23
3496,2640,2668,1280,816,520,23
3492,2636,2668,1280,816,520,24
3492,2636,2668,1280,816,520,23
3496,2636,2668,1280,816,520,23
3496,2636,2668,1280,816,520,24
3496,2636,2668,1280,812,520,23
3492,2632,2664,1280,816,520,23
3492,2632,2664,1280,812,520,24
3492,2632,2664,1280,812,520,23
3492,2632,2664,1280,812,520,23
3492,2632,2664,1280,812,520,24
3492,2632,2664,1280,812,520,23
3492,2632,2664,1280,816,520,24
3496,2636,2668,1280,816,520,23
3496,2636,2668,1280,812,520,23
3496,2640,2672,1280,812,520,24
3500,2644,2676,1280,812,520,23
3504,2648,2680,1280,812,520,23
3500,2648,2680,1280,812,520,24
3500,2652,2684,1280,812,520,23
3504,2656,2688,1280,812,520,23
3508,2656,2692,1280,812,520,24
3512,2660,2696,1280,816,520,23
3512,2664,2700,1280,816,520,23
3516,2668,2704,1280,812,520,24
3520,2672,2708,1280,812,520,23
3520,2676,2712,1280,812,520,23
3520,2680,2712,1280,812,520,24
3520,2680,2712,1280,812,520,23
3516,2676,2708,1280,816,520,24
3508,2664,2692,1280,816,520,23
3504,2656,2688,1280,816,520,23
3504,2652,2684,1284,816,520,24
3504,2652,2680,1280,816,520,23
3500,2648,2680,1280,816,520,23
3500,2648,2680,1280,816,520,24
3504,2648,2680,1280,816,520,23
3500,2648,2680,1280,816,520,23
3504,2648,2680,1280,816,520,24
3504,2652,2684,1280,816,520,23
3504,2652,2684,1280,812,520,23
3504,2652,2684,1280,812,520,24
3504,2652,2684,1280,812,520,23
3508,2656,2688,1280,812,520,24
3508,2656,2692,1280,812,520,23
3508,2656,2692,1280,812,520,23
3508,2656,2692,1280,812,520,24
3508,2660,2692,1280,812,520,23
3512,2664,2700,1280,812,520,23
3520,2672,2708,1280,812,520,24
3520,2676,2712,1280,812,520,23
3524,2680,2716,1280,812,520,23
3524,2680,2716,1280,812,520,24
3524,2680,2716,1280,812,520,23
3524,2684,2720,1280,816,520,23
3524,2688,2724,1280,812,520,24
3528,2688,2724,1280,816,520,23
3528,2692,2728,1280,816,520,23
3532,2696,2732,1280,812,520,24
3532,2700,2736,1280,816,520,23
3536,2700,2736,1280,816,520,24
3536,2700,2740,1280,812,520,23
3540,2708,2744,1280,812,520,23
3540,2708,2748,1280,812,520,24
3540,2708,2744,1284,816,520,23
3536,2700,2736,1280,816,520,23
3528,2692,2728,1280,816,520,24
3528,2688,2724,1280,816,520,23
3524,2688,2724,1280,816,520,23
3524,2684,2716,1280,816,520,24
3524,2684,2716,1280,816,520,23
3524,2684,2720,1284,816,520,23
3524,2684,2720,1280,816,520,24
3528,2688,2724,1280,816,520,23
3528,2688,2728,1280,816,520,24
3532,2692,2732,1280,816,520,23
3528,2688,2728,1280,816,520,23
3528,2684,2724,1280,812,520,24
3524,2684,2720,1280,812,520,23
3528,2688,2724,1280,816,520,23
3532,2696,2736,1280,812,520,24
3540,2700,2740,1280,812,520,23
3540,2704,2744,1280,816,520,23
3544,2708,2748,1280,812,520,24
3548,2716,2756,1280,812,520,23
3552,2724,2764,1280,812,520,23
3552,2724,2768,1280,812,520,24
3552,2728,2768,1280,812,520,23
3556,2728,2772,1280,812,520,23
3556,2728,2772,1280,812,520,24
3556,2732,2776,1280,812,520,23
3556,2732,2776,1280,812,520,24
3556,2732,2776,1280,812,520,23
3556,2732,2776,1280,812,520,23
3556,2732,2776,1280,812,520,24
3556,2732,2776,1280,812,520,23
3560,2736,2780,1280,816,520,23
3560,2740,2780,1280,816,520,24
3560,2740,2784,1280,812,520,23
3556,2732,2776,1280,812,520,23
3552,2724,2764,1280,812,520,24
3544,2716,2756,1280,812,520,23
3544,2712,2752,1280,816,520,23
3540,2712,2748,1280,816,520,24
3536,2704,2744,1280,816,520,23
3532,2700,2736,1280,816,520,24
3536,2700,2740,1280,816,520,23
3540,2704,2748,1280,816,520,23
3544,2712,2752,1280,816,520,24
3552,2720,2764,1280,816,520,23
3552,2720,2768,1284,816,520,23
3552,2720,2768,1280,812,520,24
3552,2720,2768,1280,812,520,23
3552,2724,2768,1280,812,520,23
3560,2732,2776,1280,812,520,24
3560,2732,2780,1280,812,520,23
3560,2732,2780,1280,812,520,23
3564,2736,2784,1280,812,520,24
3568,2744,2792,1280,812,520,23
3572,2748,2800,1280,812,520,23
3576,2756,2808,1280,812,520,24
3580,2764,2816,1280,812,520,23
3584,2768,2824,1280,812,520,24
3588,2776,2828,1280,812,520,23
3592,2784,2840,1280,812,520,23
3596,2788,2844,1280,812,520,24
3600,2792,2848,1280,812,520,23
3604,2796,2856,1280,812,520,23
3608,2804,2860,1280,812,520,24
3608,2808,2864,1280,812,520,23
3608,2808,2868,1280,812,520,23
3612,2812,2868,1280,812,520,24
3608,2808,2864,1280,812,520,23
3604,2800,2856,1280,812,520,23
3600,2796,2852,1280,812,520,24
3596,2788,2844,1280,812,520,23
3588,2780,2832,1280,812,520,24
3580,2768,2820,1280,812,520,23
3572,2756,2804,1280,812,520,23
3568,2748,2796,1280,816,520,24
3564,2744,2792,1280,812,520,23
3564,2740,2788,1280,812,520,23
3568,2744,2792,1280,812,520,24
3568,2744,2796,1280,812,520,23
3572,2748,2796,1280,812,520,23
3568,2744,2792,1280,812,520,24
3564,2740,2788,1280,812,520,23
3564,2740,2788,1280,812,520,23
3568,2744,2796,1280,812,520,24
3568,2744,2796,1280,812,520,23
3568,2748,2800,1280,812,520,24
3572,2748,2800,1280,812,520,23
3576,2752,2808,1280,812,520,23
3576,2760,2812,1280,812,520,24
3580,2764,2820,1280,812,520,23
3584,2768,2824,1280,812,520,23
3584,2772,2828,1280,812,520,24
3588,2776,2832,1280,812,520,23
3588,2780,2836,1280,812,520,23
3592,2784,2840,1280,812,520,24
3596,2788,2844,1280,812,520,23
3600,2792,2852,1280,812,520,23
3600,2796,2852,1280,812,520,24
3604,2800,2856,1280,812,520,23
3608,2808,2864,1280,812,520,24
3608,2808,2868,1280,812,520,23
3608,2808,2864,1280,812,520,23
3604,2804,2860,1280,812,520,24
3600,2796,2848,1280,812,520,23
3596,2788,2844,1280,812,520,23
3588,2780,2832,1280,812,520,24
3580,2768,2816,1280,812,520,23
3572,2756,2804,1280,812,520,23
3572,2748,2796,1280,812,520,24
3568,2744,2792,1280,812,520,23
3564,2740,2788,1280,812,520,23
3564,2736,2788,1280,812,520,24
3564,2740,2788,1280,812,520,23
3564,2736,2784,1280,812,520,24
3560,2728,2780,1280,812,520,23
3556,2724,2772,1280,812,520,23
3556,2724,2772,1280,812,520,24
3556,2724,2772,1280,812,520,23
3552,2720,2764,1280,812,520,23
3552,2720,2764,1280,812,520,24
3548,2720,2764,1280,812,520,23
3552,2720,2768,1280,812,520,23
3552,2724,2772,1280,812,520,24
3556,2728,2772,1280,812,520,23
3560,2732,2780,1280,812,520,23
3560,2736,2784,1280,812,520,24
3564,2740,2788,1280,812,520,23
3568,2744,2792,1280,812,520,23
3568,2744,2792,1280,812,520,24
3564,2740,2788,1280,812,520,23
3564,2740,2784,1280,812,520,24
3560,2740,2784,1280,812,520,23
3560,2740,2784,1280,812,520,23
3560,2736,2784,1280,812,520,24
3560,2740,2784,1280,812,520,23
3560,2736,2780,1280,812,520,23
3556,2732,2772,1280,812,520,24
3548,2720,2760,1280,812,520,23
3544,2712,2752,1280,812,520,23
3540,2708,2748,1280,812,520,24
3536,2704,2744,1280,812,520,23
3536,2700,2736,1280,812,520,23
3532,2692,2732,1280,812,520,24
3528,2688,2724,1280,812,520,23
3524,2684,2720,1280,812,520,24
3524,2680,2720,1280,812,520,23
3524,2684,2724,1280,812,520,23
3524,2684,2720,1280,812,520,24
3524,2680,2716,1280,812,520,23
3520,2676,2712,1280,812,520,23
3520,2676,2712,1280,812,520,24
3520,2676,2716,1280,812,520,23
3524,2684,2720,1280,812,520,23
3528,2688,2728,1280,812,520,24
3532,2692,2732,1280,812,520,23
3532,2696,2736,1280,812,520,23
3536,2700,2740,1280,812,520,24
3536,2700,2736,1280,812,520,23
3536,2700,2740,1280,812,520,23
3540,2704,2744,1280,812,520,24
3540,2708,2748,1280,812,520,23
3540,2708,2748,1280,812,520,24
3544,2712,2748,1280,812,520,23
3548,2716,2756,1280,812,520,23
3548,2720,2760,1280,812,520,24
3548,2720,2760,1280,812,520,23
3552,2724,2764,1280,812,520,23
3552,2728,2768,1280,812,520,24
3556,2732,2772,1284,812,520,23
3560,2736,2776,1280,812,520,23
3556,2732,2772,1280,812,520,24
3552,2724,2764,1280,812,520,23
3540,2712,2748,1280,812,520,23
3536,2704,2740,1280,812,520,24
3532,2700,2736,1280,812,520,23
3528,2696,2728,1280,816,520,24
3528,2692,2728,1280,816,520,23
3528,2692,2728,1280,812,520,23
3524,2688,2724,1280,812,520,24
3524,2684,2720,1280,812,520,23
3524,2684,2720,1280,812,520,23
3528,2684,2724,1280,812,520,24
3524,2684,2720,1280,812,520,23
3528,2688,2724,1280,812,520,23
3528,2688,2724,1280,812,520,24
3528,2692,2728,1280,812,520,23
3528,2692,2728,1280,812,520,23
3528,2692,2732,1280,812,520,24
3532,2696,2732,1280,812,520,23
3532,2696,2736,1280,812,520,24
3536,2704,2744,1280,812,520,23
3540,2708,2748,1280,812,520,23
3540,2712,2748,1280,812,520,24
3544,2720,2756,1280,812,520,23
3548,2724,2764,1280,812,520,23
3552,2732,2772,1280,812,520,24
3556,2736,2780,1280,812,520,23
3560,2744,2784,1280,812,520,23
3564,2748,2788,1280,812,520,24
3568,2752,2796,1280,812,520,23
3568,2756,2800,1280,812,520,23
3572,2760,2800,1280,812,520,24
3576,2764,2808,1280,812,520,23
3576,2772,2816,1280,812,520,23
3580,2772,2820,1280,812,520,24
3580,2772,2816,1280,812,520,23
3572,2764,2808,1280,812,520,24
3564,2752,2796,1280,812,520,23
3560,2744,2784,1280,812,520,23
3556,2736,2776,1280,812,520,24
3552,2732,2768,1280,812,520,23
3552,2728,2768,1280,812,520,23
3552,2728,2768,1280,812,520,24
3552,2732,2768,1280,812,520,23
3556,2736,2776,1280,812,520,23
3560,2740,2780,1280,812,520,24
3560,2740,2784,1280,812,520,23
3564,2744,2788,1280,812,520,23
3564,2744,2788,1280,812,520,24
3564,2748,2792,1280,812,520,23
3568,2752,2796,1280,812,520,24
3572,2756,2800,1280,812,520,23
3572,2756,2800,1280,812,520,23
3572,2756,2804,1280,812,520,24
3576,2760,2808,1280,812,520,23
3584,2776,2820,1280,812,520,23
3588,2784,2832,1280,812,520,24
3596,2792,2840,1280,812,520,23
3596,2796,2844,1280,812,520,23
3600,2800,2848,1280,812,520,24
3600,2800,2848,1280,812,520,23
3600,2800,2852,1280,812,520,23
3600,2804,2852,1280,812,520,24
3604,2804,2856,1280,812,520,23
3604,2804,2856,1280,812,520,24
3600,2804,2852,1280,812,520,23
3600,2804,2856,1280,812,520,23
3604,2808,2860,1280,812,520,24
3608,2812,2864,1280,812,520,23
3604,2808,2860,1280,812,520,23
3600,2804,2852,1280,812,520,24
3596,2796,2844,1280,812,520,23
3592,2788,2836,1280,812,520,23
3588,2784,2832,1280,812,520,24
3584,2776,2824,1280,812,520,23
3576,2768,2812,1280,812,520,23
3576,2764,2812,1280,812,520,24
3576,2768,2816,1280,812,520,23
3584,2776,2824,1280,812,520,23
3588,2784,2836,1280,812,520,24
3596,2792,2844,1280,812,520,23
3596,2796,2848,1280,812,520,24
3596,2796,2848,1280,812,520,23
3596,2796,2848,1280,812,520,23
3600,2804,2856,1280,812,520,24
3608,2812,2864,1280,812,520,23
3612,2816,2872,1280,812,520,23
3616,2824,2880,1280,812,520,24
3624,2832,2888,1280,812,520,23
3628,2836,2896,1280,812,520,23
3628,2840,2900,1280,812,520,24
3632,2848,2908,1280,812,520,23
3636,2856,2916,1280,812,520,23
3640,2860,2920,1280,812,520,24
3640,2860,2924,1280,812,520,23
3640,2864,2924,1280,812,520,24
3640,2864,2928,1280,812,520,23
3644,2868,2932,1280,812,520,23
3644,2872,2936,1280,812,520,24
3648,2872,2940,1280,812,520,23
3648,2876,2944,1280,812,520,23
3648,2876,2940,1280,812,520,24
3648,2876,2940,1280,812,520,23
3640,2868,2928,1280,812,520,23
3640,2860,2924,1280,812,520,24
3628,2848,2908,1280,812,520,23
3624,2840,2896,1280,812,520,23
3612,2824,2880,1280,812,520,24
3604,2812,2868,1280,812,520,23
3600,2804,2856,1280,812,520,23
3596,2800,2852,1280,812,520,24
3596,2796,2852,1280,812,520,23
3596,2800,2852,1280,812,520,24
3596,2800,2856,1280,812,520,23
3596,2796,2852,1276,812,520,23
3588,2788,2840,1280,812,520,24
3584,2780,2832,1280,812,520,23
3584,2780,2832,1276,812,520,23
3580,2776,2828,1276,812,520,24
3576,2772,2824,1280,812,520,23
3576,2768,2820,1276,812,520,23
3572,2764,2816,1276,812,520,24
3572,2764,2816,1276,812,520,23
3572,2768,2820,1280,812,520,23
3576,2768,2820,1280,812,520,24
3576,2772,2824,1280,812,520,23
3576,2776,2828,1276,812,520,24
3584,2780,2832,1280,812,520,23
3584,2784,2836,1280,812,520,23
3584,2784,2840,1280,812,520,24
3584,2788,2840,1280,812,520,23
3588,2792,2848,1280,812,520,23
3592,2796,2848,1280,812,520,24
3592,2796,2848,1280,812,520,23
3592,2796,2848,1280,812,520,23
3592,2796,2852,1280,812,520,24
3592,2796,2852,1280,812,520,23
3588,2792,2844,1280,812,520,23
3584,2788,2840,1280,812,520,24
3580,2784,2836,1280,812,520,23
3580,2780,2828,1280,812,520,23
3576,2776,2824,1280,812,520,24
3572,2764,2812,1280,812,520,23
3568,2760,2808,1280,812,520,24
3568,2760,2808,1280,812,520,23
3572,2764,2816,1280,812,520,23
3576,2768,2820,1280,812,520,24
3580,2772,2824,1280,812,520,23
3584,2780,2836,1276,812,520,23
3584,2784,2836,1276,812,520,24
3584,2780,2832,1280,812,520,23
3588,2784,2836,1276,812,520,23
3588,2788,2844,1280,808,520,24
3592,2792,2848,1276,808,520,23
3592,2796,2852,1280,812,520,23
3592,2796,2848,1276,808,520,24
3600,2800,2856,1276,808,520,23
3600,2804,2864,1276,808,520,24
3604,2812,2868,1276,808,520,23
3608,2816,2876,1276,808,520,23
3612,2820,2880,1276,808,520,24
3612,2824,2884,1276,808,520,23
3616,2828,2888,1276,812,520,23
3616,2832,2892,1276,808,520,24
3616,2832,2892,1280,812,520,23
3620,2836,2896,1280,812,520,23
3620,2836,2892,1280,812,520,24
3620,2836,2892,1280,812,520,23
3624,2840,2900,1280,812,520,23
3624,2840,2900,1280,812,520,24
3624,2840,2900,1280,812,520,23
3620,2836,2896,1280,812,520,23
3616,2832,2888,1280,812,520,24
3608,2820,2872,1280,812,520,23
3600,2808,2864,1280,812,520,24
3596,2804,2852,1280,812,520,23
3592,2796,2848,1280,812,520,23
3588,2788,2840,1280,812,520,24
3588,2788,2836,1280,812,520,23
3584,2784,2832,1280,812,520,23
3584,2784,2832,1280,812,520,24
3584,2784,2836,1280,812,520,23
3592,2788,2844,1280,812,520,23
3588,2784,2836,1280,812,520,24
3584,2780,2832,1280,812,520,23
3580,2776,2828,1280,812,520,23
3584,2780,2832,1280,812,520,24
3584,2780,2836,1280,812,520,23
3584,2784,2836,1280,812,520,24
3588,2784,2836,1280,812,520,23
3584,2784,2836,1280,812,520,23
3588,2788,2840,1280,812,520,24
3592,2792,2844,1280,812,520,23
3592,2796,2848,1280,812,520,23
3596,2796,2852,1280,812,520,24
3596,2800,2852,1280,808,520,23
3596,2800,2852,1280,812,520,23
3596,2804,2856,1280,812,520,24
3600,2808,2860,1276,808,520,23
3600,2804,2860,1280,812,520,23
3600,2804,2860,1280,812,520,24
3600,2804,2860,1280,812,520,23
3600,2804,2860,1280,812,520,23
3600,2808,2860,1280,812,520,24
3604,2812,2868,1280,812,520,23
3604,2816,2872,1280,812,520,24
3608,2820,2872,1280,812,520,23
3604,2812,2864,1280,812,520,23
3592,2800,2852,1280,812,520,24
3588,2792,2844,1280,812,520,23
3584,2788,2836,1280,812,520,23
3580,2780,2828,1280,812,520,24
3580,2780,2828,1280,812,520,23
3580,2776,2824,1280,812,520,23
3576,2772,2820,1280,812,520,24
3576,2772,2820,1280,812,520,23
3580,2772,2824,1280,812,520,23
3576,2772,2824,1280,812,520,24
3580,2772,2824,1280,812,520,23
3580,2772,2820,1280,812,520,24
3576,2768,2820,1280,812,520,23
3576,2768,2820,1280,812,520,23
3576,2768,2820,1280,812,520,24
3580,2772,2820,1280,812,520,23
3576,2772,2820,1280,812,520,23
3580,2772,2824,1280,812,520,24
3584,2780,2832,1280,812,520,23
3588,2788,2836,1280,812,520,23
3592,2792,2844,1280,812,520,24
3592,2792,2848,1280,812,520,23
3596,2800,2852,1280,812,520,23
3600,2804,2856,1280,812,520,24
3604,2808,2864,1280,812,520,23
3608,2816,2872,1280,812,520,24
3612,2820,2876,1280,812,520,23
3608,2820,2876,1280,812,520,23
3612,2824,2880,1280,812,520,24
3616,2828,2884,1280,812,520,23
3616,2832,2888,1280,812,520,23
3620,2836,2892,1280,812,520,24
3624,2844,2900,1280,812,520,23
3624,2844,2904,1280,812,520,23
3620,2840,2896,1280,812,520,24
3612,2832,2888,1280,812,520,23
3612,2828,2880,1280,812,520,23
3612,2824,2876,1280,812,520,24
3608,2820,2876,1280,812,520,23
3608,2816,2872,1280,812,520,23
3608,2812,2868,1280,812,520,24
3604,2812,2868,1280,812,520,23
3608,2812,2868,1280,812,520,24
3608,2816,2872,1280,812,520,23
3612,2820,2876,1280,812,520,23
3612,2820,2876,1280,812,520,24
3608,2820,2876,1280,812,520,23
3612,2820,2880,1280,812,520,23
3612,2820,2880,1280,812,520,24
3616,2824,2880,1280,812,520,23
3612,2820,2880,1280,812,520,23
3616,2824,2880,1280,812,520,24
3616,2828,2884,1280,812,520,23
3620,2832,2892,1280,812,520,23
3624,2840,2900,1280,812,520,24
3632,2848,2908,1280,812,520,23
3628,2848,2908,1280,812,520,23
3632,2848,2912,1280,812,520,24
3632,2852,2912,1280,812,520,23
3636,2856,2920,1280,812,520,24
3636,2860,2920,1280,812,520,23
3640,2860,2924,1280,812,520,23
3640,2864,2928,1280,812,520,24
3640,2868,2928,1280,812,520,23
3644,2868,2932,1280,812,520,23
3644,2872,2932,1280,812,520,24
3648,2876,2940,1280,812,520,23
3652,2884,2948,1280,812,520,23
3656,2888,2952,1280,812,520,24
3656,2888,2952,1280,812,520,23
3652,2880,2944,1280,812,520,23
3644,2868,2932,1280,812,520,24
3636,2860,2916,1280,812,520,23
3632,2852,2912,1280,812,520,24
3628,2844,2904,1280,812,520,23
3624,2844,2900,1280,812,520,23
3624,2840,2900,1280,812,520,24
3628,2840,2900,1280,812,520,23
3624,2840,2900,1280,812,520,23
3628,2844,2908,1280,812,520,24
3628,2844,2904,1280,812,520,23
3628,2844,2904,1280,812,520,23
3624,2840,2900,1280,812,520,24
3624,2840,2900,1280,812,520,23
3628,2840,2904,1280,812,520,23
3628,2844,2904,1280,812,520,24
3624,2840,2900,1280,812,520,23
3628,2844,2904,1280,812,520,24
3628,2848,2908,1280,812,520,23
3632,2848,2912,1280,812,520,23
3636,2856,2920,1280,812,520,24
3636,2860,2920,1280,812,520,23
3636,2856,2920,1280,812,520,23
3636,2860,2924,1280,812,520,24
3644,2864,2928,1280,812,520,23
3644,2868,2932,1280,812,520,23
3644,2872,2936,1280,812,520,24
3644,2872,2936,1280,812,520,23
3648,2876,2940,1280,812,520,23
3648,2880,2944,1280,812,520,24
3652,2884,2948,1280,812,520,23
3656,2888,2956,1280,812,520,24
3660,2896,2964,1280,812,520,23
3664,2904,2972,1280,812,520,23
3664,2900,2968,1280,812,520,24
3660,2900,2964,1280,812,520,23
3656,2888,2956,1280,812,520,23
3652,2884,2948,1280,812,520,24
3644,2876,2940,1280,812,520,23
3644,2872,2932,1280,812,520,23
3644,2868,2932,1280,812,520,24
3640,2868,2932,1280,812,520,23
3644,2868,2932,1280,812,520,23
3644,2872,2936,1280,812,520,24
3644,2872,2936,1280,812,520,23
3648,2876,2940,1280,812,520,24
3648,2876,2940,1280,812,520,23
3648,2872,2940,1280,812,520,23
3648,2872,2940,1280,812,520,24
3648,2872,2940,1280,812,520,23
3648,2876,2940,1280,812,520,23
3648,2876,2940,1280,812,520,24
3652,2876,2944,1280,812,520,23
3652,2880,2948,1280,812,520,23
3652,2884,2948,1280,812,520,24
3656,2884,2952,1280,812,520,23
3656,2888,2956,1280,812,520,23
3660,2892,2960,1280,812,520,24
3664,2896,2964,1280,812,520,23
3668,2904,2972,1280,812,520,23
3672,2908,2980,1280,812,520,24
3672,2912,2984,1280,812,520,23
3676,2920,2992,1280,812,520,24
3676,2920,2992,1280,812,520,23
3680,2924,2996,1280,812,520,23
3680,2920,2992,1280,812,520,24
3676,2920,2988,1280,812,520,23
3676,2920,2992,1280,812,520,23
3680,2924,2996,1280,812,520,24
3684,2932,3004,1280,812,520,23
3680,2928,3000,1280,812,520,23
3676,2920,2992,1280,812,520,24
3668,2908,2976,1280,812,520,23
3664,2904,2972,1280,812,520,23
3660,2896,2964,1280,812,520,24
3656,2892,2960,1280,812,520,23
3656,2892,2960,1280,812,520,24
3660,2896,2960,1280,812,520,23
3660,2892,2960,1280,812,520,23
3664,2900,2968,1280,812,520,24
3668,2904,2972,1280,812,520,23
3668,2904,2972,1280,812,520,23
3664,2900,2972,1280,812,520,24
3668,2904,2976,1280,812,520,23
3668,2904,2976,1280,812,520,23
3668,2904,2976,1280,812,520,24
3668,2904,2976,1280,812,520,23
3668,2904,2976,1280,812,520,23
3672,2908,2980,1280,812,520,24
3668,2908,2980,1280,812,520,23
3676,2916,2992,1280,812,520,23
3680,2920,2996,1280,812,520,24
3680,2924,3000,1280,812,520,23
3684,2928,3004,1280,812,520,24
3688,2936,3012,1280,812,520,23
3688,2936,3012,1280,812,520,23
3692,2940,3020,1280,812,520,24
3692,2940,3020,1280,812,520,23
3692,2944,3020,1280,812,520,23
3692,2944,3024,1280,812,520,24
3696,2948,3024,1280,812,520,23
3700,2956,3032,1280,812,520,23
3700,2956,3036,1280,812,520,24
3700,2956,3036,1280,812,520,23
3700,2956,3032,1280,812,520,23
3696,2952,3032,1280,812,520,24
3696,2952,3028,1280,812,520,23
3696,2948,3028,1280,812,520,24
3696,2948,3028,1280,812,520,23
3692,2948,3024,1280,812,520,23
3688,2936,3016,1280,812,520,24
3684,2936,3012,1280,812,520,23
3684,2932,3012,1280,812,520,23
3688,2940,3016,1280,812,520,24
3692,2944,3024,1280,812,520,23
3692,2944,3024,1280,812,520,23
3688,2940,3020,1280,812,520,24
3684,2928,3008,1280,812,520,23
3684,2928,3008,1280,812,520,23
3688,2932,3012,1276,812,520,24
3688,2936,3016,1280,812,520,23
3688,2936,3016,1280,812,520,24
3688,2936,3016,1276,812,520,23
3688,2936,3016,1276,812,520,23
3688,2936,3016,1276,812,520,24
3692,2944,3024,1280,812,520,23
3696,2948,3028,1276,812,520,23
3696,2948,3032,1280,812,520,24
3696,2948,3032,1280,812,520,23
3696,2952,3032,1280,812,520,23
3700,2956,3040,1276,812,520,24
3700,2956,3040,1280,812,520,23
3704,2960,3044,1280,812,520,23
3704,2964,3048,1280,812,520,24
3704,2964,3044,1280,812,520,23
3708,2968,3048,1280,812,520,23
3712,2972,3056,1280,812,520,24
3712,2972,3056,1280,812,520,23
3708,2968,3052,1280,812,520,24
3704,2964,3044,1280,812,520,23
3700,2952,3032,1280,812,520,23
3692,2944,3024,1280,812,520,24
3688,2940,3016,1280,812,520,23
3684,2932,3008,1280,812,520,23
3672,2916,2992,1280,812,520,24
3668,2908,2984,1280,812,520,23
3672,2912,2984,1280,812,520,23
3676,2916,2992,1280,812,520,24
3680,2924,3000,1280,812,520,23
3680,2924,3004,1280,812,520,23
3680,2924,3004,1280,812,520,24
3676,2916,2992,1280,812,520,23
3672,2912,2988,1280,812,520,24
3676,2916,2992,1276,812,520,23
3676,2920,3000,1276,808,520,23
3680,2924,3000,1276,808,520,24
3680,2920,3000,1276,808,520,23
3680,2924,3000,1280,812,520,23
3684,2928,3004,1276,812,520,24
3684,2928,3004,1276,812,520,23
3688,2932,3012,1276,812,520,23
3688,2936,3016,1276,812,520,24
3692,2940,3020,1276,808,520,23
3692,2944,3024,1276,812,520,23
3696,2944,3024,1276,812,520,24
3696,2948,3028,1276,812,520,23
3692,2944,3024,1276,812,520,24
3692,2944,3024,1280,812,520,23
3692,2944,3024,1280,812,520,23
3692,2948,3024,1280,812,520,24
3696,2952,3028,1280,812,520,23
3696,2952,3032,1276,812,520,23
3696,2952,3032,1276,812,520,24
3692,2948,3028,1280,812,520,23
3688,2940,3016,1276,812,520,23
3684,2936,3008,1280,812,520,24
3680,2928,3000,1280,812,520,23
3676,2920,2996,1280,812,520,23
3672,2912,2984,1280,812,520,24
3668,2904,2976,1280,812,520,23
3664,2900,2972,1280,812,520,24
3664,2900,2972,1280,812,520,23
3668,2904,2976,1280,812,520,23
3668,2904,2980,1280,812,520,24
3672,2908,2980,1280,812,520,23
3668,2904,2980,1280,812,520,23
3664,2900,2972,1280,812,520,24
3664,2896,2972,1280,812,520,23
3664,2900,2976,1276,812,520,23
3668,2904,2980,1280,812,520,24
3668,2904,2976,1280,812,520,23
3668,2904,2980,1276,812,520,23
3668,2908,2980,1276,812,520,24
3672,2908,2984,1276,812,520,23
3676,2916,2988,1276,812,520,23
3676,2920,2996,1280,812,520,24
3680,2924,3000,1276,812,520,23
3684,2928,3004,1276,812,520,24
3684,2932,3008,1276,812,520,23
3688,2936,3012,1280,812,520,23
3688,2940,3016,1280,812,520,24
3692,2940,3020,1280,812,520,23
3692,2944,3024,1280,812,520,23
3692,2944,3024,1276,812,520,24
3692,2944,3024,1276,812,520,23
3696,2948,3028,1280,812,520,23
3696,2952,3032,1280,812,520,24
3700,2956,3036,1280,812,520,23
3696,2952,3028,1280,812,520,23
3692,2944,3020,1280,812,520,24
3688,2936,3012,1280,812,520,23
3684,2932,3004,1280,812,520,23
3684,2928,3004,1280,812,520,24
3680,2924,2996,1280,812,520,23
3676,2916,2992,1280,812,520,24
3676,2916,2992,1280,812,520,23
3680,2920,2996,1280,812,520,23
3680,2924,3000,1280,812,520,24
3684,2924,3000,1280,812,520,23
3688,2928,3004,1280,812,520,23
3688,2928,3008,1280,812,520,24
3684,2928,3008,1280,812,520,23
3688,2932,3008,1280,812,520,23
3688,2932,3012,1280,812,520,24
3688,2932,3012,1280,812,520,23
3692,2936,3016,1280,812,520,23
3692,2936,3016,1280,812,520,24
3696,2940,3020,1280,812,520,23
3696,2944,3028,1280,812,520,24
3700,2952,3032,1280,812,520,23
3700,2952,3036,1280,812,520,23
3708,2960,3044,1280,812,520,24
3708,2960,3044,1280,812,520,23
3708,2964,3048,1280,812,520,23
3712,2968,3048,1280,812,520,24
3712,2968,3052,1280,812,520,23
3712,2972,3056,1280,812,520,23
3712,2972,3056,1280,812,520,24
3712,2972,3056,1280,812,520,23
3716,2980,3064,1280,812,520,23
3724,2988,3072,1280,812,520,24
3720,2984,3068,1280,812,520,23
3716,2980,3060,1280,812,520,24
3704,2964,3044,1280,812,520,23
3700,2956,3032,1280,812,520,23
3696,2948,3024,1280,812,520,24
3692,2944,3020,1280,812,520,23
3688,2932,3008,1280,812,520,23
3684,2928,3004,1280,812,520,24
3684,2924,3000,1280,812,520,23
3684,2924,3000,1280,812,520,23
3684,2924,3004,1280,812,520,24
3684,2924,3000,1280,812,520,23
3680,2924,3000,1280,812,520,23
3684,2924,3000,1280,812,520,24
3684,2924,3000,1280,812,520,23
3684,2924,3004,1280,812,520,24
3684,2928,3004,1280,812,520,23
3684,2928,3004,1280,812,520,23
3684,2924,3000,1280,812,520,24
3680,2920,3000,1280,812,520,23
3684,2924,3000,1280,812,520,23
3684,2928,3004,1280,812,520,24
3684,2928,3008,1280,812,520,23
3688,2936,3012,1280,812,520,23
3692,2936,3016,1280,812,520,24
3692,2936,3016,1280,812,520,23
3692,2940,3020,1280,812,520,23
3696,2948,3024,1280,812,520,24
3696,2948,3028,1280,812,520,23
3700,2948,3028,1280,812,520,24
3700,2952,3028,1280,812,520,23
3700,2948,3028,1280,812,520,23
3700,2952,3032,1280,812,520,24
3704,2956,3040,1280,812,520,23
3708,2968,3048,1280,812,520,23
3708,2968,3048,1280,812,520,24
3700,2956,3036,1280,812,520,23
3696,2944,3020,1280,812,520,23
3688,2936,3012,1280,812,520,24
3684,2928,3004,1280,812,520,23
3684,2928,3000,1280,812,520,23
3680,2920,2996,1280,812,520,24
3676,2916,2988,1280,812,520,23
3676,2912,2988,1280,812,520,23
3676,2916,2992,1280,812,520,24
3680,2920,2996,1280,812,520,23
3680,2920,2996,1280,812,520,24
3680,2916,2992,1280,812,520,23
3676,2912,2988,1280,812,520,23
3680,2912,2988,1280,812,520,24
3676,2912,2988,1280,812,520,23
3676,2912,2988,1280,812,520,23
3676,2916,2992,1280,812,520,24
3676,2912,2988,1280,812,520,23
3680,2916,2992,1280,812,520,23
3684,2924,3000,1280,812,520,24
3692,2932,3012,1280,812,520,23
3692,2936,3016,1280,812,520,23
3696,2940,3020,1280,812,520,24
3696,2944,3024,1280,812,520,23
3700,2948,3028,1280,812,520,24
3704,2952,3032,1280,812,520,23
3704,2956,3036,1280,812,520,23
3704,2956,3040,1280,812,520,24
3704,2956,3036,1280,812,520,23
3704,2956,3036,1280,812,520,23
3704,2956,3040,1280,812,520,24
3708,2960,3040,1280,812,520,23
3708,2964,3044,1280,812,520,23
3708,2968,3048,1280,812,520,24
3704,2960,3040,1280,812,520,23
3700,2952,3032,1280,812,520,23
3692,2940,3016,1280,812,520,24
3692,2936,3012,1280,812,520,23
3688,2932,3008,1280,812,520,23
3680,2924,2996,1280,812,520,24
3680,2920,2992,1280,812,520,23
3680,2920,2996,1280,812,520,24
3680,2920,2996,1280,812,520,23
3684,2924,3000,1280,812,520,23
3688,2928,3008,1280,812,520,24
3688,2928,3008,1280,812,520,23
3684,2924,3004,1280,812,520,23
3680,2920,3000,1280,812,520,24
3684,2924,3000,1276,812,520,23
3684,2924,3004,1280,812,520,23
3688,2928,3008,1280,812,520,24
3684,2928,3008,1280,812,520,23
3688,2932,3012,1280,812,520,23
3692,2936,3016,1280,812,520,24
3696,2940,3024,1280,812,520,23
3700,2944,3028,1280,812,520,24
3704,2952,3036,1276,812,520,23
3704,2956,3036,1276,812,520,23
3708,2960,3040,1280,812,520,24
3708,2960,3044,1276,812,520,23
3712,2964,3052,1276,812,520,23
3712,2968,3056,1276,812,520,24
3716,2976,3060,1280,812,520,23
3716,2976,3064,1276,812,520,23
3720,2980,3068,1276,812,520,24
3724,2984,3072,1276,812,520,23
3720,2984,3072,1280,812,520,23
3724,2988,3076,1280,812,520,24
3720,2984,3072,1280,812,520,23
3720,2984,3068,1280,812,520,24
3720,2980,3068,1276,812,520,23
3712,2972,3060,1280,812,520,23
3708,2964,3048,1280,812,520,24
3700,2948,3032,1280,812,520,23
3696,2944,3024,1280,812,520,23
3692,2940,3020,1280,812,520,24
3696,2944,3028,1280,812,520,23
3700,2948,3032,1280,812,520,23
3700,2948,3032,1280,812,520,24
3696,2944,3028,1280,812,520,23
3692,2936,3020,1276,812,520,23
3688,2932,3016,1280,812,520,24
3692,2936,3020,1276,812,520,23
3692,2936,3020,1276,812,520,23
3692,2936,3020,1280,812,520,24
3692,2936,3020,1276,812,520,23
3692,2936,3020,1276,812,520,24
3692,2940,3024,1276,812,520,23
3696,2948,3032,1280,812,520,23
3700,2952,3040,1280,812,520,24
3704,2960,3044,1280,812,520,23
3708,2964,3052,1276,812,520,23
3712,2968,3056,1276,812,520,24
3716,2972,3060,1276,812,520,23
3716,2976,3064,1276,812,520,23
3720,2980,3068,1276,812,520,24
3720,2984,3072,1280,812,520,23
3716,2980,3068,1276,812,520,23
3720,2984,3072,1276,812,520,24
3720,2988,3076,1276,812,520,23
3720,2988,3076,1280,812,520,24
3720,2984,3072,1276,812,520,23
3716,2980,3068,1280,812,520,23
3712,2972,3060,1276,812,520,24
3708,2968,3052,1276,812,520,23
3704,2960,3044,1276,812,520,23
3700,2952,3036,1276,812,520,24
3692,2944,3024,1276,812,520,23
3692,2936,3016,1276,812,520,23
3688,2936,3016,1276,812,520,24
3692,2940,3020,1276,812,520,23
3692,2940,3024,1276,812,520,23
3692,2940,3024,1276,812,520,24
3692,2940,3024,1276,812,520,23
3692,2936,3016,1276,812,520,23
3688,2932,3012,1276,812,520,24
3692,2936,3020,1276,812,520,23
3692,2940,3024,1276,812,520,24
3692,2936,3020,1276,812,520,23
3688,2932,3012,1276,812,520,23
3688,2932,3012,1276,812,520,24
3688,2936,3016,1276,812,520,23
3692,2940,3020,1276,808,520,23
3696,2944,3028,1276,812,520,24
3696,2948,3032,1276,812,520,23
3700,2948,3036,1276,812,520,23
3700,2952,3036,1276,812,520,24
3700,2952,3040,1276,812,520,23
3700,2952,3036,1276,812,520,23
3700,2952,3036,1276,812,520,24
3700,2956,3040,1276,812,520,23
3700,2952,3036,1276,812,520,24
3700,2952,3036,1276,812,520,23
3700,2956,3040,1276,812,520,23
3700,2960,3044,1276,812,520,24
3700,2960,3044,1276,812,520,23
3696,2952,3036,1276,812,520,23
3692,2948,3028,1276,812,520,24
3684,2936,3016,1276,812,520,23
3684,2932,3012,1276,812,520,23
3676,2924,3000,1276,812,520,24
3672,2912,2988,1276,812,520,23
3664,2904,2976,1276,812,520,23
3664,2904,2976,1276,812,520,24
3668,2904,2980,1276,812,520,23
3668,2904,2984,1276,812,520,24
3668,2908,2984,1276,812,520,23
3668,2904,2984,1276,812,520,23
3664,2900,2980,1276,812,520,24
3660,2896,2972,1276,812,520,23
3660,2892,2964,1276,808,520,23
3660,2892,2968,1276,812,520,24
3664,2896,2972,1276,812,520,23
3660,2892,2968,1276,808,520,23
3660,2892,2968,1276,812,520,24
3660,2892,2968,1276,808,520,23
3660,2892,2968,1276,808,520,23
3664,2900,2976,1276,808,520,24
3668,2904,2980,1276,808,520,23
3668,2904,2980,1276,808,520,24
3668,2908,2984,1276,812,520,23
3668,2904,2980,1276,808,520,23
3668,2908,2980,1276,808,520,24
3668,2904,2980,1276,808,520,23
3664,2904,2980,1276,808,520,23
3668,2904,2980,1276,812,520,24
3668,2908,2980,1276,808,520,23
3664,2904,2980,1276,808,520,23
3668,2908,2980,1276,812,520,24
3668,2908,2984,1276,812,520,23
3664,2908,2980,1276,812,520,23
3664,2904,2976,1276,812,520,24
3656,2896,2964,1276,812,520,23
3648,2884,2952,1276,812,520,23
3644,2876,2940,1276,812,520,24
3640,2868,2932,1276,812,520,23
3632,2860,2924,1276,812,520,24
3632,2856,2920,1276,812,520,23
3628,2848,2916,1276,812,520,23
3628,2844,2912,1276,812,520,24
3624,2844,2908,1276,812,520,23
3628,2848,2916,1276,812,520,23
3632,2848,2916,1276,812,520,24
3628,2848,2912,1276,812,520,23
3624,2840,2904,1276,812,520,23
3624,2840,2908,1276,808,520,24
3624,2844,2908,1276,812,520,23
3624,2840,2908,1276,808,520,23
3624,2840,2908,1276,812,520,24
3628,2844,2908,1276,808,520,23
3624,2844,2908,1276,812,520,24
3628,2848,2916,1276,812,520,23
3636,2856,2924,1276,808,520,23
3636,2864,2928,1276,808,520,24
3640,2868,2936,1276,808,520,23
3644,2872,2940,1276,808,520,23
3644,2872,2940,1276,812,520,24
3652,2880,2952,1276,812,520,23
3652,2888,2956,1276,812,520,23
3656,2892,2960,1276,812,520,24
3656,2896,2968,1276,812,520,23
3664,2904,2972,1276,812,520,23
3664,2904,2976,1276,812,520,24
3664,2904,2972,1276,812,520,23
3664,2904,2976,1276,812,520,23
3668,2912,2984,1276,812,520,24
3672,2920,2992,1276,812,520,23
3672,2916,2988,1276,812,520,24
3660,2904,2972,1276,812,520,23
3652,2892,2956,1276,812,520,23
3648,2880,2948,1280,812,520,24
3644,2876,2940,1276,812,520,23
3640,2872,2936,1276,812,520,23
3640,2868,2932,1276,812,520,24
3636,2860,2924,1280,812,520,23
3636,2856,2924,1280,812,520,23
3636,2860,2924,1276,812,520,24
3636,2860,2924,1276,812,520,23
3636,2860,2928,1276,812,520,23
3636,2860,2928,1276,812,520,24
3636,2856,2920,1276,812,520,23
3636,2856,2924,1276,812,520,24
3636,2860,2924,1276,812,520,23
3636,2856,2924,1276,812,520,23
3636,2856,2924,1276,812,520,24
3636,2860,2924,1276,812,520,23
3640,2864,2928,1276,812,520,23
3644,2872,2940,1276,812,520,24
3648,2880,2948,1276,812,520,23
3652,2884,2956,1276,812,520,23
3652,2888,2956,1280,812,520,24
3656,2892,2960,1276,812,520,23
3656,2892,2964,1276,812,520,23
3656,2896,2964,1276,812,520,24
3660,2896,2968,1276,812,520,23
3660,2900,2968,1276,812,520,23
3660,2900,2972,1276,812,520,24
3664,2908,2976,1276,812,520,23
3668,2908,2980,1276,812,520,24
3668,2912,2980,1276,812,520,23
3668,2916,2984,1276,812,520,23
3676,2920,2992,1276,812,520,24
3676,2924,2996,1276,812,520,23
3676,2928,3000,1276,812,520,23
3676,2924,2996,1276,812,520,24
3664,2912,2980,1276,812,520,23
3660,2900,2968,1280,812,520,23
3652,2892,2956,1280,812,520,24
3648,2888,2952,1280,812,520,23
3648,2884,2948,1280,812,520,23
3644,2880,2944,1280,812,520,24
3640,2872,2940,1276,812,520,23
3644,2876,2940,1276,812,520,24
3648,2880,2944,1276,812,520,23
3648,2880,2948,1276,812,520,23
3648,2880,2948,1276,812,520,24
3648,2876,2944,1276,812,520,23
3644,2876,2944,1276,812,520,23
3644,2876,2944,1276,812,520,24
3644,2876,2944,1276,812,520,23
3648,2880,2948,1280,812,520,23
3648,2880,2948,1276,812,520,24
3648,2884,2952,1276,812,520,23
3652,2888,2956,1276,812,520,23
3656,2896,2964,1276,812,520,24
3664,2904,2972,1276,812,520,23
3664,2904,2976,1276,812,520,24
3664,2908,2980,1276,812,520,23
3668,2912,2984,1276,812,520,23
3672,2920,2992,1276,812,520,24
3680,2928,3000,1276,812,520,23
3680,2932,3004,1276,812,520,23
3684,2936,3008,1276,812,520,24
3684,2936,3012,1276,812,520,23
3684,2940,3012,1276,812,520,23
3688,2940,3016,1280,812,520,24
3688,2940,3016,1276,812,520,23
3688,2944,3016,1276,812,520,23
3692,2948,3024,1276,812,520,24
3696,2956,3032,1276,812,520,23
3696,2956,3032,1276,812,520,23
3692,2952,3028,1276,812,520,24
3688,2944,3016,1276,812,520,23
3680,2936,3008,1280,812,520,24
3676,2928,3000,1280,812,520,23
3676,2924,2996,1276,812,520,23
3672,2916,2988,1276,812,520,24
3664,2912,2980,1276,812,520,23
3664,2908,2980,1276,812,520,23
3668,2912,2980,1276,812,520,24
3672,2916,2988,1280,812,520,23
3676,2924,2996,1276,812,520,23
3676,2924,3000,1276,812,520,24
3676,2924,3000,1276,812,520,23
3676,2924,3000,1276,812,520,23
3680,2928,3004,1276,812,520,24
3684,2932,3008,1276,812,520,23
3684,2936,3012,1276,812,520,24
3688,2940,3016,1276,812,520,23
3692,2944,3020,1276,812,520,23
3692,2944,3024,1276,812,520,24
3692,2948,3024,1276,812,520,23
3692,2948,3028,1276,812,520,23
3696,2952,3032,1276,812,520,24
3696,2956,3036,1276,812,520,23
3700,2960,3044,1276,812,520,23
3704,2964,3048,1276,812,520,24
3704,2968,3048,1276,812,520,23
3708,2972,3052,1276,812,520,23
3708,2972,3056,1276,812,520,24
3708,2972,3056,1276,812,520,23
3708,2972,3056,1276,812,520,24
3708,2976,3060,1276,812,520,23
3708,2976,3060,1276,812,520,23
3712,2980,3064,1276,812,520,24
3712,2984,3068,1276,812,520,23
3716,2984,3068,1276,812,520,23
3712,2980,3064,1276,812,520,24
3712,2980,3064,1276,812,520,23
3708,2976,3060,1276,812,520,23
3704,2968,3052,1276,812,520,24
3700,2960,3040,1276,812,520,23
3692,2952,3028,1276,812,520,23
3688,2948,3024,1276,812,520,24
3688,2944,3020,1276,812,520,23
3688,2944,3024,1276,812,520,23
3692,2948,3028,1276,812,520,24
3696,2952,3032,1276,812,520,23
3696,2952,3036,1276,812,520,24
3692,2948,3028,1276,812,520,23
3692,2948,3028,1276,812,520,23
3692,2948,3028,1276,812,520,24
3696,2952,3036,1276,812,520,23
3700,2956,3040,1276,812,520,23
3696,2956,3040,1276,812,520,24
3700,2960,3040,1276,812,520,23
3700,2956,3040,1276,812,520,23
3704,2964,3048,1276,812,520,24
3704,2968,3052,1276,812,520,23
3708,2972,3056,1276,812,520,23
3712,2976,3060,1276,812,520,24
3712,2980,3064,1276,812,520,23
3716,2984,3068,1276,812,520,24
3716,2988,3072,1276,812,520,23
3720,2988,3076,1276,812,520,23
3720,2992,3076,1276,812,520,24
3720,2992,3076,1276,812,520,23
3720,2992,3076,1276,812,520,23
3716,2988,3072,1276,812,520,24
3720,2992,3076,1276,812,520,23
3720,2992,3080,1276,812,520,23
3720,2992,3080,1276,812,520,24
3720,2992,3076,1276,812,520,23
3716,2988,3068,1276,812,520,23
3708,2976,3060,1276,812,520,24
3700,2968,3048,1276,812,520,23
3696,2960,3040,1276,812,520,23
3692,2952,3032,1276,812,520,24
3688,2948,3024,1276,812,520,23
3684,2940,3016,1276,812,520,24
3680,2936,3012,1276,812,520,23
3684,2936,3012,1280,812,520,23
3684,2940,3016,1276,812,520,24
3684,2940,3016,1276,812,520,23
3688,2940,3020,1276,812,520,23
3684,2932,3012,1276,812,520,24
3676,2928,3004,1276,812,520,23
3676,2924,3000,1276,812,520,23
3680,2928,3008,1276,812,520,24
3680,2932,3008,1276,812,520,23
3680,2928,3004,1276,812,520,23
3680,2928,3004,1276,812,520,24
3680,2928,3004,1276,812,520,23
3680,2932,3008,1276,812,520,24
3680,2932,3008,1276,812,520,23
3684,2940,3016,1276,812,520,23
3688,2944,3020,1276,812,520,24
3688,2944,3024,1276,812,520,23
3688,2944,3024,1276,812,520,23
3688,2948,3024,1276,812,520,24
3692,2952,3028,1276,812,520,23
3692,2952,3028,1276,812,520,23
3692,2952,3032,1276,812,520,24
3692,2952,3032,1276,812,520,23
3692,2952,3028,1276,812,520,23
3688,2948,3024,1276,812,520,24
3692,2948,3024,1276,812,520,23
3692,2952,3028,1276,812,520,24
3692,2952,3028,1276,812,520,23
3688,2948,3024,1276,812,520,23
3680,2940,3012,1276,812,520,24
3676,2932,3004,1276,812,520,23
3672,2924,2996,1276,812,520,23
3668,2920,2988,1276,812,520,24
3664,2912,2980,1276,812,520,23
3660,2904,2976,1276,812,520,23
3656,2900,2972,1276,812,520,24
3656,2900,2968,1276,812,520,23
3660,2904,2972,1276,812,520,23
3664,2908,2976,1276,812,520,24
3664,2908,2980,1276,812,520,23
3664,2904,2976,1276,812,520,24
3660,2900,2972,1276,812,520,23
3656,2896,2968,1276,812,520,23
3660,2900,2972,1276,812,520,24
3660,2904,2976,1276,812,520,23
3664,2908,2980,1276,812,520,23
3664,2908,2980,1276,812,520,24
3664,2908,2980,1276,812,520,23
3664,2908,2980,1276,812,520,23
3664,2912,2984,1276,812,520,24
3668,2920,2992,1276,812,520,23
3672,2924,2996,1276,812,520,23
3676,2928,3000,1276,812,520,24
3676,2928,3004,1276,812,520,23
3676,2928,3004,1276,812,520,24
3680,2932,3008,1276,812,520,23
3680,2936,3012,1276,812,520,23
3684,2940,3016,1276,812,520,24
3688,2944,3024,1276,812,520,23
3692,2952,3028,1276,812,520,23
3692,2952,3032,1276,812,520,24
3696,2960,3036,1276,812,520,23
3700,2964,3044,1276,812,520,23
3700,2968,3048,1276,812,520,24
3700,2968,3048,1276,812,520,23
3696,2964,3040,1276,812,520,23
3688,2952,3024,1276,812,520,24
3684,2944,3020,1276,812,520,23
3680,2940,3012,1276,812,520,23
3676,2932,3004,1276,812,520,24
3672,2928,3000,1276,812,520,23
3672,2924,2996,1276,812,520,24
3668,2920,2992,1276,812,520,23
3672,2920,2992,1276,812,520,23
3668,2920,2992,1276,812,520,24
3676,2928,3000,1276,812,520,23
3676,2928,3004,1276,812,520,23
3680,2928,3004,1276,812,520,24
3676,2928,3004,1276,812,520,23
3680,2928,3008,1276,812,520,23
3680,2932,3008,1276,812,520,24
3680,2932,3008,1276,812,520,23
3676,2928,3008,1276,812,520,23
3676,2928,3004,1276,812,520,24
3680,2932,3008,1276,812,520,23
3680,2936,3012,1276,812,520,24
3688,2944,3024,1276,812,520,23
3692,2948,3028,1276,812,520,23
3692,2952,3032,1276,812,520,24
3692,2952,3032,1276,812,520,23
3696,2956,3036,1276,812,520,23
3696,2960,3040,1276,812,520,24
3700,2964,3044,1276,812,520,23
3704,2968,3048,1276,812,520,23
3704,2968,3048,1276,812,520,24
3704,2972,3052,1276,812,520,23
3704,2972,3056,1276,812,520,23
3704,2972,3052,1276,812,520,24
3704,2972,3056,1276,812,520,23
3708,2980,3060,1276,812,520,24
3712,2984,3068,1276,812,520,23
3712,2988,3068,1276,812,520,23
3712,2984,3064,1276,812,520,24
3708,2976,3056,1276,812,520,23
3704,2972,3052,1276,812,520,23
3700,2968,3048,1276,812,520,24
3700,2968,3048,1276,812,520,23
3696,2964,3040,1276,812,520,23
3700,2960,3044,1276,812,520,24
3700,2960,3044,1276,812,520,23
3700,2964,3044,1276,812,520,23
3704,2968,3052,1276,812,520,24
3708,2972,3056,1276,812,520,23
3708,2972,3056,1276,812,520,24
3708,2968,3052,1276,812,520,23
3704,2968,3052,1276,812,520,23
3708,2968,3052,1276,812,520,24
3708,2968,3052,1276,812,520,23
3704,2964,3048,1276,812,520,23
3704,2968,3052,1276,812,520,24
3708,2972,3056,1276,812,520,23
3712,2976,3064,1276,812,520,23
3716,2984,3072,1276,812,520,24
3720,2988,3076,1276,812,520,23
3720,2992,3080,1276,812,520,23
3720,2992,3080,1276,812,520,24
3728,3000,3088,1276,812,520,23
3728,3000,3092,1276,812,520,24
3732,3008,3096,1276,812,520,23
3732,3008,3096,1276,812,520,23
3732,3008,3100,1276,812,520,24
3736,3012,3104,1276,812,520,23
3740,3016,3108,1276,812,520,23
3740,3020,3112,1276,812,520,24
3744,3028,3120,1276,812,520,23
3748,3032,3124,1276,812,520,23
3748,3032,3128,1276,812,520,24
3748,3032,3128,1276,812,520,23
3748,3032,3128,1276,812,520,23
3748,3032,3128,1276,812,520,24
3744,3028,3124,1276,812,520,23
3740,3020,3112,1276,812,520,23
3736,3012,3104,1276,812,520,24
3732,3008,3100,1276,812,520,23
3732,3004,3096,1276,812,520,24
3728,3004,3096,1276,812,520,23
3732,3008,3104,1276,812,520,23
3736,3012,3108,1276,812,520,24
3736,3012,3108,1276,812,520,23
3732,3008,3100,1276,812,520,23
3732,3004,3100,1276,812,520,24
3732,3004,3096,1276,812,520,23
3732,3004,3100,1276,812,520,23
3732,3004,3100,1276,812,520,24
3732,3004,3100,1276,812,520,23
3732,3004,3100,1276,812,520,23
3728,3000,3096,1276,812,520,24
3732,3004,3100,1276,812,520,23
3732,3008,3104,1276,812,520,24
3732,3008,3104,1276,812,520,23
3736,3012,3108,1276,812,520,23
3740,3016,3112,1276,812,520,24
3740,3020,3116,1272,808,520,23
3744,3020,3120,1276,808,520,23
3740,3020,3120,1272,808,520,24
3744,3028,3124,1276,808,520,23
3748,3028,3128,1276,812,520,23
3748,3032,3128,1276,808,520,24
3744,3028,3128,1276,812,520,23
3748,3032,3132,1276,808,520,23
3748,3036,3132,1276,812,520,24
3752,3040,3140,1276,808,520,23
3748,3036,3132,1276,812,520,23
3748,3032,3128,1272,808,520,24
3740,3020,3116,1276,812,520,23
3736,3016,3108,1276,812,520,24
3732,3008,3100,1276,812,520,23
3728,3000,3092,1276,812,520,23
3724,2996,3088,1276,812,520,24
3724,2992,3084,1276,812,520,23
3724,2996,3088,1276,812,520,23
3728,2996,3092,1276,812,520,24
3728,3000,3096,1276,812,520,23
3728,3000,3096,1276,812,520,23
3724,2992,3088,1276,812,520,24
3720,2984,3080,1276,812,520,23
3720,2984,3076,1276,812,520,23
3720,2988,3080,1276,812,520,24
3724,2992,3084,1276,812,520,23
3720,2988,3080,1276,812,520,24
3720,2984,3076,1276,812,520,23
3720,2988,3080,1276,812,520,23
3724,2992,3084,1276,808,520,24
3728,2996,3092,1276,808,520,23
3728,3000,3096,1276,812,520,23
3732,3004,3100,1276,808,520,24
3728,3004,3096,1276,808,520,23
3732,3004,3100,1276,808,520,23
3728,3004,3100,1276,812,520,24
3732,3008,3104,1276,808,520,23
3736,3012,3108,1276,808,520,23
3736,3012,3108,1276,812,520,24
3736,3012,3108,1276,812,520,23
3732,3012,3104,1276,812,520,23
3736,3012,3108,1276,812,520,24
3736,3016,3112,1276,812,520,23
3736,3016,3112,1276,812,520,24
3736,3016,3108,1276,808,520,23
3732,3008,3100,1276,812,520,23
3728,3004,3096,1276,812,520,24
3720,2996,3084,1276,812,520,23
3720,2988,3080,1276,812,520,23
3712,2980,3068,1276,812,520,24
3708,2972,3060,1276,812,520,23
3708,2968,3056,1276,812,520,23
3704,2968,3056,1276,812,520,24
3708,2968,3056,1276,812,520,23
3708,2972,3060,1276,812,520,23
3712,2972,3064,1276,812,520,24
3708,2968,3060,1276,812,520,23
3708,2964,3056,1276,808,520,23
3704,2960,3048,1276,812,520,24
3704,2960,3048,1276,812,520,23
3704,2964,3052,1276,812,520,24
3704,2964,3052,1276,808,520,23
3704,2964,3052,1276,812,520,23
3704,2960,3048,1276,812,520,24
3704,2960,3048,1276,812,520,23
3704,2964,3052,1276,812,520,23
3708,2968,3056,1276,812,520,24
3708,2972,3060,1276,812,520,23
3712,2972,3064,1276,812,520,23
3712,2976,3064,1276,812,520,24
3712,2976,3064,1276,808,520,23
3716,2980,3068,1276,808,520,23
3712,2980,3068,1276,808,520,24
3716,2984,3072,1276,808,520,23
3716,2980,3072,1276,808,520,24
3716,2984,3072,1276,808,520,23
3716,2984,3072,1276,812,520,23
3716,2988,3076,1276,812,520,24
3720,2992,3080,1276,812,520,23
3724,2992,3084,1276,808,520,23
3720,2992,3080,1276,812,520,24
3716,2984,3072,1276,812,520,23
3708,2976,3060,1276,812,520,23
3700,2964,3048,1276,812,520,24
3700,2964,3048,1276,812,520,23
3696,2956,3040,1276,812,520,23
3696,2956,3040,1276,812,520,24
3696,2952,3036,1276,812,520,23
3700,2956,3040,1276,812,520,23
3700,2956,3040,1276,812,520,24
3700,2960,3048,1276,812,520,23
3704,2964,3052,1276,812,520,24
3704,2960,3048,1276,812,520,23
3704,2964,3048,1276,808,520,23
3708,2964,3052,1276,808,520,24
3708,2964,3056,1276,812,520,23
3708,2968,3060,1276,812,520,23
3712,2972,3060,1276,812,520,24
3712,2976,3064,1276,808,520,23
3712,2976,3068,1276,808,520,23
3716,2984,3072,1276,808,520,24
3720,2988,3080,1276,808,520,23
3724,2992,3084,1276,808,520,23
3724,2996,3088,1276,812,520,24
3728,3000,3092,1276,808,520,23
3728,3000,3092,1276,808,520,24
3732,3004,3096,1276,808,520,23
3732,3004,3100,1276,808,520,23
3736,3012,3104,1276,808,520,24
3740,3016,3112,1276,812,520,23
3740,3020,3116,1276,812,520,23
3744,3024,3120,1276,812,520,24
3748,3028,3124,1276,812,520,23
3752,3036,3136,1276,812,520,23
3756,3044,3140,1276,812,520,24
3756,3044,3140,1276,812,520,23
3752,3040,3140,1276,812,520,23
3744,3032,3124,1276,812,520,24
3740,3024,3116,1276,812,520,23
3736,3016,3108,1276,812,520,23
3732,3012,3100,1276,812,520,24
3728,3004,3096,1276,812,520,23
3728,3004,3092,1276,812,520,24
3728,3000,3092,1276,812,520,23
3728,3000,3092,1276,812,520,23
3736,3008,3100,1276,812,520,24
3732,3008,3100,1276,812,520,23
3732,3004,3100,1276,812,520,23
3732,3004,3096,1276,812,520,24
3732,3004,3096,1276,812,520,23
3732,3004,3096,1276,812,520,23
3732,3004,3100,1276,812,520,24
3732,3004,3096,1276,812,520,23
3732,3000,3096,1276,812,520,23
3732,3008,3100,1276,812,520,24
3736,3012,3108,1276,812,520,23
3744,3020,3116,1276,808,520,24
3744,3024,3120,1276,812,520,23
3748,3024,3124,1276,812,520,23
3744,3024,3124,1276,812,520,24
3748,3028,3124,1276,812,520,23
3752,3032,3132,1276,808,520,23
3756,3044,3140,1276,812,520,24
3760,3048,3148,1276,812,520,23
3764,3056,3156,1276,812,520,23
3768,3060,3164,1276,812,520,24
3768,3064,3168,1276,812,520,23
3772,3068,3172,1276,812,520,23
3776,3072,3176,1276,812,520,24
3780,3076,3184,1276,812,520,23
3780,3080,3184,1276,812,520,23
3780,3080,3184,1276,812,520,24
3772,3072,3172,1276,812,520,23
3772,3064,3168,1276,812,520,24
3768,3060,3160,1276,812,520,23
3764,3056,3156,1276,812,520,23
3760,3052,3152,1276,812,520,24
3760,3048,3148,1276,812,520,23
3760,3048,3144,1276,812,520,23
3760,3048,3148,1276,812,520,24
3760,3048,3152,1276,812,520,23
3768,3056,3160,1276,812,520,23
3768,3060,3164,1276,812,520,24
3768,3056,3164,1276,812,520,23
3768,3056,3160,1276,812,520,23
3772,3060,3164,1276,808,520,24
3776,3068,3172,1276,808,520,23
3776,3068,3176,1276,808,520,24
3780,3072,3180,1276,808,520,23
3780,3072,3180,1276,808,520,23
3780,3072,3184,1276,808,520,24
3780,3080,3188,1276,808,520,23
3788,3084,3196,1276,808,520,23
3792,3092,3204,1272,808,520,24
3792,3096,3208,1276,808,520,23
3796,3100,3212,1276,808,520,23
3800,3104,3216,1276,808,520,24
3804,3108,3224,1276,808,520,23
3804,3112,3228,1276,812,520,23
3804,3116,3232,1276,808,520,24
3808,3120,3236,1276,808,520,23
3812,3124,3240,1276,808,520,23
3812,3128,3244,1272,808,520,24
3812,3128,3244,1276,808,520,23
3812,3132,3248,1276,812,520,24
3812,3128,3244,1276,812,520,23
3812,3128,3244,1276,812,520,23
3808,3124,3236,1276,808,520,24
3804,3116,3232,1276,812,520,23
3800,3108,3220,1276,812,520,23
3792,3100,3208,1276,812,520,24
3784,3088,3196,1276,808,520,23
3788,3088,3196,1276,808,520,23
3788,3092,3200,1276,812,520,24
3788,3088,3200,1276,808,520,23
3788,3088,3200,1276,812,520,23
3788,3088,3200,1276,808,520,24
3788,3088,3200,1276,808,520,23
3784,3084,3196,1276,808,520,24
3780,3080,3192,1276,808,520,23
3780,3080,3192,1272,808,520,23
3784,3084,3196,1276,808,520,24
3784,3084,3196,1276,808,520,23
3784,3084,3196,1276,808,520,23
3788,3088,3200,1276,808,520,24
3788,3092,3204,1276,808,520,23
3792,3096,3208,1276,808,520,23
3796,3100,3216,1276,808,520,24
3800,3108,3224,1272,808,520,23
3804,3112,3228,1272,808,520,23
3804,3116,3232,1276,808,520,24
3804,3116,3232,1272,808,520,23
3808,3120,3236,1272,808,520,24
3804,3120,3236,1272,808,520,23
3804,3120,3236,1276,808,520,23
3808,3120,3236,1272,808,520,24
3808,3124,3240,1272,808,520,23
3808,3128,3244,1272,808,520,23
3808,3124,3244,1272,808,520,24
3812,3128,3248,1272,808,520,23
3808,3124,3240,1276,808,520,23
3804,3116,3232,1276,808,520,24
3796,3108,3220,1276,808,520,23
3792,3104,3216,1276,808,520,23
3788,3096,3204,1276,812,520,24
3784,3088,3196,1276,812,520,23
3776,3076,3184,1276,812,520,24
3776,3076,3184,1276,808,520,23
3780,3080,3188,1276,808,520,23
3784,3084,3192,1276,808,520,24
3784,3084,3196,1276,808,520,23
3784,3084,3192,1276,808,520,23
3780,3076,3188,1272,808,520,24
3776,3068,3180,1272,808,520,23
3776,3068,3176,1276,808,520,23
3776,3072,3180,1276,808,520,24
3776,3072,3180,1276,808,520,23
3776,3068,3176,1276,808,520,23
3772,3068,3176,1276,808,520,24
3776,3068,3176,1272,808,520,23
3776,3076,3184,1272,808,520,24
3784,3080,3192,1276,808,520,23
3784,3084,3196,1272,808,520,23
3784,3084,3192,1272,808,520,24
3784,3084,3196,1272,808,520,23
3784,3084,3196,1276,808,520,23
3784,3088,3200,1272,808,520,24
3784,3088,3200,1276,808,520,23
3788,3092,3200,1272,808,520,23
3784,3092,3200,1272,808,520,24
3784,3088,3196,1276,808,520,23
3784,3092,3200,1272,808,520,23
3784,3092,3200,1276,808,520,24
3788,3092,3200,1272,808,520,23
3784,3092,3200,1276,808,520,23
3780,3084,3188,1276,808,520,24
3772,3072,3176,1276,808,520,23
3772,3068,3172,1276,812,520,24
3764,3060,3164,1276,812,520,23
3760,3052,3152,1276,812,520,23
3756,3044,3144,1276,812,520,24
3752,3040,3140,1276,808,520,23
3748,3036,3136,1272,808,520,23
3748,3036,3136,1272,808,520,24
3752,3036,3136,1276,808,520,23
3748,3036,3136,1272,808,520,23
3748,3032,3132,1272,808,520,24
3748,3032,3132,1272,808,520,23
3744,3028,3128,1272,808,520,23
3744,3020,3120,1272,808,520,24
3740,3016,3112,1276,808,520,23
3736,3012,3108,1272,808,520,23
3732,3008,3100,1276,808,520,24
3728,3004,3096,1272,808,520,23
3732,3008,3104,1276,808,520,24
3736,3016,3112,1276,808,520,23
3744,3024,3120,1276,808,520,23
3744,3028,3124,1272,808,520,24
3748,3036,3136,1276,808,520,23
3756,3048,3148,1272,808,520,23
3764,3060,3164,1272,808,520,24
3776,3076,3180,1272,808,520,23
3780,3084,3192,1276,808,520,23
3780,3084,3192,1272,808,520,24
3772,3076,3180,1272,808,520,23
3764,3064,3168,1276,808,520,23
3760,3060,3160,1276,808,520,24
3760,3060,3164,1272,808,520,23
3768,3068,3172,1272,808,520,24
3764,3064,3164,1272,808,520,23
3756,3056,3152,1276,808,520,23
3744,3032,3128,1276,808,520,24
3728,3008,3100,1276,812,520,23
3712,2984,3068,1276,812,520,23
3700,2964,3044,1276,812,520,24
3676,2928,3004,1276,812,520,23
3652,2896,2964,1276,812,520,23
3648,2884,2956,1276,812,520,24
3644,2876,2944,1276,808,520,23
3640,2872,2944,1276,808,520,23
3640,2872,2940,1272,808,520,24
3640,2872,2940,1276,808,520,23
3648,2884,2956,1276,808,520,24
3664,2908,2984,1272,808,520,23
3684,2940,3020,1276,808,520,23
3712,2980,3068,1272,808,520,24
3740,3016,3112,1276,808,520,23
3756,3044,3148,1272,808,520,23
3768,3064,3168,1272,808,520,24
3772,3064,3168,1272,808,520,23
3772,3064,3168,1272,808,520,23
3776,3072,3176,1276,808,520,24
3780,3084,3188,1276,808,520,23
3792,3096,3204,1272,808,520,23
3804,3116,3232,1272,808,520,24
3828,3152,3272,1276,808,520,23
3852,3188,3320,1276,808,520,23
3876,3228,3364,1272,808,520,24
3892,3252,3396,1272,808,520,23
3904,3272,3420,1272,808,520,24
3908,3280,3428,1276,808,520,23
3904,3272,3416,1272,808,520,23
3892,3256,3400,1272,808,520,24
3884,3240,3380,1272,808,520,23
3872,3224,3360,1272,808,520,23
3852,3200,3328,1272,808,520,24
3840,3180,3304,1272,808,520,23
3828,3160,3284,1272,808,520,23
3812,3132,3252,1272,808,520,24
3792,3104,3216,1272,808,520,23
3776,3084,3192,1276,808,520,23
3772,3072,3180,1272,808,520,24
3764,3060,3168,1272,808,520,23
3760,3052,3156,1272,808,520,24
3752,3040,3144,1272,808,520,23
3744,3028,3132,1272,808,520,23
3736,3016,3116,1272,808,520,24
3716,2992,3084,1272,808,520,23
3704,2972,3064,1272,808,520,23
3692,2956,3044,1272,808,520,24
3684,2940,3028,1272,808,520,23
3680,2936,3020,1272,808,520,23
3684,2936,3020,1272,808,520,24
3688,2944,3028,1272,808,520,23
3692,2952,3036,1276,808,520,23
3692,2952,3040,1272,808,520,24
3696,2956,3044,1272,808,520,23
3700,2956,3044,1272,808,520,23
3700,2964,3052,1272,808,520,24
3700,2964,3052,1272,808,520,23
3704,2968,3060,1272,808,520,24
3708,2972,3064,1272,808,520,23
3708,2976,3064,1272,808,520,23
3708,2976,3064,1272,808,520,24
3708,2976,3064,1272,808,520,23
3704,2972,3060,1272,808,520,23
3700,2968,3056,1272,808,520,24
3696,2960,3048,1272,808,520,23
3692,2952,3040,1272,808,520,23
3684,2944,3028,1272,808,520,24
3676,2932,3016,1272,808,520,23
3672,2924,3004,1272,808,520,23
3664,2912,2988,1272,808,520,24
3660,2900,2980,1272,808,520,23
3656,2896,2976,1276,808,520,24
3656,2896,2976,1272,808,520,23
3656,2896,2972,1272,808,520,23
3656,2896,2972,1272,808,520,24
3652,2892,2968,1272,808,520,23
3648,2888,2964,1272,808,520,23
3648,2880,2960,1272,808,520,24
3644,2876,2952,1272,808,520,23
3644,2880,2956,1272,808,520,23
3648,2880,2960,1272,808,520,24
3648,2884,2960,1272,808,520,23
3652,2888,2964,1272,808,520,23
3648,2884,2960,1272,808,520,24
3648,2884,2964,1272,808,520,23
3652,2888,2964,1272,808,520,24
3652,2892,2968,1272,808,520,23
3656,2896,2972,1272,808,520,23
3660,2900,2980,1272,808,520,24
3660,2908,2984,1272,808,520,23
3668,2912,2992,1272,808,520,23
3668,2912,2992,1272,808,520,24
3672,2920,3000,1272,808,520,23
3676,2928,3008,1272,808,520,23
3680,2932,3016,1272,808,520,24
3680,2936,3020,1272,808,520,23
3684,2936,3020,1272,808,520,23
3684,2940,3020,1272,808,520,24
3676,2928,3012,1272,808,520,23
3672,2924,3004,1272,808,520,23
3668,2916,2992,1272,808,520,24
3660,2908,2984,1276,808,520,23
3652,2896,2972,1272,808,520,24
3648,2888,2964,1272,808,520,23
3644,2884,2956,1272,808,520,23
3644,2880,2956,1272,808,520,24
3644,2880,2956,1272,808,520,23
3648,2880,2956,1272,808,520,23
3652,2888,2964,1272,808,520,24
3652,2884,2964,1272,808,520,23
3648,2880,2960,1272,808,520,23
3640,2872,2948,1272,808,520,24
3644,2876,2952,1272,808,520,23
3644,2876,2952,1272,808,520,23
3640,2872,2948,1272,808,520,24
3636,2868,2940,1272,808,520,23
3636,2864,2936,1272,808,520,23
3636,2864,2936,1272,808,520,24
3636,2864,2936,1272,808,520,23
3632,2864,2936,1272,808,520,24
3636,2868,2944,1272,808,520,23
3640,2876,2948,1272,808,520,23
3644,2880,2952,1272,808,520,24
3648,2884,2960,1272,808,520,23
3652,2892,2968,1272,808,520,23
3652,2892,2968,1272,808,516,24
3652,2896,2972,1272,808,520,23
3656,2904,2980,1272,808,520,23
3660,2908,2984,1272,808,520,24
3664,2912,2992,1272,808,520,23
3664,2916,2992,1272,808,520,23
3664,2912,2992,1272,808,520,24
3656,2908,2984,1272,808,520,23
3652,2900,2976,1272,808,520,24
3648,2892,2964,1272,808,520,23
3644,2888,2956,1272,808,520,23
3640,2880,2948,1272,808,520,24
3636,2872,2944,1272,808,520,23
3632,2868,2940,1272,808,520,23
3632,2864,2932,1272,808,520,24
3624,2856,2924,1272,808,520,23
3624,2856,2924,1272,808,520,23
3628,2860,2928,1272,808,520,24
3632,2860,2932,1272,808,520,23
3628,2860,2928,1272,808,520,23
3624,2856,2924,1272,808,520,24
3624,2852,2924,1272,808,520,23
3624,2856,2924,1272,808,520,23
3628,2860,2928,1272,808,520,24
3628,2860,2932,1272,808,520,23
3632,2864,2936,1272,808,520,24
3636,2868,2940,1272,808,520,23
3640,2876,2948,1272,808,520,23
3644,2884,2956,1272,808,520,24
3648,2892,2964,1272,808,520,23
3652,2896,2972,1272,808,520,23
3660,2904,2980,1272,808,520,24
3660,2912,2988,1272,808,520,23
3668,2916,2996,1272,808,520,23
3672,2924,3004,1272,808,520,24
3676,2936,3012,1272,808,520,23
3676,2936,3016,1272,808,520,23
3680,2940,3020,1272,808,520,24
3688,2948,3028,1272,808,520,23
3688,2952,3036,1272,808,520,24
3688,2956,3036,1272,808,520,23
3688,2956,3036,1272,808,520,23
3684,2952,3028,1272,808,520,24
3680,2940,3016,1272,808,520,23
3672,2932,3008,1272,808,520,23
3672,2928,3004,1272,808,520,24
3668,2924,3000,1272,808,520,23
3668,2920,2996,1276,808,520,23
3664,2916,2992,1272,808,520,24
3664,2916,2992,1272,808,520,23
3668,2916,2992,1272,808,520,23
3668,2920,2996,1272,808,520,24
3668,2920,2996,1272,808,520,23
3664,2916,2992,1272,808,520,23
3664,2912,2992,1272,808,520,24
3668,2916,2996,1272,808,520,23
3672,2924,3000,1272,808,520,24
3672,2924,3004,1276,808,520,23
3672,2924,3004,1276,808,520,23
3676,2928,3008,1276,808,520,24
3676,2928,3008,1276,808,520,23
3680,2936,3016,1272,808,520,23
3684,2944,3024,1272,808,520,24
3688,2948,3028,1272,808,520,23
3692,2956,3036,1276,808,520,23
3696,2964,3044,1272,808,520,24
3700,2968,3052,1272,808,520,23
3704,2976,3060,1272,808,520,23
3708,2980,3064,1272,808,520,24
3708,2980,3068,1272,808,520,23
3708,2980,3068,1272,808,520,24
3708,2984,3068,1272,808,520,23
3712,2988,3072,1276,808,520,23
3712,2992,3080,1276,808,520,24
3716,2996,3080,1276,808,520,23
3716,2996,3080,1276,808,520,23
3712,2992,3076,1276,808,520,24
3708,2984,3068,1276,808,520,23
3704,2980,3060,1276,808,520,23
3704,2976,3060,1276,808,520,24
3704,2976,3056,1276,808,520,23
3696,2968,3048,1276,812,520,23
3692,2960,3044,1276,812,520,24
3696,2960,3044,1276,812,520,23
3696,2964,3048,1272,808,520,23
3700,2968,3056,1276,808,520,24
3704,2972,3060,1276,812,520,23
3704,2972,3060,1272,808,520,24
3704,2972,3060,1276,808,520,23
3704,2972,3060,1272,808,520,23
3704,2976,3064,1276,808,520,24
3708,2980,3068,1272,808,520,23
3708,2980,3068,1272,808,520,23
3708,2980,3064,1276,808,520,24
3708,2980,3068,1276,808,520,23
3712,2988,3076,1272,808,520,23
3716,2992,3080,1272,808,520,24
3716,2996,3084,1272,808,520,23
3720,3000,3092,1276,808,520,23
3724,3004,3096,1276,808,520,24
3728,3012,3104,1276,808,520,23
3732,3016,3112,1276,808,520,24
3736,3020,3112,1272,808,520,23
3732,3020,3116,1272,808,520,23
3740,3028,3124,1276,808,520,24
3744,3036,3132,1276,808,520,23
3748,3040,3136,1276,808,520,23
3752,3044,3144,1276,808,520,24
3748,3044,3140,1272,808,520,23
3748,3044,3140,1276,808,520,23
3748,3044,3140,1276,808,520,24
3748,3040,3136,1272,808,520,23
3740,3032,3128,1272,808,520,23
3736,3028,3120,1276,808,520,24
3732,3016,3108,1276,808,520,23
3728,3012,3100,1276,808,520,23
3724,3008,3100,1276,808,520,24
3724,3008,3100,1276,812,520,23
3728,3008,3104,1276,808,520,24
3728,3012,3104,1272,808,520,23
3732,3012,3108,1276,808,520,23
3728,3008,3100,1276,808,520,24
3724,3004,3096,1276,808,520,23
3724,3004,3096,1276,808,520,23
3728,3008,3100,1272,808,520,24
3728,3008,3104,1272,808,520,23
3724,3004,3100,1276,808,520,23
3724,3004,3096,1272,808,520,24
3728,3008,3100,1272,808,520,23
3732,3012,3108,1272,808,520,23
3736,3020,3112,1276,808,520,24
3736,3020,3116,1272,808,520,23
3736,3024,3120,1272,808,520,24
3740,3028,3124,1272,808,520,23
3744,3032,3132,1276,808,520,23
3744,3040,3136,1276,808,520,24
3748,3040,3136,1276,808,520,23
3748,3044,3140,1276,808,520,23
3748,3044,3144,1276,808,520,24
3752,3048,3144,1272,808,520,23
3752,3048,3148,1272,808,520,23
3752,3052,3148,1272,808,520,24
3752,3052,3148,1272,808,520,23
3748,3048,3144,1272,808,520,23
3744,3040,3136,1272,808,520,24
3740,3032,3128,1272,808,520,23
3732,3024,3116,1276,808,520,24
3728,3016,3104,1276,808,520,23
3720,3008,3096,1276,812,520,23
3720,3000,3088,1276,808,520,24
3716,2996,3084,1276,808,520,23
3720,3000,3092,1276,812,520,23
3724,3004,3096,1272,808,520,24
3724,3008,3096,1276,808,520,23
3724,3004,3096,1276,808,520,23
3720,3000,3092,1272,808,520,24
3716,2996,3088,1272,808,520,23
3720,2996,3088,1276,808,520,23
3720,3000,3092,1272,808,520,24
3724,3004,3096,1272,808,520,23
3720,3000,3088,1272,808,520,24
3720,3000,3092,1272,808,520,23
3724,3004,3096,1276,808,520,23
3724,3008,3100,1276,808,520,24
3728,3012,3104,1272,808,520,23
3732,3016,3112,1272,808,520,23
3732,3020,3112,1272,808,520,24
3732,3020,3112,1272,808,520,23
3732,3024,3116,1272,808,520,23
3736,3028,3120,1276,808,520,24
3736,3028,3124,1276,808,520,23
3736,3032,3124,1276,808,520,23
3736,3032,3124,1276,808,520,24
3736,3032,3124,1276,808,520,23
3740,3032,3124,1272,808,520,24
3740,3032,3128,1272,808,520,23
3740,3036,3128,1276,808,520,23
3740,3036,3128,1276,808,520,24
3740,3032,3128,1272,808,520,23
3728,3020,3112,1276,808,520,23
3724,3012,3100,1276,808,520,24
3720,3008,3096,1276,812,520,23
3716,3004,3088,1276,812,520,23
3712,2996,3084,1276,812,520,24
3712,2992,3080,1276,812,520,23
3712,2992,3080,1276,808,520,23
3716,2996,3084,1276,812,520,24
3716,3000,3088,1276,808,520,23
3720,3004,3092,1276,812,520,23
3724,3008,3096,1276,808,520,24
3720,3000,3088,1276,812,520,23
3720,3000,3088,1276,808,520,24
3720,3000,3088,1276,808,520,23
3720,3000,3092,1276,808,520,23
3720,3004,3092,1276,812,520,24
3720,3004,3092,1276,808,520,23
3724,3008,3096,1276,812,520,23
3728,3012,3100,1276,808,520,24
3728,3012,3104,1276,812,520,23
3728,3016,3108,1272,808,520,23
3732,3024,3116,1276,812,520,24
3736,3028,3120,1276,812,520,23
3740,3032,3124,1276,808,520,23
3740,3036,3128,1276,812,520,24
3744,3040,3132,1276,812,520,23
3744,3044,3136,1276,808,520,24
3748,3048,3140,1276,808,520,23
3748,3048,3144,1276,812,520,23
3748,3052,3144,1276,812,520,24
3752,3056,3148,1276,808,520,23
3756,3060,3156,1276,812,520,23
3760,3064,3160,1276,812,520,24
3760,3064,3160,1276,812,520,23
3756,3060,3152,1276,812,520,23
3748,3048,3140,1276,812,520,24
3740,3036,3124,1276,812,520,23
3732,3024,3112,1276,812,520,23
3728,3020,3104,1276,812,520,24
3728,3016,3104,1276,812,520,23
3728,3020,3104,1276,812,520,24
3728,3020,3108,1276,812,520,23
3732,3020,3108,1276,812,520,23
3728,3016,3104,1276,812,520,24
3728,3016,3104,1276,812,520,23
3728,3012,3100,1276,812,520,23
3728,3012,3104,1276,812,520,24
3728,3020,3108,1276,808,520,23
3732,3024,3112,1276,812,520,23
3736,3024,3112,1276,812,520,24
3732,3020,3108,1276,808,520,23
3732,3020,3108,1276,808,520,23
3732,3024,3112,1276,812,520,24
3736,3028,3120,1276,812,520,23
3740,3032,3124,1276,808,520,23
3740,3036,3128,1276,812,520,24
3740,3040,3128,1276,812,520,23
3744,3044,3132,1276,808,520,24
3744,3044,3136,1276,812,520,23
3748,3048,3140,1276,812,520,23
3752,3052,3144,1276,812,520,24
3752,3056,3148,1276,812,520,23
3756,3060,3156,1276,812,520,23
3756,3064,3160,1276,812,520,24
3760,3068,3160,1276,812,520,23
3760,3068,3164,1276,812,520,23
3764,3076,3172,1276,812,520,24
3768,3080,3176,1276,812,520,23
3768,3084,3176,1276,812,520,23
3764,3080,3172,1276,812,520,24
3756,3068,3160,1276,812,520,23
3748,3056,3144,1276,812,520,24
3744,3048,3136,1276,812,520,23
3740,3040,3128,1276,812,520,23
3740,3040,3128,1276,812,520,24
3740,3040,3124,1276,812,520,23
3740,3040,3128,1276,812,520,23
3740,3040,3128,1276,812,520,24
3744,3044,3136,1276,812,520,23
3748,3048,3144,1276,812,520,23
3752,3052,3148,1276,812,520,24
3752,3056,3152,1276,812,520,23
3756,3060,3156,1276,812,520,23
3756,3064,3160,1276,812,520,24
3760,3068,3164,1276,812,520,23
3760,3068,3164,1276,812,520,24
3760,3068,3164,1276,812,520,23
3760,3068,3164,1276,812,520,23
3764,3076,3172,1276,812,520,24
3772,3084,3180,1276,812,520,23
3776,3088,3188,1276,812,520,23
3776,3092,3192,1276,812,520,24
3776,3092,3192,1276,812,520,23
3776,3092,3192,1276,812,520,23
3776,3092,3192,1276,812,520,24
3776,3092,3192,1276,812,520,23
3776,3096,3196,1276,812,520,23
3776,3096,3196,1276,812,520,24
3776,3096,3196,1276,812,520,23
3776,3096,3196,1276,812,520,24
3780,3100,3200,1276,812,520,23
3784,3104,3204,1276,812,520,23
3784,3108,3208,1276,812,520,24
3784,3108,3208,1276,812,520,23
3780,3104,3204,1276,812,520,23
3776,3096,3196,1276,812,520,24
3772,3088,3184,1276,812,520,23
3768,3084,3184,1276,812,520,23
3768,3080,3176,1276,812,520,24
3764,3076,3172,1276,812,520,23
3760,3068,3164,1276,812,520,23
3760,3068,3160,1276,812,520,24
3760,3068,3164,1276,812,520,23
3764,3072,3168,1276,812,520,24
3768,3080,3176,1276,812,520,23
3772,3080,3180,1276,812,520,23
3768,3076,3176,1276,812,520,24
3764,3072,3172,1276,812,520,23
3764,3076,3172,1276,812,520,23
3768,3076,3176,1276,812,520,24
3768,3076,3176,1276,812,520,23
3768,3076,3176,1276,812,520,23
3768,3076,3176,1276,812,520,24
3764,3076,3176,1276,812,520,23
3768,3080,3180,1276,812,520,23
3772,3084,3184,1276,812,520,24
3776,3088,3192,1276,812,520,23
3776,3092,3196,1272,808,520,24
3776,3096,3196,1276,812,520,23
3784,3100,3204,1276,812,520,23
3784,3100,3204,1276,812,520,24
3784,3104,3208,1276,812,520,23
3784,3104,3208,1276,812,520,23
3784,3104,3208,1276,812,520,24
3784,3104,3208,1276,812,520,23
3784,3108,3212,1276,812,520,23
3784,3108,3212,1276,812,520,24
3788,3112,3216,1276,812,520,23
3784,3108,3212,1276,812,520,23
3784,3104,3208,1276,812,520,24
3780,3100,3204,1276,812,520,23
3776,3096,3196,1276,812,520,24
3776,3092,3192,1276,812,520,23
3768,3084,3184,1276,812,520,23
3768,3080,3180,1276,812,520,24
3768,3080,3180,1276,812,520,23
3772,3084,3184,1276,812,520,23
3772,3084,3188,1276,812,520,24
3776,3088,3192,1272,812,520,23
3776,3088,3192,1276,812,520,23
3776,3088,3192,1276,812,520,24
3776,3088,3192,1276,812,520,23
3776,3088,3192,1276,808,520,23
3776,3092,3196,1272,808,520,24
3780,3092,3196,1276,808,520,23
3772,3084,3188,1272,808,520,24
3772,3080,3184,1276,812,520,23
3768,3076,3176,1276,812,520,23
3768,3080,3180,1272,808,520,24
3772,3080,3184,1276,812,520,23
3772,3084,3188,1276,812,520,23
3776,3088,3188,1276,808,520,24
3772,3088,3188,1272,808,520,23
3772,3084,3188,1272,808,520,23
3776,3088,3192,1272,808,520,24
3776,3092,3196,1272,808,520,23
3780,3096,3200,1272,808,520,23
3780,3100,3204,1272,808,520,24
3780,3100,3204,1272,808,520,23
3784,3104,3208,1272,808,520,24
3788,3108,3216,1276,812,520,23
3792,3116,3220,1272,808,520,23
3792,3120,3224,1272,808,520,24
3796,3120,3224,1272,808,520,23
3784,3112,3216,1272,808,520,23
3784,3104,3208,1272,808,520,24
3784,3104,3204,1276,812,520,23
3780,3100,3200,1276,812,520,23
3780,3100,3200,1276,812,520,24
3780,3096,3200,1276,812,520,23
3780,3096,3200,1276,812,520,23
3780,3100,3204,1276,812,520,24
3784,3100,3208,1272,812,520,23
3788,3108,3212,1276,812,520,23
3788,3108,3216,1272,808,520,24
3788,3104,3212,1272,812,520,23
3784,3100,3208,1272,812,520,24
3784,3104,3212,1272,808,520,23
3784,3104,3212,1272,808,520,23
3784,3100,3208,1272,808,520,24
3776,3092,3200,1272,808,520,23
3772,3088,3192,1272,808,520,23
3772,3084,3192,1276,812,520,24
3772,3084,3188,1276,812,520,23
3772,3084,3184,1272,808,520,23
3768,3080,3180,1272,808,520,24
3768,3076,3180,1272,808,520,23
3768,3076,3180,1272,808,520,23
3768,3076,3180,1272,808,520,24
3768,3080,3184,1272,808,520,23
3772,3084,3184,1272,808,520,24
3768,3084,3184,1276,812,520,23
3772,3084,3184,1276,812,520,23
3768,3084,3184,1276,812,520,24
3772,3084,3188,1276,812,520,23
3772,3088,3192,1276,812,520,23
3776,3092,3196,1272,812,520,24
3776,3092,3192,1272,812,520,23
3772,3088,3188,1276,812,520,23
3768,3084,3184,1276,812,520,24
3764,3080,3180,1276,812,520,23
3764,3076,3176,1276,812,520,23
3764,3072,3172,1276,812,520,24
3756,3064,3160,1272,812,520,23
3756,3060,3160,1276,812,520,24
3760,3068,3164,1276,812,520,23
3760,3068,3168,1276,812,520,23
3768,3072,3176,1272,812,520,24
3764,3072,3176,1276,812,520,23
3764,3072,3172,1276,812,520,23
3764,3068,3172,1276,812,520,24
3764,3068,3168,1272,808,520,23
3760,3068,3168,1272,808,520,23
3760,3068,3168,1272,808,520,24
3760,3068,3168,1272,812,520,23
3760,3064,3164,1276,812,520,23
3760,3064,3160,1276,812,520,24
3756,3060,3156,1276,812,520,23
3756,3060,3160,1276,812,520,24
3756,3060,3160,1276,812,520,23
3760,3064,3164,1276,812,520,23
3760,3068,3164,1276,812,520,24
3760,3072,3168,1276,812,520,23
3764,3072,3172,1276,812,520,23
3764,3076,3176,1272,812,520,24
3764,3076,3176,1276,812,520,23
3768,3080,3180,1276,812,520,23
3768,3084,3184,1276,812,520,24
3768,3084,3184,1276,812,520,23
3772,3084,3184,1276,812,520,23
3772,3088,3188,1276,812,520,24
3776,3096,3196,1276,812,520,23
3776,3092,3196,1276,812,520,24
3772,3088,3188,1276,812,520,23
3764,3080,3180,1276,812,520,23
3764,3076,3172,1276,812,520,24
3760,3072,3168,1276,812,520,23
3760,3068,3168,1276,812,520,23
3756,3064,3160,1276,812,520,24
3760,3068,3164,1276,812,520,23
3756,3064,3164,1276,812,520,23
3760,3068,3164,1276,812,520,24
3764,3072,3168,1276,812,520,23
3760,3068,3168,1276,812,520,23
3760,3068,3168,1276,812,520,24
3760,3068,3164,1276,812,520,23
3756,3064,3164,1276,812,520,24
3760,3064,3164,1276,812,520,23
3760,3064,3164,1276,812,520,23
3760,3068,3164,1276,812,520,24
3760,3068,3164,1276,812,520,23
3760,3068,3168,1276,812,520,23
3764,3072,3172,1276,812,520,24
3768,3076,3176,1276,812,520,23
3768,3076,3176,1276,812,520,23
3768,3080,3180,1276,812,520,24
3772,3084,3184,1276,812,520,23
3776,3088,3188,1276,812,520,23
3772,3088,3188,1276,812,520,24
3772,3088,3192,1276,812,520,23
3776,3096,3196,1276,812,520,23
3780,3096,3200,1276,812,520,24
3780,3100,3200,1276,812,520,23
3780,3100,3204,1276,812,520,24
3780,3104,3204,1276,812,520,23
3784,3108,3212,1276,812,520,23
3788,3112,3216,1276,812,520,24
3788,3112,3216,1276,812,520,23
3784,3108,3212,1276,812,520,23
3780,3104,3204,1276,812,520,24
3772,3092,3188,1276,812,520,23
3764,3080,3176,1276,812,520,23
3764,3076,3168,1276,812,520,24
3760,3068,3164,1276,812,520,23
3752,3060,3156,1276,812,520,23
3752,3056,3152,1276,812,520,24
3752,3056,3152,1276,812,520,23
3756,3060,3156,1276,812,520,24
3756,3060,3156,1276,812,520,23
3756,3060,3156,1276,812,520,23
3756,3060,3156,1276,812,520,24
3752,3056,3152,1276,812,520,23
3756,3056,3152,1276,812,520,23
3752,3052,3152,1276,812,520,24
3752,3052,3148,1276,812,520,23
3752,3052,3148,1276,812,520,23
3752,3056,3152,1276,812,520,24
3756,3060,3160,1272,812,520,23
3760,3068,3168,1276,812,520,23
3768,3076,3180,1272,812,520,24
3772,3084,3188,1276,812,520,23
3776,3092,3192,1276,812,520,24
3776,3088,3192,1276,812,520,23
3776,3088,3192,1276,812,520,23
3780,3092,3196,1276,812,520,24
3780,3096,3200,1276,812,520,23
3780,3096,3200,1276,812,520,23
3780,3096,3200,1276,812,520,24
3784,3100,3204,1276,812,520,23
3780,3096,3200,1276,812,520,23
3780,3100,3204,1276,812,520,24
3784,3104,3208,1276,812,520,23
3784,3108,3208,1276,812,520,23
3780,3100,3204,1276,812,520,24
3776,3092,3196,1276,812,520,23
3768,3084,3184,1276,812,520,24
3764,3080,3180,1276,812,520,23
3764,3076,3176,1276,812,520,23
3760,3068,3168,1276,812,520,24
3756,3068,3164,1276,812,520,23
3760,3064,3164,1276,812,520,23
3760,3064,3164,1276,812,520,24
3760,3068,3168,1276,812,520,23
3764,3072,3176,1276,812,520,23
3768,3076,3180,1276,812,520,24
3768,3076,3180,1276,812,520,23
3764,3072,3176,1276,812,520,23
3764,3072,3176,1272,812,520,24
3768,3076,3180,1276,812,520,23
3768,3076,3180,1272,812,520,24
3768,3076,3180,1276,812,520,23
3768,3076,3180,1272,812,520,23
3768,3076,3180,1272,812,520,24
3772,3080,3184,1272,812,520,23
3776,3088,3192,1272,812,520,23
3772,3088,3192,1272,808,520,24
3776,3088,3196,1276,812,520,23
3776,3092,3200,1272,812,520,23
3776,3092,3196,1276,812,520,24
3780,3096,3200,1272,812,520,23
3780,3096,3204,1276,812,520,23
3780,3100,3204,1272,812,520,24
3784,3100,3208,1276,812,520,23
3780,3104,3208,1276,812,520,23
3784,3108,3216,1272,812,520,24
3788,3112,3220,1272,812,520,23
3788,3112,3220,1272,812,520,24
3788,3112,3220,1272,812,520,23
3784,3108,3216,1272,812,520,23
3780,3104,3212,1272,812,520,24
3776,3096,3204,1272,812,520,23
3772,3088,3192,1276,812,520,23
3768,3080,3184,1272,812,520,24
3764,3072,3176,1272,812,520,23
3760,3068,3168,1272,812,520,23
3760,3068,3168,1272,812,520,24
3760,3068,3172,1272,812,520,23
3760,3068,3172,1272,812,520,23
3760,3064,3168,1272,812,520,24
3760,3068,3172,1272,812,520,23
3756,3060,3164,1272,808,520,24
3756,3056,3160,1272,808,520,23
3756,3060,3160,1272,812,520,23
3756,3060,3164,1272,808,520,24
3756,3060,3164,1272,808,520,23
3752,3056,3160,1272,812,520,23
3752,3056,3160,1272,812,520,24
3760,3064,3168,1272,808,520,23
3764,3068,3172,1272,808,520,23
3764,3072,3176,1272,812,520,24
3768,3076,3180,1272,808,520,23
3768,3076,3184,1272,808,520,23
3768,3076,3184,1272,812,520,24
3768,3080,3184,1272,812,520,23
3772,3084,3188,1272,808,520,24
3768,3084,3188,1272,808,520,23
3768,3084,3188,1272,812,520,23
3772,3084,3192,1272,808,520,24
3772,3088,3192,1272,808,520,23
3776,3092,3196,1272,808,520,23
3776,3096,3200,1276,812,520,24
3776,3096,3200,1276,812,520,23
3776,3092,3196,1276,812,520,23
3768,3084,3188,1272,812,520,24
3760,3072,3172,1276,812,520,23
3756,3064,3164,1276,812,520,23
3752,3056,3156,1276,812,520,24
3748,3048,3144,1276,812,520,23
3744,3044,3140,1276,812,520,24
3744,3040,3140,1272,812,520,23
3744,3040,3140,1276,812,520,23
3748,3048,3148,1272,812,520,24
3748,3048,3148,1272,812,520,23
3752,3048,3152,1272,812,520,23
3748,3048,3148,1272,808,520,24
3748,3044,3144,1272,812,520,23
3744,3040,3140,1272,812,520,23
3748,3044,3144,1272,812,520,24
3748,3048,3148,1272,812,520,23
3748,3044,3144,1272,812,520,23
3748,3044,3144,1272,812,520,24
3748,3044,3144,1272,812,520,23
3752,3052,3152,1276,812,520,23
3752,3056,3156,1272,812,520,24
3756,3056,3160,1272,812,520,23
3756,3060,3164,1276,812,520,24
3760,3064,3168,1276,812,520,23
3760,3068,3172,1272,812,520,23
3764,3072,3176,1276,812,520,24
3768,3076,3180,1272,812,520,23
3768,3080,3184,1272,812,520,23
3768,3080,3184,1276,812,520,24
3768,3080,3184,1276,812,520,23
3768,3080,3184,1276,812,520,23
3768,3084,3188,1276,812,520,24
3772,3088,3192,1276,812,520,23
3772,3092,3196,1272,812,520,23
3776,3096,3200,1272,812,520,24
3772,3088,3192,1272,812,520,23
3764,3080,3180,1276,812,520,24
3760,3072,3172,1276,812,520,23
3756,3068,3164,1276,812,520,23
3752,3060,3156,1276,812,520,24
3752,3056,3152,1276,812,520,23
3752,3056,3152,1276,812,520,23
3752,3052,3152,1276,812,520,24
3752,3052,3152,1276,812,520,23
3752,3056,3156,1276,812,520,23
3756,3060,3160,1276,812,520,24
3756,3060,3160,1276,812,520,23
3756,3056,3156,1276,812,520,23
3752,3052,3152,1276,812,520,24
3748,3052,3152,1276,812,520,23
3748,3052,3152,1276,812,520,24
3748,3052,3152,1276,812,520,23
3748,3048,3148,1276,812,520,23
3752,3052,3152,1276,812,520,24
3752,3056,3156,1276,812,520,23
3756,3060,3164,1276,812,520,23
3756,3064,3164,1276,812,520,24
3760,3068,3172,1276,812,520,23
3764,3072,3172,1276,812,520,23
3764,3076,3180,1276,812,520,24
3768,3084,3184,1276,812,520,23
3772,3088,3192,1276,812,520,23
3772,3092,3196,1276,812,520,24
3776,3096,3200,1276,812,520,23
3780,3100,3208,1276,812,520,23
3784,3104,3212,1272,812,520,24
3788,3108,3216,1272,812,520,23
3788,3116,3220,1276,812,520,24
3792,3120,3228,1276,812,520,23
3796,3124,3236,1272,812,520,23
3796,3128,3236,1276,812,520,24
3792,3120,3228,1276,812,520,23
3784,3108,3212,1276,812,520,23
3780,3100,3204,1276,812,520,24
3780,3100,3200,1276,812,520,23
3776,3092,3196,1276,812,520,23
3772,3092,3196,1276,812,520,24
3772,3088,3192,1276,812,520,23
3772,3088,3192,1276,812,520,23
3776,3092,3196,1276,812,520,24
3776,3092,3196,1276,812,520,23
3776,3092,3196,1276,812,520,24
3776,3088,3196,1276,812,520,23
3772,3088,3196,1276,812,520,23
3776,3088,3196,1276,812,520,24
3780,3092,3200,1276,812,520,23
3776,3092,3200,1276,812,520,23
3776,3088,3192,1276,812,520,24
3776,3088,3196,1276,812,520,23
3780,3092,3200,1276,812,520,23
3784,3100,3208,1276,812,520,24
3788,3108,3216,1276,812,520,23
3792,3112,3220,1276,812,520,23
3792,3112,3220,1276,812,520,24
3792,3116,3224,1276,812,520,23
3792,3116,3224,1276,812,520,24
3792,3116,3224,1276,812,520,23
3792,3120,3228,1276,812,520,23
3796,3120,3232,1276,812,520,24
3800,3128,3236,1276,812,520,23
3796,3128,3236,1276,812,520,23
3800,3128,3240,1276,812,520,24
3800,3132,3244,1276,812,520,23
3808,3144,3252,1276,812,520,23
3812,3148,3260,1276,812,520,24
3812,3152,3264,1276,812,520,23
3808,3148,3260,1276,812,520,23
3804,3140,3248,1276,812,520,24
3796,3132,3240,1276,812,520,23
3792,3124,3228,1276,812,520,23
3796,3124,3228,1276,812,520,24
3788,3116,3224,1276,812,520,23
3784,3112,3216,1276,812,520,24
3784,3108,3212,1276,812,520,23
3784,3104,3212,1276,812,520,23
3788,3108,3216,1276,812,520,24
3788,3112,3220,1276,812,520,23
3788,3112,3220,1276,812,520,23
3788,3108,3216,1276,812,524,24
3788,3108,3216,1276,812,520,23
3788,3108,3216,1276,812,520,23
3784,3104,3212,1276,812,520,24
3784,3104,3212,1276,812,520,23
3784,3104,3208,1276,812,520,23
3784,3100,3208,1276,812,520,24
3784,3100,3208,1276,812,520,23
3784,3108,3212,1276,812,520,24
3788,3112,3220,1276,812,520,23
3792,3112,3220,1276,812,520,23
3796,3120,3228,1276,812,520,24
3796,3120,3228,1276,812,520,23
3792,3120,3228,1276,812,520,23
3796,3124,3236,1276,812,520,24
3800,3128,3236,1276,812,520,23
3800,3132,3240,1276,812,520,23
3800,3132,3244,1276,812,520,24
3804,3136,3248,1276,812,520,23
3804,3140,3248,1276,812,520,23
3804,3140,3248,1276,812,520,24
3804,3140,3252,1276,812,520,23
3812,3148,3260,1276,812,520,24
3812,3152,3264,1276,812,520,23
3812,3152,3264,1276,812,520,23
3808,3148,3256,1276,812,520,24
3800,3136,3244,1276,812,520,23
3796,3124,3232,1276,812,520,23
3792,3120,3228,1276,812,520,24
3788,3116,3220,1276,812,520,23
3788,3112,3216,1276,812,520,23
3788,3108,3216,1276,812,520,24
3788,3108,3216,1276,812,520,23
3784,3108,3212,1276,812,520,23
3784,3108,3212,1276,812,520,24
3784,3108,3212,1276,812,520,23
3788,3108,3216,1276,812,520,23
3784,3104,3212,1276,812,520,24
3784,3104,3212,1276,812,520,23
3784,3108,3212,1276,812,520,24
3788,3108,3216,1276,812,520,23
3784,3104,3212,1276,812,520,23
3784,3104,3212,1276,812,520,24
3784,3108,3216,1276,812,520,23
3788,3112,3220,1276,812,520,23
3792,3120,3228,1276,812,520,24
3800,3124,3236,1276,812,520,23
3796,3128,3236,1276,812,520,23
3800,3128,3240,1276,812,520,24
3800,3132,3244,1276,812,520,23
3804,3136,3248,1276,812,520,23
3804,3140,3252,1276,812,520,24
3808,3144,3256,1276,812,520,23
3812,3148,3260,1276,812,520,24
3812,3152,3264,1276,812,520,23
3816,3152,3264,1276,812,520,23
3812,3152,3264,1276,812,520,24
3816,3156,3268,1276,812,520,23
3820,3160,3276,1276,812,520,23
3824,3168,3280,1276,812,520,24
3820,3164,3280,1276,812,520,23
3816,3160,3276,1276,812,520,23
3812,3152,3260,1276,812,520,24
3800,3140,3248,1276,812,520,23
3800,3132,3240,1276,812,520,23
3796,3128,3232,1276,812,520,24
3792,3124,3228,1276,812,520,23
3788,3116,3224,1276,812,520,24
3788,3116,3220,1276,812,520,23
3792,3116,3224,1276,812,520,23
3792,3120,3228,1276,812,520,24
3796,3120,3228,1276,812,520,23
3792,3120,3228,1276,812,520,23
3792,3120,3228,1276,812,520,24
3792,3120,3228,1276,812,520,23
3792,3116,3224,1276,812,520,23
3792,3120,3228,1276,812,520,24
3796,3120,3228,1276,812,520,23
3792,3120,3228,1276,812,520,23
3800,3128,3236,1276,812,520,24
3804,3132,3244,1276,812,520,23
3804,3136,3248,1276,812,520,24
3808,3144,3252,1276,812,520,23
3812,3144,3256,1276,812,520,23
3812,3148,3260,1276,812,520,24
3808,3148,3260,1276,812,520,23
3812,3148,3264,1276,812,520,23
3816,3156,3268,1272,812,520,24
3816,3160,3272,1276,812,520,23
3820,3160,3276,1276,812,520,23
3820,3164,3280,1276,812,520,24
3824,3168,3284,1276,812,520,23
3824,3172,3284,1276,812,520,23
3828,3172,3288,1272,812,520,24
3828,3176,3292,1276,812,520,23
3828,3180,3292,1276,812,520,23
3832,3184,3300,1276,812,520,24
3828,3176,3292,1276,812,520,23
3824,3172,3284,1276,812,520,24
3816,3164,3276,1276,812,520,23
3816,3160,3272,1276,812,520,23
3816,3160,3272,1276,812,520,24
3816,3160,3272,1276,812,520,23
3816,3160,3272,1276,812,520,23
3816,3156,3268,1276,812,520,24
3812,3152,3264,1276,812,520,23
3816,3152,3268,1276,812,520,23
3816,3156,3268,1276,812,520,24
3816,3156,3268,1276,812,520,23
3812,3148,3264,1276,812,520,23
3808,3144,3256,1276,812,520,24
3808,3144,3256,1276,812,520,23
3808,3144,3256,1276,812,520,24
3808,3144,3256,1276,812,520,23
3804,3140,3248,1276,812,520,23
3804,3136,3248,1276,812,520,24
3804,3140,3248,1276,812,520,23
3808,3140,3252,1272,812,520,23
3808,3144,3256,1276,812,520,24
3808,3144,3256,1276,812,520,23
3808,3144,3256,1276,812,520,23
3812,3148,3264,1276,812,520,24
3816,3152,3268,1276,812,520,23
3816,3156,3268,1276,812,520,23
3820,3160,3276,1272,812,520,24
3820,3160,3276,1272,812,520,23
3820,3164,3280,1276,812,520,23
3824,3168,3284,1276,812,520,24
3828,3172,3292,1276,812,520,23
3832,3180,3296,1276,812,520,24
3832,3184,3300,1276,812,520,23
3836,3188,3304,1276,812,520,23
3832,3184,3304,1276,812,520,24
3832,3184,3300,1276,812,520,23
3832,3180,3296,1276,812,520,23
3828,3176,3296,1276,812,520,24
3828,3176,3292,1276,812,520,23
3824,3168,3284,1276,812,520,23
3820,3164,3276,1276,812,520,24
3820,3164,3280,1276,812,520,23
3820,3164,3280,1276,812,520,23
3824,3168,3284,1276,812,520,24
3828,3176,3292,1276,812,520,23
3828,3176,3296,1276,812,520,24
3824,3168,3288,1276,812,520,23
3824,3164,3284,1276,812,520,23
3820,3164,3280,1276,812,520,24
3824,3168,3288,1272,812,520,23
3828,3168,3288,1272,812,520,23
3824,3168,3288,1272,812,520,24
3824,3168,3288,1272,812,520,23
3828,3168,3288,1276,812,520,23
3832,3172,3296,1272,812,520,24
3828,3176,3296,1276,812,520,23
3832,3180,3300,1272,812,520,23
3832,3180,3304,1272,812,520,24
3832,3184,3304,1272,812,520,23
3832,3184,3308,1272,812,520,23
3836,3188,3312,1272,812,520,24
3836,3192,3316,1272,812,520,23
3840,3192,3316,1272,812,520,24
3840,3196,3320,1272,812,520,23
3840,3196,3320,1272,812,520,23
3844,3200,3324,1272,812,520,24
3844,3200,3328,1276,812,520,23
3844,3200,3328,1272,812,520,23
3844,3200,3324,1272,812,520,24
3840,3196,3320,1272,812,520,23
3840,3192,3316,1272,812,520,23
3836,3188,3312,1272,812,520,24
3828,3180,3300,1276,812,520,23
3824,3168,3288,1276,812,520,23
3820,3164,3280,1272,812,520,24
3816,3156,3272,1272,812,520,23
3820,3156,3276,1272,812,520,24
3820,3160,3276,1272,812,520,23
3820,3160,3280,1272,812,520,23
3820,3156,3276,1272,812,520,24
3816,3156,3272,1272,812,520,23
3812,3148,3268,1272,812,520,23
3812,3148,3264,1272,812,520,24
3812,3148,3268,1272,812,520,23
3812,3148,3268,1272,812,520,23
3812,3144,3264,1276,812,520,24
3812,3144,3260,1276,812,520,23
3808,3140,3256,1272,812,520,23
3808,3140,3256,1276,812,520,24
3812,3144,3260,1276,812,520,23
3812,3148,3264,1272,812,520,24
3816,3152,3268,1272,812,520,23
3816,3152,3272,1272,812,520,23
3816,3152,3272,1276,812,520,24
3816,3156,3272,1276,812,520,23
3816,3156,3276,1276,812,520,23
3820,3160,3276,1272,812,520,24
3820,3160,3280,1276,812,520,23
3816,3156,3276,1272,812,520,23
3816,3152,3268,1272,812,520,24
3816,3156,3272,1272,812,520,23
3816,3160,3276,1276,812,520,23
3824,3164,3284,1276,812,520,24
3824,3168,3284,1272,812,520,23
3820,3160,3280,1272,812,520,23
3812,3152,3264,1276,812,520,24
3808,3144,3256,1276,812,520,23
3804,3140,3252,1276,812,520,24
3800,3132,3240,1276,812,520,23
3796,3124,3232,1276,812,520,23
3788,3116,3224,1276,812,520,24
3788,3112,3220,1276,812,520,23
3788,3112,3220,1272,812,520,23
3792,3112,3224,1276,812,520,24
3792,3112,3224,1272,812,520,23
3788,3108,3220,1272,812,520,23
3784,3104,3212,1272,812,520,24
3784,3100,3212,1276,812,520,23
3784,3100,3212,1272,812,520,23
3784,3104,3212,1272,812,520,24
3784,3104,3212,1272,812,520,23
3780,3096,3208,1272,812,520,24
3780,3096,3204,1272,812,520,23
3780,3096,3204,1272,812,520,23
3780,3100,3208,1272,812,520,24
3784,3104,3212,1272,812,520,23
3788,3108,3216,1276,812,520,23
3788,3112,3220,1276,812,520,24
3792,3112,3224,1272,812,520,23
3792,3112,3224,1272,812,520,23
3792,3116,3224,1272,812,520,24
3792,3116,3224,1272,812,520,23
3792,3120,3228,1276,812,520,23
3792,3120,3228,1276,812,520,24
3792,3116,3224,1276,812,520,23
3792,3116,3228,1276,812,520,24
3796,3120,3232,1272,812,520,23
3796,3128,3236,1272,812,520,23
3796,3128,3236,1272,812,520,24
3796,3124,3232,1276,812,520,23
3792,3116,3224,1272,812,520,23
3784,3108,3212,1272,812,520,24
3784,3104,3208,1272,812,520,23
3776,3096,3200,1272,812,520,23
3776,3092,3196,1272,812,520,24
3776,3088,3192,1272,812,520,23
3772,3084,3192,1272,812,520,23
3776,3088,3192,1272,812,520,24
3776,3088,3192,1272,812,520,23
3772,3084,3192,1272,812,520,24
