7804,3936,4076,1340,888,572,23
7800,3936,4072,1340,888,572,24
7804,3936,4076,1340,888,572,23
7804,3936,4076,1340,888,572,23
7804,3936,4076,1340,888,572,24
7804,3936,4072,1340,888,572,23
7800,3936,4072,1340,888,572,24
7804,3936,4076,1344,888,572,23
7808,3940,4076,1340,888,572,23
7808,3940,4076,1340,888,572,24
7804,3940,4076,1340,888,572,23
7808,3940,4076,1340,888,572,23
7804,3940,4076,1344,888,572,24
7808,3944,4080,1344,888,572,23
7812,3948,4084,1340,888,572,23
7812,3948,4084,1340,888,572,24
7812,3948,4084,1340,888,572,23
7812,3952,4088,1340,888,572,23
7812,3952,4088,1340,888,572,24
7812,3956,4088,1340,888,572,23
7816,3956,4092,1340,888,572,24
7816,3956,4088,1340,888,572,23
7812,3956,4088,1340,888,572,23
7812,3956,4088,1340,888,572,24
7808,3952,4084,1340,888,572,23
7804,3948,4080,1340,888,572,23
7804,3944,4080,1340,888,572,24
7804,3940,4076,1340,888,572,23
7808,3944,4080,1340,888,572,23
7804,3940,4080,1340,888,572,24
7804,3944,4080,1340,888,572,23
7808,3944,4080,1340,888,572,23
7808,3948,4084,1340,888,572,24
7812,3948,4084,1340,888,572,23
7812,3952,4084,1340,888,572,24
7808,3952,4084,1340,888,572,23
7812,3952,4084,1340,888,572,23
7812,3952,4084,1340,888,572,24
7812,3952,4084,1340,888,572,23
7812,3952,4084,1340,888,572,23
7812,3956,4088,1340,888,572,24
7812,3956,4088,1340,888,572,23
7812,3956,4088,1340,888,572,23
7812,3960,4088,1340,888,572,24
7812,3960,4092,1340,888,572,23
7816,3964,4092,1340,888,572,23
7820,3964,4096,1340,888,572,24
7824,3968,4100,1340,888,572,23
7824,3972,4100,1340,888,572,24
7824,3972,4100,1340,888,572,23
7824,3972,4104,1340,888,572,23
7824,3972,4100,1340,888,572,24
7828,3976,4104,1340,888,572,23
7828,3980,4104,1340,888,572,23
7824,3976,4104,1340,892,572,24
7824,3976,4104,1340,888,572,23
7820,3972,4100,1340,892,572,23
7816,3964,4092,1344,892,572,24
7816,3964,4096,1340,888,572,23
7816,3960,4092,1340,888,572,23
7816,3960,4092,1344,892,572,24
7812,3956,4088,1340,888,572,23
7812,3956,4088,1340,888,572,24
7816,3960,4092,1340,888,572,23
7816,3960,4092,1340,888,572,23
7812,3960,4092,1340,888,572,24
7816,3964,4092,1340,888,572,23
7812,3964,4092,1340,888,572,23
7816,3964,4092,1340,888,572,24
7816,3964,4092,1340,888,572,23
7816,3964,4092,1340,888,572,23
7812,3964,4092,1344,888,572,24
7816,3964,4096,1340,888,572,23
7816,3964,4096,1344,892,572,23
7816,3968,4096,1344,888,572,24
7816,3968,4096,1344,892,572,23
7824,3972,4100,1340,888,572,24
7820,3972,4100,1344,892,572,23
7824,3976,4100,1340,888,572,23
7824,3980,4104,1344,892,572,24
7824,3980,4104,1340,888,572,23
7824,3980,4104,1340,888,572,23
7828,3980,4104,1340,892,572,24
7824,3980,4104,1340,892,572,23
7820,3980,4104,1340,892,572,23
7820,3980,4104,1344,892,572,24
7824,3984,4108,1340,888,572,23
7824,3984,4108,1340,892,572,23
7820,3984,4104,1340,892,572,24
7820,3980,4104,1340,892,572,23
7816,3976,4100,1344,892,572,24
7816,3972,4100,1344,892,572,23
7812,3968,4096,1344,892,572,23
7812,3964,4092,1340,892,572,24
7812,3964,4092,1344,892,572,23
7808,3964,4092,1344,892,572,23
7808,3964,4088,1344,892,572,24
7816,3968,4096,1344,892,572,23
7816,3968,4092,1344,888,572,23
7812,3968,4096,1340,888,572,24
7816,3972,4096,1344,892,572,23
7816,3972,4096,1344,892,572,23
7820,3976,4100,1344,892,572,24
7820,3972,4100,1344,892,572,23
7820,3972,4100,1344,892,572,24
7816,3972,4100,1340,888,572,23
7824,3976,4100,1344,892,572,23
7816,3976,4100,1344,892,572,24
7816,3976,4100,1340,888,572,23
7820,3976,4100,1340,888,572,23
7816,3980,4100,1340,892,572,24
7824,3984,4104,1344,892,572,23
7824,3984,4108,1340,892,572,23
7824,3984,4104,1344,892,572,24
7820,3984,4108,1344,892,572,23
7820,3988,4108,1344,892,572,23
7824,3992,4108,1340,892,572,24
7824,3992,4112,1344,892,572,23
7824,3992,4112,1340,892,572,24
7824,3992,4108,1340,892,572,23
7820,3992,4108,1340,892,572,23
7824,3992,4108,1344,892,572,24
7824,3996,4116,1344,892,572,23
7820,3992,4112,1344,892,572,23
7820,3988,4108,1344,892,572,24
7816,3984,4104,1340,892,572,23
7816,3984,4104,1344,892,572,23
7816,3980,4104,1340,892,572,24
7820,3980,4104,1340,892,572,23
7820,3980,4104,1344,892,572,23
7820,3980,4104,1340,892,572,24
7816,3980,4104,1340,888,572,23
7824,3984,4108,1340,888,572,24
7820,3984,4108,1340,888,572,23
7824,3988,4108,1340,888,572,23
7824,3988,4108,1340,888,572,24
7824,3988,4108,1340,892,572,23
7824,3988,4108,1340,892,572,23
7824,3988,4108,1340,888,572,24
7820,3988,4108,1340,888,572,23
7820,3988,4108,1340,888,572,23
7824,3988,4108,1340,888,572,24
7828,3992,4112,1340,888,572,23
7828,3992,4112,1340,888,572,23
7824,3992,4112,1340,888,572,24
7824,3992,4108,1340,888,572,23
7828,3992,4112,1340,888,572,24
7824,3996,4116,1340,892,572,23
7828,3996,4116,1340,892,572,23
7828,4000,4116,1340,888,572,24
7828,4000,4116,1340,888,572,23
7828,4000,4120,1340,888,572,23
7832,4004,4120,1340,892,572,24
7836,4008,4124,1340,888,572,23
7832,4008,4124,1340,888,572,23
7840,4016,4124,1340,892,572,24
7840,4016,4124,1340,892,572,23
7832,4012,4124,1340,892,572,23
7836,4016,4124,1340,892,572,24
7836,4012,4124,1340,892,572,23
7832,4008,4124,1344,892,576,24
7828,4004,4124,1340,892,572,23
7832,4004,4124,1344,892,572,23
7832,4004,4124,1340,892,572,24
7836,4004,4124,1344,892,572,23
7836,4004,4124,1344,892,572,23
7836,4004,4124,1344,892,576,24
7836,4008,4124,1344,892,572,23
7836,4008,4124,1340,892,572,23
7832,4004,4124,1340,892,572,24
7832,4008,4124,1340,892,572,23
7832,4004,4124,1340,892,572,23
7832,4004,4124,1340,892,572,24
7832,4004,4124,1340,892,572,23
7832,4004,4124,1340,892,572,23
7832,4004,4124,1340,892,572,24
7836,4008,4124,1340,888,572,23
7832,4008,4124,1340,892,572,24
7832,4008,4124,1340,892,572,23
7832,4008,4124,1344,892,572,23
7836,4012,4124,1340,892,572,24
7840,4016,4124,1340,892,572,23
7840,4016,4124,1340,892,572,23
7844,4020,4124,1340,892,572,24
7840,4020,4124,1340,892,572,23
7840,4020,4124,1340,892,572,23
7840,4024,4124,1340,892,572,24
7844,4024,4124,1340,892,572,23
7848,4028,4124,1340,892,572,23
7840,4024,4124,1340,892,572,24
7840,4024,4124,1344,892,572,23
7836,4020,4124,1344,892,572,24
7828,4016,4124,1340,892,572,23
7836,4016,4124,1340,892,572,23
7836,4016,4124,1340,892,572,24
7836,4012,4124,1340,892,572,23
7836,4012,4124,1340,892,572,23
7832,4008,4124,1340,892,572,24
7836,4008,4124,1340,892,572,23
7832,4008,4124,1340,892,572,23
7836,4012,4124,1340,892,572,24
7832,4012,4124,1340,892,572,23
7828,4008,4124,1340,892,572,23
7824,4008,4124,1340,892,572,24
7828,4008,4124,1340,892,572,23
7824,4004,4124,1340,892,572,23
7828,4008,4124,1344,892,572,24
7828,4008,4124,1344,892,576,23
7828,4008,4124,1340,892,572,24
7832,4012,4124,1340,892,572,23
7836,4016,4124,1340,892,572,23
7832,4016,4124,1340,892,572,24
7844,4024,4124,1340,892,572,23
7840,4024,4124,1340,892,572,23
7848,4028,4124,1340,892,572,24
7844,4032,4124,1340,892,572,23
7848,4032,4124,1340,892,572,23
7848,4036,4128,1340,892,572,24
7852,4040,4136,1340,892,572,23
7848,4040,4132,1340,892,572,23
7848,4036,4132,1340,892,572,24
7844,4036,4124,1340,892,572,23
7844,4032,4124,1340,892,572,24
7844,4028,4124,1340,892,572,23
7836,4024,4124,1340,892,572,23
7840,4024,4124,1340,892,572,24
7840,4020,4124,1340,892,572,23
7832,4016,4124,1340,892,572,23
7832,4012,4124,1340,892,572,24
7832,4012,4124,1340,892,572,23
7832,4012,4124,1340,892,572,23
7828,4012,4124,1340,892,572,24
7836,4012,4124,1340,892,572,23
7828,4012,4124,1340,892,572,23
7828,4012,4124,1340,892,572,24
7828,4012,4124,1340,892,572,23
7828,4012,4124,1340,892,572,24
7828,4012,4124,1340,892,572,23
7828,4012,4124,1340,892,572,23
7832,4012,4124,1344,892,572,24
7832,4016,4124,1340,892,572,23
7832,4016,4124,1340,892,572,23
7832,4020,4124,1340,892,572,24
7832,4020,4124,1344,892,572,23
7832,4024,4124,1344,892,576,23
7836,4024,4124,1340,892,572,24
7836,4024,4124,1340,892,572,23
7836,4024,4124,1340,892,572,23
7836,4028,4124,1344,892,576,24
7840,4032,4124,1340,892,572,23
7844,4032,4124,1340,892,572,24
7840,4032,4124,1340,892,572,23
7836,4032,4124,1340,892,572,23
7836,4032,4124,1344,892,576,24
7832,4028,4124,1344,892,576,23
7832,4028,4124,1344,892,576,23
7832,4020,4124,1340,892,576,24
7828,4016,4124,1340,892,576,23
7824,4012,4124,1340,892,572,23
7832,4016,4124,1340,892,576,24
7832,4012,4124,1340,892,572,23
7832,4012,4124,1344,892,576,24
7828,4012,4124,1344,892,576,23
7828,4012,4124,1344,892,576,23
7824,4012,4124,1340,892,576,24
7828,4012,4124,1340,892,572,23
7832,4016,4124,1340,892,572,23
7828,4012,4124,1340,892,572,24
7828,4012,4124,1340,892,572,23
7832,4016,4124,1340,892,572,23
7832,4016,4124,1340,892,572,24
7832,4016,4124,1340,892,572,23
7832,4016,4124,1340,892,572,23
7832,4016,4124,1340,892,572,24
7836,4020,4124,1340,892,572,23
7832,4016,4124,1340,892,572,23
7832,4020,4124,1340,892,572,24
7828,4020,4124,1340,892,572,23
7832,4020,4124,1340,892,572,24
7832,4020,4124,1340,892,572,23
7832,4020,4124,1340,892,576,23
7832,4024,4124,1344,892,576,24
7832,4024,4124,1344,892,576,23
7832,4024,4124,1344,892,576,23
7836,4028,4124,1340,892,576,24
7836,4028,4124,1340,892,576,23
7836,4028,4124,1340,892,576,23
7836,4028,4124,1340,892,576,24
7832,4024,4124,1340,892,576,23
7824,4016,4124,1344,892,576,24
7824,4012,4124,1344,892,576,23
7820,4008,4124,1340,892,576,23
7824,4008,4120,1340,892,576,24
7820,4004,4120,1340,892,576,23
7824,4008,4124,1340,892,576,23
7824,4004,4120,1340,892,576,24
7824,4008,4120,1340,892,576,23
7828,4008,4124,1340,892,576,23
7824,4008,4120,1340,892,576,24
7824,4008,4124,1340,892,576,23
7824,4008,4120,1344,892,576,23
7824,4008,4124,1340,892,576,24
7820,4004,4116,1340,892,576,23
7816,4004,4116,1340,892,572,24
7816,4004,4116,1340,892,572,23
7816,4004,4116,1340,892,572,23
7824,4008,4120,1340,892,572,24
7820,4008,4124,1340,892,576,23
7824,4012,4124,1340,892,572,23
7824,4012,4124,1340,892,576,24
7824,4012,4120,1340,892,576,23
7820,4012,4124,1344,892,576,23
7828,4016,4124,1340,892,572,24
7824,4016,4124,1340,892,572,23
7828,4016,4124,1340,892,572,23
7824,4016,4124,1340,892,576,24
7828,4020,4124,1340,892,576,23
7828,4020,4124,1340,892,576,24
7832,4024,4124,1344,892,576,23
7828,4020,4124,1340,892,576,23
7824,4020,4124,1340,892,576,24
7824,4016,4124,1340,892,576,23
7820,4016,4124,1340,892,576,23
7816,4008,4124,1340,892,576,24
7816,4008,4124,1340,892,576,23
7816,4004,4116,1340,892,576,23
7820,4008,4124,1340,892,576,24
7816,4004,4116,1340,892,576,23
7820,4004,4120,1340,892,576,23
7820,4008,4124,1340,892,576,24
7820,4008,4124,1340,892,572,23
7820,4008,4124,1340,892,572,24
7820,4008,4120,1340,892,576,23
7820,4012,4124,1340,892,576,23
7820,4012,4124,1340,892,576,24
7824,4012,4124,1340,892,576,23
7824,4012,4124,1340,892,572,23
7824,4016,4124,1340,892,576,24
7824,4016,4124,1340,892,576,23
7828,4020,4124,1344,892,576,23
7832,4020,4124,1344,892,576,24
7828,4020,4124,1344,892,576,23
7828,4020,4124,1344,892,576,23
7828,4024,4124,1344,892,576,24
7824,4024,4124,1340,892,576,23
7828,4028,4124,1340,892,576,24
7828,4028,4124,1340,892,576,23
7832,4032,4124,1340,892,576,23
7832,4032,4124,1340,892,576,24
7840,4040,4124,1340,892,576,23
7832,4036,4124,1340,892,576,23
7836,4040,4124,1340,892,576,24
7840,4040,4132,1340,892,576,23
7836,4040,4124,1344,896,576,23
7832,4036,4124,1344,892,576,24
7832,4032,4124,1340,892,576,23
7832,4032,4124,1344,892,576,23
7832,4028,4124,1340,892,576,24
7832,4028,4124,1340,892,576,23
7832,4028,4124,1340,892,576,24
7832,4028,4124,1340,892,576,23
7828,4028,4124,1340,892,576,23
7832,4032,4124,1340,892,576,24
7836,4036,4124,1340,892,576,23
7836,4036,4124,1340,892,576,23
7836,4036,4124,1340,892,576,24
7836,4036,4124,1340,892,576,23
7832,4036,4124,1340,892,576,23
7836,4040,4128,1340,892,576,24
7836,4040,4128,1340,892,576,23
7832,4040,4124,1340,892,576,23
7836,4040,4128,1340,892,576,24
7836,4044,4132,1340,892,576,23
7840,4048,4136,1340,892,576,23
7840,4048,4136,1340,892,576,24
7844,4052,4140,1340,892,576,23
7844,4052,4144,1340,892,576,24
7844,4056,4144,1344,892,576,23
7844,4056,4144,1344,896,576,23
7844,4056,4144,1344,892,576,24
7848,4060,4148,1344,896,576,23
7848,4060,4152,1344,896,576,23
7848,4064,4152,1340,892,576,24
7848,4064,4152,1340,892,576,23
7848,4064,4152,1340,892,576,23
7844,4064,4152,1340,892,576,24
7844,4064,4152,1340,892,576,23
7840,4060,4148,1340,892,576,23
7840,4060,4148,1340,892,576,24
7836,4056,4144,1340,892,576,23
7836,4056,4140,1340,892,576,24
7836,4056,4144,1340,892,576,23
7840,4056,4144,1340,892,576,23
7836,4052,4144,1340,892,576,24
7840,4056,4144,1340,892,576,23
7840,4056,4148,1340,892,576,23
7844,4060,4148,1344,896,576,24
7840,4060,4144,1340,892,576,23
7836,4056,4144,1340,892,576,23
7840,4060,4144,1340,892,576,24
7844,4060,4148,1340,892,576,23
7840,4060,4148,1344,892,576,24
7840,4060,4148,1344,896,576,23
7836,4060,4148,1340,892,576,23
7836,4060,4148,1340,892,576,24
7840,4064,4148,1340,892,576,23
7840,4064,4152,1340,892,576,23
7840,4068,4152,1344,896,576,24
7844,4072,4156,1340,892,576,23
7844,4068,4156,1340,892,576,23
7844,4072,4156,1340,892,576,24
7848,4076,4160,1340,896,576,23
7848,4076,4160,1340,896,576,23
7852,4080,4164,1344,896,576,24
7848,4080,4160,1340,896,576,23
7852,4084,4164,1344,896,576,24
7848,4080,4160,1340,896,576,23
7852,4084,4164,1344,896,576,23
7848,4084,4164,1344,896,576,24
7848,4084,4164,1344,896,576,23
7852,4088,4164,1344,896,576,23
7848,4088,4164,1344,896,576,24
7848,4084,4164,1344,896,576,23
7852,4084,4164,1344,896,576,23
7848,4080,4164,1344,896,576,24
7848,4084,4164,1344,896,576,23
7844,4080,4160,1344,896,576,23
7844,4076,4160,1344,896,576,24
7844,4080,4160,1344,896,576,23
7844,4080,4160,1344,896,576,24
7844,4080,4160,1344,896,576,23
7840,4080,4160,1344,896,576,23
7844,4080,4164,1344,896,576,24
7844,4080,4160,1344,896,576,23
7840,4076,4156,1344,896,576,23
7840,4080,4160,1344,896,576,24
7840,4080,4160,1344,896,576,23
7836,4076,4156,1344,896,576,23
7844,4084,4160,1344,896,576,24
7844,4080,4160,1344,896,576,23
7836,4080,4160,1344,896,576,23
7840,4080,4160,1344,896,576,24
7840,4080,4160,1344,896,576,23
7844,4084,4160,1344,896,576,24
7840,4084,4164,1344,896,576,23
7848,4088,4164,1344,896,576,23
7840,4088,4164,1344,896,576,24
7836,4084,4160,1344,896,576,23
7840,4088,4164,1344,896,576,23
7840,4088,4164,1344,896,576,24
7840,4092,4164,1344,896,576,23
7840,4092,4164,1344,896,576,23
7840,4092,4168,1344,896,576,24
7844,4092,4168,1344,896,576,23
7836,4092,4164,1344,896,576,23
7844,4096,4168,1344,896,576,24
7840,4096,4168,1344,896,576,23
7840,4096,4164,1344,896,576,24
7836,4092,4164,1344,896,576,23
7836,4092,4164,1344,896,576,23
7836,4088,4164,1344,896,576,24
7836,4088,4160,1344,896,576,23
7836,4088,4164,1344,896,576,23
7832,4084,4160,1344,896,576,24
7828,4080,4160,1344,896,576,23
7832,4084,4160,1344,896,576,23
7828,4084,4156,1344,896,576,24
7832,4084,4160,1344,896,576,23
7832,4084,4160,1344,896,576,23
7836,4088,4164,1344,896,576,24
7828,4084,4160,1344,896,576,23
7828,4084,4160,1344,896,576,24
7828,4084,4160,1344,896,576,23
7828,4080,4156,1344,896,576,23
7828,4084,4156,1344,896,576,24
7832,4084,4160,1344,896,576,23
7824,4084,4160,1344,896,576,23
7832,4084,4160,1344,896,576,24
7828,4084,4160,1344,896,576,23
7828,4084,4160,1344,896,576,23
7828,4088,4160,1344,896,576,24
7832,4088,4164,1344,896,576,23
7828,4088,4160,1344,896,576,23
7828,4088,4164,1344,896,576,24
7832,4092,4164,1344,896,576,23
7832,4092,4168,1344,896,576,24
7832,4096,4168,1344,896,576,23
7832,4092,4164,1340,896,576,23
7836,4096,4168,1344,896,576,24
7836,4100,4172,1344,896,576,23
7836,4100,4172,1344,896,576,23
7840,4100,4172,1344,896,576,24
7836,4096,4172,1344,896,576,23
7832,4092,4168,1344,896,576,23
7832,4092,4164,1344,896,576,24
7832,4092,4168,1344,896,576,23
7824,4084,4160,1344,896,576,23
7824,4084,4160,1340,896,576,24
7828,4084,4160,1344,896,576,23
7828,4084,4164,1340,896,576,24
7828,4088,4164,1340,896,576,23
7828,4088,4164,1344,896,576,23
7828,4088,4164,1340,896,576,24
7832,4092,4168,1340,896,576,23
7828,4088,4164,1344,896,576,23
7832,4092,4168,1340,896,576,24
7832,4092,4168,1344,896,576,23
7832,4092,4168,1344,896,576,23
7836,4092,4168,1344,896,576,24
7832,4092,4164,1344,896,576,23
7828,4092,4164,1340,896,576,23
7832,4092,4168,1344,896,576,24
7832,4092,4168,1340,896,576,23
7832,4092,4168,1340,896,576,23
7836,4096,4168,1344,896,576,24
7840,4100,4172,1340,896,576,23
7836,4100,4172,1344,896,576,24
7836,4100,4172,1340,896,576,23
7836,4100,4172,1344,896,576,23
7844,4104,4176,1340,896,576,24
7844,4104,4176,1340,896,576,23
7840,4104,4176,1344,896,576,23
7840,4104,4176,1340,896,576,24
7832,4100,4172,1340,896,576,23
7832,4100,4172,1340,896,576,23
7828,4096,4168,1340,896,576,24
7832,4092,4168,1340,896,576,23
7828,4088,4164,1340,896,576,24
7828,4088,4164,1344,896,576,23
7828,4084,4164,1340,896,576,23
7828,4084,4164,1344,896,576,24
7828,4084,4160,1340,896,576,23
7828,4084,4164,1340,896,576,23
7828,4084,4164,1340,896,576,24
7824,4084,4160,1340,896,576,23
7828,4084,4164,1340,896,576,23
7828,4084,4160,1344,896,576,24
7828,4084,4160,1340,896,576,23
7828,4084,4160,1340,896,576,23
7824,4080,4160,1344,896,576,24
7828,4080,4160,1344,896,576,23
7832,4084,4164,1344,896,576,24
7824,4080,4160,1340,896,576,23
7828,4080,4160,1340,896,576,23
7828,4084,4164,1340,896,576,24
7828,4084,4164,1344,896,576,23
7824,4080,4160,1340,896,576,23
7832,4084,4164,1344,896,576,24
7828,4084,4164,1340,896,576,23
7828,4084,4164,1340,896,576,23
7828,4084,4164,1340,896,576,24
7828,4084,4164,1340,896,576,23
7832,4088,4164,1340,896,576,23
7828,4088,4164,1340,896,576,24
7832,4088,4164,1340,896,576,23
7828,4088,4168,1340,896,576,24
7828,4088,4164,1340,896,576,23
7824,4080,4160,1344,896,576,23
7832,4080,4160,1340,896,576,24
7824,4072,4156,1344,896,576,23
7824,4072,4152,1340,896,576,23
7816,4064,4148,1340,896,576,24
7824,4068,4152,1340,896,576,23
7820,4064,4148,1340,896,576,23
7820,4060,4148,1340,896,576,24
7820,4060,4148,1340,896,576,23
7816,4060,4144,1340,896,576,23
7820,4060,4148,1340,896,576,24
7824,4064,4148,1340,896,576,23
7824,4060,4148,1340,896,576,24
7824,4060,4148,1340,896,576,23
7824,4060,4148,1340,896,576,23
7824,4056,4144,1340,896,576,24
7820,4056,4144,1340,896,576,23
7820,4056,4144,1340,892,576,23
7824,4056,4144,1340,892,576,24
7824,4056,4144,1340,896,576,23
7824,4060,4144,1340,892,576,23
7824,4060,4148,1340,892,576,24
7824,4056,4144,1340,896,576,23
7824,4060,4144,1340,896,576,23
7820,4060,4144,1340,896,576,24
7824,4060,4144,1340,896,576,23
7824,4060,4144,1340,896,576,24
7828,4060,4144,1340,896,576,23
7824,4060,4148,1340,896,576,23
7828,4060,4148,1340,896,576,24
7824,4060,4144,1340,896,576,23
7828,4060,4148,1340,896,576,23
7824,4056,4144,1340,896,576,24
7820,4052,4140,1340,896,576,23
7816,4048,4132,1340,896,576,23
7820,4044,4128,1340,896,576,24
7816,4040,4124,1340,896,576,23
7812,4036,4124,1340,896,576,23
7812,4032,4124,1340,896,576,24
7812,4032,4124,1344,896,576,23
7812,4032,4124,1340,896,576,24
7816,4032,4124,1344,896,576,23
7816,4036,4124,1340,896,576,23
7820,4036,4124,1340,896,576,24
7816,4032,4124,1344,896,576,23
7812,4032,4124,1340,896,576,23
7816,4032,4124,1340,896,576,24
7816,4032,4124,1340,896,576,23
7812,4028,4124,1340,896,576,23
7820,4032,4124,1340,896,576,24
7812,4028,4124,1340,892,576,23
7812,4028,4124,1340,892,576,23
7812,4028,4124,1340,896,576,24
7816,4032,4124,1340,892,576,23
7820,4032,4124,1340,892,576,24
7820,4032,4124,1340,892,576,23
7824,4032,4124,1340,892,576,23
7816,4032,4124,1340,896,576,24
7816,4032,4124,1340,896,576,23
7816,4032,4124,1344,896,576,23
7816,4032,4124,1340,896,576,24
7812,4032,4124,1344,896,576,23
7816,4032,4124,1344,896,576,23
7812,4032,4124,1344,896,576,24
7812,4028,4124,1344,896,576,23
7808,4024,4124,1344,896,576,23
7808,4020,4124,1344,896,576,24
7804,4012,4124,1344,896,576,23
7804,4012,4124,1344,896,576,24
7804,4008,4120,1344,896,576,23
7800,4004,4116,1344,896,576,23
7804,4004,4116,1344,896,576,24
7800,4004,4116,1340,896,576,23
7808,4008,4120,1340,896,576,23
7804,4004,4112,1344,896,576,24
7804,4004,4116,1344,896,576,23
7804,4004,4116,1344,896,576,23
7800,4000,4112,1344,896,576,24
7800,4000,4112,1344,896,576,23
7796,3996,4108,1344,896,576,23
7800,4000,4108,1344,896,576,24
7796,3996,4108,1340,896,576,23
7800,3996,4108,1340,896,576,23
7804,4000,4112,1340,896,576,24
7808,4004,4116,1344,896,576,23
7812,4004,4116,1340,896,576,24
7808,4004,4116,1344,896,576,23
7804,4000,4112,1340,892,576,23
7804,4000,4112,1344,896,576,24
7808,4004,4116,1344,896,576,23
7812,4008,4116,1340,892,576,23
7812,4008,4116,1344,896,576,24
7812,4008,4120,1344,896,576,23
7812,4008,4120,1340,892,576,23
7812,4008,4120,1340,892,576,24
7816,4008,4120,1340,896,576,23
7804,4000,4112,1340,892,576,23
7800,3992,4108,1340,892,576,24
7800,3988,4104,1340,892,576,23
7800,3984,4100,1340,892,576,24
7796,3984,4100,1344,896,576,23
7800,3984,4096,1344,892,576,23
7804,3984,4100,1340,892,576,24
7800,3984,4100,1344,892,576,23
7800,3984,4100,1340,892,576,23
7808,3988,4104,1340,892,576,24
7808,3988,4104,1340,892,576,23
7808,3988,4104,1340,892,576,23
7812,3988,4104,1340,892,576,24
7812,3984,4104,1340,892,576,23
7812,3988,4104,1340,892,576,23
7812,3984,4104,1340,892,576,24
7808,3984,4104,1340,892,576,23
7812,3984,4100,1340,892,576,24
7812,3988,4104,1340,892,576,23
7816,3988,4104,1344,892,576,23
7816,3988,4104,1340,892,576,24
7816,3992,4108,1340,892,576,23
7816,3992,4108,1340,892,576,23
7816,3992,4108,1340,892,576,24
7816,3992,4108,1340,892,576,23
7812,3992,4104,1340,892,576,23
7812,3992,4108,1340,892,576,24
7812,3992,4108,1344,892,576,23
7812,3992,4104,1340,892,576,24
7812,3988,4104,1340,892,576,23
7808,3984,4100,1340,892,576,23
7804,3976,4096,1340,892,576,24
7804,3972,4092,1340,892,576,23
7800,3968,4088,1340,892,576,23
7800,3968,4088,1340,892,576,24
7800,3964,4088,1340,892,576,23
7804,3964,4088,1340,892,576,23
7804,3964,4084,1344,892,576,24
7800,3964,4084,1340,892,576,23
7804,3964,4088,1344,892,576,23
7804,3964,4088,1340,892,576,24
7808,3968,4092,1344,892,576,23
7808,3968,4088,1344,892,576,23
7812,3968,4092,1344,892,576,24
7812,3968,4088,1344,892,576,23
7812,3964,4088,1344,892,576,24
7812,3964,4088,1344,892,576,23
7812,3964,4088,1344,892,576,23
7812,3964,4092,1340,892,576,24
7816,3968,4092,1344,892,576,23
7812,3968,4088,1344,892,576,23
7812,3968,4088,1344,892,576,24
7816,3968,4092,1344,892,576,23
7816,3968,4092,1340,892,576,23
7816,3972,4092,1344,892,576,24
7816,3972,4092,1344,892,576,23
7820,3976,4096,1340,892,576,23
7820,3976,4096,1344,892,576,24
7820,3976,4096,1344,892,576,23
7820,3976,4096,1340,892,576,24
7820,3976,4096,1344,892,576,23
7820,3976,4096,1344,892,576,23
7812,3968,4092,1340,892,576,24
7808,3960,4084,1344,892,576,23
7804,3952,4080,1344,892,576,23
7804,3948,4076,1344,892,576,24
7800,3944,4072,1344,892,576,23
7804,3944,4072,1344,892,576,23
7800,3940,4072,1344,892,576,24
7800,3944,4072,1340,892,576,23
7804,3944,4072,1340,892,576,23
7808,3948,4076,1340,892,576,24
7808,3948,4076,1344,892,576,23
7804,3948,4076,1344,892,576,24
7808,3948,4076,1344,892,576,23
7808,3948,4076,1344,892,576,23
7812,3948,4076,1340,892,576,24
7808,3948,4076,1340,892,576,23
7812,3948,4076,1340,892,576,23
7812,3948,4076,1344,892,576,24
7816,3952,4080,1340,892,576,23
7816,3952,4080,1344,892,576,23
7820,3956,4084,1340,892,576,24
7820,3956,4084,1344,892,576,23
7820,3956,4084,1340,892,576,23
7820,3956,4084,1340,892,576,24
7820,3960,4084,1340,892,576,23
7820,3960,4084,1340,892,576,24
7820,3960,4084,1340,892,576,23
7820,3960,4088,1340,892,576,23
7820,3960,4084,1340,892,576,24
7824,3964,4088,1340,892,576,23
7824,3964,4088,1340,892,576,23
7820,3964,4088,1344,892,576,24
7824,3968,4088,1340,892,576,23
7820,3964,4088,1340,892,576,23
7824,3964,4088,1340,892,576,24
7820,3956,4084,1340,892,576,23
7816,3952,4080,1340,892,576,23
7816,3948,4076,1340,892,576,24
7816,3944,4076,1340,892,576,23
7820,3944,4076,1344,892,576,24
7816,3944,4072,1340,892,576,23
7816,3944,4072,1344,892,576,23
7816,3944,4072,1340,892,572,24
7812,3944,4072,1340,892,572,23
7816,3948,4076,1340,892,572,23
7816,3948,4072,1340,892,572,24
7816,3948,4076,1340,892,572,23
7812,3944,4072,1340,892,576,23
7812,3944,4072,1340,892,572,24
7812,3944,4076,1340,892,572,23
7812,3944,4072,1340,892,572,23
7812,3944,4072,1340,892,576,24
7816,3948,4076,1340,892,576,23
7816,3948,4076,1340,892,576,24
7820,3952,4076,1340,892,576,23
7820,3952,4080,1340,892,576,23
7820,3952,4080,1340,892,576,24
7820,3956,4080,1344,892,576,23
7824,3956,4080,1340,892,576,23
7824,3960,4084,1340,892,572,24
7820,3960,4080,1340,892,572,23
7820,3960,4080,1340,892,576,23
7820,3960,4084,1340,892,576,24
7820,3960,4080,1344,892,576,23
7820,3964,4084,1344,892,576,23
7824,3964,4084,1344,892,576,24
7828,3964,4088,1344,892,576,23
7824,3968,4088,1344,892,576,24
7820,3964,4084,1344,892,576,23
7820,3960,4080,1340,892,576,23
7820,3956,4080,1344,892,576,24
7816,3952,4076,1344,892,576,23
7816,3948,4076,1344,892,576,23
7816,3948,4072,1340,892,576,24
7812,3948,4072,1340,892,576,23
7812,3948,4072,1340,892,576,23
7816,3952,4076,1340,892,572,24
7816,3952,4076,1340,892,576,23
7820,3952,4076,1340,892,572,23
7824,3956,4080,1340,892,576,24
7820,3956,4080,1344,892,576,23
7820,3956,4080,1340,892,576,23
7820,3952,4076,1340,892,572,24
7820,3956,4080,1340,892,572,23
7824,3956,4080,1340,892,576,24
7828,3960,4084,1340,892,572,23
7824,3960,4084,1340,892,572,23
7824,3960,4084,1340,892,576,24
7832,3964,4084,1340,892,572,23
7828,3964,4088,1340,892,576,23
7832,3968,4088,1340,892,572,24
7832,3968,4088,1340,892,572,23
7832,3968,4092,1340,892,572,23
7832,3968,4092,1340,892,572,24
7836,3972,4092,1340,892,572,23
7828,3972,4092,1340,892,572,24
7832,3976,4092,1340,892,572,23
7836,3976,4096,1340,892,576,23
7836,3980,4096,1340,892,576,24
7836,3980,4100,1340,892,572,23
7836,3980,4096,1340,892,576,23
7828,3976,4092,1340,892,576,24
7828,3972,4092,1340,892,576,23
7824,3968,4088,1340,892,572,23
7828,3968,4088,1344,892,576,24
7828,3968,4088,1340,892,576,23
7828,3968,4088,1340,892,572,23
7824,3968,4088,1340,892,572,24
7832,3972,4092,1340,892,572,23
7832,3972,4092,1340,892,572,23
7832,3976,4092,1340,892,572,24
7832,3976,4092,1340,892,572,23
7828,3976,4092,1340,892,572,24
7832,3976,4092,1340,892,576,23
7836,3980,4096,1340,892,572,23
7832,3976,4096,1340,892,572,24
7836,3980,4096,1340,892,572,23
7836,3980,4096,1340,892,576,23
7832,3980,4096,1340,892,572,24
7836,3984,4096,1340,892,576,23
7836,3984,4096,1344,892,576,23
7836,3984,4100,1340,892,572,24
7836,3988,4100,1340,892,572,23
7840,3992,4104,1340,892,576,23
7836,3992,4104,1340,892,572,24
7836,3992,4104,1344,892,576,23
7836,3996,4104,1340,892,576,24
7836,3996,4104,1340,892,576,23
7840,4000,4108,1340,892,576,23
7844,4004,4108,1340,892,572,24
7844,4004,4108,1340,892,572,23
7844,4004,4112,1340,892,576,23
7840,4004,4112,1340,892,576,24
7844,4004,4112,1340,892,576,23
7844,4004,4112,1340,892,576,23
7844,4000,4112,1340,892,576,24
7840,4000,4108,1340,892,576,23
7840,3996,4108,1340,892,576,23
7840,3996,4108,1340,892,572,24
7844,4000,4108,1340,892,576,23
7840,3996,4108,1340,892,572,24
7840,4000,4108,1340,892,572,23
7840,4000,4108,1340,892,572,23
7840,4000,4108,1340,892,576,24
7844,4004,4112,1340,892,576,23
7848,4004,4112,1340,892,576,23
7844,4004,4112,1340,892,576,24
7848,4008,4116,1340,892,576,23
7848,4004,4112,1344,892,576,23
7848,4008,4116,1340,892,576,24
7840,4004,4112,1344,892,576,23
7844,4008,4116,1340,892,572,23
7844,4008,4116,1340,892,576,24
7848,4012,4120,1340,892,576,23
7856,4016,4124,1340,892,576,24
7852,4016,4124,1340,892,576,23
7848,4016,4124,1340,892,576,23
7852,4020,4124,1344,892,576,24
7852,4020,4124,1340,892,576,23
7852,4024,4124,1340,892,572,23
7852,4024,4124,1340,892,572,24
7856,4028,4124,1344,892,576,23
7856,4028,4124,1340,892,576,23
7856,4028,4124,1340,892,576,24
7860,4032,4124,1340,892,576,23
7860,4032,4124,1344,892,576,24
7856,4032,4124,1344,892,576,23
7852,4028,4124,1344,892,576,23
7852,4024,4124,1344,892,576,24
7848,4024,4124,1344,892,576,23
7848,4020,4124,1344,892,576,23
7852,4024,4124,1344,892,576,24
7848,4020,4124,1340,892,576,23
7852,4020,4124,1340,892,576,23
7848,4020,4124,1344,892,576,24
7844,4016,4124,1340,892,576,23
7844,4020,4124,1344,892,576,23
7848,4024,4124,1340,892,576,24
7844,4020,4124,1344,892,576,23
7844,4020,4124,1344,892,576,23
7844,4024,4124,1344,892,576,24
7848,4024,4124,1344,892,576,23
7844,4024,4124,1344,892,576,24
7848,4028,4124,1344,892,576,23
7844,4028,4124,1344,892,576,23
7848,4028,4124,1344,892,576,24
7848,4032,4124,1344,892,576,23
7852,4036,4124,1340,892,576,23
7856,4036,4124,1340,892,576,24
7852,4036,4124,1344,892,576,23
7856,4040,4124,1340,892,576,23
7856,4040,4124,1344,896,576,24
7860,4044,4124,1340,892,576,23
7860,4044,4124,1344,896,576,23
7860,4044,4124,1344,892,576,24
7860,4048,4128,1344,892,576,23
7864,4052,4132,1344,892,576,24
7860,4052,4128,1344,892,576,23
7864,4052,4132,1344,896,576,23
7856,4052,4128,1340,892,576,24
7856,4052,4124,1344,896,576,23
7856,4048,4124,1344,896,576,23
7852,4048,4124,1344,896,576,24
7856,4048,4124,1344,896,576,23
7852,4044,4124,1344,896,576,23
7852,4044,4124,1344,892,576,24
7852,4040,4124,1344,896,576,23
7848,4040,4124,1344,892,576,23
7860,4044,4124,1344,892,576,24
7852,4040,4124,1344,896,576,23
7852,4040,4124,1344,892,576,24
7860,4048,4124,1344,892,576,23
7860,4048,4128,1340,892,576,23
7860,4048,4124,1340,892,576,24
7860,4048,4124,1344,892,576,23
7860,4052,4128,1344,892,576,23
7856,4048,4124,1344,896,576,24
7856,4048,4124,1344,892,576,23
7856,4048,4124,1344,892,576,23
7852,4044,4124,1344,892,576,24
7852,4048,4124,1344,892,576,23
7852,4048,4124,1340,892,576,23
7860,4048,4128,1344,896,576,24
7856,4048,4128,1344,892,576,23
7856,4052,4124,1340,892,576,23
7860,4056,4136,1344,896,576,24
7856,4056,4132,1344,896,576,23
7856,4056,4132,1340,892,576,24
7860,4056,4136,1344,896,576,23
7860,4056,4136,1340,892,576,23
7856,4056,4136,1340,896,576,24
7856,4056,4136,1340,892,576,23
7856,4056,4132,1340,892,576,23
7856,4056,4136,1340,896,576,24
7856,4052,4132,1344,896,576,23
7852,4052,4128,1344,896,576,23
7852,4048,4124,1340,892,576,24
7852,4044,4124,1340,892,576,23
7852,4048,4128,1340,892,576,24
7852,4044,4124,1340,892,576,23
7852,4044,4124,1340,892,576,23
7852,4048,4124,1340,892,576,24
7856,4048,4128,1340,892,576,23
7860,4052,4132,1340,892,576,23
7856,4048,4132,1344,896,576,24
7856,4052,4128,1340,892,576,23
7856,4052,4132,1340,892,576,23
7860,4052,4132,1340,892,576,24
7856,4052,4132,1340,892,576,23
7856,4052,4132,1340,896,576,23
7856,4056,4132,1340,892,576,24
7860,4060,4140,1344,896,576,23
7860,4060,4140,1344,896,576,23
7864,4064,4144,1344,896,576,24
7860,4060,4140,1340,892,576,23
7860,4064,4144,1340,896,576,24
7864,4068,4144,1344,896,576,23
7864,4068,4148,1344,896,576,23
7868,4072,4148,1344,896,576,24
7868,4072,4152,1340,896,576,23
7872,4076,4152,1344,896,576,23
7872,4076,4152,1344,896,576,24
7868,4072,4152,1344,896,576,23
7860,4068,4144,1344,896,576,23
7860,4068,4144,1344,896,576,24
7860,4064,4144,1344,896,576,23
7860,4060,4140,1340,896,576,23
7856,4056,4136,1340,896,576,24
7856,4056,4132,1340,896,576,23
7856,4056,4132,1340,896,576,24
7856,4052,4132,1340,892,576,23
7856,4056,4136,1344,896,576,23
7860,4060,4140,1340,896,576,24
7856,4056,4136,1340,892,576,23
7852,4056,4132,1340,892,576,23
7852,4056,4132,1340,892,576,24
7852,4056,4132,1340,892,576,23
7852,4052,4128,1340,892,576,23
7852,4052,4132,1340,892,576,24
7852,4052,4132,1340,896,576,23
7852,4056,4136,1344,896,576,23
7856,4056,4132,1340,892,576,24
7856,4056,4136,1340,896,576,23
7852,4056,4136,1340,892,576,24
7856,4060,4136,1340,896,576,23
7860,4064,4144,1340,892,576,23
7860,4064,4144,1340,892,576,24
7860,4064,4144,1340,896,576,23
7860,4068,4144,1340,892,576,23
7860,4068,4148,1340,896,576,24
7856,4068,4144,1340,892,576,23
7856,4068,4144,1344,896,576,23
7864,4072,4152,1340,896,576,24
7860,4068,4144,1344,896,576,23
7860,4064,4144,1344,896,576,23
7852,4060,4140,1344,896,576,24
7856,4060,4140,1344,896,576,23
7856,4056,4136,1344,896,576,24
7852,4052,4132,1344,896,576,23
7852,4052,4124,1344,896,576,23
7856,4052,4132,1344,896,576,24
7856,4052,4128,1344,896,576,23
7852,4052,4132,1340,896,576,23
7860,4056,4136,1340,896,576,24
7856,4052,4132,1344,896,576,23
7856,4052,4132,1344,896,576,23
7852,4048,4124,1344,896,576,24
7852,4048,4128,1344,896,576,23
7852,4048,4124,1344,896,576,23
7852,4048,4128,1344,896,576,24
7848,4048,4124,1340,896,576,23
7848,4048,4128,1344,896,576,24
7852,4052,4128,1340,892,576,23
7852,4052,4128,1344,896,576,23
7856,4056,4136,1344,896,576,24
7856,4056,4140,1344,896,576,23
7860,4060,4140,1340,896,576,23
7860,4060,4140,1344,896,576,24
7856,4060,4140,1344,896,576,23
7864,4064,4144,1344,896,576,23
7864,4064,4144,1344,896,576,24
7864,4068,4148,1340,896,576,23
7860,4064,4144,1344,896,576,23
7856,4064,4144,1340,896,576,24
7856,4060,4140,1340,896,576,23
7852,4056,4140,1340,896,576,24
7856,4056,4132,1344,896,576,23
7856,4052,4136,1340,896,576,23
7852,4048,4124,1344,896,576,24
7852,4048,4124,1344,896,576,23
7856,4048,4128,1340,896,576,23
7848,4044,4124,1344,896,576,24
7852,4048,4124,1344,896,576,23
7848,4044,4124,1340,896,576,23
7852,4048,4128,1340,896,576,24
7856,4052,4128,1340,896,576,23
7852,4048,4128,1340,896,576,23
7856,4052,4128,1340,892,576,24
7852,4048,4128,1340,892,576,23
7852,4048,4124,1340,892,576,24
7848,4048,4124,1344,896,576,23
7848,4048,4128,1344,896,576,23
7852,4052,4124,1344,896,576,24
7852,4052,4132,1340,896,576,23
7852,4052,4128,1340,892,576,23
7852,4056,4132,1340,896,576,24
7852,4056,4132,1340,896,576,23
7856,4060,4140,1344,896,576,23
7852,4060,4136,1340,896,576,24
7856,4060,4136,1340,896,576,23
7852,4060,4136,1340,896,576,23
7860,4064,4140,1344,896,576,24
7860,4064,4144,1344,896,576,23
7860,4064,4144,1344,896,576,24
7852,4064,4140,1344,896,576,23
7856,4064,4144,1344,896,576,23
7856,4064,4140,1344,896,576,24
7848,4060,4136,1340,896,576,23
7856,4060,4136,1344,896,576,23
7852,4056,4136,1344,896,576,24
7848,4048,4124,1344,896,576,23
7848,4048,4124,1344,896,576,23
7848,4048,4124,1340,896,576,24
7848,4052,4124,1340,896,576,23
7848,4052,4124,1340,896,576,23
7848,4052,4124,1340,896,576,24
7848,4052,4128,1340,896,576,23
7848,4052,4128,1340,896,576,24
7848,4052,4128,1340,896,576,23
7848,4052,4124,1344,896,576,23
7848,4052,4128,1340,896,576,24
7848,4052,4128,1340,896,576,23
7852,4056,4128,1340,896,576,23
7844,4052,4124,1340,896,576,24
7844,4052,4124,1340,896,576,23
7848,4056,4132,1344,896,576,23
7848,4056,4132,1344,896,576,24
7844,4056,4124,1344,896,576,23
7848,4056,4136,1344,896,576,23
7848,4060,4136,1344,896,576,24
7848,4060,4136,1344,896,576,23
7848,4060,4132,1340,896,576,24
7848,4060,4136,1344,896,576,23
7848,4064,4136,1340,896,576,23
7848,4064,4140,1340,896,576,24
7852,4068,4140,1340,896,576,23
7852,4068,4140,1340,896,576,23
7848,4064,4140,1344,896,576,24
7848,4064,4140,1344,896,576,23
7844,4060,4136,1344,896,576,23
7840,4056,4128,1340,896,576,24
7844,4056,4128,1340,896,576,23
7844,4056,4128,1340,896,576,24
7848,4056,4132,1340,896,576,23
7848,4052,4128,1344,896,576,23
7844,4052,4128,1344,896,576,24
7844,4056,4128,1340,896,576,23
7852,4060,4136,1340,896,576,23
7848,4056,4136,1340,896,576,24
7848,4060,4136,1340,896,576,23
7848,4056,4132,1340,892,576,23
7852,4060,4140,1340,896,576,24
7852,4060,4136,1340,896,576,23
7852,4060,4136,1340,896,576,23
7848,4060,4136,1344,896,576,24
7852,4060,4140,1340,896,576,23
7852,4064,4140,1344,896,576,24
7852,4064,4140,1340,896,576,23
7852,4064,4140,1340,896,576,23
7852,4064,4140,1340,896,576,24
7856,4068,4144,1340,896,576,23
7852,4068,4144,1344,896,576,23
7852,4068,4144,1340,896,576,24
7856,4072,4148,1344,896,576,23
7856,4072,4148,1344,896,576,23
7856,4076,4148,1344,896,576,24
7860,4076,4148,1344,896,576,23
7856,4076,4148,1344,896,576,23
7856,4072,4148,1344,896,576,24
7848,4068,4140,1344,896,576,23
7848,4068,4144,1344,896,576,24
7844,4060,4136,1344,896,576,23
7848,4060,4136,1344,896,576,23
7848,4060,4136,1344,896,576,24
7844,4060,4136,1344,896,576,23
7848,4060,4136,1340,896,576,23
7848,4060,4136,1344,896,576,24
7848,4060,4140,1344,896,576,23
7852,4064,4140,1340,896,576,23
7848,4060,4140,1344,896,576,24
7848,4060,4136,1344,896,576,23
7848,4060,4140,1340,896,576,23
7848,4060,4140,1344,896,576,24
7852,4060,4136,1344,896,576,23
7852,4060,4140,1344,896,576,23
7848,4060,4136,1340,896,576,24
7848,4060,4136,1344,896,576,23
7844,4060,4136,1340,896,576,24
7852,4064,4140,1344,896,576,23
7856,4068,4144,1344,896,576,23
7848,4064,4144,1344,896,576,24
7852,4068,4144,1340,896,576,23
7848,4068,4144,1340,896,576,23
7860,4072,4148,1340,896,576,24
7860,4076,4152,1344,896,576,23
7856,4076,4148,1344,896,576,23
7852,4072,4148,1344,896,576,24
7848,4072,4148,1344,896,576,23
7852,4072,4148,1344,896,576,24
7852,4076,4148,1344,896,576,23
7856,4076,4148,1344,896,576,23
7856,4076,4148,1344,896,576,24
7856,4072,4148,1344,896,576,23
7852,4068,4144,1344,896,576,23
7852,4064,4140,1344,896,576,24
7848,4060,4136,1344,896,576,23
7844,4056,4132,1344,896,576,23
7844,4056,4132,1344,896,576,24
7840,4052,4124,1344,896,576,23
7852,4060,4136,1344,896,576,23
7852,4060,4136,1344,896,576,24
7844,4056,4132,1344,896,576,23
7844,4056,4132,1344,896,576,24
7848,4056,4132,1344,896,576,23
7848,4056,4136,1344,896,576,23
7844,4056,4132,1344,896,576,24
7848,4056,4132,1344,896,576,23
7844,4052,4132,1344,896,576,23
7844,4056,4128,1344,896,576,24
7848,4056,4136,1344,896,576,23
7852,4060,4136,1344,896,576,23
7848,4060,4136,1344,896,576,24
7848,4060,4136,1344,896,576,23
7848,4060,4136,1344,896,576,23
7852,4064,4140,1344,896,576,24
7848,4060,4140,1344,896,576,23
7852,4064,4140,1344,896,576,23
7848,4064,4140,1344,896,576,24
7848,4064,4140,1344,896,576,23
7848,4064,4140,1344,896,576,24
7848,4064,4140,1344,896,576,23
7852,4068,4144,1344,896,576,23
7852,4068,4144,1344,896,576,24
7852,4068,4144,1344,896,576,23
7848,4068,4140,1344,896,576,23
7844,4060,4132,1344,896,576,24
7844,4060,4136,1344,896,576,23
7840,4056,4124,1344,896,576,23
7836,4052,4124,1344,896,576,24
7840,4048,4124,1344,896,576,23
7840,4048,4124,1344,896,576,24
7840,4048,4124,1344,896,576,23
7836,4048,4124,1344,896,576,23
7840,4048,4124,1344,896,576,24
7840,4048,4124,1344,896,576,23
7840,4052,4124,1340,896,576,23
7840,4052,4124,1344,896,576,24
7836,4048,4124,1344,896,576,23
7836,4044,4124,1344,896,576,23
7832,4044,4124,1344,896,576,24
7832,4044,4124,1344,896,576,23
7840,4044,4124,1344,896,576,23
7840,4044,4124,1340,896,576,24
7832,4040,4124,1344,896,576,23
7832,4040,4124,1344,896,576,24
7836,4044,4124,1344,896,576,23
7840,4048,4124,1344,896,576,23
7840,4048,4124,1344,896,576,24
7840,4048,4124,1344,896,576,23
7840,4052,4124,1344,896,576,23
7840,4052,4124,1344,896,576,24
7844,4056,4132,1344,896,576,23
7844,4056,4128,1344,896,576,23
7844,4056,4132,1344,896,576,24
7844,4056,4132,1344,896,576,23
7844,4060,4132,1344,896,576,23
7844,4056,4132,1344,896,576,24
7848,4060,4136,1344,896,576,23
7844,4060,4132,1344,896,576,24
7840,4056,4132,1344,896,576,23
7840,4052,4128,1344,896,576,23
7836,4048,4124,1344,896,576,24
7828,4040,4124,1344,896,576,23
7828,4040,4124,1344,896,576,23
7828,4036,4124,1344,896,576,24
7832,4036,4124,1340,896,576,23
7828,4036,4124,1344,896,576,23
7828,4036,4124,1340,896,576,24
7828,4036,4124,1344,896,576,23
7828,4036,4124,1344,896,576,23
7824,4036,4124,1344,896,576,24
7836,4040,4124,1344,896,576,23
7836,4040,4124,1344,896,576,23
7832,4040,4124,1344,896,576,24
7832,4040,4124,1344,896,576,23
7828,4036,4124,1340,896,576,24
7828,4036,4124,1340,896,576,23
7832,4040,4124,1344,896,576,23
7832,4040,4124,1340,896,576,24
7828,4040,4124,1344,896,576,23
7836,4040,4124,1340,896,576,23
7832,4044,4124,1344,896,576,24
7836,4044,4124,1344,896,576,23
7836,4044,4124,1340,896,576,23
7836,4048,4124,1340,896,576,24
7836,4048,4124,1344,896,576,23
7832,4044,4124,1344,896,576,23
7832,4048,4124,1344,896,576,24
7836,4048,4124,1340,896,576,23
7836,4052,4124,1344,896,576,24
7832,4048,4124,1344,896,576,23
7832,4048,4124,1344,896,576,23
7828,4044,4124,1344,896,576,24
7824,4040,4124,1340,896,576,23
7824,4036,4124,1340,896,576,23
7820,4032,4124,1340,896,576,24
7824,4032,4124,1340,896,576,23
7820,4032,4124,1340,896,576,23
7828,4032,4124,1340,896,576,24
7828,4032,4124,1340,896,576,23
7828,4036,4124,1340,896,576,23
7828,4036,4124,1340,896,576,24
7828,4036,4124,1340,896,576,23
7828,4036,4124,1340,896,576,24
7828,4036,4124,1344,896,576,23
7828,4036,4124,1340,896,576,23
7824,4036,4124,1340,896,576,24
7828,4036,4124,1344,896,576,23
7832,4040,4124,1340,896,576,23
7832,4040,4124,1340,896,576,24
7828,4040,4124,1344,896,576,23
7832,4040,4124,1340,896,576,23
7828,4040,4124,1344,896,576,24
7828,4040,4124,1344,896,576,23
7832,4044,4124,1340,896,576,24
7828,4044,4124,1340,896,576,23
7828,4044,4124,1340,896,576,23
7828,4044,4124,1340,896,576,24
7832,4048,4124,1340,896,576,23
7828,4044,4124,1340,896,576,23
7832,4048,4124,1340,896,576,24
7836,4052,4124,1340,896,576,23
7828,4048,4124,1340,896,576,23
7828,4048,4124,1340,896,576,24
7828,4048,4124,1340,896,576,23
7828,4044,4124,1344,896,576,23
7820,4040,4124,1344,896,576,24
7824,4036,4124,1340,896,576,23
7820,4032,4124,1340,896,576,23
7816,4028,4124,1340,896,576,24
7820,4028,4124,1340,896,576,23
7820,4028,4124,1340,896,576,24
7816,4028,4124,1340,896,576,23
7824,4032,4124,1340,896,576,23
7824,4032,4124,1340,896,576,24
7824,4036,4124,1340,896,576,23
7824,4032,4124,1340,896,576,23
7820,4032,4124,1340,896,576,24
7820,4032,4124,1340,896,576,23
7824,4032,4124,1340,896,576,23
7820,4028,4124,1340,896,576,24
7820,4032,4124,1340,896,576,23
7824,4032,4124,1340,896,576,23
7820,4032,4124,1340,896,576,24
7824,4032,4124,1340,896,576,23
7824,4036,4124,1344,896,576,24
7824,4036,4124,1344,896,576,23
7824,4036,4124,1340,896,576,23
7824,4036,4124,1340,896,576,24
7824,4040,4124,1340,896,576,23
7832,4044,4124,1340,896,576,23
7828,4044,4124,1340,896,576,24
7828,4044,4124,1340,896,576,23
7832,4044,4124,1340,896,576,23
7828,4044,4124,1340,896,576,24
7824,4044,4124,1340,896,576,23
7832,4048,4124,1340,896,576,23
7832,4048,4124,1340,896,576,24
7828,4048,4124,1340,896,576,23
7828,4044,4124,1340,896,576,24
7824,4040,4124,1340,896,576,23
7824,4036,4124,1340,896,576,23
7824,4036,4124,1340,896,576,24
7820,4028,4124,1344,896,576,23
7816,4028,4124,1340,896,576,23
7820,4028,4124,1340,896,576,24
7820,4028,4124,1340,896,576,23
7816,4024,4124,1340,896,576,23
7820,4028,4124,1340,896,576,24
7820,4028,4124,1344,896,576,23
7820,4028,4124,1344,896,576,23
7820,4028,4124,1344,896,576,24
7824,4028,4124,1340,896,576,23
7816,4028,4124,1344,896,576,24
7816,4024,4124,1340,896,576,23
7820,4028,4124,1340,896,576,23
7820,4028,4124,1340,896,576,24
7824,4028,4124,1340,896,576,23
7820,4028,4124,1340,896,576,23
7816,4028,4124,1340,896,576,24
7820,4032,4124,1340,896,576,23
7820,4032,4124,1340,896,576,23
7820,4032,4124,1340,896,576,24
7820,4032,4124,1340,896,576,23
7824,4036,4124,1340,896,576,23
7824,4036,4124,1344,896,576,24
7820,4036,4124,1340,896,576,23
7824,4040,4124,1340,896,576,24
7820,4036,4124,1340,896,576,23
7828,4040,4124,1340,896,576,23
7824,4040,4124,1340,896,576,24
7824,4040,4124,1340,896,576,23
7824,4040,4124,1340,896,576,23
7820,4040,4124,1340,896,576,24
7816,4036,4124,1340,896,576,23
7816,4032,4124,1344,896,576,23
7816,4028,4124,1344,896,576,24
7808,4024,4124,1340,896,576,23
7808,4024,4120,1340,896,576,23
7808,4020,4116,1344,896,576,24
7808,4020,4116,1344,896,576,23
7812,4020,4120,1340,896,576,24
7812,4020,4120,1340,896,576,23
7812,4020,4120,1340,896,576,23
7812,4020,4120,1344,896,576,24
7812,4020,4120,1340,896,576,23
7808,4020,4120,1340,896,576,23
7808,4020,4116,1340,896,576,24
7808,4020,4116,1340,896,576,23
7808,4020,4116,1340,896,576,23
7808,4016,4116,1340,896,576,24
7808,4020,4116,1340,896,576,23
7808,4020,4116,1344,896,576,23
7808,4020,4116,1340,896,576,24
7808,4020,4116,1344,896,576,23
7804,4020,4116,1344,896,576,24
7812,4024,4120,1344,896,576,23
7808,4024,4120,1344,896,576,23
7812,4024,4124,1340,896,576,24
7812,4024,4124,1344,896,576,23
7804,4024,4120,1344,896,576,23
7808,4024,4124,1344,896,576,24
7804,4024,4120,1344,896,576,23
7812,4028,4124,1340,896,576,23
7812,4032,4124,1340,896,576,24
7812,4032,4124,1340,896,576,23
7808,4028,4124,1340,896,576,23
7812,4032,4124,1340,896,576,24
7808,4028,4124,1340,896,576,23
7804,4024,4120,1344,896,576,24
7804,4024,4116,1340,896,576,23
7804,4020,4116,1340,896,576,23
7808,4016,4116,1340,896,576,24
7804,4016,4112,1344,896,576,23
7808,4016,4112,1340,896,576,23
7804,4016,4112,1340,896,576,24
7804,4016,4112,1344,896,576,23
7808,4016,4116,1344,896,576,23
7804,4016,4116,1340,896,576,24
7804,4016,4112,1340,896,576,23
7804,4016,4112,1340,896,576,23
7804,4016,4112,1344,896,576,24
7808,4016,4116,1340,896,576,23
7808,4016,4116,1340,896,576,24
7808,4016,4116,1340,896,576,23
7804,4016,4116,1340,896,576,23
7808,4016,4116,1340,896,576,24
7808,4016,4116,1340,896,576,23
7812,4020,4120,1340,896,576,23
7808,4020,4116,1340,896,576,24
7812,4020,4120,1340,896,576,23
7808,4020,4116,1340,896,576,23
7808,4024,4124,1340,896,576,24
7812,4024,4124,1340,896,576,23
7816,4028,4124,1340,896,576,23
7812,4028,4124,1340,896,576,24
7816,4028,4124,1340,896,576,23
7820,4032,4124,1340,896,576,24
7820,4032,4124,1340,896,576,23
7812,4028,4124,1340,896,576,23
7812,4024,4124,1340,896,576,24
7808,4020,4120,1344,896,576,23
7812,4020,4120,1340,896,576,23
7808,4016,4116,1340,896,576,24
7808,4012,4116,1340,896,576,23
7808,4012,4116,1340,896,576,23
7808,4012,4112,1340,896,576,24
7812,4016,4116,1344,896,576,23
7804,4012,4112,1340,896,576,23
7804,4012,4112,1344,896,576,24
7804,4012,4112,1340,896,576,23
7808,4012,4112,1340,896,576,24
7808,4016,4112,1344,896,576,23
7808,4016,4116,1340,896,576,23
7808,4012,4112,1340,896,576,24
7812,4016,4116,1340,896,576,23
7808,4012,4116,1340,896,576,23
7812,4016,4116,1340,896,576,24
7808,4012,4112,1340,896,576,23
7808,4012,4112,1340,896,576,23
7804,4016,4112,1340,896,576,24
7804,4016,4112,1340,896,576,23
7808,4016,4116,1340,896,576,23
7812,4020,4124,1340,896,576,24
7812,4020,4120,1340,896,576,23
7812,4020,4124,1340,896,576,24
7812,4020,4120,1340,896,576,23
7808,4020,4120,1340,896,576,23
7812,4024,4124,1340,896,576,24
7804,4020,4120,1340,896,576,23
7808,4024,4124,1340,896,576,23
7808,4024,4120,1340,896,576,24
7804,4020,4116,1340,896,576,23
7804,4012,4112,1340,896,576,23
7804,4012,4112,1340,896,576,24
7800,4004,4108,1340,896,576,23
7796,4004,4104,1340,896,576,23
7800,4004,4104,1340,896,576,24
7804,4004,4104,1340,896,576,23
7800,4000,4104,1340,896,576,24
7800,4000,4104,1340,896,576,23
7800,4000,4100,1340,896,576,23
7800,4000,4104,1340,892,576,24
7796,3996,4100,1340,892,576,23
7792,3996,4096,1340,896,576,23
7792,3992,4096,1340,896,576,24
7784,3988,4092,1340,896,576,23
7788,3992,4092,1340,896,576,23
7788,3988,4092,1340,896,576,24
7788,3992,4092,1340,896,576,23
7792,3992,4096,1340,896,576,23
7796,3996,4100,1340,896,576,24
7796,3996,4100,1340,896,576,23
7796,4000,4100,1340,896,576,24
7796,4000,4100,1340,896,576,23
7800,4000,4104,1340,896,576,23
7800,4004,4104,1340,896,576,24
7800,4004,4104,1340,896,576,23
7796,4004,4104,1340,896,576,23
7800,4004,4104,1340,896,576,24
7804,4008,4108,1340,896,576,23
7800,4008,4108,1340,896,576,23
7804,4008,4112,1340,896,576,24
7800,4008,4108,1340,896,576,23
7812,4016,4112,1340,896,576,23
7808,4012,4112,1340,896,576,24
7804,4008,4108,1340,896,576,23
7800,4004,4104,1340,896,576,24
7792,3996,4096,1340,896,576,23
7796,3996,4100,1340,896,576,23
7804,3996,4100,1340,896,576,24
7796,3992,4096,1340,892,576,23
7796,3992,4096,1340,892,576,23
7796,3992,4096,1340,896,576,24
7800,3992,4100,1340,896,576,23
7792,3992,4096,1340,896,576,23
7796,3992,4100,1340,892,576,24
7796,3992,4096,1340,896,576,23
7796,3992,4096,1340,892,576,23
7796,3992,4096,1340,896,576,24
7796,3992,4100,1340,896,576,23
7796,3992,4096,1340,892,576,24
7800,3996,4100,1340,896,576,23
7796,3992,4096,1340,896,576,23
7800,3992,4096,1340,892,576,24
7800,3996,4100,1340,892,576,23
7800,3996,4100,1340,892,576,23
7800,3996,4100,1340,896,576,24
7804,4000,4104,1340,892,576,23
7800,4000,4100,1340,896,576,23
7800,4000,4100,1340,896,576,24
7800,4000,4100,1340,896,576,23
7800,4004,4104,1340,892,576,23
7800,4004,4104,1340,896,576,24
7800,4004,4104,1340,896,576,23
7800,4004,4104,1340,896,576,24
7804,4008,4108,1340,896,576,23
7800,4004,4104,1340,896,576,23
7804,4008,4108,1340,896,576,24
7800,4008,4108,1340,896,576,23
7800,4008,4108,1340,896,576,23
7792,4000,4104,1340,896,576,24
7796,4000,4100,1340,896,576,23
7796,4000,4100,1340,896,576,23
7796,3996,4100,1340,896,576,24
7792,3992,4096,1340,896,576,23
7796,3996,4100,1340,896,576,23
7796,3996,4100,1340,896,576,24
7792,3992,4096,1340,896,576,23
7788,3992,4096,1340,892,576,23
7792,3992,4096,1340,896,576,24
7792,3992,4096,1340,896,576,23
7792,3996,4096,1340,896,576,24
7792,3996,4096,1340,896,576,23
7792,3992,4096,1340,896,576,23
7792,3996,4096,1340,892,576,24
7792,3996,4096,1340,896,576,23
7796,3996,4096,1340,896,576,23
7796,4000,4100,1340,896,576,24
7796,3996,4100,1340,896,576,23
7792,3996,4100,1340,896,576,23
7792,4000,4096,1340,896,576,24
7792,3996,4100,1340,896,576,23
7792,4000,4100,1340,896,576,23
7796,4004,4100,1340,896,576,24
7796,4004,4104,1340,896,576,23
7796,4004,4104,1340,896,576,24
7800,4008,4108,1340,896,576,23
7800,4008,4108,1340,896,576,23
7796,4008,4104,1340,896,576,24
7800,4012,4108,1340,896,576,23
7800,4012,4108,1340,896,576,23
7800,4012,4108,1340,896,576,24
7796,4008,4108,1340,896,576,23
7796,4008,4108,1340,896,576,23
7796,4012,4108,1340,896,576,24
7796,4008,4108,1340,896,576,23
7792,4008,4104,1340,896,576,23
7792,4004,4100,1340,896,576,24
7792,4004,4100,1340,896,576,23
7792,4000,4100,1340,896,576,24
7788,4000,4100,1340,896,576,23
7792,4000,4100,1340,896,576,23
7796,4004,4104,1340,896,576,24
7796,4004,4104,1340,896,576,23
7792,4004,4104,1340,896,576,23
7796,4008,4108,1340,896,576,24
7792,4004,4104,1340,896,576,23
7792,4004,4104,1340,896,576,23
7788,4004,4104,1340,896,576,24
7788,4004,4100,1340,896,576,23
7792,4004,4104,1340,896,576,23
7792,4004,4104,1340,896,576,24
7796,4008,4104,1340,896,576,23
7796,4008,4104,1340,892,576,24
7796,4008,4108,1340,892,576,23
7800,4012,4112,1340,896,576,23
7796,4012,4108,1340,896,576,24
7800,4012,4112,1340,896,576,23
7796,4012,4108,1340,896,576,23
7800,4016,4112,1340,896,576,24
7800,4016,4116,1340,896,576,23
7796,4016,4116,1340,896,576,23
7800,4020,4116,1340,896,576,24
7800,4016,4116,1340,896,576,23
7796,4016,4112,1340,896,576,23
7796,4020,4116,1340,896,576,24
7796,4016,4116,1340,896,576,23
7796,4016,4116,1340,896,576,24
7796,4012,4112,1340,896,576,23
7788,4008,4108,1340,896,576,23
7788,4008,4108,1340,896,576,24
7792,4008,4108,1340,896,576,23
7788,4004,4104,1340,896,576,23
7788,4004,4104,1340,896,576,24
7792,4008,4108,1340,896,576,23
7792,4008,4108,1340,896,576,23
7796,4012,4112,1340,896,576,24
7796,4012,4112,1340,896,576,23
7792,4012,4108,1340,896,576,23
7792,4012,4108,1340,896,576,24
7796,4012,4112,1340,896,576,23
7792,4012,4108,1340,896,576,23
7788,4008,4108,1340,896,576,24
7788,4008,4104,1340,896,576,23
7792,4012,4108,1340,896,576,24
7788,4008,4108,1340,896,576,23
7792,4012,4112,1340,896,576,23
7800,4016,4112,1340,896,576,24
7792,4016,4112,1340,896,576,23
7792,4016,4112,1340,896,576,23
7792,4016,4112,1340,896,576,24
7796,4016,4116,1340,896,576,23
7796,4020,4116,1340,896,576,23
7796,4020,4120,1340,896,576,24
7804,4024,4124,1340,896,576,23
7804,4024,4124,1340,896,576,24
7800,4024,4124,1340,896,576,23
7800,4028,4124,1340,896,576,23
7800,4024,4124,1340,896,576,24
7796,4024,4120,1340,896,576,23
7792,4020,4116,1340,896,576,23
7796,4016,4116,1340,896,576,24
7792,4012,4112,1340,896,576,23
7792,4012,4112,1340,896,576,23
7792,4008,4108,1340,896,576,24
7788,4008,4108,1340,896,576,23
7788,4004,4108,1340,896,576,23
7788,4004,4104,1340,896,576,24
7792,4008,4108,1340,896,576,23
7788,4004,4104,1340,896,576,23
7792,4008,4108,1340,896,576,24
7788,4004,4104,1344,896,576,23
7792,4008,4108,1340,896,576,24
7792,4004,4108,1340,896,576,23
7792,4008,4108,1340,896,576,23
7788,4004,4104,1340,896,576,24
7792,4008,4108,1340,896,576,23
7788,4004,4104,1340,896,576,23
7792,4004,4108,1340,896,576,24
7788,4004,4104,1340,896,576,23
7792,4008,4108,1340,896,576,23
7796,4008,4108,1340,896,576,24
7796,4008,4112,1340,896,576,23
7792,4008,4112,1340,896,576,23
7792,4008,4108,1340,896,576,24
7792,4008,4108,1340,896,576,23
7792,4008,4108,1340,896,576,24
7800,4012,4116,1340,896,576,23
7800,4016,4116,1340,896,576,23
7800,4016,4112,1340,892,576,24
7796,4012,4112,1340,896,576,23
7792,4012,4112,1340,896,576,23
7792,4012,4112,1340,896,576,24
7796,4012,4112,1340,896,576,23
7796,4008,4108,1340,896,576,23
7788,4004,4104,1340,896,576,24
7784,3996,4100,1340,896,576,23
7788,3996,4100,1340,896,576,23
7784,3996,4100,1340,896,576,24
7788,3992,4100,1340,896,576,23
7788,3996,4100,1340,892,576,24
7792,3996,4100,1340,892,576,23
7788,3992,4100,1340,896,576,23
7788,3992,4100,1340,896,576,24
7792,3996,4100,1340,896,576,23
7788,3992,4100,1340,896,576,23
7788,3992,4100,1340,892,576,24
7784,3988,4096,1340,896,576,23
7784,3992,4096,1340,896,576,23
7784,3992,4096,1340,896,576,24
7788,3992,4096,1340,896,576,23
7788,3992,4100,1340,892,576,23
7784,3988,4096,1340,892,576,24
7788,3992,4100,1340,892,576,23
7784,3992,4096,1340,892,576,24
7784,3992,4100,1340,896,576,23
7792,3996,4100,1340,892,576,23
7788,3996,4100,1340,892,576,24
7796,4000,4104,1340,892,576,23
7792,4000,4104,1340,896,576,23
7792,4000,4104,1340,896,576,24
7796,4000,4104,1340,892,576,23
7796,4000,4104,1340,896,576,23
7796,4004,4108,1340,896,576,24
7792,4000,4104,1340,896,576,23
7792,4000,4104,1340,896,576,23
7792,4000,4104,1340,896,576,24
7788,4000,4100,1340,896,576,23
7788,3996,4100,1340,896,576,24
7780,3992,4096,1340,896,576,23
7780,3988,4096,1340,896,576,23
7780,3984,4092,1344,896,576,24
7780,3984,4092,1340,896,576,23
7776,3980,4088,1340,896,576,23
7776,3976,4088,1340,896,576,24
7776,3976,4088,1340,896,576,23
7776,3976,4088,1340,896,576,23
7784,3984,4092,1340,896,576,24
7780,3980,4088,1340,896,576,23
7780,3980,4088,1340,896,576,23
7784,3980,4092,1340,892,576,24
7784,3980,4092,1340,896,576,23
7776,3976,4084,1340,896,576,24
7776,3976,4084,1340,896,576,23
7776,3976,4084,1340,892,576,23
7776,3976,4084,1340,892,576,24
7776,3976,4084,1340,892,576,23
7776,3976,4084,1340,892,576,23
7776,3976,4088,1340,896,576,24
7780,3980,4088,1340,892,576,23
7784,3984,4092,1340,892,576,23
7784,3984,4092,1340,896,576,24
7780,3984,4092,1340,896,576,23
7780,3980,4088,1340,896,576,23
7776,3980,4088,1340,892,576,24
7780,3984,4092,1340,896,576,23
7780,3984,4088,1340,896,576,24
7776,3984,4092,1344,896,576,23
7780,3984,4088,1340,892,576,23
7780,3984,4092,1340,892,576,24
7780,3988,4092,1340,892,576,23
7776,3984,4092,1340,892,576,23
7780,3984,4092,1340,896,576,24
7772,3980,4088,1340,896,576,23
7768,3976,4084,1340,892,576,23
7776,3976,4084,1340,892,576,24
7772,3972,4084,1340,896,576,23
7768,3968,4080,1340,892,576,23
7772,3968,4080,1340,892,576,24
7768,3968,4080,1340,892,576,23
7768,3968,4080,1340,892,576,24
7768,3968,4080,1340,892,576,23
7772,3972,4084,1340,892,576,23
7772,3968,4080,1340,892,576,24
7764,3964,4076,1340,892,576,23
7768,3964,4076,1340,892,576,23
7764,3964,4076,1340,892,576,24
7768,3964,4076,1340,892,576,23
7772,3968,4080,1340,892,576,23
7772,3968,4080,1340,892,576,24
7772,3972,4084,1340,892,576,23
7772,3972,4084,1340,892,576,23
7776,3972,4084,1340,892,576,24
7776,3972,4084,1340,892,576,23
7776,3976,4084,1340,892,576,23
7776,3976,4088,1340,892,576,24
7776,3976,4084,1340,892,576,23
7776,3976,4088,1340,892,576,24
7780,3980,4088,1340,892,576,23
7780,3980,4088,1340,892,576,23
7784,3984,4092,1340,892,576,24
7780,3984,4092,1340,896,576,23
7780,3984,4092,1340,892,576,23
7784,3984,4096,1340,896,576,24
7780,3984,4092,1340,896,576,23
7776,3980,4088,1340,892,576,23
7776,3976,4088,1340,896,576,24
7776,3972,4084,1340,892,576,23
7772,3968,4080,1340,892,576,23
7776,3968,4080,1340,892,576,24
7776,3964,4080,1340,892,576,23
7772,3964,4080,1340,892,576,24
7772,3964,4080,1340,892,576,23
7776,3964,4080,1340,892,576,23
7776,3968,4080,1340,892,576,24
7772,3964,4080,1340,892,576,23
7776,3968,4080,1340,892,576,23
7772,3964,4080,1340,892,576,24
7768,3964,4076,1340,892,576,23
7772,3964,4080,1340,892,576,23
7772,3964,4076,1340,892,576,24
7768,3960,4076,1340,892,576,23
7772,3964,4076,1340,892,576,23
7776,3964,4080,1340,892,576,24
7776,3964,4080,1340,892,576,23
7772,3964,4080,1340,892,576,24
7772,3968,4080,1340,892,576,23
7780,3972,4084,1340,892,576,23
7780,3972,4088,1340,892,576,24
7780,3972,4084,1340,892,576,23
7780,3972,4084,1340,892,576,23
7784,3976,4088,1340,892,576,24
7780,3976,4088,1340,892,576,23
7780,3976,4088,1340,892,576,23
7780,3976,4088,1340,892,576,24
7784,3980,4088,1340,892,576,23
7784,3980,4092,1340,896,576,23
7784,3980,4092,1340,896,576,24
7776,3972,4084,1340,892,576,23
7784,3972,4084,1340,892,576,23
7780,3968,4080,1340,892,576,24
7780,3964,4080,1340,892,576,23
7776,3960,4076,1340,892,576,24
7772,3956,4072,1340,892,576,23
7776,3956,4072,1340,892,576,23
7772,3956,4072,1340,892,576,24
7768,3952,4072,1340,892,576,23
7772,3956,4076,1340,892,576,23
7776,3956,4072,1340,892,576,24
7772,3952,4072,1340,892,576,23
7780,3956,4076,1340,892,576,23
7776,3956,4072,1340,892,576,24
7772,3952,4076,1340,892,576,23
7776,3952,4072,1340,892,576,24
7772,3952,4072,1340,892,576,23
7772,3952,4072,1340,892,576,23
7776,3952,4072,1340,892,576,24
7772,3952,4072,1340,892,576,23
7776,3952,4072,1340,892,576,23
7776,3956,4076,1340,892,576,24
7780,3960,4076,1340,892,576,23
7784,3960,4080,1340,892,576,23
7784,3960,4080,1340,892,576,24
7784,3964,4080,1340,892,576,23
7784,3964,4080,1340,892,576,23
7784,3964,4080,1340,892,576,24
7784,3964,4080,1340,892,576,23
7788,3968,4084,1340,892,576,24
7788,3968,4080,1340,892,576,23
7784,3964,4080,1340,892,576,23
7784,3964,4084,1340,892,576,24
7784,3968,4080,1340,896,576,23
7784,3968,4080,1340,892,576,23
7780,3964,4080,1340,892,576,24
7780,3960,4080,1340,896,576,23
7776,3956,4076,1340,892,576,23
7780,3952,4072,1340,892,576,24
7776,3948,4072,1340,892,576,23
7772,3944,4068,1340,892,576,23
7772,3944,4068,1340,892,576,24
7776,3944,4068,1340,892,576,23
7776,3944,4064,1340,892,576,24
7776,3948,4068,1340,892,576,23
7776,3944,4068,1340,892,576,23
7776,3944,4068,1340,892,576,24
7772,3944,4068,1340,892,576,23
7772,3940,4064,1340,892,576,23
7772,3940,4064,1340,892,576,24
7772,3940,4064,1340,892,576,23
7772,3940,4064,1340,892,576,23
7776,3940,4064,1340,892,576,24
7776,3944,4064,1340,892,576,23
7772,3940,4064,1340,892,576,23
7768,3940,4060,1340,892,576,24
7772,3940,4064,1340,892,576,23
7772,3944,4064,1340,892,576,23
7772,3944,4064,1340,892,576,24
7772,3944,4064,1340,892,576,23
7772,3944,4064,1340,892,576,24
7772,3944,4068,1340,892,576,23
7772,3948,4068,1340,892,576,23
7772,3944,4064,1340,892,576,24
7776,3948,4068,1340,892,576,23
7776,3948,4068,1340,892,576,23
7776,3952,4072,1340,892,576,24
7780,3952,4072,1340,892,576,23
7780,3952,4072,1340,892,576,23
7780,3952,4072,1340,892,576,24
7768,3948,4064,1340,892,576,23
7768,3944,4064,1340,892,576,23
7764,3940,4060,1340,892,576,24
7768,3936,4060,1340,892,576,23
7772,3936,4060,1340,892,576,24
7768,3932,4056,1340,892,576,23
7764,3928,4052,1340,892,576,23
7760,3924,4052,1340,892,576,24
7760,3924,4048,1340,892,576,23
7760,3924,4052,1340,892,576,23
7764,3928,4052,1340,892,576,24
7764,3928,4052,1340,892,576,23
7764,3928,4052,1340,892,576,23
7764,3928,4052,1340,892,576,24
7764,3928,4052,1340,892,576,23
7764,3928,4052,1340,892,576,23
7768,3928,4052,1340,892,576,24
7764,3924,4052,1340,892,576,23
7760,3924,4048,1340,892,576,24
7764,3928,4052,1340,892,576,23
7764,3928,4052,1340,892,576,23
7768,3928,4056,1340,892,576,24
7764,3928,4052,1340,892,576,23
7768,3932,4056,1340,892,576,23
7768,3932,4056,1340,892,576,24
7772,3936,4060,1340,892,576,23
7772,3936,4060,1340,892,576,23
7768,3936,4060,1340,892,576,24
7772,3936,4060,1340,892,576,23
7772,3936,4060,1340,892,576,23
7772,3940,4064,1340,892,576,24
7772,3940,4060,1340,892,576,23
7772,3940,4064,1340,892,576,24
7772,3940,4060,1340,892,576,23
7772,3940,4060,1340,892,576,23
7772,3936,4060,1340,892,576,24
7768,3932,4056,1340,892,576,23
7772,3932,4056,1340,892,576,23
7768,3928,4052,1340,892,576,24
7768,3924,4052,1340,892,576,23
7768,3924,4052,1340,892,576,23
7768,3924,4052,1340,892,572,24
7772,3924,4052,1340,892,576,23
7772,3928,4056,1340,892,576,23
7776,3928,4056,1340,892,576,24
7772,3928,4056,1340,892,576,23
7764,3924,4052,1340,892,576,24
7768,3924,4052,1340,892,576,23
7764,3924,4052,1340,892,576,23
7768,3928,4052,1340,892,576,24
7772,3928,4056,1340,892,576,23
7772,3928,4056,1340,892,576,23
7772,3932,4056,1340,892,576,24
7780,3932,4060,1340,892,576,23
7776,3932,4060,1340,892,576,23
7776,3932,4056,1340,892,576,24
7776,3932,4056,1340,892,576,23
7780,3936,4060,1340,892,576,23
7776,3936,4060,1340,892,576,24
7776,3936,4060,1340,892,576,23
7772,3936,4060,1340,892,576,23
7780,3940,4064,1340,892,576,24
7780,3940,4064,1340,892,576,23
7780,3940,4064,1340,892,576,24
7776,3940,4060,1340,892,576,23
7772,3940,4060,1340,892,576,23
7780,3940,4064,1340,892,576,24
7772,3936,4060,1340,892,576,23
7772,3932,4056,1340,892,576,23
7768,3928,4052,1340,892,576,24
7768,3924,4052,1340,892,576,23
7768,3924,4048,1340,892,576,23
7772,3924,4052,1340,892,576,24
7768,3920,4048,1340,892,576,23
7772,3924,4052,1340,892,576,23
7772,3924,4052,1340,892,576,24
7772,3924,4048,1344,896,576,23
7772,3924,4052,1340,892,576,24
7772,3924,4052,1340,892,576,23
7776,3928,4052,1340,892,576,23
7776,3928,4056,1340,892,576,24
7772,3924,4052,1340,892,576,23
7776,3924,4052,1340,892,576,23
7772,3924,4052,1340,892,576,24
7776,3928,4052,1340,892,576,23
7780,3928,4056,1340,892,576,23
7776,3928,4052,1340,892,576,24
7776,3928,4052,1340,892,576,23
7780,3932,4056,1340,892,576,23
7784,3932,4060,1340,892,576,24
7780,3932,4056,1340,892,576,23
7784,3936,4060,1340,892,576,24
7784,3936,4060,1340,892,576,23
7780,3936,4060,1340,892,576,23
7780,3936,4060,1340,896,576,24
7780,3940,4060,1340,892,576,23
7784,3940,4064,1340,896,576,23
7784,3940,4064,1340,892,576,24
7780,3940,4060,1340,892,576,23
7780,3940,4060,1340,896,576,23
7784,3936,4060,1340,896,576,24
7784,3936,4060,1340,896,576,23
7780,3928,4056,1340,892,576,23
7772,3920,4048,1340,896,576,24
7776,3920,4048,1340,892,576,23
7776,3916,4048,1340,892,576,23
7772,3916,4048,1340,892,576,24
7776,3916,4048,1340,892,576,23
7776,3916,4048,1340,892,576,24
7776,3920,4048,1340,892,576,23
7780,3920,4048,1340,892,576,23
7776,3916,4048,1340,892,576,24
7776,3920,4048,1340,892,576,23
7776,3916,4048,1340,892,576,23
7776,3920,4048,1340,892,576,24
7780,3920,4048,1340,892,576,23
7780,3920,4052,1340,892,576,23
7788,3924,4052,1340,892,576,24
7784,3924,4052,1340,892,576,23
7784,3924,4052,1340,892,576,23
7784,3924,4052,1340,892,576,24
7776,3920,4048,1340,892,576,23
7784,3924,4052,1340,892,576,24
7784,3924,4052,1340,892,576,23
7784,3928,4052,1340,892,576,23
7784,3928,4052,1340,892,576,24
7784,3928,4056,1340,892,576,23
7780,3928,4052,1340,892,576,23
7780,3928,4052,1340,892,576,24
7776,3928,4052,1340,896,576,23
7784,3932,4056,1340,896,576,23
7784,3932,4056,1340,896,576,24
7784,3932,4056,1340,896,576,23
7788,3932,4056,1340,896,576,23
7780,3924,4052,1344,896,576,24
7776,3920,4048,1340,896,576,23
7772,3916,4044,1340,896,576,24
7772,3912,4040,1344,896,576,23
7772,3908,4040,1340,896,576,23
7772,3908,4040,1340,892,576,24
7772,3908,4040,1340,896,576,23
7768,3904,4036,1340,892,576,23
7772,3908,4036,1340,896,576,24
7772,3908,4040,1340,892,576,23
7780,3912,4044,1340,896,576,23
7780,3912,4044,1340,892,576,24
7776,3912,4040,1340,896,576,23
7776,3912,4040,1340,896,576,23
7776,3908,4040,1340,892,576,24
7776,3908,4040,1340,896,576,23
7776,3908,4040,1340,892,576,24
7772,3908,4040,1340,896,576,23
7772,3908,4040,1340,896,576,23
7776,3912,4044,1340,892,576,24
7772,3912,4040,1340,892,576,23
7772,3912,4040,1340,892,576,23
7772,3912,4044,1340,892,576,24
7772,3916,4040,1340,892,576,23
7768,3912,4040,1340,892,576,23
7772,3916,4040,1340,892,576,24
7776,3920,4044,1340,892,576,23
7768,3916,4040,1340,892,576,23
7776,3920,4044,1340,892,576,24
7776,3920,4044,1340,896,576,23
7776,3920,4044,1340,896,576,24
7768,3916,4044,1340,896,576,23
7772,3920,4044,1340,896,576,23
7768,3920,4044,1340,896,576,24
7772,3920,4044,1340,896,576,23
7764,3912,4036,1340,896,576,23
7764,3908,4036,1340,896,576,24
7764,3904,4036,1340,896,576,23
7764,3904,4032,1340,892,576,23
7768,3904,4032,1340,892,576,24
7768,3900,4032,1340,892,576,23
7772,3904,4036,1340,892,576,23
7768,3904,4032,1340,892,576,24
7768,3904,4032,1340,892,576,23
7764,3900,4032,1340,892,576,24
7764,3904,4032,1340,892,576,23
7760,3900,4028,1340,892,576,23
7764,3904,4032,1340,892,576,24
7764,3900,4032,1340,892,576,23
7764,3900,4032,1340,892,576,23
7772,3904,4036,1340,892,576,24
7768,3904,4032,1340,892,576,23
7772,3908,4036,1340,892,576,23
7772,3908,4036,1340,892,576,24
7768,3904,4036,1340,892,576,23
7772,3908,4036,1340,892,576,23
7768,3908,4040,1340,892,576,24
7772,3912,4036,1340,892,576,23
7772,3912,4040,1340,892,576,23
7776,3916,4044,1340,892,576,24
7776,3916,4044,1340,892,576,23
7776,3916,4044,1340,892,576,24
7776,3920,4044,1340,892,576,23
7784,3920,4048,1340,892,576,23
7780,3920,4048,1340,896,576,24
7780,3920,4048,1340,892,576,23
7776,3916,4044,1340,896,576,23
7772,3912,4040,1340,896,576,24
7772,3908,4036,1340,892,576,23
7768,3904,4036,1340,896,576,23
7768,3904,4032,1340,892,576,24
7768,3900,4032,1340,892,576,23
7768,3900,4032,1340,892,576,23
7768,3904,4032,1340,892,576,24
7772,3904,4036,1340,892,576,23
7768,3904,4036,1340,892,576,24
7768,3904,4036,1340,892,576,23
7768,3904,4036,1340,892,576,23
7772,3908,4036,1340,892,576,24
7772,3908,4036,1340,892,576,23
7772,3908,4036,1340,892,576,23
7776,3908,4040,1340,892,576,24
7776,3908,4040,1340,892,576,23
7776,3912,4040,1340,892,576,23
7772,3912,4040,1340,892,576,24
7772,3912,4040,1340,892,576,23
7776,3916,4040,1340,892,576,23
7780,3916,4044,1340,896,576,24
7776,3916,4040,1340,892,576,23
7780,3920,4044,1340,892,576,24
7784,3920,4048,1340,892,576,23
7784,3924,4048,1340,892,576,23
7780,3920,4048,1340,892,576,24
7780,3924,4048,1340,892,576,23
7784,3924,4048,1340,892,576,23
7784,3928,4048,1340,892,576,24
7780,3924,4048,1340,892,576,23
7776,3920,4044,1340,892,576,23
7772,3916,4040,1340,892,576,24
7776,3912,4040,1340,896,576,23
7768,3908,4036,1340,892,576,23
7772,3908,4036,1340,892,576,24
7768,3904,4036,1340,892,576,23
7772,3904,4032,1340,892,576,24
7772,3904,4036,1340,892,576,23
7772,3904,4036,1340,892,576,23
7772,3908,4036,1340,892,576,24
7772,3908,4036,1340,892,576,23
7776,3908,4040,1340,892,576,23
7780,3908,4040,1340,892,576,24
7776,3908,4036,1340,892,572,23
7776,3908,4036,1340,892,576,23
7780,3908,4040,1340,892,576,24
7784,3912,4044,1340,892,576,23
7780,3908,4040,1340,892,572,23
7776,3908,4040,1340,892,576,24
7780,3912,4040,1340,892,576,23
7784,3916,4040,1340,892,576,24
7784,3916,4044,1340,892,576,23
7780,3916,4044,1340,892,576,23
7780,3916,4044,1340,892,576,24
7780,3920,4044,1340,892,576,23
7780,3920,4044,1340,892,576,23
7780,3920,4048,1340,892,576,24
7788,3924,4048,1340,892,576,23
7784,3924,4048,1340,892,576,23
7784,3924,4048,1340,892,576,24
7784,3924,4048,1340,892,576,23
7788,3928,4052,1340,892,576,23
7784,3924,4048,1340,892,576,24
7784,3920,4048,1340,892,576,23
7780,3920,4044,1340,892,576,24
7780,3912,4040,1340,892,576,23
7780,3912,4040,1340,892,576,23
7776,3908,4036,1340,892,576,24
7776,3904,4036,1340,892,576,23
7780,3904,4036,1340,892,576,23
7772,3904,4036,1340,892,576,24
7780,3904,4036,1340,892,576,23
7776,3904,4036,1340,892,576,23
7780,3908,4040,1340,892,576,24
7780,3908,4040,1340,892,576,23
7780,3908,4040,1340,892,576,23
7780,3908,4040,1340,892,576,24
7776,3904,4036,1340,892,576,23
7776,3904,4036,1340,892,576,24
7772,3904,4036,1340,892,576,23
7780,3908,4040,1340,892,572,23
7780,3908,4040,1340,892,572,24
7772,3904,4036,1340,892,576,23
7772,3908,4036,1340,892,576,23
7772,3908,4036,1340,892,576,24
7776,3908,4040,1340,892,576,23
7776,3912,4040,1340,892,576,23
7784,3916,4044,1340,892,576,24
7780,3912,4040,1340,892,576,23
7780,3916,4040,1340,892,576,23
7776,3912,4040,1340,892,576,24
7776,3912,4040,1340,892,576,23
7776,3916,4040,1340,892,576,24
7776,3916,4044,1340,892,576,23
7784,3920,4044,1340,892,576,23
7784,3920,4044,1340,892,576,24
7784,3924,4048,1340,892,576,23
7784,3924,4048,1340,892,576,23
7776,3920,4044,1340,892,576,24
7776,3916,4040,1340,892,576,23
7772,3908,4036,1340,892,576,23
7768,3904,4036,1340,892,576,24
7768,3900,4032,1340,892,576,23
7768,3900,4032,1340,892,576,23
7772,3900,4032,1340,892,576,24
7768,3896,4032,1340,892,576,23
7768,3900,4032,1340,892,576,23
7776,3904,4036,1340,892,576,24
7776,3904,4036,1340,892,576,23
7768,3900,4032,1340,892,576,24
7772,3900,4032,1340,892,576,23
7768,3900,4032,1340,892,576,23
7772,3904,4032,1340,892,576,24
7776,3904,4036,1340,892,576,23
7772,3900,4032,1340,892,576,23
7772,3900,4032,1340,892,576,24
7768,3900,4028,1340,892,576,23
7764,3900,4028,1340,892,576,23
7768,3900,4032,1340,892,576,24
7768,3904,4032,1340,892,576,23
7764,3900,4028,1340,892,576,23
7768,3904,4032,1340,892,576,24
7768,3904,4032,1344,892,576,23
7768,3908,4032,1340,892,576,24
7772,3908,4036,1344,892,576,23
7772,3912,4036,1340,892,576,23
7772,3912,4040,1340,892,576,24
7768,3912,4040,1340,892,576,23
7768,3912,4036,1340,892,576,23
7772,3912,4040,1344,896,576,24
7776,3916,4040,1340,892,576,23
7772,3916,4040,1340,892,576,23
7772,3916,4040,1340,892,576,24
7776,3920,4044,1340,896,576,23
7768,3912,4036,1344,896,576,23
7764,3908,4036,1344,896,576,24
7764,3904,4032,1344,896,576,23
7756,3900,4028,1340,892,576,24
7760,3896,4028,1340,892,576,23
7764,3896,4028,1340,892,576,23
7764,3900,4028,1344,892,576,24
7756,3896,4028,1340,892,576,23
7764,3900,4028,1340,892,576,23
7768,3900,4032,1340,892,576,24
7768,3904,4032,1340,892,576,23
7768,3900,4032,1344,892,576,23
7768,3900,4032,1340,892,576,24
7764,3900,4032,1340,892,576,23
7760,3900,4028,1340,892,576,23
7768,3900,4032,1340,892,576,24
7764,3900,4032,1340,892,576,23
7764,3900,4028,1340,892,576,24
7764,3900,4028,1340,892,576,23
7764,3904,4032,1340,892,576,23
7764,3904,4032,1340,892,576,24
7764,3904,4032,1340,892,576,23
7768,3908,4036,1340,892,576,23
7772,3908,4036,1340,892,576,24
7772,3912,4036,1340,892,576,23
7772,3912,4040,1340,892,576,23
7772,3916,4040,1340,892,576,24
7772,3916,4040,1340,892,576,23
7772,3916,4044,1340,892,576,23
7776,3920,4044,1340,892,576,24
7776,3920,4044,1340,892,576,23
7776,3920,4044,1340,892,576,24
7776,3924,4044,1340,892,576,23
7776,3924,4048,1340,892,576,23
7780,3920,4044,1340,892,576,24
7772,3916,4044,1340,892,576,23
7776,3916,4044,1340,892,576,23
7768,3908,4040,1340,892,576,24
7768,3908,4036,1340,892,576,23
7772,3908,4036,1340,892,576,23
7768,3904,4032,1340,892,576,24
7772,3908,4036,1340,892,576,23
7776,3912,4040,1340,892,576,23
7772,3912,4040,1340,892,576,24
7776,3912,4040,1340,892,576,23
7776,3912,4040,1340,892,576,24
7772,3912,4040,1340,892,576,23
7776,3912,4040,1340,892,576,23
7772,3908,4040,1340,892,576,24
7768,3912,4040,1340,892,576,23
7768,3908,4040,1340,892,576,23
7772,3912,4040,1340,892,576,24
7772,3912,4040,1340,892,576,23
7776,3916,4040,1340,892,576,23
7776,3916,4044,1340,892,576,24
7776,3916,4044,1340,892,576,23
7772,3916,4044,1340,892,576,23
7776,3920,4044,1340,892,576,24
7776,3924,4048,1340,892,576,23
7776,3920,4048,1340,892,576,24
7776,3924,4048,1340,892,576,23
7776,3924,4048,1340,892,576,23
7772,3924,4048,1340,892,576,24
7780,3928,4048,1340,892,576,23
7776,3928,4048,1340,892,576,23
7780,3928,4052,1340,896,576,24
7780,3932,4052,1340,892,576,23
7780,3932,4052,1340,892,576,23
7780,3932,4052,1340,892,576,24
7776,3928,4048,1340,896,576,23
7772,3920,4048,1340,892,576,23
7776,3920,4044,1344,896,576,24
7772,3916,4044,1340,892,576,23
7772,3912,4040,1340,892,576,23
7768,3912,4040,1340,892,576,24
7772,3912,4040,1340,892,576,23
7772,3912,4040,1340,892,576,24
7772,3912,4040,1340,892,576,23
7776,3916,4040,1340,892,576,23
7776,3916,4044,1340,892,576,24
7772,3912,4040,1340,892,576,23
7776,3916,4040,1340,892,576,23
7772,3912,4040,1340,892,576,24
7772,3912,4040,1340,892,576,23
7772,3912,4040,1340,892,576,23
7776,3916,4040,1340,892,576,24
7776,3916,4044,1340,892,576,23
7772,3916,4044,1340,892,576,23
7772,3916,4040,1340,892,576,24
7776,3920,4044,1340,892,576,23
7772,3916,4044,1340,892,576,24
7776,3920,4044,1340,892,576,23
7784,3924,4048,1340,892,576,23
7784,3924,4052,1340,892,576,24
7784,3928,4052,1340,892,576,23
7780,3928,4052,1340,892,576,23
7780,3928,4052,1340,892,576,24
7780,3928,4052,1340,892,576,23
7788,3932,4056,1340,892,576,23
7784,3932,4056,1340,892,576,24
7784,3932,4056,1340,896,576,23
7784,3932,4056,1340,892,576,23
7784,3936,4056,1340,892,576,24
7780,3932,4056,1344,896,576,23
7784,3932,4056,1340,896,576,24
7780,3928,4052,1340,892,576,23
7776,3924,4048,1340,896,576,23
7776,3920,4048,1340,892,576,24
7772,3916,4044,1340,892,576,23
7776,3916,4044,1340,892,576,23
7772,3912,4040,1340,892,576,24
7780,3916,4044,1344,896,576,23
7776,3916,4044,1340,892,576,23
7776,3916,4044,1340,896,576,24
7776,3916,4044,1340,892,576,23
7780,3916,4048,1340,892,576,23
7776,3916,4044,1340,892,576,24
7776,3916,4044,1340,892,576,23
7776,3916,4044,1340,892,576,24
7772,3912,4040,1340,892,576,23
7776,3916,4044,1340,892,576,23
7776,3916,4044,1340,892,576,24
7772,3916,4044,1340,892,576,23
7780,3920,4048,1340,892,576,23
7776,3920,4048,1344,896,576,24
7780,3920,4048,1340,896,576,23
7780,3924,4048,1340,892,576,23
7780,3924,4048,1340,892,576,24
7784,3924,4052,1340,892,576,23
7784,3924,4052,1340,892,576,23
7780,3924,4048,1340,892,576,24
7780,3928,4052,1340,892,576,23
7780,3928,4052,1340,892,576,24
7776,3928,4048,1340,892,576,23
7776,3928,4052,1340,896,576,23
7776,3928,4052,1340,896,576,24
7780,3932,4056,1340,896,576,23
7780,3932,4052,1340,892,576,23
7776,3932,4052,1340,896,576,24
7776,3932,4052,1340,892,576,23
7776,3928,4052,1340,896,576,23
7776,3928,4052,1344,896,576,24
7772,3924,4048,1340,896,576,23
7768,3916,4044,1340,896,576,23
7772,3916,4044,1340,896,576,24
7764,3908,4036,1340,896,576,23
7764,3908,4036,1340,892,576,23
7772,3912,4040,1340,892,576,24
7764,3908,4036,1340,892,576,23
7768,3912,4040,1340,892,576,24
7768,3912,4040,1340,892,576,23
7768,3912,4040,1340,892,576,23
7764,3908,4036,1340,896,576,24
7764,3908,4036,1340,896,576,23
7764,3908,4036,1340,896,576,23
7760,3908,4036,1340,892,576,24
7760,3908,4032,1344,896,576,23
7760,3908,4036,1340,896,576,23
7760,3908,4032,1344,896,576,24
7760,3908,4036,1340,892,576,23
7764,3912,4036,1344,896,576,23
7764,3912,4040,1340,892,576,24
7764,3912,4040,1340,892,576,23
7764,3912,4040,1340,892,576,24
7764,3916,4040,1340,892,576,23
7764,3916,4040,1340,892,576,23
7772,3920,4044,1340,892,576,24
7768,3920,4044,1340,892,576,23
7768,3920,4044,1340,896,576,23
7776,3924,4048,1340,896,576,24
7768,3920,4044,1340,896,576,23
7772,3924,4048,1340,896,576,23
7768,3920,4044,1340,896,576,24
7764,3920,4044,1340,896,576,23
7764,3920,4044,1340,896,576,23
7768,3920,4044,1340,896,576,24
7760,3916,4040,1340,896,576,23
7760,3912,4036,1344,896,576,24
7760,3908,4036,1340,896,576,23
7760,3904,4036,1340,896,576,23
7764,3908,4036,1340,896,576,24
7764,3908,4036,1340,896,576,23
7768,3908,4040,1344,896,576,23
7760,3908,4036,1340,892,576,24
7764,3908,4040,1340,892,576,23
7760,3908,4036,1340,892,576,23
7764,3912,4040,1340,892,576,24
7760,3908,4040,1340,892,576,23
7764,3912,4040,1340,892,576,23
7768,3912,4040,1340,896,576,24
7764,3912,4040,1340,892,576,23
7768,3912,4044,1340,892,576,24
7764,3912,4040,1340,892,576,23
7772,3916,4044,1340,892,576,23
7768,3916,4044,1340,892,576,24
7768,3916,4044,1340,892,576,23
7768,3916,4044,1340,892,576,23
7768,3916,4044,1340,892,576,24
7768,3920,4048,1340,892,576,23
7772,3924,4048,1340,892,576,23
7772,3924,4048,1340,892,576,24
7772,3924,4052,1344,896,576,23
7776,3928,4052,1340,892,576,23
7772,3928,4052,1340,892,576,24
7772,3928,4052,1340,892,576,23
7768,3924,4048,1340,892,576,24
7768,3924,4048,1340,892,576,23
7768,3920,4048,1340,896,576,23
7768,3916,4044,1340,896,576,24
7764,3912,4040,1340,896,576,23
7768,3912,4044,1340,892,576,23
7764,3912,4040,1340,896,576,24
7764,3908,4040,1340,892,576,23
7764,3912,4040,1340,892,576,23
7768,3912,4040,1340,892,576,24
7772,3916,4048,1340,892,576,23
7772,3916,4044,1340,892,576,23
7772,3916,4044,1340,892,576,24
7772,3916,4044,1340,892,576,23
7772,3916,4048,1340,892,576,24
7768,3916,4044,1340,892,576,23
7768,3912,4044,1340,892,576,23
7760,3908,4036,1340,892,576,24
7764,3912,4040,1340,892,576,23
7768,3916,4044,1340,892,576,23
7772,3916,4044,1340,892,576,24
7764,3916,4044,1340,892,576,23
7764,3916,4044,1340,892,576,23
7768,3920,4048,1340,892,576,24
7772,3924,4048,1340,892,576,23
7768,3920,4048,1340,892,576,23
7768,3920,4048,1340,892,576,24
7768,3920,4048,1340,896,576,23
7772,3924,4052,1340,892,576,24
7776,3928,4052,1340,896,576,23
7772,3928,4052,1340,892,576,23
7772,3928,4052,1340,892,576,24
7768,3924,4048,1340,892,576,23
7772,3924,4052,1340,892,576,23
7768,3920,4048,1340,896,576,24
7764,3916,4044,1340,892,576,23
7768,3912,4044,1340,892,576,23
7768,3912,4040,1340,892,576,24
7764,3908,4040,1340,892,576,23
7764,3908,4040,1340,892,576,23
7764,3908,4040,1340,892,576,24
7764,3908,4040,1340,892,576,23
7772,3912,4044,1340,892,576,24
7768,3912,4044,1344,896,576,23
7768,3912,4040,1344,896,576,23
7772,3912,4044,1344,896,576,24
7772,3912,4044,1344,892,576,23
7780,3912,4044,1344,892,576,23
7776,3912,4044,1344,896,576,24
7772,3912,4040,1344,896,576,23
7772,3912,4040,1344,896,576,23
7772,3908,4040,1344,892,576,24
7772,3908,4040,1344,892,576,23
7772,3912,4044,1344,892,576,23
7772,3912,4044,1344,896,576,24
7772,3912,4044,1344,892,576,23
7780,3916,4048,1344,896,576,23
7780,3920,4052,1344,896,576,24
7780,3920,4048,1344,896,576,23
7780,3920,4048,1340,892,576,24
7780,3920,4052,1340,892,576,23
7776,3920,4052,1344,892,576,23
7776,3920,4048,1344,896,576,24
7776,3920,4052,1340,892,576,23
7776,3920,4052,1340,892,576,23
7776,3920,4052,1340,892,576,24
7768,3912,4044,1344,896,576,23
7768,3908,4040,1344,896,576,23
7768,3908,4040,1340,892,576,24
7768,3904,4040,1340,892,576,23
7768,3900,4036,1340,892,576,23
7764,3900,4036,1344,892,576,24
7764,3896,4036,1344,892,576,23
7768,3900,4036,1340,892,576,24
7768,3900,4036,1340,892,576,23
7764,3900,4032,1340,892,576,23
7764,3900,4036,1340,892,576,24
7764,3896,4032,1340,892,576,23
7768,3900,4036,1340,892,576,23
7764,3896,4032,1340,892,576,24
7764,3896,4032,1340,892,576,23
7760,3896,4032,1340,892,576,23
7764,3896,4032,1340,892,576,24
7764,3896,4032,1340,892,576,23
7772,3900,4036,1344,892,576,24
7768,3900,4036,1340,892,576,23
7768,3900,4036,1340,892,576,23
7764,3900,4036,1344,892,576,24
7768,3900,4036,1344,892,576,23
7764,3904,4036,1340,892,576,23
7768,3904,4040,1344,892,576,24
7768,3904,4040,1340,892,576,23
7764,3904,4036,1340,892,576,23
7772,3908,4040,1344,892,576,24
7772,3908,4040,1344,892,576,23
7768,3908,4040,1344,892,576,23
7768,3908,4040,1340,892,576,24
7768,3908,4040,1344,896,576,23
7764,3908,4040,1344,896,576,24
7764,3904,4036,1344,896,576,23
7760,3900,4036,1344,896,576,23
7760,3896,4032,1344,896,576,24
7760,3892,4028,1344,896,576,23
7756,3888,4028,1340,892,576,23
7752,3884,4024,1340,892,576,24
7756,3884,4024,1340,892,576,23
7756,3884,4024,1340,892,576,23
7760,3888,4028,1340,892,576,24
7760,3888,4028,1340,892,576,23
7760,3888,4028,1340,892,576,23
7756,3888,4024,1340,892,576,24
7752,3884,4024,1340,892,576,23
7752,3884,4024,1340,892,576,24
7756,3884,4024,1340,892,576,23
7756,3884,4024,1344,892,576,23
7756,3884,4024,1344,892,576,24
7752,3880,4020,1340,892,576,23
7752,3880,4020,1340,892,576,23
7748,3880,4020,1340,892,576,24
7748,3880,4020,1340,892,576,23
7748,3884,4020,1340,892,576,23
7748,3884,4024,1340,892,576,24
7752,3888,4024,1340,892,576,23
7748,3888,4024,1340,892,576,23
7752,3888,4024,1340,892,576,24
7756,3892,4028,1340,892,576,23
7760,3892,4028,1340,892,576,24
7752,3892,4028,1340,892,576,23
7752,3892,4028,1340,892,576,23
7756,3892,4028,1340,892,576,24
7752,3892,4028,1340,892,576,23
7756,3896,4028,1344,892,576,23
7752,3892,4028,1340,892,576,24
7752,3888,4024,1340,892,576,23
7748,3880,4020,1340,892,576,23
7744,3876,4020,1340,892,576,24
7748,3876,4016,1340,892,576,23
7748,3876,4016,1340,892,576,23
7744,3872,4016,1340,892,576,24
7744,3872,4016,1340,892,576,23
7744,3872,4016,1340,892,576,24
7748,3876,4016,1340,892,576,23
7748,3876,4016,1340,892,576,23
7748,3876,4020,1340,892,576,24
7744,3872,4016,1340,892,576,23
7748,3876,4016,1340,892,576,23
7744,3876,4016,1340,892,576,24
7748,3876,4016,1340,892,576,23
7752,3880,4020,1340,892,576,23
7752,3880,4020,1340,892,576,24
7752,3880,4020,1340,892,576,23
7752,3880,4024,1340,892,576,23
7748,3880,4020,1340,892,576,24
7752,3880,4020,1340,892,576,23
7756,3884,4024,1340,892,576,23
7752,3884,4024,1340,892,576,24
7756,3888,4024,1340,892,576,23
7752,3884,4024,1340,892,576,24
7752,3888,4024,1340,892,576,23
7752,3888,4024,1340,892,576,23
7756,3888,4028,1340,892,576,24
7752,3888,4028,1340,892,576,23
7756,3888,4028,1340,892,576,23
7752,3884,4024,1340,892,576,24
7752,3880,4020,1340,892,576,23
7752,3876,4020,1340,892,576,23
7752,3876,4020,1340,892,576,24
7748,3872,4016,1340,892,576,23
7744,3868,4012,1344,892,576,24
7748,3872,4016,1340,892,576,23
7756,3876,4020,1340,892,576,23
7752,3876,4016,1340,892,576,24
7752,3876,4020,1340,892,576,23
7752,3876,4020,1340,892,576,23
7752,3876,4020,1340,892,576,24
7756,3876,4020,1340,892,576,23
7756,3876,4020,1340,892,576,23
7752,3876,4020,1340,892,576,24
7752,3876,4020,1340,892,576,23
7752,3876,4020,1340,892,576,23
7752,3876,4020,1340,892,576,24
7752,3876,4016,1340,892,576,23
7752,3876,4020,1340,892,576,24
7756,3880,4020,1340,892,576,23
7756,3880,4024,1340,892,576,23
7752,3880,4024,1340,892,576,24
7752,3880,4024,1340,892,576,23
7756,3884,4024,1340,892,576,23
7760,3884,4028,1340,892,576,24
7756,3884,4028,1344,892,576,23
7756,3888,4028,1340,892,576,23
7760,3888,4028,1340,892,576,24
7760,3888,4028,1340,892,576,23
7760,3892,4028,1340,892,576,23
7756,3888,4024,1344,892,576,24
7756,3884,4024,1340,892,576,23
7752,3880,4020,1340,892,576,24
7748,3872,4016,1340,892,576,23
7748,3868,4012,1340,892,576,23
7748,3868,4012,1340,892,576,24
7748,3864,4012,1340,892,576,23
7748,3864,4012,1340,892,576,23
7748,3864,4012,1340,892,576,24
7748,3868,4012,1340,892,576,23
7748,3864,4012,1340,892,576,23
7748,3868,4012,1340,892,572,24
7748,3868,4012,1340,892,576,23
7752,3868,4016,1340,892,576,23
7756,3868,4016,1340,892,576,24
7752,3868,4016,1340,892,576,23
7756,3868,4016,1340,892,576,23
7756,3868,4016,1340,892,576,24
7756,3868,4016,1340,892,576,23
7752,3868,4016,1340,892,576,24
7748,3868,4012,1340,892,576,23
7752,3872,4016,1340,892,576,23
7748,3868,4016,1340,892,576,24
7752,3872,4020,1340,892,576,23
7752,3876,4016,1340,892,576,23
7752,3876,4020,1340,892,576,24
7752,3876,4020,1340,892,576,23
7756,3876,4020,1340,892,576,23
7752,3876,4020,1340,892,576,24
7752,3876,4020,1340,892,576,23
7752,3880,4020,1340,892,576,23
7760,3884,4024,1340,892,576,24
7756,3880,4024,1340,892,576,23
7756,3880,4024,1340,892,576,24
7752,3872,4016,1340,892,576,23
7748,3868,4016,1340,892,576,23
7748,3864,4012,1344,892,576,24
7744,3860,4008,1344,892,576,23
7748,3860,4008,1344,892,576,23
7748,3856,4008,1340,892,576,24
7748,3860,4008,1340,892,576,23
7752,3860,4008,1344,892,576,23
7752,3860,4008,1340,892,572,24
7748,3860,4008,1340,892,572,23
7744,3860,4008,1340,892,576,23
7744,3856,4004,1340,892,576,24
7736,3852,4004,1340,892,572,23
7740,3856,4004,1340,892,572,24
7744,3856,4008,1340,892,572,23
7748,3860,4008,1340,892,576,23
7744,3860,4008,1340,892,576,24
7744,3860,4008,1340,892,576,23
7744,3860,4008,1340,892,576,23
7748,3864,4012,1340,892,572,24
7748,3864,4012,1340,892,572,23
7748,3864,4012,1340,892,572,23
7748,3864,4012,1340,892,576,24
7748,3864,4012,1340,892,576,23
7744,3864,4012,1340,892,572,23
7748,3868,4012,1340,892,576,24
7752,3872,4016,1340,892,572,23
7748,3868,4016,1340,892,576,23
7752,3872,4016,1340,892,576,24
7752,3872,4016,1340,892,576,23
7752,3872,4016,1340,892,576,24
7752,3872,4016,1340,892,576,23
7752,3872,4016,1340,892,576,23
7752,3868,4016,1340,892,576,24
7748,3864,4012,1340,892,576,23
7744,3860,4008,1340,892,576,23
7744,3856,4004,1340,892,576,24
7740,3852,4004,1340,892,576,23
7740,3848,4000,1340,892,576,23
7736,3844,3996,1340,892,576,24
7736,3844,4000,1340,892,576,23
7740,3848,4000,1340,892,576,23
7736,3848,4000,1344,892,576,24
7740,3848,4000,1344,892,576,23
7736,3848,4000,1340,892,572,24
7736,3848,4000,1340,892,576,23
7736,3848,4000,1340,892,576,23
7736,3844,4000,1340,892,576,24
7736,3844,3996,1340,892,572,23
7732,3844,3996,1340,892,576,23
7736,3844,3996,1340,892,576,24
7736,3844,3996,1340,892,576,23
7736,3848,3996,1340,892,576,23
7736,3844,3996,1340,892,576,24
7732,3844,3996,1344,892,576,23
7736,3848,4000,1340,892,576,23
7732,3848,4000,1340,892,576,24
7736,3852,4000,1340,892,576,23
7736,3852,4000,1340,892,576,24
7740,3852,4004,1340,892,576,23
7740,3852,4000,1344,892,576,23
7740,3856,4004,1340,892,576,24
7736,3852,4004,1344,892,576,23
7736,3852,4000,1340,892,576,23
7740,3856,4004,1340,892,576,24
7740,3856,4004,1340,892,576,23
7740,3856,4004,1340,892,576,23
7736,3856,4000,1340,892,576,24
7736,3852,4000,1340,892,576,23
7732,3848,3996,1344,892,576,23
7728,3840,3992,1340,892,576,24
7728,3840,3992,1344,892,576,23
7728,3836,3992,1340,892,576,24
7728,3832,3992,1340,892,576,23
7732,3832,3988,1340,892,572,23
7732,3836,3992,1340,892,572,24
7728,3836,3988,1340,892,572,23
7732,3836,3992,1340,892,572,23
7732,3836,3992,1340,892,572,24
7732,3836,3992,1340,892,572,23
7732,3836,3992,1340,892,572,23
7736,3840,3996,1340,892,572,24
7736,3836,3992,1340,892,576,23
7732,3836,3992,1340,892,576,23
7740,3840,3996,1340,892,572,24
7736,3836,3992,1340,892,572,23
7740,3840,3996,1340,892,572,24
7740,3840,3996,1340,888,572,23
7736,3840,3996,1340,892,572,23
7740,3844,4000,1340,892,572,24
7740,3844,4000,1340,892,572,23
7740,3844,4000,1340,892,572,23
7740,3848,4000,1340,892,572,24
7744,3852,4004,1340,892,572,23
7748,3852,4004,1340,892,572,23
7748,3852,4004,1340,892,572,24
7744,3852,4004,1340,892,572,23
7748,3856,4004,1340,892,572,23
7744,3852,4004,1340,892,572,24
7748,3856,4008,1340,892,572,23
7748,3852,4004,1340,892,572,24
7740,3844,4000,1340,892,576,23
7740,3840,3996,1340,892,576,23
7740,3836,3996,1340,892,576,24
7740,3836,3996,1340,892,572,23
7732,3832,3992,1340,892,572,23
7740,3836,3996,1340,892,576,24
7740,3836,3992,1340,892,572,23
7740,3840,3996,1340,892,572,23
7740,3840,3996,1340,892,572,24
7740,3840,3996,1340,892,572,23
7744,3840,4000,1340,892,572,23
7740,3840,3996,1340,892,576,24
7736,3836,3992,1340,892,572,23
7744,3840,3996,1340,892,572,23
7740,3840,3996,1340,892,572,24
7744,3840,4000,1340,892,572,23
7744,3844,4000,1340,892,576,24
7744,3844,4000,1340,892,572,23
7744,3844,4000,1340,892,576,23
7744,3844,4000,1340,892,576,24
7744,3848,4000,1340,892,572,23
7744,3848,4000,1340,892,572,23
7744,3848,4004,1340,892,576,24
7748,3852,4004,1340,892,572,23
7748,3852,4004,1340,892,572,23
7748,3856,4008,1340,892,572,24
7748,3852,4004,1340,892,572,23
7752,3856,4008,1340,892,576,23
7756,3860,4012,1340,892,572,24
7756,3860,4012,1340,892,572,23
7756,3860,4012,1340,892,572,24
7748,3852,4004,1344,892,576,23
7744,3848,4000,1340,892,576,23
7740,3840,3996,1340,892,576,24
7740,3840,3996,1340,892,576,23
7744,3840,3996,1340,892,572,23
7740,3832,3992,1340,892,572,24
7744,3836,3996,1340,892,576,23
7740,3836,3992,1340,892,572,23
7740,3832,3992,1340,892,572,24
7744,3836,3996,1340,892,576,23
7744,3836,3996,1340,892,576,23
7744,3836,3996,1340,892,576,24
7744,3836,3996,1340,892,572,23
7744,3836,3996,1340,892,572,24
7744,3836,3996,1340,892,572,23
7740,3832,3992,1340,892,576,23
7740,3832,3992,1340,892,572,24
7740,3836,3992,1340,892,576,23
7748,3840,3996,1340,892,572,23
7748,3840,4000,1340,892,576,24
7748,3844,4000,1340,892,572,23
7752,3844,4000,1340,892,572,23
7748,3844,4000,1340,892,576,24
7748,3844,4000,1340,892,576,23
7752,3848,4004,1340,892,572,23
7748,3844,4000,1340,892,572,24
7748,3848,4004,1340,892,576,23
7752,3852,4008,1340,892,576,23
7752,3852,4004,1340,892,572,24
7756,3856,4008,1340,892,576,23
7752,3852,4008,1340,892,572,24
7752,3852,4008,1340,892,576,23
7748,3852,4004,1340,892,572,23
7748,3852,4004,1340,892,576,24
7744,3848,4004,1344,892,576,23
7744,3844,4000,1340,892,576,23
7740,3840,3996,1340,892,576,24
7744,3836,3996,1340,892,576,23
7740,3832,3992,1340,892,576,23
7740,3832,3992,1340,892,572,24
7744,3832,3992,1340,892,572,23
7744,3832,3992,1340,892,572,23
7740,3832,3992,1340,892,572,24
7744,3836,3996,1340,888,572,23
7744,3836,3996,1340,892,576,24
7740,3832,3992,1340,892,572,23
7744,3832,3996,1340,892,572,23
7740,3828,3992,1340,892,572,24
7748,3836,3996,1340,892,572,23
7740,3832,3992,1340,892,576,23
7744,3832,3992,1340,892,572,24
7744,3832,3996,1340,892,572,23
7744,3832,3992,1340,892,572,23
7748,3836,3996,1340,892,572,24
7748,3836,3996,1340,892,572,23
7748,3836,3996,1340,892,572,23
7752,3840,4000,1340,892,576,24
7752,3844,4000,1340,892,576,23
7752,3844,4000,1340,892,572,24
7752,3844,4000,1340,892,576,23
7748,3844,4000,1340,892,576,23
7748,3844,4000,1340,892,576,24
7752,3848,4000,1344,892,576,23
7752,3848,4004,1344,892,576,23
7744,3848,4000,1340,892,576,24
7748,3848,4004,1340,892,576,23
7748,3852,4004,1340,892,576,23
7752,3852,4004,1344,892,576,24
7752,3852,4004,1340,892,576,23
7752,3852,4004,1340,892,576,23
7744,3848,4000,1340,892,576,24
7744,3844,4000,1340,892,576,23
7740,3836,3992,1340,892,576,24
7736,3832,3988,1340,892,576,23
7736,3828,3988,1340,892,576,23
7732,3824,3984,1344,892,576,24
7736,3824,3988,1340,892,576,23
7736,3828,3988,1340,892,576,23
7736,3828,3988,1340,892,576,24
7736,3828,3988,1344,892,576,23
7740,3828,3988,1340,892,576,23
7740,3832,3992,1340,892,576,24
7736,3828,3988,1340,892,576,23
7740,3828,3988,1340,892,576,23
7736,3828,3988,1344,892,576,24
7732,3828,3984,1344,892,576,23
7736,3828,3988,1344,892,576,24
7736,3828,3988,1344,892,576,23
7736,3828,3988,1344,892,576,23
7736,3828,3988,1344,892,576,24
7740,3832,3988,1340,892,576,23
7740,3832,3992,1344,892,576,23
7732,3832,3988,1344,892,576,24
7740,3836,3992,1340,892,576,23
7740,3836,3992,1344,892,576,23
7740,3836,3996,1340,892,576,24
7740,3840,3992,1344,892,576,23
7740,3840,3996,1340,892,576,23
7736,3840,3992,1340,892,576,24
7736,3840,3996,1344,892,576,23
7740,3840,3996,1340,892,576,24
7736,3840,3996,1344,892,576,23
7736,3844,3996,1340,892,576,23
7740,3844,3996,1340,892,576,24
7740,3844,3996,1344,892,576,23
7744,3844,3996,1344,892,576,23
7740,3840,3996,1344,892,576,24
7736,3836,3992,1344,892,576,23
7736,3832,3988,1344,892,576,23
7736,3832,3988,1344,892,576,24
7732,3828,3984,1344,892,576,23
7732,3824,3984,1344,892,576,23
7736,3828,3988,1340,892,576,24
7732,3828,3988,1340,892,576,23
7736,3832,3992,1344,892,576,24
7736,3832,3988,1340,892,576,23
7736,3832,3992,1340,892,576,23
7736,3832,3988,1340,892,576,24
7732,3828,3988,1340,892,576,23
7728,3828,3988,1340,892,576,23
7736,3832,3988,1340,892,576,24
7732,3828,3988,1340,892,576,23
7736,3832,3992,1340,892,576,23
7732,3832,3988,1344,892,576,24
7732,3832,3992,1340,892,576,23
7736,3836,3992,1344,892,576,23
7740,3840,3996,1344,892,576,24
7744,3840,4000,1344,892,576,23
7744,3844,4000,1344,892,576,24
7748,3848,4000,1344,892,576,23
7740,3844,3996,1344,892,576,23
7748,3848,4004,1344,892,576,24
7748,3848,4004,1340,892,576,23
7748,3852,4004,1340,892,576,23
7740,3848,4000,1340,892,576,24
7744,3852,4004,1340,892,576,23
7736,3848,4000,1340,892,576,23
7740,3852,4004,1340,892,576,24
7740,3848,4000,1340,892,576,23
7736,3844,3996,1340,892,576,23
7732,3840,3996,1344,892,576,24
7728,3832,3992,1344,892,576,23
7728,3832,3988,1344,892,576,24
7732,3832,3992,1344,892,576,23
7732,3836,3992,1340,892,576,23
7736,3836,3996,1344,892,576,24
7736,3836,3992,1340,892,576,23
7736,3840,3996,1340,892,576,23
7736,3840,3996,1340,892,576,24
7732,3840,3992,1340,892,576,23
7732,3840,3996,1340,892,576,23
7732,3840,3992,1344,892,576,24
7732,3840,3996,1340,892,576,23
7732,3840,3996,1340,892,576,23
7736,3840,3996,1340,892,576,24
7736,3840,3996,1340,892,576,23
7736,3844,3996,1340,892,576,24
7736,3844,3996,1340,892,576,23
7736,3844,4000,1340,892,576,23
7736,3848,4000,1340,892,576,24
7744,3852,4004,1344,892,576,23
7744,3852,4004,1344,892,576,23
7744,3856,4008,1344,892,576,24
7744,3856,4008,1344,892,576,23
7744,3856,4004,1344,892,576,23
7740,3856,4004,1344,892,576,24
7744,3856,4008,1344,892,576,23
7740,3856,4008,1340,892,576,23
7740,3860,4008,1340,892,576,24
7740,3856,4004,1340,892,576,23
7736,3852,4004,1340,892,576,24
7736,3852,4000,1340,892,576,23
7732,3844,3996,1340,892,576,23
7732,3844,3996,1340,892,576,24
7728,3840,3996,1340,892,576,23
7732,3840,3996,1340,892,576,23
7732,3840,3996,1340,892,576,24
7732,3836,3992,1340,892,576,23
7732,3836,3992,1340,892,576,23
7736,3840,3996,1340,892,576,24
7736,3840,3996,1340,892,576,23
7736,3844,3996,1340,892,576,23
7736,3844,3996,1340,892,576,24
7728,3840,3996,1340,892,576,23
7736,3840,3996,1340,892,576,24
7732,3840,3996,1340,892,576,23
7732,3840,3996,1340,892,576,23
7732,3840,3996,1340,892,576,24
7736,3844,4000,1340,892,576,23
7736,3844,4000,1340,892,576,23
7736,3844,4000,1344,892,576,24
7736,3848,4000,1340,892,576,23
7736,3848,4000,1340,892,576,23
7744,3852,4004,1344,892,576,24
7740,3852,4004,1340,892,576,23
7736,3848,4004,1340,892,576,23
7736,3852,4004,1340,892,576,24
7740,3852,4004,1340,892,576,23
7744,3856,4008,1340,892,576,24
7744,3856,4004,1340,892,576,23
7744,3860,4008,1340,892,576,23
7744,3860,4008,1340,892,576,24
7744,3860,4008,1340,892,576,23
7736,3856,4004,1340,892,576,23
7732,3852,4000,1340,892,576,24
7732,3848,4000,1340,892,576,23
7732,3844,3996,1340,892,576,23
7732,3840,3996,1344,892,576,24
7732,3840,3996,1344,892,576,23
7724,3836,3992,1344,892,576,23
7724,3832,3992,1344,892,576,24
7728,3836,3992,1340,892,576,23
7728,3836,3992,1340,892,576,24
7728,3840,3996,1340,892,576,23
7732,3840,3996,1340,892,576,23
7728,3836,3992,1340,892,576,24
7728,3836,3992,1340,892,576,23
7728,3836,3992,1340,892,576,23
7724,3836,3992,1340,892,576,24
7724,3836,3988,1340,892,576,23
7724,3836,3992,1340,892,576,23
7728,3836,3992,1340,892,576,24
7724,3836,3992,1340,892,576,23
7720,3836,3992,1340,892,576,23
7728,3840,3996,1340,892,576,24
7732,3844,3996,1340,892,576,23
7732,3844,4000,1340,892,576,24
7728,3844,3996,1340,892,576,23
7732,3848,4000,1340,892,576,23
7732,3848,4000,1340,892,576,24
7732,3848,4000,1344,892,576,23
7732,3852,4000,1340,892,576,23
7732,3852,4000,1340,892,576,24
7732,3852,4004,1340,892,576,23
7732,3852,4004,1340,892,576,23
7732,3856,4004,1340,892,576,24
7732,3856,4004,1340,892,576,23
7732,3856,4008,1340,892,576,23
7732,3856,4004,1340,892,576,24
7732,3852,4004,1340,892,576,23
7724,3844,3996,1344,892,576,24
7720,3840,3992,1344,892,576,23
7720,3840,3992,1340,892,576,23
7720,3836,3992,1344,892,576,24
7716,3832,3988,1340,892,576,23
7712,3832,3988,1340,892,576,23
7712,3832,3988,1340,892,576,24
7716,3836,3988,1340,892,576,23
7720,3836,3992,1344,892,576,23
7716,3836,3992,1344,892,576,24
7724,3840,3996,1344,892,576,23
7720,3836,3992,1344,892,576,23
7716,3836,3988,1340,892,576,24
7716,3836,3992,1344,892,576,23
7716,3832,3988,1340,892,576,24
7712,3836,3988,1340,892,576,23
7712,3832,3988,1340,892,576,23
7712,3836,3988,1340,892,576,24
7716,3836,3992,1344,892,576,23
7716,3840,3992,1344,892,576,23
7716,3840,3992,1340,892,576,24
7716,3844,3992,1340,892,576,23
7712,3840,3992,1340,892,576,23
7712,3840,3992,1344,892,576,24
7712,3844,3992,1340,892,576,23
7712,3844,3996,1340,892,576,23
7712,3844,3992,1344,892,576,24
7720,3848,3996,1340,892,576,23
7716,3848,4000,1340,892,576,24
7716,3848,3996,1340,892,576,23
7716,3852,3996,1340,892,576,23
7716,3852,4000,1340,892,576,24
7716,3852,4000,1340,892,576,23
7716,3852,4000,1340,892,576,23
7716,3848,3996,1340,892,576,24
7708,3844,3992,1340,892,576,23
7704,3836,3988,1340,892,576,23
7704,3836,3988,1340,892,576,24
7700,3832,3984,1340,892,576,23
7696,3828,3980,1344,892,576,23
7696,3828,3980,1340,892,576,24
7700,3832,3984,1340,892,576,23
7700,3832,3984,1340,892,576,24
7696,3832,3984,1340,892,576,23
7700,3832,3984,1340,892,576,23
7700,3832,3984,1340,892,576,24
7696,3832,3984,1344,892,576,23
7696,3832,3984,1344,892,576,23
7696,3832,3984,1340,892,576,24
7692,3832,3980,1340,892,576,23
7692,3832,3980,1340,892,576,23
7696,3832,3980,1340,892,576,24
7692,3832,3980,1340,892,576,23
7700,3836,3984,1340,892,576,23
7700,3836,3988,1340,892,576,24
7696,3836,3988,1340,892,576,23
7700,3840,3988,1340,892,576,24
7704,3844,3992,1340,892,576,23
7704,3844,3992,1340,892,576,23
7704,3844,3992,1340,892,576,24
7704,3844,3992,1340,892,576,23
7704,3844,3996,1340,892,576,23
7704,3848,3992,1340,892,576,24
7704,3848,3996,1340,892,576,23
7708,3852,3996,1340,892,576,23
7708,3852,3996,1340,892,576,24
7704,3852,3996,1340,892,576,23
7700,3848,3996,1340,892,576,23
7700,3844,3992,1340,892,576,24
7696,3840,3992,1340,892,576,23
7700,3840,3992,1340,892,576,24
7696,3836,3988,1340,892,576,23
7696,3836,3984,1340,892,576,23
7696,3836,3988,1340,892,576,24
7700,3836,3988,1340,892,576,23
7696,3836,3988,1340,892,576,23
7696,3836,3988,1340,892,576,24
7696,3840,3988,1340,892,576,23
7700,3840,3992,1340,892,576,23
7700,3840,3992,1340,892,576,24
7700,3840,3992,1340,892,576,23
7700,3840,3992,1340,892,576,23
7696,3840,3988,1340,892,576,24
7700,3840,3992,1340,892,576,23
7700,3840,3992,1340,892,576,24
7700,3844,3996,1340,892,576,23
7708,3848,3996,1340,892,576,23
7700,3844,3992,1340,892,576,24
7704,3848,3996,1340,892,576,23
7704,3848,3996,1344,892,576,23
7708,3852,4000,1340,892,576,24
7708,3852,4000,1340,892,576,23
7708,3856,4000,1340,892,576,23
7712,3856,4004,1340,892,576,24
7704,3856,4000,1340,892,576,23
7704,3856,4000,1340,892,576,23
7704,3856,4000,1340,892,576,24
7704,3856,4000,1340,892,576,23
7704,3856,4000,1340,892,576,23
7704,3856,4000,1340,892,576,24
7700,3856,4000,1340,892,576,23
7700,3852,3996,1340,892,576,24
7696,3844,3992,1340,892,576,23
7700,3844,3992,1340,892,576,23
7696,3840,3988,1340,892,576,24
7692,3836,3988,1340,892,576,23
7692,3836,3984,1340,892,576,23
7692,3836,3988,1340,892,576,24
7700,3840,3988,1340,892,576,23
7696,3840,3988,1340,892,576,23
7696,3836,3988,1340,892,576,24
7692,3836,3988,1340,892,576,23
7692,3836,3988,1340,892,576,23
7692,3836,3988,1340,892,576,24
7692,3836,3988,1340,892,576,23
7692,3836,3988,1340,892,576,24
7692,3836,3984,1340,892,576,23
7688,3836,3988,1340,892,576,23
7692,3836,3988,1340,892,576,24
7692,3836,3988,1340,892,576,23
7692,3840,3988,1340,892,576,23
7696,3840,3988,1340,892,576,24
7696,3844,3992,1340,892,576,23
7696,3844,3992,1340,892,576,23
7696,3844,3992,1340,892,576,24
7696,3844,3992,1340,892,576,23
7700,3848,3996,1340,892,576,23
7700,3848,3996,1340,892,576,24
7696,3848,3996,1340,892,576,23
7696,3848,3996,1340,892,576,24
7704,3852,4000,1340,892,576,23
7700,3852,3996,1344,892,576,23
7700,3852,4000,1340,892,576,24
7696,3848,3996,1340,892,576,23
7696,3848,3996,1340,892,576,23
7692,3844,3992,1340,892,576,24
7688,3840,3988,1344,892,576,23
7688,3836,3988,1344,892,576,23
7688,3832,3984,1340,892,576,24
7684,3828,3980,1344,892,576,23
7684,3828,3984,1340,892,576,23
7688,3828,3984,1344,892,576,24
7688,3828,3984,1340,892,576,23
7684,3828,3980,1340,892,576,23
7688,3832,3984,1340,892,576,24
7684,3828,3980,1340,892,576,23
7680,3828,3980,1340,892,576,24
7684,3828,3980,1340,892,576,23
7680,3824,3980,1340,892,576,23
7680,3824,3980,1340,892,576,24
7684,3828,3980,1340,892,576,23
7688,3828,3980,1340,892,576,23
7688,3828,3980,1340,892,576,24
7688,3832,3984,1340,892,576,23
7684,3828,3984,1340,892,576,23
7684,3832,3984,1340,892,576,24
7684,3832,3984,1340,892,576,23
7684,3832,3984,1340,892,576,23
7684,3832,3984,1340,892,576,24
7684,3832,3984,1340,892,576,23
7688,3836,3984,1340,892,576,24
7688,3836,3988,1340,892,576,23
7692,3840,3988,1340,892,576,23
7688,3840,3988,1340,892,576,24
7688,3840,3988,1340,892,576,23
7688,3840,3988,1340,892,576,23
7692,3844,3992,1340,892,576,24
7692,3844,3992,1340,892,576,23
7688,3840,3988,1340,892,576,23
7684,3836,3988,1340,892,576,24
7676,3832,3984,1340,892,576,23
7680,3828,3980,1340,892,576,23
7676,3824,3976,1340,892,576,24
7672,3820,3972,1340,892,576,23
7668,3816,3972,1340,892,576,24
7672,3816,3972,1340,892,576,23
7672,3816,3972,1340,892,576,23
7672,3816,3972,1340,892,576,24
7672,3816,3972,1340,892,576,23
7672,3820,3972,1340,892,576,23
7672,3816,3972,1340,892,576,24
7672,3816,3972,1340,892,576,23
7672,3820,3972,1340,892,576,23
7676,3816,3972,1340,892,576,24
7672,3816,3972,1340,892,576,23
7668,3816,3968,1340,892,576,23
7668,3816,3968,1340,892,576,24
7668,3816,3972,1340,892,576,23
7672,3820,3972,1340,892,576,24
7668,3816,3972,1340,892,576,23
7668,3820,3972,1340,892,576,23
7668,3820,3972,1340,892,576,24
7668,3820,3972,1340,892,576,23
7672,3824,3972,1340,892,576,23
7672,3824,3976,1344,892,576,24
7672,3824,3976,1340,892,576,23
7672,3828,3976,1340,892,576,23
7672,3828,3976,1340,892,576,24
7668,3824,3976,1340,892,576,23
7672,3828,3976,1340,892,576,23
7676,3832,3980,1340,892,576,24
7676,3832,3980,1340,892,576,23
7676,3832,3980,1344,892,576,23
7672,3828,3976,1340,892,576,24
7672,3828,3980,1340,892,576,23
7672,3828,3976,1344,892,576,24
7668,3820,3972,1340,892,576,23
7668,3816,3972,1340,892,576,23
7664,3812,3968,1340,892,576,24
7660,3808,3964,1340,892,576,23
7660,3808,3964,1340,892,576,23
7664,3808,3964,1340,892,576,24
7664,3812,3968,1340,892,576,23
7664,3812,3968,1340,892,576,23
7668,3812,3968,1340,892,576,24
7664,3812,3968,1340,892,576,23
7672,3816,3968,1340,892,576,24
7668,3812,3968,1340,892,576,23
7664,3812,3964,1340,892,576,23
7664,3808,3964,1340,892,576,24
7664,3812,3964,1340,892,576,23
7664,3808,3968,1340,892,576,23
7668,3812,3968,1340,892,576,24
7664,3812,3968,1340,892,576,23
7668,3816,3972,1340,892,576,23
7664,3812,3968,1340,892,576,24
7672,3816,3972,1340,892,576,23
7672,3820,3976,1340,892,576,23
7676,3820,3976,1340,892,576,24
7676,3824,3976,1340,892,576,23
7680,3824,3980,1340,892,576,24
7676,3824,3980,1340,888,572,23
7680,3828,3980,1340,892,572,23
7680,3828,3980,1340,892,576,24
7676,3828,3980,1340,892,576,23
7680,3832,3984,1340,892,576,23
7680,3832,3984,1340,892,576,24
7680,3828,3984,1340,892,576,23
7672,3828,3976,1340,892,576,23
7672,3824,3976,1340,892,576,24
7668,3816,3972,1340,892,576,23
7668,3812,3968,1340,892,576,23
7664,3812,3968,1340,892,576,24
7664,3808,3968,1340,892,576,23
7664,3808,3968,1340,892,576,23
7664,3808,3968,1344,892,576,24
7668,3812,3972,1340,892,576,23
7672,3812,3972,1340,892,576,24
7668,3812,3972,1340,892,576,23
7668,3816,3972,1340,892,576,23
7668,3812,3968,1340,892,576,24
7668,3812,3968,1340,892,576,23
7672,3816,3972,1340,892,576,23
7672,3812,3972,1340,892,576,24
7676,3816,3972,1340,892,576,23
7668,3812,3972,1340,892,576,23
7676,3816,3972,1340,892,576,24
7672,3816,3972,1340,892,576,23
7676,3820,3976,1340,892,576,23
7676,3820,3976,1340,892,576,24
7676,3820,3976,1340,892,576,23
7676,3824,3976,1340,892,576,24
7680,3824,3980,1340,892,576,23
7684,3828,3980,1340,892,576,23
7680,3828,3980,1340,892,576,24
7680,3828,3980,1344,892,576,23
7680,3828,3980,1340,892,576,23
7684,3832,3984,1344,892,576,24
7680,3828,3984,1344,892,576,23
7688,3836,3988,1340,892,576,23
7684,3832,3984,1340,892,576,24
7680,3828,3980,1344,892,576,23
7676,3824,3976,1340,892,576,23
7672,3816,3976,1340,892,576,24
7676,3816,3972,1344,892,576,23
7672,3808,3968,1340,892,576,24
7672,3808,3968,1340,892,576,23
7668,3808,3964,1344,892,576,23
7672,3804,3964,1340,892,576,24
7672,3808,3968,1340,892,576,23
7676,3808,3968,1340,892,576,23
7676,3808,3968,1340,892,576,24
7672,3808,3968,1340,888,576,23
7680,3812,3972,1340,892,576,23
7676,3808,3972,1344,892,576,24
7676,3808,3968,1340,892,576,23
7676,3808,3968,1344,892,576,23
7680,3808,3972,1340,892,576,24
7672,3808,3968,1340,892,576,23
7672,3808,3968,1340,892,576,24
7672,3808,3968,1340,892,576,23
7676,3808,3968,1340,892,576,23
7676,3812,3972,1340,892,576,24
7680,3816,3972,1340,892,576,23
7676,3812,3972,1340,892,576,23
7680,3816,3976,1340,892,572,24
7680,3816,3972,1340,892,576,23
7676,3816,3972,1340,892,572,23
7676,3816,3972,1340,888,572,24
7680,3816,3976,1340,888,572,23
7684,3820,3976,1340,892,572,23
7680,3820,3976,1340,888,572,24
7684,3820,3976,1340,888,572,23
7684,3824,3976,1340,892,572,24
7676,3820,3976,1340,888,572,23
7676,3816,3972,1340,892,572,23
7672,3812,3972,1340,888,572,24
7664,3804,3964,1340,892,572,23
7668,3800,3960,1340,888,572,23
7668,3796,3960,1340,888,572,24
7664,3792,3956,1340,888,572,23
7664,3792,3956,1340,888,572,23
7664,3792,3956,1340,888,572,24
7668,3796,3960,1340,888,572,23
7672,3796,3960,1340,888,572,23
7668,3796,3960,1340,888,572,24
7664,3796,3956,1340,888,572,23
7672,3796,3960,1340,888,572,24
7668,3796,3956,1340,888,572,23
7672,3796,3960,1340,888,572,23
7672,3796,3960,1340,888,572,24
7668,3792,3960,1340,888,572,23
7668,3792,3956,1340,888,572,23
7672,3792,3960,1340,888,572,24
7668,3796,3960,1340,888,572,23
7668,3796,3956,1340,888,572,23
7668,3796,3956,1340,888,572,24
7672,3796,3960,1340,888,572,23
7668,3796,3960,1340,888,572,23
7664,3796,3956,1340,888,572,24
7664,3796,3956,1340,888,572,23
7664,3796,3960,1340,888,572,23
7664,3800,3960,1340,888,576,24
7664,3800,3960,1340,888,572,23
7668,3800,3960,1340,888,572,24
7664,3800,3960,1340,888,572,23
7668,3804,3964,1340,888,572,23
7668,3804,3960,1340,888,572,24
7672,3808,3964,1340,888,572,23
7668,3804,3964,1340,892,576,23
7672,3804,3964,1340,888,572,24
7672,3800,3960,1340,888,572,23
7668,3796,3956,1340,892,576,23
7668,3792,3956,1340,888,572,24
7668,3788,3956,1340,888,572,23
7668,3788,3952,1340,888,572,23
7664,3784,3952,1340,888,572,24
7664,3784,3952,1340,888,572,23
7660,3784,3948,1340,888,572,24
7660,3780,3948,1340,888,572,23
7660,3780,3948,1340,888,572,23
7660,3780,3948,1340,888,572,24
7656,3776,3944,1340,888,572,23
7656,3776,3944,1340,888,572,23
7656,3776,3944,1340,888,572,24
7664,3776,3948,1340,888,572,23
7660,3776,3944,1340,888,572,23
7656,3776,3944,1340,888,572,24
7660,3776,3948,1340,888,572,23
7660,3776,3944,1340,888,572,23
7664,3780,3948,1340,888,572,24
7660,3780,3948,1340,888,572,23
7660,3780,3948,1340,888,572,24
7656,3780,3944,1340,888,572,23
7656,3780,3944,1340,888,572,23
7660,3784,3948,1340,888,572,24
7660,3784,3948,1340,888,572,23
7656,3784,3948,1340,888,572,23
7660,3784,3948,1340,888,572,24
7664,3788,3952,1340,888,572,23
7664,3788,3952,1340,888,572,23
7660,3788,3952,1340,888,572,24
7660,3788,3948,1340,888,572,23
7656,3784,3948,1340,888,572,23
7660,3784,3948,1340,888,572,24
7656,3776,3944,1340,888,572,23
7652,3772,3940,1340,888,572,24
7652,3768,3940,1340,888,572,23
7648,3764,3936,1340,888,572,23
7648,3760,3932,1340,888,572,24
7648,3760,3932,1340,888,572,23
7648,3760,3932,1340,888,572,23
7648,3760,3932,1340,888,572,24
7648,3760,3932,1340,888,572,23
7648,3760,3932,1340,888,572,23
7644,3760,3932,1340,888,572,24
7648,3760,3932,1340,888,572,23
7648,3760,3932,1340,888,572,23
7648,3756,3932,1344,888,576,24
7644,3756,3928,1340,888,572,23
7644,3756,3928,1340,888,572,23
7640,3752,3928,1340,888,572,24
7640,3756,3928,1340,888,572,23
7644,3756,3932,1340,888,572,24
7648,3760,3932,1340,888,572,23
7648,3760,3932,1340,888,572,23
7648,3760,3932,1340,888,572,24
7648,3760,3932,1340,888,572,23
7648,3760,3932,1340,888,572,23
7652,3764,3936,1340,888,572,24
7648,3764,3936,1340,888,572,23
7652,3764,3936,1340,888,572,23
7652,3768,3936,1340,888,572,24
7652,3768,3940,1340,888,572,23
7652,3764,3936,1340,888,572,23
7652,3764,3936,1340,888,572,24
7648,3764,3936,1340,888,572,23
7648,3756,3932,1344,888,576,24
7648,3752,3928,1340,888,572,23
7644,3748,3928,1340,888,572,23
7640,3744,3924,1344,888,576,24
7640,3744,3924,1340,888,572,23
7644,3744,3928,1340,888,572,23
7648,3748,3928,1340,888,572,24
7648,3748,3928,1340,888,572,23
7648,3752,3928,1340,888,572,23
7644,3752,3928,1340,888,572,24
7644,3752,3928,1340,888,572,23
7644,3752,3928,1340,888,572,23
7648,3752,3928,1340,888,572,24
7648,3752,3928,1340,888,572,23
7648,3752,3928,1340,888,572,24
7648,3752,3928,1340,888,572,23
7652,3756,3932,1340,888,572,23
7652,3756,3932,1340,888,572,24
7656,3760,3932,1340,888,572,23
7656,3760,3936,1340,888,572,23
7652,3760,3932,1340,888,572,24
7656,3764,3936,1340,888,572,23
7656,3764,3940,1340,888,572,23
7660,3768,3940,1340,888,572,24
7656,3768,3940,1340,888,572,23
7656,3768,3940,1340,888,572,23
7656,3768,3940,1340,888,572,24
7656,3768,3940,1340,888,572,23
7656,3768,3940,1340,888,572,23
7652,3768,3936,1340,888,572,24
7656,3764,3936,1340,888,572,23
7652,3760,3936,1340,888,572,24
7652,3756,3932,1340,888,572,23
7644,3748,3928,1340,888,572,23
7644,3748,3928,1340,888,572,24
7644,3748,3924,1340,888,572,23
7644,3748,3924,1340,888,572,23
7648,3748,3928,1340,888,572,24
7652,3752,3928,1340,888,572,23
7652,3752,3928,1340,888,572,23
7652,3752,3928,1340,888,572,24
7648,3752,3928,1340,888,572,23
7648,3752,3928,1340,888,572,23
7648,3748,3928,1340,888,572,24
7644,3748,3928,1340,888,572,23
7648,3752,3928,1340,888,572,24
7644,3748,3924,1340,888,572,23
7648,3752,3928,1340,888,572,23
7648,3756,3932,1340,888,572,24
7652,3756,3932,1340,888,572,23
7652,3760,3932,1340,888,572,23
7652,3760,3932,1340,888,572,24
7656,3764,3936,1340,888,572,23
7656,3764,3936,1340,888,572,23
7652,3764,3936,1340,888,572,24
7656,3768,3936,1340,888,572,23
7652,3768,3940,1340,888,572,23
7656,3768,3940,1340,888,572,24
7652,3768,3936,1340,888,572,23
7652,3768,3940,1340,888,572,24
7652,3768,3940,1340,888,572,23
7656,3768,3940,1340,888,572,23
7652,3764,3936,1344,888,576,24
7652,3760,3936,1340,888,572,23
7652,3756,3932,1344,888,576,23
7644,3748,3928,1344,888,572,24
7644,3744,3924,1340,888,572,23
7644,3744,3924,1340,888,572,23
7644,3744,3924,1340,888,572,24
7652,3748,3928,1340,888,572,23
7644,3748,3924,1340,888,572,23
7648,3748,3928,1340,888,572,24
7648,3752,3928,1340,888,572,23
7648,3752,3928,1340,888,572,24
7652,3752,3928,1340,888,572,23
7652,3752,3928,1340,888,572,23
7648,3752,3928,1340,888,572,24
7648,3748,3924,1340,888,572,23
7648,3752,3928,1340,888,572,23
7644,3748,3924,1340,888,572,24
7640,3748,3924,1340,888,572,23
7648,3752,3928,1340,888,572,23
7652,3756,3932,1340,888,572,24
7652,3760,3932,1340,888,572,23
7660,3764,3936,1340,888,572,23
7656,3760,3932,1340,888,572,24
7656,3764,3936,1340,888,572,23
7660,3768,3940,1340,888,572,24
7660,3768,3940,1340,888,572,23
7660,3772,3940,1340,888,572,23
7664,3772,3944,1340,888,572,24
7664,3772,3940,1344,888,572,23
7664,3776,3944,1340,888,572,23
7664,3776,3944,1340,888,572,24
7664,3776,3944,1340,888,572,23
7656,3772,3940,1340,888,572,23
7660,3772,3944,1340,888,572,24
7652,3764,3936,1340,888,572,23
7648,3756,3928,1340,888,572,23
7648,3752,3928,1340,888,572,24
7648,3752,3928,1340,888,572,23
7648,3752,3928,1344,888,576,24
7648,3748,3924,1344,888,572,23
7648,3752,3928,1340,888,572,23
7644,3748,3928,1344,888,572,24
7648,3752,3928,1344,888,572,23
7648,3752,3928,1344,888,572,23
7656,3756,3932,1340,888,572,24
7652,3756,3932,1344,888,572,23
7648,3752,3928,1344,888,572,23
7648,3752,3928,1340,888,572,24
7644,3752,3928,1340,888,572,23
7648,3752,3928,1340,888,572,23
7652,3756,3932,1344,888,572,24
7652,3756,3932,1340,888,572,23
7652,3760,3932,1344,888,572,24
7656,3764,3936,1340,888,572,23
7656,3764,3936,1340,888,572,23
7656,3764,3936,1340,888,572,24
7652,3764,3936,1340,888,572,23
7652,3764,3932,1340,888,572,23
7652,3768,3936,1344,888,576,24
7652,3768,3936,1344,888,572,23
7660,3772,3940,1344,888,572,23
7652,3768,3940,1340,888,572,24
7652,3768,3936,1344,888,572,23
7652,3768,3936,1344,888,572,23
7652,3772,3936,1344,888,576,24
7652,3772,3940,1344,892,576,23
7652,3772,3936,1344,892,576,24
7652,3772,3940,1344,892,576,23
7652,3772,3940,1344,892,576,23
7644,3764,3932,1344,892,576,24
7640,3756,3928,1344,888,576,23
7640,3752,3924,1344,888,576,23
7636,3748,3924,1344,888,576,24
7640,3748,3920,1340,888,572,23
7640,3748,3924,1340,888,572,23
7640,3748,3924,1340,888,572,24
7640,3748,3924,1340,888,572,23
7644,3752,3928,1344,888,576,23
7648,3752,3928,1344,888,572,24
7648,3756,3928,1344,888,572,23
7648,3756,3932,1344,888,572,24
7644,3752,3928,1344,888,576,23
7644,3752,3928,1344,888,576,23
7644,3752,3928,1344,888,572,24
7640,3752,3924,1340,888,572,23
7640,3752,3924,1344,888,572,23
7640,3752,3924,1344,888,576,24
7640,3752,3924,1344,892,576,23
7644,3752,3928,1344,888,576,23
7644,3756,3928,1344,888,576,24
7644,3756,3928,1344,888,576,23
7644,3756,3928,1340,888,572,24
7644,3760,3928,1344,888,576,23
7648,3760,3928,1344,888,576,23
7644,3760,3928,1344,888,576,24
7644,3760,3932,1344,888,576,23
7640,3760,3928,1344,888,576,23
7644,3764,3932,1344,888,576,24
7644,3764,3932,1344,888,576,23
7648,3764,3932,1344,888,576,23
7648,3764,3936,1344,888,576,24
7648,3764,3932,1344,888,576,23
7644,3764,3932,1344,888,576,23
7644,3764,3932,1344,888,576,24
7644,3760,3928,1344,892,576,23
7640,3752,3928,1344,892,576,24
7636,3748,3920,1344,888,576,23
7636,3744,3920,1344,892,576,23
7636,3744,3920,1344,888,576,24
7636,3744,3920,1344,888,576,23
7640,3748,3924,1344,888,576,23
7636,3748,3920,1344,888,576,24
7640,3752,3924,1344,888,576,23
7644,3752,3928,1340,888,572,23
7644,3752,3928,1340,888,572,24
7644,3756,3932,1340,888,572,23
7644,3752,3928,1340,888,572,23
7644,3752,3928,1340,888,572,24
7644,3752,3928,1340,888,572,23
7644,3752,3928,1340,888,572,23
7648,3756,3932,1340,888,572,24
7648,3756,3928,1340,888,572,23
7648,3756,3932,1340,888,572,24
7648,3760,3932,1340,888,572,23
7644,3760,3932,1340,888,572,23
7652,3764,3936,1340,888,572,24
7648,3764,3936,1340,888,572,23
7652,3768,3936,1340,888,572,23
7652,3768,3936,1340,888,572,24
7652,3768,3936,1340,888,572,23
7652,3772,3940,1340,888,572,23
7652,3772,3940,1340,888,572,24
7652,3772,3940,1340,888,572,23
7652,3772,3940,1340,888,572,23
7648,3768,3936,1340,888,576,24
7644,3764,3932,1340,888,576,23
7640,3760,3932,1344,888,576,24
7640,3756,3928,1340,888,576,23
7636,3748,3924,1340,888,576,23
7636,3748,3924,1340,888,576,24
7640,3752,3924,1340,888,572,23
7640,3752,3924,1340,888,572,23
7640,3752,3924,1340,888,572,24
7640,3752,3928,1344,888,576,23
7644,3756,3928,1344,888,576,23
7648,3756,3932,1340,888,572,24
7648,3756,3932,1340,888,572,23
7644,3756,3928,1344,888,576,23
7644,3756,3932,1340,888,572,24
7644,3756,3928,1340,888,572,23
7644,3756,3928,1340,888,572,24
7648,3756,3932,1340,888,572,23
7648,3760,3932,1340,888,576,23
7652,3760,3932,1344,892,576,24
7648,3760,3932,1344,888,576,23
7648,3764,3932,1340,888,576,23
7648,3764,3932,1340,888,572,24
7652,3768,3936,1340,888,576,23
7656,3768,3936,1344,888,576,23
7656,3768,3940,1340,888,576,24
7656,3772,3940,1344,888,576,23
7656,3772,3940,1344,892,576,23
7660,3776,3944,1344,892,576,24
7656,3776,3940,1344,892,576,23
7660,3776,3944,1340,888,576,24
7660,3780,3944,1340,888,576,23
7660,3776,3944,1340,888,576,23
7656,3772,3940,1344,892,576,24
7652,3768,3936,1344,892,576,23
7652,3764,3936,1344,892,576,23
7652,3760,3932,1344,892,576,24
7644,3752,3928,1344,888,576,23
7644,3752,3928,1340,888,576,23
7644,3748,3924,1344,888,576,24
7640,3748,3924,1344,888,576,23
7640,3752,3924,1344,888,576,23
7640,3748,3924,1340,888,576,24
7644,3752,3928,1344,888,576,23
7640,3752,3928,1340,888,576,24
7648,3752,3928,1340,888,576,23
7640,3752,3924,1340,888,576,23
7636,3748,3924,1340,888,576,24
7644,3752,3928,1340,888,572,23
7644,3752,3928,1340,888,576,23
7648,3752,3928,1344,892,576,24
7644,3752,3928,1344,888,576,23
7648,3756,3928,1344,892,576,23
7644,3756,3932,1344,888,576,24
7644,3756,3928,1344,888,576,23
7644,3760,3932,1344,892,576,23
7648,3760,3932,1340,888,576,24
7644,3760,3932,1340,888,576,23
7648,3764,3936,1340,888,576,23
7648,3764,3932,1344,892,576,24
7648,3764,3936,1344,892,576,23
7652,3768,3936,1344,892,576,24
7656,3768,3940,1344,892,576,23
7652,3768,3936,1344,892,576,23
7652,3768,3940,1344,892,576,24
7652,3768,3936,1344,892,576,23
7648,3768,3936,1344,892,576,23
7648,3764,3936,1344,892,576,24
7644,3760,3932,1344,892,576,23
7644,3756,3928,1344,892,576,23
7644,3752,3928,1344,892,576,24
7640,3748,3924,1344,892,576,23
7640,3748,3924,1344,888,576,23
7640,3748,3924,1344,888,576,24
7640,3748,3924,1344,888,576,23
7640,3748,3924,1340,888,572,24
7648,3752,3928,1340,888,576,23
7644,3752,3928,1340,888,572,23
7640,3748,3924,1344,888,576,24
7636,3744,3920,1344,888,576,23
7636,3744,3920,1344,888,576,23
7636,3744,3920,1344,888,576,24
7636,3744,3920,1344,888,576,23
7640,3748,3924,1344,888,576,23
7632,3744,3920,1344,888,576,24
7636,3748,3920,1344,888,576,23
7636,3748,3920,1344,888,576,23
7636,3748,3924,1344,888,576,24
7632,3748,3924,1344,888,576,23
7636,3752,3924,1344,888,576,24
7636,3752,3928,1344,888,576,23
7636,3752,3928,1344,888,576,23
7636,3756,3928,1344,888,576,24
7640,3760,3928,1344,888,576,23
7640,3760,3932,1344,888,576,23
7640,3760,3932,1344,892,576,24
7640,3760,3932,1340,888,576,23
7644,3764,3932,1344,892,576,23
7648,3768,3936,1344,892,576,24
7648,3768,3936,1344,892,576,23
7644,3764,3932,1344,892,576,23
7636,3760,3928,1344,892,576,24
7632,3756,3924,1344,892,576,23
7628,3748,3920,1344,892,576,24
7624,3744,3916,1344,892,576,23
7628,3744,3920,1344,892,576,23
7628,3740,3916,1344,888,576,24
7624,3740,3916,1344,888,576,23
7628,3740,3916,1344,888,576,23
7632,3740,3916,1344,888,576,24
7632,3744,3920,1344,888,576,23
7628,3744,3920,1344,888,576,23
7628,3740,3916,1344,892,576,24
7624,3740,3916,1344,888,576,23
7628,3740,3916,1344,892,576,23
7628,3740,3916,1344,888,576,24
7628,3740,3916,1344,888,576,23
7624,3740,3916,1344,888,576,24
7628,3740,3916,1344,888,576,23
7624,3740,3912,1344,888,576,23
7624,3740,3916,1344,888,576,24
7624,3740,3916,1344,888,576,23
7628,3744,3916,1344,888,576,23
7624,3744,3916,1344,888,576,24
7624,3744,3916,1344,888,576,23
7624,3744,3920,1340,888,576,23
7624,3744,3916,1340,888,576,24
7624,3748,3920,1344,892,576,23
7628,3748,3920,1344,888,576,23
7628,3748,3920,1340,888,576,24
7632,3752,3924,1340,888,576,23
7628,3752,3924,1344,888,576,24
7632,3752,3924,1344,892,576,23
7636,3756,3928,1344,888,576,23
7632,3756,3924,1344,892,576,24
7628,3752,3924,1344,892,576,23
7624,3748,3920,1340,888,576,23
7624,3744,3920,1340,888,576,24
7620,3740,3916,1344,892,576,23
7620,3736,3916,1340,888,576,23
7616,3732,3912,1340,888,576,24
7616,3732,3908,1340,888,576,23
7620,3736,3912,1340,888,576,23
7624,3736,3912,1340,888,576,24
7620,3736,3912,1344,888,576,23
7616,3736,3912,1344,888,576,23
7616,3736,3912,1340,888,576,24
7616,3736,3912,1344,888,576,23
7616,3736,3912,1344,888,576,24
7616,3736,3912,1344,888,576,23
7616,3736,3916,1340,888,576,23
7620,3740,3916,1344,892,576,24
7624,3740,3916,1344,888,576,23
7620,3740,3912,1344,892,576,23
7620,3740,3916,1340,888,576,24
7624,3744,3920,1340,888,576,23
7624,3744,3920,1344,888,576,23
7624,3744,3920,1344,888,576,24
7624,3744,3920,1344,892,576,23
7620,3748,3920,1344,892,576,23
7620,3748,3920,1344,892,576,24
7620,3748,3920,1344,892,576,23
7624,3752,3924,1344,892,576,24
7628,3752,3924,1344,892,576,23
7628,3756,3928,1344,892,576,23
7628,3756,3928,1344,892,576,24
7624,3756,3924,1344,892,576,23
7620,3752,3924,1344,892,576,23
7616,3748,3920,1344,892,576,24
7612,3744,3916,1344,892,576,23
7612,3740,3916,1344,892,576,23
7612,3736,3916,1344,892,576,24
7608,3736,3912,1344,892,576,23
7612,3736,3912,1344,888,576,23
7612,3736,3912,1344,888,576,24
7612,3732,3912,1340,888,576,23
7612,3736,3912,1340,888,576,24
7612,3736,3916,1340,888,576,23
7612,3736,3912,1344,888,576,23
7616,3740,3916,1344,888,576,24
7616,3740,3916,1344,888,576,23
7612,3740,3912,1344,892,576,23
7612,3740,3916,1344,888,576,24
7612,3740,3916,1344,888,576,23
7612,3740,3916,1340,888,576,23
7620,3740,3916,1340,888,576,24
7612,3740,3916,1340,888,576,23
7616,3744,3920,1340,888,576,23
7612,3740,3916,1340,888,576,24
7620,3748,3920,1340,888,572,23
7620,3748,3920,1340,888,576,24
7620,3748,3924,1340,888,576,23
7624,3752,3924,1340,888,576,23
7624,3752,3924,1340,888,576,24
7624,3756,3928,1340,888,576,23
7624,3756,3928,1340,888,576,23
7624,3756,3928,1340,888,576,24
7624,3756,3928,1340,888,576,23
7624,3756,3928,1340,888,576,23
7624,3760,3928,1340,888,576,24
7624,3760,3928,1344,892,576,23
7624,3760,3932,1344,892,576,23
7624,3760,3928,1340,888,576,24
7624,3760,3928,1340,892,576,23
7620,3756,3924,1340,892,576,23
7612,3748,3920,1340,892,576,24
7608,3744,3916,1340,892,576,23
7608,3740,3916,1340,888,576,24
7608,3740,3916,1340,888,576,23
7612,3740,3916,1340,888,576,23
7608,3736,3912,1340,888,576,24
7608,3736,3916,1340,888,576,23
7608,3740,3916,1340,888,576,23
7612,3740,3916,1340,888,576,24
7612,3740,3916,1340,888,572,23
7608,3740,3916,1340,888,572,23
7608,3740,3916,1340,888,576,24
7612,3740,3916,1340,888,576,23
7604,3740,3912,1340,888,576,23
7608,3740,3916,1344,892,576,24
7608,3740,3916,1340,888,576,23
7608,3744,3916,1340,888,572,24
7616,3744,3920,1340,888,572,23
7612,3748,3920,1340,888,576,23
7616,3748,3920,1340,888,572,24
7620,3752,3924,1340,888,572,23
7616,3752,3924,1340,888,576,23
7620,3752,3924,1340,888,572,24
7620,3752,3924,1340,888,572,23
7616,3756,3924,1340,888,576,23
7620,3756,3928,1340,888,576,24
7624,3760,3928,1340,888,576,23
7624,3760,3932,1340,892,576,23
7624,3760,3928,1340,888,576,24
7628,3764,3932,1340,888,576,23
7624,3760,3928,1340,888,576,24
7624,3764,3928,1340,888,576,23
7628,3764,3936,1340,892,576,23
7620,3760,3928,1340,892,576,24
7620,3760,3932,1340,888,576,23
7616,3756,3928,1340,888,576,23
7612,3748,3920,1340,892,576,24
7608,3744,3916,1344,892,576,23
7608,3740,3916,1340,888,576,23
7608,3740,3916,1340,888,576,24
7612,3740,3916,1340,888,576,23
7608,3740,3916,1340,888,576,23
7612,3744,3920,1340,888,576,24
7612,3744,3920,1340,888,576,23
7612,3744,3920,1340,888,576,24
7608,3740,3916,1340,888,576,23
7608,3740,3916,1340,888,576,23
