384044,784742,941839,387490.75,787548.75,943978.81
381659,784206,941567,387780.59,787621.63,944027.56
379749,783610,941160,387997.13,787660.94,944052.38
377448,783281,940980,388128.94,787666.44,944053.50
376845,783364,941137,388173.63,787640.00,944032.81
376937,783496,941185,388133.13,787585.50,943993.25
376991,783487,941176,388015.44,787507.19,943937.63
377150,783862,941582,387831.06,787409.38,943869.00
377275,783904,941588,387590.06,787296.44,943791.13
377374,783870,941808,387301.88,787171.81,943706.50
377349,784390,941937,386972.75,787038.38,943617.75
377727,784288,941843,386608.84,786899.56,943526.63
378191,784346,941973,386220.94,786757.94,943434.13
378466,784510,942442,385819.44,786615.50,943341.63
379203,784879,942302,385412.09,786474.63,943250.63
379784,785103,942375,385006.81,786338.44,943163.00
379829,785066,942503,384609.81,786208.63,943080.00
380140,785163,942357,384224.69,786086.13,943002.00
380252,785149,942331,383854.06,785971.38,942928.69
380285,784926,942215,383500.25,785863.94,942859.38
380386,785070,942451,383164.47,785762.69,942794.00
380004,784899,942322,382846.84,785667.38,942732.88
380369,785068,942369,382547.06,785578.13,942676.00
380450,785064,942450,382265.94,785495.38,942623.75
380916,785424,942671,382004.44,785419.75,942576.50
381333,785472,942677,381763.94,785352.50,942535.13
381585,785661,942878,381547.38,785294.25,942499.88
382521,786251,943293,381356.91,785245.63,942471.75
383028,786336,943402,381194.91,785207.81,942451.63
383741,786696,943534,381064.88,785182.50,942440.63
384239,786828,944226,380969.25,785170.88,942438.88
385431,787305,944017,380910.06,785173.38,942446.63
385992,787582,944214,380889.75,785190.75,942464.69
386572,787813,944378,380909.13,785223.50,942493.25
387451,788210,944895,380966.16,785271.81,942532.88
388150,788339,944872,381059.38,785335.63,942583.69
388581,788384,944855,381190.88,785413.81,942645.13
388993,788562,945531,381361.00,785504.81,942716.00
389805,788881,945137,381567.75,785607.75,942795.31
390126,789065,945145,381809.63,785722.31,942882.31
390636,789036,945196,382084.31,785847.50,942975.75
391431,789383,945453,382389.31,785982.31,943074.81
391948,789478,945558,382723.16,786126.38,943179.38
392310,789623,945708,383084.50,786278.38,943289.19
392876,789981,946239,383471.38,786437.25,943403.69
393496,790100,946036,383881.75,786602.88,943522.50
393826,790036,946024,384313.81,786774.19,943645.25
393667,789533,945663,384763.94,786948.44,943770.50
391721,788034,944669,385225.38,787119.38,943893.63
389591,786997,943699,385684.41,787277.75,944008.13
387378,786061,943018,386120.31,787415.75,944107.38
381607,784393,942109,386513.19,787527.25,944187.13
379256,783608,941470,386841.19,787606.31,944243.75
377393,783211,941097,387081.56,787648.50,944274.38
376159,782943,941375,387224.00,787653.50,944278.69
374875,782992,941279,387268.75,787624.13,944259.25
374660,783045,941351,387219.50,787564.25,944220.00
374779,783326,941449,387084.75,787478.69,944164.38
374669,783591,941922,386874.13,787372.88,944095.63
374805,783386,941445,386596.78,787251.19,944016.13
374915,783384,941451,386264.38,787116.00,943927.50
374952,783425,941913,385887.81,786969.38,943831.38
374971,783415,941760,385475.31,786814.00,943730.00
375269,783548,941816,385034.88,786652.13,943625.75
375446,783711,941982,384574.41,786486.69,943520.75
376052,784156,942178,384101.31,786320.75,943416.81
376570,784241,942215,383623.44,786157.63,943315.69
376832,784256,942321,383148.94,785999.38,943218.50
376865,784318,942629,382683.44,785847.00,943125.56
377121,784375,942406,382230.34,785701.25,943036.88
377209,784360,942159,381792.69,785562.63,942952.88
377352,784273,942246,381372.91,785431.38,942873.56
377396,784357,942404,380972.63,785307.38,942799.13
377504,784525,942255,380592.97,785191.13,942729.88
377538,784444,942398,380234.94,785083.19,942665.88
378083,784977,942547,379899.44,784983.88,942607.13
378417,784878,942716,379588.22,784893.94,942554.38
378995,785087,942774,379304.69,784814.50,942508.56
379225,785291,943509,379051.50,784746.44,942470.38
380398,785810,943425,378831.00,784690.88,942441.06
380906,785955,943475,378646.59,784649.38,942421.75
381622,786057,943614,378500.75,784622.19,942412.50
382399,786861,944315,378393.19,784609.63,942413.63
383502,786983,944113,378324.63,784613.06,942425.75
384057,787174,944375,378299.22,784633.25,942449.13
384823,787377,944805,378319.31,784669.75,942483.50
385683,787797,944912,378384.81,784722.13,942528.81
386299,787861,944913,378495.59,784790.25,942585.38
386838,788110,944995,378650.31,784873.13,942652.44
387406,788408,945079,378846.19,784970.25,942728.81
388158,788420,945188,379080.75,785080.88,942813.50
388619,788516,945264,379352.97,785203.25,942905.50
388923,788788,945598,379660.78,785335.69,943004.00
389626,788978,945529,380001.00,785477.31,943108.06
389930,788988,945509,380371.00,785627.38,943217.13
390400,789130,945765,380767.84,785784.75,943330.75
391486,789579,946037,381189.09,785948.63,943448.88
391631,789748,946039,381633.19,786119.38,943571.50
392193,789795,946215,382098.44,786296.38,943698.25
392542,789718,946136,382582.88,786478.25,943828.00
392117,788956,945587,383082.41,786661.75,943958.75
390803,788100,944961,383588.13,786840.56,944085.94
388949,787062,943855,384086.31,787007.25,944204.56
384100,785067,942929,384556.19,787153.13,944308.63
381167,784265,942347,384971.16,787268.75,944391.75
378797,783550,942007,385310.69,787349.06,944450.63
375236,783030,941756,385562.56,787393.19,944484.88
374346,782796,941510,385718.31,787402.19,944495.25
373892,782709,941334,385775.44,787377.38,944482.75
373785,782849,941774,385739.56,787321.75,944449.13
373414,783185,941816,385619.94,787240.31,944397.69
373632,782948,941755,385426.13,787137.63,944332.50
373693,783137,941769,385168.44,787017.13,944256.25
373541,783145,941840,384856.75,786882.88,944170.88
373802,783178,941726,384499.88,786738.69,944078.13
373937,783197,941902,384106.41,786586.13,943979.50
374006,783620,942201,383684.56,786426.88,943876.88
374556,783711,942195,383242.25,786264.13,943772.13
374949,783806,942289,382787.97,786101.13,943667.69
375411,783914,942467,382329.72,785940.63,943565.50
375662,784151,942415,381873.94,785784.25,943466.88
375760,784184,942426,381425.44,785633.88,943372.19
375975,784137,942481,380988.06,785490.38,943281.75
376067,784079,942568,380565.31,785353.88,943195.75
376206,784061,942588,380159.75,785224.19,943114.44
376201,784053,942400,379772.81,785101.19,943038.06
376372,784092,943017,379405.44,784985.00,942966.25
376725,784305,942658,379059.25,784876.25,942899.06
377028,784351,942885,378736.50,784775.81,942837.88
377126,784457,942836,378438.69,784684.13,942783.63
377920,785033,943669,378166.25,784602.50,942737.38
378689,785286,943359,377921.50,784533.38,942700.50
379231,785482,943465,377709.47,784477.88,942673.19
379846,785759,944073,377533.53,784436.38,942655.19
380763,786173,943920,377395.69,784409.63,942647.19
381665,786450,944216,377298.63,784398.63,942649.69
382167,786662,944398,377244.19,784403.88,942663.13
382953,787119,944736,377231.69,784425.38,942687.88
383910,787254,944879,377261.00,784463.25,942724.44
384594,787506,945030,377334.09,784517.25,942772.50
385249,788054,945350,377451.69,784586.63,942831.25
386168,788145,945454,377613.00,784671.00,942900.38
386716,788292,945478,377817.31,784770.25,942979.50
387159,788411,945547,378062.59,784883.63,943067.75
387990,788658,945719,378345.31,785009.75,943163.88
388281,788691,945730,378662.41,785147.38,943267.25
388825,788675,945828,379012.13,785294.75,943376.63
389522,789050,946055,379392.38,785449.75,943491.13
389854,789127,946043,379800.56,785611.63,943610.06
390301,789278,946327,380234.13,785779.88,943733.25
390860,789432,946829,380690.75,785954.06,943860.19
391800,789677,946667,381168.94,786133.38,943990.63
392377,790050,946868,381668.13,786317.88,944125.00
392821,790184,946894,382186.91,786507.50,944263.38
393604,790745,947610,382722.25,786702.50,944405.56
394155,790703,947269,383271.88,786902.94,944551.69
394230,790233,946864,383834.78,787106.75,944699.94
393372,789496,946121,384406.06,787309.13,944846.50
389986,787594,945036,384971.28,787501.50,944985.50
387712,786451,944111,385508.97,787673.50,945109.31
385036,785434,943363,385999.00,787816.50,945211.63
379662,783929,942569,386424.31,787926.13,945288.38
377969,783464,942160,386766.44,787998.94,945336.88
376650,783224,942147,387009.50,788032.13,945357.19
375795,783368,942451,387149.13,788026.75,945351.88
374957,783299,942405,387189.31,787987.25,945324.63
374799,783371,942390,387136.56,787918.25,945278.94
374799,783568,942472,387000.06,787824.25,945217.69
374959,783664,942643,386790.03,787710.00,945143.63
375059,783610,942606,386516.88,787579.19,945059.63
375061,783523,942579,386191.25,787434.63,944967.63
374982,783792,942741,385822.13,787278.88,944869.19
375346,783721,942674,385417.53,787114.69,944766.31
375444,783955,942840,384986.13,786945.25,944660.63
375832,784058,943475,384536.00,786773.56,944553.75
376617,784337,943209,384075.69,786602.50,944447.88
376886,784477,943232,383613.84,786434.50,944344.75
376886,784342,943074,383156.44,786271.50,944245.38
377061,784611,943533,382707.06,786114.38,944150.13
377268,784650,943250,382269.00,785964.44,944060.38
377299,784596,943068,381845.38,785822.50,943975.44
377315,784671,943595,381438.13,785688.44,943894.38
377276,784643,943403,381048.38,785562.50,943817.94
377757,784621,943313,380677.69,785444.63,943746.88
378098,784637,943324,380328.81,785334.63,943681.13
378023,785196,943825,380003.88,785233.25,943621.38
378952,785416,943916,379704.63,785142.56,943569.38
379509,785422,943853,379434.34,785063.88,943525.69
380019,786288,944283,379196.25,784997.69,943490.13
381172,786374,944359,378993.25,784945.38,943463.38
381916,786501,944462,378829.25,784908.75,943446.06
382360,786670,944655,378706.53,784888.13,943438.38
383473,787107,945061,378624.22,784883.38,943440.88
384243,787411,945275,378582.50,784895.25,943454.63
384968,787742,945490,378585.06,784924.19,943480.06
385875,788254,945970,378633.72,784970.13,943517.19
386472,788323,945880,378727.75,785032.88,943565.81
386800,788561,946066,378866.25,785112.13,943625.63
387612,788623,946428,379047.44,785206.94,943696.19
388636,788916,946323,379270.38,785316.13,943776.63
389049,789025,946505,379534.63,785438.38,943866.25
389517,789161,946614,379837.56,785572.69,943964.56
390539,789691,947207,380175.78,785718.06,944071.00
390953,789660,946929,380547.00,785874.13,944185.13
391352,789826,946872,380949.75,786039.88,944305.75
391716,789916,947286,381381.31,786213.75,944431.06
392465,790301,947348,381838.56,786394.88,944560.50
393031,790451,947400,382319.63,786582.88,944694.50
393458,790456,947337,382822.44,786776.88,944832.25
393855,790958,947623,383344.00,786975.75,944972.88
394689,791048,947740,383882.13,787179.00,945116.13
395314,791292,947935,384435.81,787386.81,945261.94
395821,791876,948189,385003.94,787598.25,945410.00
396699,791830,948209,385585.31,787812.69,945560.13
397125,791884,948295,386178.94,788030.50,945711.88
397607,791968,948333,386783.19,788250.94,945864.50
398326,792390,948668,387394.50,788473.38,946017.88
399066,792567,948846,388010.91,788698.00,946172.38
399529,792871,949036,388633.75,788924.75,946328.38
400620,793467,949434,389263.69,789153.75,946485.56
401205,793520,949592,389900.38,789385.38,946644.13
401310,793622,949497,390543.50,789619.50,946804.56
401536,793243,948953,391190.19,789854.63,946965.75
399846,791419,948056,391833.25,790084.38,947123.25
398018,790183,947280,392459.25,790297.94,947270.06
395810,789072,946417,393051.84,790485.88,947399.50
390084,786973,945416,393594.25,790641.81,947507.25
387487,786340,944573,394064.13,790759.63,947588.88
385392,785852,944333,394437.25,790833.69,947640.75
383763,785696,944449,394701.31,790863.25,947662.50
382014,785563,944092,394854.16,790851.56,947656.25
381869,785711,944278,394898.06,790803.13,947625.13
382019,785796,944272,394842.06,790722.88,947572.88
381846,786246,944784,394698.44,790616.81,947503.50
382593,786295,944716,394479.84,790490.44,947421.25
382670,786418,944731,394198.94,790348.31,947329.13
382919,786843,945058,393866.88,790193.88,947228.88
383149,786633,944972,393493.69,790030.13,947123.00
383520,786658,945026,393088.75,789860.44,947013.63
383835,786913,945074,392661.25,789687.63,946902.56
384308,787146,945219,392217.56,789514.63,946791.25
384687,787173,945286,391763.84,789344.25,946681.44
384774,787319,945333,391309.00,789178.25,946574.19
385041,787377,945668,390860.13,789017.75,946470.63
385292,787431,945476,390421.56,788863.88,946371.88
385336,787417,945324,389996.63,788717.38,946277.81
385175,787289,945410,389587.06,788578.25,946188.25
385214,787250,945322,389193.63,788446.25,946102.94
385356,787163,945335,388817.38,788320.88,946022.13
385518,787349,945376,388459.94,788202.25,945945.75
385711,787622,945914,388122.50,788091.38,945875.13
385985,787749,945743,387806.19,787989.63,945811.75
386348,787873,945903,387513.28,787897.88,945755.88
386991,788084,946463,387246.75,787816.94,945707.38
387890,788652,946373,387010.00,787748.06,945667.13
388618,788819,946700,386807.19,787693.19,945636.50
389091,789062,946549,386640.91,787653.13,945616.50
389653,789664,946942,386511.75,787628.63,945606.56
390650,789673,946980,386420.59,787620.63,945606.94
391381,789957,947098,386370.13,787629.00,945617.50
391925,790596,947585,386361.88,787653.25,945637.75
393052,790689,947632,386396.38,787693.31,945668.13
393529,790865,947787,386474.31,787749.88,945708.88
394097,790981,947925,386594.88,787822.50,945760.13
394863,791304,948157,386754.59,787910.13,945821.38
395432,791588,948263,386950.59,788012.13,945892.25
395691,791683,948334,387183.09,788128.00,945972.13
396366,792120,948802,387451.06,788256.38,946059.81
397188,792028,948587,387752.50,788396.00,946154.50
397803,792363,948765,388086.91,788546.13,946255.81
398100,792311,948845,388452.63,788705.88,946363.25
398660,792482,948848,388846.53,788873.63,946475.69
399041,792581,948973,389265.69,789048.00,946592.31
399419,792730,949105,389707.25,789227.81,946712.75
400013,793125,949640,390167.78,789412.31,946837.25
400610,793117,949408,390645.00,789601.00,946966.25
401094,793180,949478,391138.31,789793.13,947098.63
401451,793463,949937,391646.38,789987.88,947232.69
402287,794021,950022,392167.47,790185.75,947368.50
402848,794220,950028,392701.00,790387.88,947506.75
403377,794461,950190,393246.19,790594.38,947647.50
403791,794552,950340,393801.06,790805.13,947790.38
404063,794302,950036,394363.19,791018.94,947934.38
403683,793485,949551,394928.91,791231.13,948076.44
402598,792013,948363,395491.06,791434.81,948212.50
398648,790657,947498,396034.06,791621.38,948336.50
396469,789834,947002,396535.75,791781.13,948441.63
394244,788945,946518,396978.06,791907.75,948524.00
390097,787819,945836,397347.00,791997.50,948581.63
388767,787674,945594,397628.78,792047.88,948613.19
388140,787480,945522,397816.00,792060.38,948619.25
386590,787869,945881,397910.38,792038.25,948602.25
387299,787858,945695,397918.22,791986.38,948565.25
387441,788136,945975,397848.00,791910.25,948511.88
387821,788323,946149,397710.31,791815.38,948445.88
388602,788732,946298,397517.16,791706.44,948370.31
388903,788716,946415,397280.53,791587.75,948288.25
389135,788745,946495,397010.25,791462.00,948202.06
389673,789383,946904,396714.03,791331.63,948114.13
390280,789454,946979,396400.03,791199.75,948027.00
390808,789648,947061,396077.34,791070.13,947942.38
391411,789821,947483,395754.09,790945.19,947861.44
391473,789884,947245,395435.97,790826.50,947785.13
391898,789889,947204,395126.81,790714.75,947713.75
391903,789891,947056,394829.53,790610.06,947646.75
391923,789920,947219,394544.44,790512.94,947583.88
391898,789707,946924,394270.97,790423.50,947524.88
391999,789687,946965,394011.19,790340.13,947469.00
391827,790004,947146,393766.56,790261.75,947415.94
391945,789796,947045,393537.00,790188.63,947366.19
392020,789899,947044,393322.63,790121.13,947319.88
392263,789963,947074,393124.19,790059.88,947277.00
393060,790382,947451,392941.94,790005.75,947238.38
393554,790635,947719,392777.94,789960.38,947205.63
394039,790764,947741,392637.09,789925.06,947180.00
394214,791257,948170,392522.91,789900.31,947161.63
395441,791592,948411,392437.31,789887.25,947151.50
396011,791735,948594,392383.00,789887.38,947151.13
396692,792060,948730,392361.81,789901.38,947160.94
397786,792568,948877,392375.50,789929.88,947180.56
398412,792644,948914,392426.34,789973.50,947209.81
398987,792862,949099,392514.94,790031.75,947248.38
399885,793346,949507,392640.34,790104.25,947296.38
400333,793489,949526,392801.78,790191.00,947354.25
400815,793586,949602,392998.72,790291.50,947421.38
401177,793601,950020,393229.50,790404.13,947496.38
401805,793728,949760,393491.91,790527.19,947578.38
402212,793845,949818,393783.94,790659.19,947666.50
402565,794000,950026,394103.28,790799.13,947760.38
403082,794345,950094,394445.53,790946.56,947859.56
403194,794299,950152,394806.38,791101.13,947963.38
403737,794404,950159,395185.22,791261.38,948071.00
404133,794918,950616,395581.94,791425.94,948181.25
404955,794867,950525,395995.47,791594.56,948293.88
405493,795084,950592,396425.53,791767.19,948409.13
405823,795313,950796,396871.13,791943.88,948527.06
406494,795229,950731,397330.19,792123.88,948647.38
406385,794991,950497,397800.16,792305.25,948768.50
405546,794184,949999,398276.06,792484.00,948887.56
401541,792315,948738,398748.06,792654.13,949000.63
400207,791318,947927,399199.06,792807.13,949101.88
398187,790348,947184,399607.88,792933.13,949184.00
396031,789645,946483,399958.09,793026.00,949242.63
392011,788688,946160,400235.13,793082.75,949276.63
390656,788442,945977,400424.38,793102.00,949284.75
389578,788205,945894,400520.50,793084.88,949268.00
388796,788613,946201,400526.25,793034.94,949229.25
388918,788654,946270,400448.06,792957.06,949172.44
389178,788732,946344,400295.44,792856.56,949101.06
389418,788908,946943,400079.25,792737.81,949018.00
389885,789302,946839,399810.88,792605.38,948926.50
389923,789288,946659,399500.56,792463.50,948829.50
390202,789332,946772,399157.00,792315.25,948728.50
390566,789653,946974,398786.25,792163.13,948625.25
391081,789740,946989,398395.00,792010.44,948521.63
391371,789917,946837,397993.63,791859.38,948418.63
391780,790395,947493,397591.03,791711.38,948316.69
391977,790187,947317,397192.75,791567.81,948217.38
392279,790161,947279,396803.19,791430.38,948122.38
392369,790081,947224,396425.84,791299.63,948032.38
392378,790006,947088,396062.88,791175.31,947946.81
392223,790027,947029,395715.13,791057.19,947865.13
392190,789893,947086,395382.78,790945.13,947787.25
391638,789991,947096,395066.31,790838.63,947713.00
392260,789893,947259,394766.44,790737.56,947643.00
392262,789903,947347,394483.44,790642.06,947578.13
392638,790132,947304,394218.06,790552.75,947518.63
393157,790399,947436,393972.50,790471.00,947464.25
393563,790600,947422,393749.56,790398.13,947415.44
393910,790739,947726,393551.31,790335.13,947373.00
394765,791438,947997,393378.94,790282.81,947338.00
395338,791491,948007,393234.56,790242.63,947311.50
396000,791655,948155,393121.72,790215.81,947293.38
396482,792078,948967,393042.88,790202.75,947284.00
397404,792231,948672,392999.22,790203.88,947283.94
397625,792581,948747,392991.63,790219.69,947293.69
398523,792647,948865,393020.06,790250.38,947313.00
399461,793044,949236,393084.03,790295.88,947341.88
399922,793133,949198,393183.28,790355.81,947380.50
400278,793309,949300,393318.50,790429.38,947428.13
400673,793892,949722,393488.88,790515.25,947483.56
401287,793585,949525,393692.19,790612.50,947545.81
401874,793757,949569,393927.19,790720.13,947614.75
402161,793841,949607,394192.19,790837.25,947689.88
403037,794168,949950,394484.63,790963.06,947770.75
403369,794228,949955,394802.50,791097.13,947857.50
403899,794404,949990,395145.22,791238.50,947949.38
404377,794815,950274,395511.38,791386.50,948045.38
404681,794687,950079,395898.56,791540.50,948144.38
404759,794294,950002,396303.88,791698.50,948245.63
403873,793579,949077,396721.75,791856.38,948347.13
401135,792013,948306,397139.56,792006.81,948444.19
399059,790772,947464,397538.88,792140.25,948529.63
396716,789789,946735,397901.94,792248.38,948597.44
392137,788766,945915,398213.44,792326.63,948643.50
390295,787986,945639,398456.34,792371.38,948665.19
388770,787804,945391,398615.38,792380.75,948662.25
387967,787797,945676,398685.03,792355.31,948635.94
387126,787812,945582,398668.06,792298.63,948588.69
387038,787803,945604,398570.00,792215.25,948524.38
386995,788109,945810,398399.13,792109.88,948446.63
387536,788429,946050,398165.13,791987.75,948358.75
387785,788489,945968,397878.69,791853.88,948263.75
387976,788463,946030,397551.06,791711.00,948163.31
388220,789026,946535,397191.88,791561.38,948059.00
388393,788955,946187,396809.06,791407.75,947952.63
389022,788946,946209,396410.38,791253.44,947845.75
389381,789142,946408,396003.88,791100.75,947739.69
389936,789557,946508,395596.31,790952.00,947636.13
390255,789601,946607,395193.34,790809.75,947536.50
390361,789606,946617,394800.44,790675.38,947441.63
390139,789908,946634,394420.88,790548.75,947351.75
390251,789350,946426,394055.75,790429.50,947266.25
390411,789343,946282,393706.03,790316.75,947184.63
390261,789116,946497,393372.66,790209.63,947106.44
389975,789195,946279,393055.34,790107.63,947031.69
390245,789183,946329,392753.75,790010.75,946960.44
390104,789154,946351,392468.41,789919.13,946892.88
390387,789726,946569,392199.97,789833.56,946829.63
390817,789727,946669,391949.94,789755.75,946771.75
391297,789882,946845,391721.00,789686.88,946719.94
391712,790296,947279,391515.69,789627.50,946675.13
392724,790446,947217,391336.94,789578.25,946638.00
393126,790782,947619,391188.19,789540.88,946609.75
393684,790964,947570,391071.34,789516.63,946591.38
394715,791377,947600,390986.88,789506.31,946582.50
395119,791474,947702,390935.81,789510.25,946582.25
395595,791712,948010,390920.16,789528.38,946590.63
396489,792467,948527,390941.31,789560.38,946608.38
397467,792281,948508,391000.75,789606.19,946636.25
397787,792551,948480,391099.31,789666.13,946674.13
398483,792663,948523,391235.94,789739.81,946720.94
399287,793062,948869,391408.50,789826.81,946776.00
399498,793049,948835,391615.00,789926.50,946839.25
399996,793146,948922,391854.22,790037.63,946909.88
400442,793601,949055,392124.50,790158.50,946986.75
400988,793528,949128,392423.41,790288.13,947069.13
401341,793414,949089,392749.22,790425.63,947156.38
401619,793588,949379,393099.56,790569.38,947247.75
401927,793816,949270,393471.19,790718.50,947342.31
402474,794041,949417,393861.56,790872.75,947439.88
402891,794039,949560,394268.94,791031.75,947540.44
403444,794559,949915,394691.31,791194.63,947644.38
404132,794716,950006,395127.34,791361.63,947752.25
404570,794877,949969,395577.13,791533.13,947863.75
405112,795099,950330,396040.13,791708.75,947977.94
405518,794830,949924,396514.94,791887.13,948093.69
404984,794179,949566,396998.25,792065.00,948208.94
403651,793238,948746,397481.84,792237.00,948319.75
399891,791175,947341,397953.38,792394.13,948419.75
397554,790044,946668,398394.31,792525.63,948501.38
395118,789227,946078,398781.13,792624.13,948560.13
392556,788117,945565,399095.59,792686.13,948594.19
388430,787522,945052,399322.47,792709.38,948602.38
387393,787456,944998,399448.69,792693.38,948584.75
386619,787340,944902,399472.44,792640.75,948542.75
386260,787645,945028,399399.72,792556.38,948479.50
386367,787690,945057,399239.53,792445.50,948398.25
386321,787880,945095,399003.31,792313.13,948302.00
386555,788302,945338,398702.03,792163.94,948194.13
386676,788205,945301,398346.06,792002.50,948077.63
386855,788207,945554,397946.06,791832.06,947955.13
386947,788096,945564,397511.69,791654.88,947828.81
387140,788294,945525,397051.13,791473.00,947700.25
387694,788428,945663,396572.72,791289.06,947570.94
388095,788608,945678,396085.19,791105.81,947442.63
388126,788844,946024,395596.06,790925.88,947317.00
388592,788796,945899,395111.25,790751.38,947195.88
388812,788746,945757,394635.56,790582.94,947079.38
388884,788802,945774,394172.78,790420.88,946967.13
388646,788613,945676,393725.00,790265.19,946859.06
388476,788554,945525,393292.69,790115.75,946754.88
388104,788465,945474,392875.44,789972.31,946654.06
388535,788547,945782,392473.13,789835.06,946557.06
388532,788432,945679,392087.28,789704.13,946465.06
388715,788617,945776,391720.44,789579.75,946378.44
388861,789265,946112,391374.56,789463.00,946297.19
389502,788970,946002,391051.75,789355.13,946221.63
389957,789193,946119,390755.13,789257.38,946152.88
390325,789552,946161,390487.31,789170.75,946091.81
391491,790027,946482,390249.50,789097.31,946038.88
392019,790083,946715,390044.25,789038.50,945995.25
392621,790443,946789,389876.00,788994.81,945961.69
393479,790978,947129,389746.56,788966.75,945938.25
394047,791143,947264,389656.06,788955.13,945925.13
394669,791209,947422,389606.91,788960.19,945923.06
395180,791309,947859,389600.34,788981.25,945932.00
395738,791825,947737,389635.44,789017.50,945951.75
396690,791906,947727,389711.81,789069.38,945981.75
397107,792139,947919,389829.25,789136.13,946021.38
397549,792561,948377,389986.00,789217.00,946070.75
398234,792587,948269,390179.63,789311.38,946130.13
398873,792631,948134,390409.19,789418.38,946198.25
399290,792987,948536,390673.31,789536.56,946273.00
400021,792913,948531,390970.06,789664.50,946353.88
400364,793003,948532,391297.53,789801.13,946440.88
400355,793187,948603,391652.31,789945.25,946532.94
401260,793355,948817,392029.81,790096.25,946629.69
401539,793477,948702,392427.41,790253.25,946730.50
402164,793611,948857,392844.69,790415.44,946834.38
402187,794029,949385,393280.06,790581.94,946941.00
403253,793992,949236,393731.53,790752.00,947050.63
403470,794013,949227,394198.13,790925.38,947163.13
403978,794307,949335,394678.38,791101.50,947277.75
404770,794689,949560,395169.63,791280.63,947394.25
405194,794837,949656,395670.22,791463.25,947512.63
405688,795088,949906,396180.63,791649.38,947633.13
406306,795841,950213,396699.84,791839.13,947755.63
406791,795427,950204,397225.88,792032.63,947880.13
406929,795141,949802,397758.38,792227.94,948005.69
406210,794245,948824,398294.00,792420.56,948129.50
402630,792233,947815,398819.53,792601.88,948245.38
400562,790984,947062,399314.06,792760.63,948345.94
398299,789886,946293,399759.38,792888.13,948425.25
392284,788493,945293,400140.94,792979.63,948479.25
390873,787838,944902,400440.72,793032.13,948504.75
389595,787553,944594,400641.59,793042.63,948501.00
388642,786927,944731,400738.69,793012.19,948469.56
387726,787395,944712,400736.00,792945.00,948413.25
387662,787640,944768,400640.00,792845.81,948336.25
387825,787891,944929,400460.75,792720.13,948242.38
388131,788133,945165,400209.56,792573.88,948135.38
388487,788282,945276,399898.03,792412.13,948019.00
388527,788381,945200,399538.25,792239.13,947895.81
388659,788616,945714,399140.25,792057.88,947767.63
389158,788551,945400,398712.88,791871.06,947636.13
389575,788750,945522,398265.63,791681.81,947503.75
389764,788846,945651,397806.78,791493.13,947372.25
390349,789053,945666,397342.56,791307.38,947243.50
390776,789124,945679,396879.13,791126.75,947118.19
390817,789097,945782,396423.56,790952.38,946997.19
390636,789193,945687,395979.69,790785.25,946881.25
390609,789014,945582,395548.31,790626.00,946770.31
390699,788895,945696,395131.31,790473.94,946664.25
390617,788961,945761,394730.44,790328.50,946562.88
390300,788840,945445,394346.00,790189.63,946465.88
390506,788891,945522,393978.06,790057.56,946373.00
390660,788980,945700,393627.75,789932.50,946285.00
390270,789077,945939,393296.81,789815.25,946203.06
391363,789274,945856,392987.38,789706.88,946128.25
391997,789477,945922,392702.50,789608.06,946060.50
392371,790037,946348,392445.44,789519.88,946000.00
393400,790128,946451,392219.13,789443.63,945947.88
393944,790309,946522,392027.13,789380.88,945905.13
394394,790581,946587,391871.50,789332.38,945871.88
395479,790983,946893,391752.53,789299.00,945848.25
396107,791222,947228,391671.63,789281.56,945835.06
396517,791279,947011,391631.06,789280.00,945832.63
396897,792042,947969,391631.00,789293.88,945840.38
398381,792121,947840,391671.47,789323.63,945858.88
398858,792277,947897,391754.44,789369.88,945889.25
399357,792472,948003,391879.69,789432.00,945930.75
400002,792823,948099,392042.88,789509.38,945982.63
400584,792863,948115,392240.25,789601.38,946043.63
400788,792948,948181,392472.50,789706.50,946112.81
401142,793657,948555,392737.53,789823.63,946189.25
401895,793329,948513,393031.56,789952.13,946272.63
402325,793495,948514,393354.25,790090.56,946362.50
402743,793598,948840,393704.72,790237.56,946457.63
403353,793638,948785,394080.56,790391.88,946557.50
403737,793747,948799,394479.78,790551.88,946661.50
404072,793961,948816,394899.81,790716.75,946769.00
403838,794160,949307,395336.94,790885.75,946879.75
404873,794242,949068,395787.94,791058.38,946994.00
405499,794358,949301,396252.06,791233.94,947110.88
405853,794968,949429,396728.94,791411.75,947229.63
406669,795032,949466,397217.44,791591.88,947350.00
407166,795204,949643,397717.28,791775.38,947471.88
407789,795413,949927,398227.88,791962.50,947595.50
408466,795747,950228,398747.72,792153.13,947721.75
408736,795616,949909,399275.16,792346.88,947850.38
408625,795270,949711,399808.38,792541.44,947979.19
408032,793273,948556,400342.66,792732.06,948104.63
404611,792205,947738,400865.38,792909.94,948220.88
402459,791036,946796,401356.50,793063.63,948320.50
400240,790107,946123,401798.00,793184.88,948397.88
395429,788777,945180,402174.28,793268.63,948449.00
393836,788294,944746,402468.31,793311.19,948471.13
392464,788012,944588,402667.81,793312.50,948464.00
390534,788321,945173,402768.81,793275.75,948430.19
390989,788183,945034,402774.09,793205.88,948374.19
391033,788296,944936,402692.38,793107.75,948299.88
391358,788614,945532,402535.50,792986.38,948210.13
392038,788855,945478,402315.88,792847.00,948108.56
392140,789094,945472,402045.75,792694.75,947999.00
392577,789169,945586,401735.44,792533.75,947884.06
392347,789394,945948,401393.00,792367.38,947766.25
393174,789545,945929,401025.94,792198.63,947648.19
393970,789776,946085,400644.09,792030.44,947531.75
394184,790172,946311,400257.16,791865.38,947418.13
394904,790047,946111,399872.06,791705.44,947308.00
394857,789965,946162,399494.41,791551.75,947202.00
395108,790055,946008,399127.63,791404.75,947100.50
394793,789818,945897,398773.19,791264.56,947002.88
394708,789597,945962,398431.06,791130.25,946909.00
394801,789543,945732,398101.88,791000.75,946818.63
394469,789533,945886,397786.31,790875.69,946731.50
394428,789575,945760,397484.06,790755.25,946647.63
394582,789587,945803,397195.25,790640.00,946567.38
394573,789711,945901,396920.88,790530.88,946491.00
394805,790083,946113,396659.81,790428.94,946419.50
395419,790137,946113,396412.31,790335.88,946353.75
395928,790479,946308,396184.31,790252.81,946294.25
395723,791246,946900,395979.56,790181.06,946241.81
397154,791134,946886,395799.38,790122.13,946197.56
397808,791207,946872,395648.53,790077.00,946162.75
398557,791512,947294,395531.34,790045.88,946137.44
399505,792004,947437,395450.38,790029.38,946121.94
400038,792128,947544,395407.81,790028.63,946117.25
400463,792286,947648,395403.94,790043.44,946123.50
400533,792662,948007,395436.03,790073.00,946140.75
401696,792737,948094,395501.97,790117.13,946169.06
402177,792993,947966,395603.38,790175.31,946207.75
402621,793333,948153,395740.94,790247.13,946255.31
403123,793248,948197,395912.84,790331.50,946310.88
403606,793368,948304,396117.25,790427.31,946373.81
403935,793392,948380,396352.22,790533.25,946443.44
404536,793550,948406,396614.94,790647.88,946519.00
404905,793696,948455,396902.94,790770.38,946599.50
405136,793632,948488,397214.75,790899.44,946684.19
405744,794040,949060,397548.06,791034.06,946772.25
406123,794148,948714,397900.53,791173.88,946863.25
406614,794163,948807,398271.44,791318.69,946957.00
406925,794349,948905,398659.50,791467.63,947053.38
407282,794715,949242,399060.81,791620.56,947152.44
407621,794433,949017,399471.53,791777.00,947254.13
407381,793835,948483,399890.81,791933.94,947356.25
403908,792617,947757,400313.25,792086.63,947455.25
402990,791177,946622,400723.94,792227.56,947546.13
400786,790199,945856,401104.06,792346.50,947621.13
398591,789201,944849,401437.34,792435.69,947675.00
394335,787990,944458,401706.94,792490.38,947704.75
392815,787579,944294,401896.00,792507.13,947708.50
391586,787454,944170,401997.00,792486.50,947686.94
390101,787505,944454,402008.97,792431.63,947642.88
390210,787492,944319,401934.25,792347.06,947580.00
390220,787551,944262,401781.81,792237.00,947500.63
390557,788111,944678,401563.25,792106.00,947407.50
391053,788133,944683,401290.06,791959.38,947303.88
391377,788255,944734,400973.72,791801.75,947193.00
391474,788363,944669,400623.81,791636.56,947076.94
391774,788521,945168,400248.28,791466.88,946957.88
391933,788498,944908,399854.34,791295.31,946838.25
392340,788698,945030,399449.00,791123.75,946719.25
393079,789114,945660,399039.38,790954.38,946602.00
393284,789045,945330,398632.31,790789.38,946488.00
393320,788933,945317,398233.13,790630.31,946378.75
393437,788868,945270,397844.91,790477.63,946274.50
393066,788677,945063,397468.88,790330.75,946174.75
393069,788632,944987,397105.00,790189.38,946078.81
393008,788642,944828,396753.94,790053.25,945986.00
391579,788949,945153,396414.75,789922.88,945896.38
392499,788640,944974,396085.56,789798.88,945810.88
392693,788588,944795,395768.00,789680.88,945729.31
392759,788613,945134,395465.00,789568.94,945650.88
393384,789053,945224,395178.69,789463.88,945576.56
393578,789185,945267,394912.06,789367.56,945507.81
394025,789337,945328,394667.38,789281.25,945445.44
394602,789811,945799,394445.13,789205.69,945390.25
395083,789949,945796,394246.31,789142.00,945343.69
395926,790215,946090,394075.75,789091.50,945306.44
396366,790535,946450,393938.06,789055.00,945278.75
397309,790823,946415,393835.16,789033.13,945261.00
397927,790972,946632,393769.16,789026.44,945253.50
398311,791117,946604,393740.88,789034.75,945256.56
398858,791577,946841,393749.47,789057.88,945269.63
399359,791465,946862,393793.94,789095.69,945292.25
399887,791768,946917,393873.78,789147.19,945323.75
400446,792013,947277,393987.94,789211.25,945363.13
400765,791991,947196,394134.88,789287.13,945409.56
401112,792022,947095,394312.75,789373.50,945462.88
401592,792112,947199,394519.75,789469.25,945522.19
402329,792525,947608,394754.75,789573.63,945587.44
402822,792628,947592,395017.13,789686.81,945659.00
403034,792667,947709,395305.31,789808.13,945736.50
402593,793035,948070,395614.88,789936.56,945819.38
402888,792268,947355,395940.06,790070.13,945906.19
402362,791450,946716,396276.25,790203.81,945993.13
400901,790648,944998,396615.81,790331.00,946075.13
396727,788643,944657,396941.94,790443.38,946145.75
394342,787651,943867,397231.56,790531.25,946198.25
391627,786781,943406,397465.50,790587.94,946228.06
387656,785740,942836,397629.66,790610.88,946233.63
386493,785532,942600,397712.13,790599.00,946214.25
385549,785352,942530,397705.97,790552.50,946171.00
385088,785578,942784,397612.47,790474.00,946106.50
384572,785612,942873,397438.22,790368.38,946024.25
384822,785990,942805,397191.66,790240.81,945927.94
384850,785952,942888,396883.13,790096.38,945820.38
384819,786113,943180,396522.94,789938.88,945704.38
385216,786095,943014,396120.78,789771.56,945582.69
385297,786095,942984,395685.75,789597.00,945456.75
385434,786459,943344,395225.53,789417.63,945327.63
385740,786518,943408,394747.41,789236.50,945197.38
386017,786458,943342,394259.13,789056.25,945068.56
386270,786619,943429,393767.75,788878.50,944942.50
386781,786765,943355,393279.63,788705.00,944819.88
386842,786771,943566,392800.38,788537.38,944701.38
387039,786746,943540,392333.94,788376.38,944588.13
386048,787112,943695,391881.19,788223.13,944480.56
386630,786623,943388,391441.44,788078.06,944378.75
386716,786544,943281,391017.00,787940.13,944281.75
386306,786423,943375,390609.94,787808.00,944189.00
386645,786535,943509,390220.53,787681.75,944100.63
386664,786702,943314,389850.00,787561.94,944017.50
386952,786897,943495,389500.13,787450.00,943939.63
387309,787127,943547,389171.69,787347.00,943867.50
387786,787249,943799,388866.25,787253.88,943801.75
388272,787458,943826,388587.69,787171.75,943743.25
388678,787831,944423,388339.38,787101.38,943692.56
389615,788118,944496,388123.56,787043.81,943650.63
390191,788349,944562,387943.31,787000.50,943619.00
390794,788636,944490,387800.69,786972.25,943597.69
391655,788975,944823,387696.25,786959.56,943586.13
392160,789083,944999,387630.50,786962.75,943584.75
392750,789288,945194,387604.81,786981.19,943593.88
393480,789777,945552,387619.56,787014.38,943613.56
393980,789838,945583,387673.91,787062.00,943643.75
394701,789930,945690,387767.88,787123.88,943684.25
395110,790091,945678,387901.00,787199.13,943734.56
395571,790131,945822,388071.34,787286.50,943793.50
395914,790257,945822,388276.38,787384.63,943860.06
396346,790303,945878,388513.44,787492.13,943933.25
396361,790821,946428,388777.94,787608.25,944012.50
397051,790588,946106,389065.53,787732.38,944097.44
397580,790714,946272,389376.25,787863.31,944187.44
397710,790800,946580,389709.81,787999.69,944281.63
398389,791150,946471,390063.81,788141.06,944379.25
398881,791273,946678,390436.88,788287.50,944480.50
399203,791371,946792,390827.63,788438.56,944585.81
400043,791682,946839,391234.00,788593.94,944694.88
400194,791462,946610,391654.31,788753.00,944806.25
399719,790737,946241,392085.91,788912.50,944917.56
398657,788925,944960,392521.63,789066.50,945025.00
394655,787789,944060,392945.81,789206.38,945122.38
392291,786833,943372,393335.72,789321.75,945202.13
389703,785896,942700,393671.88,789405.38,945259.13
384583,784439,941740,393938.94,789452.56,945290.19
382616,784134,941560,394120.00,789459.69,945293.00
381564,783977,941561,394201.38,789427.25,945268.56
380234,783919,941536,394181.03,789358.88,945219.50
380132,783951,941477,394064.97,789258.63,945148.38
379953,783985,941560,393861.25,789131.25,945058.69
379857,783970,941607,393579.88,788981.00,944953.88
379944,784184,941837,393231.38,788812.13,944837.13
379854,784142,941686,392826.25,788628.75,944711.50
379735,784158,941781,392373.63,788434.13,944578.88
379474,784506,942284,391880.03,788231.38,944441.00
379740,784307,941909,391351.84,788023.44,944299.75
380062,784343,941922,390799.44,787812.75,944157.25
380138,784544,942221,390232.78,787601.75,944015.06
380751,784883,942288,389659.69,787393.38,943874.75
380941,784641,942064,389087.88,787190.00,943738.25
381047,784643,942094,388523.34,786992.25,943605.94
380837,784699,942199,387969.88,786801.25,943478.25
381022,784615,941954,387430.13,786618.13,943355.50
381043,784592,941949,386906.59,786442.50,943237.38
380883,784633,942158,386401.25,786274.00,943124.06
380784,784741,942146,385914.88,786113.13,943016.38
380903,784783,942090,385448.44,785960.81,942914.75
381168,784865,942043,385003.63,785817.81,942819.13
381594,785138,942440,384582.81,785685.00,942729.75
382086,785383,942486,384188.75,785563.63,942648.13
382569,785551,942707,383825.00,785455.06,942575.13
383554,786027,943086,383494.63,785359.81,942511.50
383899,786197,943034,383200.28,785278.75,942457.88
384559,786260,943215,382945.13,785213.00,942414.63
385007,786557,943372,382731.31,785163.00,942382.25
386006,786985,943750,382560.19,785129.38,942361.38
386682,787091,943808,382433.75,785112.75,942352.50
387082,787381,943808,382352.72,785112.88,942355.19
387802,788004,944663,382314.50,785129.75,942369.13
388629,787822,944372,382317.44,785163.38,942394.75
389038,787931,944421,382363.53,785212.63,942431.88
389351,787937,944776,382452.88,785275.88,942479.13
390181,788424,944652,382583.19,785352.00,942535.75
390614,788326,944755,382753.06,785440.63,942601.13
391065,788504,944728,382960.56,785540.50,942674.38
391664,788819,945040,383202.56,785650.50,942754.63
391909,788719,944820,383475.94,785769.94,942841.19
392364,788871,945023,383778.56,785897.31,942932.88
392700,789070,945336,384108.34,786031.44,943029.00
393321,789089,945421,384462.84,786171.25,943129.63
393708,789205,945400,384840.16,786316.13,943234.69
394139,789393,945290,385238.16,786465.13,943343.13
394964,789720,945651,385654.06,786618.44,943454.00
395313,789962,945777,386085.94,786776.25,943567.50
395842,790156,946011,386533.72,786938.81,943684.00
396468,790635,946267,386996.75,787105.63,943803.25
396823,790612,946227,387473.31,787276.38,943924.50
396803,790141,945939,387961.22,787450.06,944047.13
396307,789592,945465,388455.69,787622.88,944169.00
393646,787577,944173,388945.69,787787.19,944284.44
391311,786539,943376,389413.25,787932.50,944386.50
388530,785500,942545,389839.03,788050.50,944469.13
382851,784134,941711,390203.75,788136.44,944528.75
381102,783292,941339,390486.59,788185.88,944563.44
379261,782869,940997,390671.22,788195.50,944571.38
377962,782692,941087,390751.69,788165.38,944552.63
376839,782650,940847,390729.47,788099.00,944509.50
376590,782845,940885,390609.84,788001.00,944444.88
376696,782842,941058,390402.31,787876.38,944362.00
376706,782925,941052,390118.19,787730.00,944264.31
376620,782842,941083,389768.00,787566.06,944154.63
376555,782746,941052,389362.25,787387.13,944035.31
376579,782821,941392,388910.50,787195.38,943908.25
376382,783007,941230,388421.13,786994.13,943775.63
376806,783086,941410,387902.19,786786.94,943640.06
377013,783268,941423,387362.56,786577.25,943503.75
377435,783650,941697,386810.16,786368.31,943368.75
377782,783740,941679,386252.50,786163.50,943236.75
377966,783619,941583,385697.25,785964.56,943108.75
377923,783647,941719,385150.31,785772.00,942984.75
378041,783534,941612,384615.25,785585.94,942865.00
378008,783449,941555,384094.72,785406.69,942749.94
377913,783534,941561,383590.56,785234.38,942639.75
377961,783653,941660,383104.25,785069.88,942534.63
378078,783538,941800,382637.44,784913.94,942435.63
378084,783607,941767,382191.78,784766.44,942343.25
378044,784154,942239,381767.03,784628.38,942258.06
378889,783981,942130,381364.00,784501.25,942181.13
379438,784232,942143,380988.41,784385.69,942112.81
379726,784394,942516,380645.00,784282.38,942053.19
380956,784882,942595,380336.88,784192.69,942003.06
381449,785133,942734,380068.00,784118.06,941963.13
382129,785336,942933,379841.13,784059.56,941933.56
383076,785723,943259,379657.09,784017.38,941915.13
383860,785928,943395,379517.28,783991.81,941908.25
384353,786166,943615,379424.13,783983.19,941913.25
384831,786586,944096,379377.88,783991.50,941929.75
385791,786777,944014,379377.81,784016.50,941957.63
386389,786906,944004,379424.06,784058.25,941996.63
386965,786915,944144,379515.75,784115.81,942046.00
387839,787317,944367,379650.69,784187.75,942105.13
388092,787423,944489,379826.44,784273.63,942173.63
388506,787496,944451,380041.25,784372.38,942250.69
389189,787798,944618,380293.00,784482.69,942334.88
389556,787869,944661,380579.06,784603.63,942425.06
389948,787891,944724,380897.00,784734.00,942520.75
390232,787989,944729,381243.69,784872.38,942621.25
391033,788122,944777,381616.44,785017.31,942725.50
391516,788433,945057,382013.78,785168.31,942832.94
391824,788492,945104,382433.75,785325.00,942943.56
392157,789279,945874,382871.63,785487.25,943057.88
392941,789129,945587,383323.81,785655.25,943176.56
393589,789221,945613,383791.50,785828.75,943299.00
393965,789423,945905,384275.53,786007.00,943424.19
394838,789674,945954,384774.59,786189.38,943551.63
394976,789383,945795,385287.44,786374.88,943681.00
394377,788754,945276,385809.69,786560.06,943810.00
391660,786898,943899,386332.13,786739.25,943933.00
389474,785810,943187,386838.50,786904.13,944042.56
386922,784729,942449,387306.78,787043.63,944133.00
384362,783308,941540,387717.31,787150.19,944200.88
379624,782596,941080,388051.19,787219.31,944243.44
378063,782190,940905,388290.06,787248.00,944259.00
376913,782013,940838,388426.84,787236.75,944248.44
375827,782181,940884,388464.19,787189.25,944214.38
375859,782245,941027,388408.22,787110.50,944160.06
375761,782198,941046,388267.44,787005.19,944089.00
375908,782607,941204,388051.72,786877.38,944003.63
375993,782440,941192,387771.50,786731.31,943906.50
376036,782459,941171,387437.44,786570.81,943800.38
376054,782549,941145,387059.06,786399.25,943687.44
376370,782710,941457,386645.13,786219.63,943569.75
376594,782812,941348,386204.38,786035.38,943449.63
377145,782938,941581,385745.56,785849.25,943328.75
376945,783766,942150,385275.38,785664.31,943209.63
377786,783458,941939,384799.44,785484.06,943094.50
377927,783161,941761,384325.84,785309.63,942984.13
377849,783200,941691,383860.53,785140.50,942877.88
377943,783252,941744,383406.13,784977.00,942775.50
377908,783088,941666,382964.81,784819.69,942677.25
377725,783071,941620,382537.94,784668.38,942583.13
377698,783191,941536,382125.06,784523.63,942493.00
378046,783349,941580,381726.66,784386.63,942406.63
378397,783330,941829,381346.88,784258.00,942324.75
378663,783841,942222,380989.94,784138.13,942248.50
379236,783933,942189,380658.34,784028.19,942179.25
379879,784241,942328,380355.38,783930.31,942117.94
380293,784304,942512,380084.00,783845.75,942065.38
380993,784695,942735,379846.06,783775.00,942022.38
381904,784812,942908,379644.06,783718.88,941989.50
382599,785143,943081,379481.47,783677.63,941967.25
383896,785762,943622,379360.50,783652.00,941955.75
384271,785821,943543,379282.56,783642.50,941955.19
384850,785991,943782,379249.25,783649.63,941966.19
385328,786275,943847,379260.69,783673.31,941988.88
386292,786437,943931,379316.00,783713.06,942022.50
386913,786556,944145,379415.28,783768.00,942066.38
387281,786714,944185,379557.31,783836.88,942120.00
387465,787337,944602,379737.75,783919.00,942183.13
388535,787269,944490,379953.00,784013.94,942255.56
388934,787247,944495,380203.50,784120.94,942336.06
389249,787267,944745,380488.38,784238.38,942423.00
390103,787483,944626,380804.88,784364.50,942515.38
390225,787564,944663,381151.00,784498.44,942612.38
390332,787555,944740,381522.84,784638.88,942713.00
391390,787903,945112,381915.47,784784.56,942817.25
391885,787904,945097,382326.69,784934.75,942925.31
392367,788140,945274,382757.81,785089.13,943036.94
392803,788690,945647,383208.56,785247.75,943151.75
393644,788853,945664,383677.44,785410.88,943269.50
394403,789024,945846,384164.09,785579.50,943390.75
394837,789123,945923,384668.00,785753.50,943515.50
394966,789284,945942,385187.13,785931.88,943643.19
395085,788711,945477,385717.78,786112.50,943771.81
394339,787913,944931,386253.63,786290.50,943897.63
390565,785783,943484,386784.50,786458.81,944015.94
388190,784662,942588,387291.75,786607.75,944120.06
385495,783731,942011,387749.69,786727.13,944202.63
382738,782828,941398,388137.38,786810.63,944259.38
378440,781861,940982,388437.25,786855.13,944288.94
377085,781538,940639,388634.25,786859.00,944291.00
376184,781477,940734,388724.47,786824.00,944266.88
374604,781923,941058,388711.44,786754.75,944219.75
375147,781694,940953,388601.13,786656.75,944153.50
375193,781596,940809,388404.69,786534.00,944071.06
375164,781721,940892,388134.50,786389.94,943974.88
375086,781614,940775,387801.00,786228.19,943867.00
375076,781577,940758,387413.72,786051.75,943749.38
374777,781612,940772,386981.06,785863.38,943623.63
375142,781790,941147,386510.19,785666.19,943492.50
375447,781904,941076,386009.50,785463.44,943358.75
375788,782087,941377,385489.44,785258.50,943224.63
376321,782482,941637,384959.75,785054.44,943092.25
376689,782490,941448,384428.66,784854.19,942962.88
376992,782450,941570,383903.06,784659.75,942837.75
377204,782350,941353,383388.38,784471.81,942717.50
376886,782474,941453,382888.16,784290.81,942601.88
377051,782353,941325,382404.22,784117.25,942491.00
377083,782257,941373,381937.94,783951.25,942384.88
377238,782647,941623,381490.84,783792.75,942283.75
377427,782581,941530,381064.66,783642.75,942188.13
377583,782632,941826,380661.56,783502.38,942099.25
377879,782800,941671,380283.44,783372.38,942017.88
378611,783252,942011,379932.84,783253.88,941944.50
379018,783494,942119,379613.09,783148.88,941879.75
379636,783587,942389,379326.88,783058.50,941824.63
379761,784340,942857,379074.53,782983.38,941780.13
380978,784303,942700,378856.75,782924.56,941746.88
381715,784424,942891,378678.13,782882.63,941724.88
382339,784768,943334,378542.44,782857.25,941713.81
383826,785271,943543,378452.00,782849.13,941714.13
384329,785337,943458,378409.69,782858.88,941726.56
384599,785557,943479,378415.25,782885.88,941750.38
385553,785932,944021,378464.84,782929.06,941785.00
386312,785901,943917,378556.63,782987.63,941830.75
386698,786178,944099,378691.88,783060.88,941886.88
387135,786467,944331,378870.00,783148.00,941952.38
387943,786481,944298,379088.34,783248.13,942026.38
388429,786658,944360,379345.31,783360.19,942108.25
388979,786755,944468,379638.69,783483.06,942197.00
389631,787021,944621,379965.25,783615.75,942292.00
390373,787115,944770,380322.38,783757.50,942393.00
390774,787276,944738,380709.50,783907.38,942499.13
391094,787510,945169,381124.56,784064.25,942609.13
391516,787560,944936,381563.56,784227.25,942722.13
391966,787673,945249,382023.78,784395.44,942838.25
392439,787875,945311,382502.81,784568.00,942957.88
393281,788346,945589,382999.06,784745.13,943081.13
393728,788487,945765,383511.63,784927.13,943208.06
394332,788738,945805,384039.13,785114.00,943338.63
394359,789338,946515,384578.38,785306.00,943472.69
395669,789330,946364,385127.19,785503.31,943610.88
395947,789126,946255,385686.25,785704.94,943752.75
396083,789051,945523,386254.56,785908.25,943895.75
394331,787297,944787,386824.75,786107.63,944035.13
392391,786077,943911,387382.63,786293.25,944164.00
389893,784954,943156,387910.69,786455.81,944276.13
384100,782896,941916,388389.31,786588.50,944366.00
381560,782210,941395,388794.31,786685.00,944428.75
379515,781698,941033,389103.75,786739.75,944462.13
377847,781261,940789,389307.44,786751.38,944466.63
376081,781327,940682,389403.25,786722.75,944443.56
375699,781299,940768,389392.84,786657.88,944395.88
375770,781241,940922,389284.31,786561.38,944327.31
375526,781402,940784,389089.13,786437.69,944241.31
375682,781426,940832,388818.38,786291.38,944140.50
375486,781418,940846,388482.69,786126.63,944027.25
375484,781488,941159,388091.78,785946.75,943904.13
375465,781424,940840,387654.81,785755.00,943773.50
375538,781401,940888,387180.22,785554.00,943637.00
375549,781534,941126,386676.00,785346.50,943496.75
376299,782051,941505,386149.63,785136.13,943355.88
376666,782249,941453,385609.81,784927.25,943217.13
377108,782248,941538,385066.78,784722.88,943082.13
376376,782936,941930,384527.25,784525.00,942951.63
377361,782539,941731,383994.88,784335.38,942826.88
377579,782343,941562,383475.19,784154.63,942708.38
377689,782379,941622,382973.13,783982.19,942595.75
377883,782377,941530,382491.38,783818.19,942488.81
378081,782524,941556,382032.41,783663.13,942387.56
378151,782543,941624,381598.13,783517.63,942292.19
378389,782648,941788,381187.69,783382.13,942203.25
378758,782730,941830,380800.94,783256.75,942121.50
379029,783001,941966,380442.31,783142.50,942047.38
379433,783452,942490,380115.63,783040.38,941981.38
380557,783715,942481,379823.56,782951.63,941924.25
381114,783911,942538,379570.06,782878.19,941877.38
381680,784081,942783,379357.59,782820.75,941841.19
382973,784728,943184,379187.25,782780.25,941816.38
383636,784963,943349,379061.25,782757.88,941804.06
384261,785199,943518,378982.31,782754.25,941804.50
385376,785685,944234,378951.28,782769.00,941817.38
385882,785838,944053,378968.09,782801.75,941842.63
386524,785975,944011,379032.94,782852.50,941880.25
387074,786274,944179,379144.81,782920.50,941929.50
388094,786610,944617,379300.50,783005.00,941989.88
388514,786721,944410,379497.16,783105.63,942061.19
389051,786859,944598,379734.97,783220.88,942142.06
388756,787415,945238,380011.31,783349.63,942231.44
390075,787251,945060,380321.69,783490.75,942329.25
390565,787265,944861,380665.31,783642.88,942434.75
391010,787362,945136,381040.97,783803.75,942546.25
392105,787886,945208,381446.69,783972.50,942662.88
392729,788004,945341,381881.94,784149.38,942784.25
392909,787952,945446,382344.72,784333.44,942910.00
393626,788355,945735,382829.22,784522.75,943039.94
394413,788599,945793,383331.44,784716.81,943173.88
394848,788737,946017,383852.91,784915.88,943311.63
395374,789296,946454,384393.84,785119.38,943452.75
396301,789338,946372,384952.44,785326.88,943597.13
396659,789420,946484,385527.50,785538.63,943744.50
397216,789655,946601,386117.00,785754.13,943894.69
398010,790097,947085,386718.34,785973.31,944047.75
398530,790187,946978,387330.03,786196.31,944204.00
399044,790258,947218,387951.31,786422.31,944362.81
399680,790722,947702,388580.66,786650.13,944523.25
400209,790779,947531,389216.34,786879.31,944684.75
400633,790976,947722,389857.31,787109.94,944847.75
401356,791235,947874,390502.50,787341.94,945012.63
402333,791753,948181,391149.56,787575.75,945179.38
402770,791658,948041,391796.84,787811.50,945347.75
402754,791158,947595,392445.31,788047.13,945515.50
399597,789433,946496,393090.53,788277.88,945679.13
398505,787998,945288,393717.75,788495.00,945832.25
396018,786627,944239,394307.00,788685.38,945965.25
393507,785388,943052,394839.63,788838.63,946070.63
387939,783822,942359,395294.50,788948.13,946144.13
385845,783209,942005,395648.56,789009.00,946182.75
384105,783043,941911,395890.06,789021.13,946186.81
382091,782709,942116,396016.31,788987.88,946159.69
381936,782836,942153,396028.88,788913.63,946105.75
381971,783060,942113,395937.00,788803.88,946029.13
382084,783456,942521,395753.88,788664.88,945933.19
382356,783522,942381,395492.50,788502.63,945821.56
382463,783409,942461,395165.38,788322.19,945697.75
382667,783599,942472,394783.88,788127.50,945564.69
382646,783646,942603,394357.81,787922.25,945424.75
382842,783631,942423,393896.03,787709.75,945280.00
382801,783692,942571,393406.88,787492.38,945131.94
383277,784085,943189,392898.03,787272.88,944982.38
383743,784227,942959,392377.66,787054.50,944834.00
384003,784167,943080,391854.34,786840.25,944689.00
384251,784300,943025,391334.91,786631.88,944548.94
384277,784246,943003,390823.38,786430.63,944414.25
384378,784278,943003,390322.56,786237.00,944285.06
384427,784113,942924,389836.06,786051.50,944161.50
383236,784683,943083,389365.25,785874.25,944043.63
384238,784300,942904,388909.72,785706.25,943931.38
384593,784273,942952,388472.69,785547.81,943825.00
384819,784347,943072,388058.28,785398.75,943724.50
385266,784756,943294,387669.19,785260.13,943630.75
385572,784797,943368,387307.88,785133.38,943544.94
386077,784956,943646,386976.56,785019.25,943468.38
386738,785418,943938,386675.66,784918.25,943402.06
387529,785774,944078,386406.34,784831.75,943347.19
388046,785970,944157,386174.13,784761.63,943304.00
388713,786613,944823,385983.13,784708.50,943272.38
389898,786772,944558,385835.44,784672.81,943252.25
390396,786782,944787,385733.53,784655.50,943244.06
391115,787113,945042,385678.09,784656.38,943248.19
392003,787722,945296,385668.31,784675.75,943264.88
392812,787839,945481,385704.00,784714.13,943294.50
393262,788090,945474,385785.88,784771.13,943336.19
394004,788426,945979,385912.84,784845.50,943389.13
394547,788535,945951,386082.66,784936.25,943453.06
395124,788776,946104,386294.00,785042.50,943527.75
395582,788865,946151,386544.91,785163.25,943612.25
396600,789184,946458,386833.56,785297.44,943706.00
397119,789408,946422,387158.88,785444.13,943808.25
397337,789359,946519,387518.41,785602.13,943917.81
396870,790123,947061,387906.53,785770.13,944034.00
398189,789855,946957,388318.38,785947.19,944156.88
398768,789886,946954,388753.00,786132.13,944285.50
399206,790054,947168,389209.69,786323.13,944418.63
400152,790592,947331,389686.88,786519.63,944555.38
400589,790574,947416,390183.75,786721.88,944695.88
401094,790885,947632,390698.63,786929.25,944840.00
401724,791096,947915,391227.41,787140.75,944987.88
402229,791319,947881,391766.75,787355.81,945139.19
402840,791474,948034,392317.53,787574.38,945293.19
403282,791952,948289,392880.44,787796.06,945449.19
403969,792059,948360,393453.88,788020.88,945607.00
404473,792350,948594,394036.66,788248.88,945766.50
405098,792558,948850,394627.69,788480.00,945928.00
405790,792985,948940,395225.56,788714.25,946091.75
406583,793160,949179,395829.56,788951.88,946257.31
406853,793402,949232,396439.88,789192.50,946424.50
407642,793705,949741,397055.38,789435.75,946593.00
407984,793342,949433,397674.75,789680.31,946762.19
407534,792594,948774,398295.16,789922.13,946929.88
406487,791354,947879,398909.31,790154.31,947091.00
402471,788974,946127,399501.44,790365.88,947237.44
400186,787761,945228,400049.06,790544.63,947360.13
397564,786696,944572,400532.88,790682.38,947453.25
392081,785809,944000,400937.19,790775.88,947515.13
391280,785174,943617,401246.16,790824.25,947545.25
390171,784824,943476,401449.63,790826.94,947544.13
389403,785020,943716,401547.31,790786.38,947513.69
388902,785388,943613,401545.19,790708.63,947457.50
389133,785516,943870,401452.13,790600.75,947380.06
389291,785621,943932,401279.75,790468.19,947285.63
389624,785912,944313,401038.81,790315.94,947178.38
390015,785904,944284,400739.94,790148.63,947062.00
390242,785998,944367,400395.94,789969.88,946939.13
390581,786334,944548,400018.19,789783.25,946811.75
390699,786319,944498,399615.31,789592.13,946681.81
391039,786453,944655,399194.84,789399.50,946551.31
391230,786645,944682,398763.72,789208.06,946422.00
391912,787019,945001,398328.38,789020.63,946295.63
392273,786883,945044,397895.44,788839.63,946174.06
392360,786997,944922,397471.06,788666.00,946058.19
392284,787002,945082,397059.06,788500.13,945947.75
392253,786780,944902,396661.00,788342.13,945842.75
392403,786861,944897,396277.91,788191.50,945743.25
392433,786813,944813,395911.19,788048.69,945649.00
392414,786917,944849,395561.94,787913.75,945560.00
392561,786855,944735,395230.91,787787.13,945475.88
392589,786933,944958,394918.94,787668.69,945396.88
392277,787647,945419,394625.50,787559.25,945324.13
393280,787570,945349,394350.94,787460.63,945259.06
393843,787741,945361,394099.59,787374.13,945202.19
394277,787837,945575,393875.63,787300.25,945153.50
395238,788466,945933,393681.81,787240.06,945113.69
395937,788744,945989,393521.63,787195.25,945084.00
396185,788992,946384,393397.06,787166.94,945065.00
397440,789517,946859,393307.56,787155.44,945058.00
398258,789745,946870,393254.38,787161.25,945064.13
398785,789925,947117,393241.69,787184.88,945083.25
399293,790642,947408,393271.00,787226.13,945114.75
400089,790603,947525,393341.50,787284.88,945158.50
400600,790906,947574,393452.56,787361.06,945214.00
401330,791130,947760,393603.25,787454.06,945280.50
401793,791481,947946,393792.16,787563.25,945357.38
402248,791536,948030,394017.06,787687.81,945444.06
402935,791559,948089,394276.06,787825.88,945539.38
403601,792060,948453,394567.56,787975.38,945642.25
403957,792085,948372,394889.63,788135.50,945751.81
404480,792218,948497,395240.19,788305.56,945867.56
404881,792392,948756,395617.00,788484.38,945989.19
405696,792649,948822,396018.19,788670.94,946116.50
406074,792732,948920,396442.38,788864.50,946248.69
406351,792787,949043,396887.06,789063.50,946385.00
406300,793486,949754,397347.44,789267.31,946525.31
407140,793303,949362,397819.19,789475.69,946669.88
407623,793325,949227,398302.38,789687.63,946817.13
408049,793476,949686,398796.94,789901.50,946965.50
408951,794090,949814,399302.13,790117.38,947115.13
409374,794154,949883,399817.75,790335.94,947266.50
409963,794400,950060,400343.19,790557.19,947419.38
410619,794959,950339,400876.13,790780.88,947573.88
411219,795134,950511,401415.06,791007.75,947730.31
411815,795312,950690,401961.25,791238.00,947888.75
412156,795704,950912,402515.00,791471.25,948049.00
412354,795241,950502,403074.06,791706.25,948210.06
412163,794129,949685,403634.75,791938.13,948368.13
410928,792926,948937,404190.22,792158.75,948517.38
407082,790596,947186,404728.50,792357.00,948650.31
404775,789590,946555,405230.63,792521.63,948759.06
402428,788555,945793,405673.94,792645.38,948838.69
398411,787625,945189,406041.94,792725.13,948887.25
397071,787156,944900,406322.88,792759.75,948904.19
396145,787130,944882,406507.41,792750.38,948890.56
395410,787141,945058,406594.84,792701.00,948849.63
395195,787619,945388,406591.19,792617.63,948786.00
395502,787801,945543,406505.50,792506.88,948704.69
395836,788084,945800,406349.44,792374.88,948610.00
396110,788971,946545,406133.31,792227.56,948506.25
396857,788828,946262,405867.34,792070.94,948397.50
397194,788865,946196,405564.56,791908.75,948285.88
397484,788896,946583,405235.94,791743.38,948172.25
398127,789299,946461,404889.78,791577.13,948058.13
398537,789469,946746,404534.31,791413.38,947945.81
398922,789560,946623,404176.59,791254.44,947837.13
399622,789915,946915,403822.19,791102.25,947733.13
399689,789783,947026,403475.88,790958.44,947635.00
399751,789761,946850,403141.69,790823.13,947543.38
399859,789613,946839,402821.97,790695.75,947457.63
399419,789501,946858,402517.06,790575.75,947377.13
399507,789382,946702,402226.19,790462.00,947301.75
399543,789372,946502,401949.41,790354.00,947230.88
399547,789520,946591,401687.13,790251.75,947163.44
399641,789441,946631,401439.50,790155.69,947099.63
399842,789574,946909,401207.69,790066.00,947040.38
400195,790027,947194,400993.25,789983.25,946986.63
400465,790057,947222,400797.88,789908.50,946939.50
401019,790320,947292,400623.38,789843.38,946899.75
401457,790477,947344,400472.06,789789.13,946867.38
402524,791242,947873,400346.84,789747.50,946843.25
403021,791347,948041,400251.19,789720.50,946828.88
403552,791736,948280,400187.06,789709.00,946825.13
404245,792454,948927,400153.38,789713.69,946832.63
405048,792514,948796,400149.75,789735.38,946852.00
405626,792609,948847,400180.00,789774.31,946883.06
405982,792772,949386,400246.13,789829.50,946924.75
407056,793409,949262,400347.75,789900.63,946976.50
407372,793415,949349,400485.19,789988.00,947038.25
407805,793496,949486,400657.09,790090.25,947109.81
408418,793939,949722,400860.97,790206.13,947190.50
409057,794112,949847,401095.25,790335.06,947280.06
409555,794168,949852,401359.56,790476.25,947377.63
409799,794372,950071,401652.38,790628.00,947482.06
410163,794308,949911,401970.69,790788.13,947592.06
410613,794312,950048,402311.75,790955.13,947706.44
410902,794478,950151,402673.25,791127.44,947824.50
411561,794591,950182,403052.63,791303.94,947945.63
411722,794816,950368,403447.69,791484.00,948069.13
412117,794941,950512,403856.75,791667.13,948194.94
412833,795484,950921,404278.38,791852.81,948322.75
413120,795666,950895,404711.31,792041.31,948452.50
413682,795753,951064,405154.94,792233.44,948584.63
413980,795920,951114,405608.47,792428.88,948719.13
414266,795528,950740,406070.06,792626.00,948854.63
413874,794677,950047,406536.19,792820.38,948987.50
412804,793447,949188,407000.13,793004.88,949112.25
408650,791606,948161,407449.06,793172.00,949223.50
406844,790388,947072,407863.63,793313.44,949315.63
404711,789474,946315,408224.06,793419.56,949382.00
402682,788853,945895,408516.72,793484.88,949419.06
399764,788373,945486,408730.75,793509.00,949426.44
398939,788035,945491,408857.88,793492.88,949405.13
398106,788169,945644,408897.56,793439.56,949357.88
397812,788441,945783,408854.75,793354.25,949289.06
398013,788706,945872,408737.41,793243.13,949202.50
398556,788918,946096,408556.13,793111.81,949102.00
398778,789605,946684,408322.38,792965.00,948991.25
399188,789479,946526,408046.50,792807.31,948873.94
399512,789568,946557,407738.06,792643.13,948752.81
399802,789661,946611,407405.50,792475.75,948629.88
400393,789879,946852,407056.00,792307.63,948506.88
400627,790223,946944,406696.31,792141.63,948386.00
401170,790275,947091,406334.06,791980.63,948268.81
401531,790667,947169,405976.00,791826.31,948156.75
401514,790575,947184,405626.31,791680.13,948050.75
401732,790322,947288,405287.81,791542.44,947951.13
401849,790314,947119,404962.75,791412.38,947857.88
401836,790193,947109,404652.81,791289.38,947770.38
401588,790056,946992,404358.19,791172.69,947688.19
401535,790034,946983,404078.19,791061.75,947610.69
401177,790387,947345,403810.50,790956.88,947538.13
401660,790192,947108,403553.75,790859.00,947471.25
401806,790308,946915,403311.25,790768.06,947409.38
401592,790321,947571,403085.50,790684.31,947351.69
402368,790815,947537,402877.09,790608.56,947299.13
402849,790910,947441,402688.88,790542.50,947253.25
403269,791183,947700,402523.75,790487.13,947214.88
404014,791668,947968,402383.38,790443.63,947184.50
404580,791877,948274,402269.72,790413.31,947163.50
405179,792259,948446,402185.69,790397.50,947152.88
405737,792805,949121,402133.31,790396.63,947153.00
406660,793041,948969,402114.09,790411.63,947164.38
407342,793363,949130,402129.97,790443.50,947187.44
407787,793462,949234,402181.63,790492.63,947221.88
408445,793733,949462,402267.88,790558.00,947267.19
408772,793885,949549,402387.00,790638.63,947323.00
409154,793991,949491,402538.16,790733.50,947388.31
409887,794255,949713,402720.03,790841.13,947461.88
410123,794341,949775,402930.81,790960.38,947543.00
410524,794410,949757,403169.22,791090.13,947630.88
410767,794371,949754,403433.16,791228.81,947724.00
411428,794529,950131,403720.56,791374.56,947821.69
411703,794740,950082,404030.00,791526.44,947924.06
412028,794680,950109,404359.31,791683.50,948030.38
412414,795352,950669,404704.38,791845.38,948139.88
412641,795063,950662,405061.31,792012.25,948253.13
412838,794820,950372,405429.84,792182.00,948369.75
412598,794162,949293,405808.59,792350.38,948486.75
410012,792214,948190,406188.31,792509.94,948597.50
408231,791158,947340,406552.94,792650.25,948693.50
406038,790116,946700,406886.31,792763.19,948768.75
401661,788589,945785,407174.19,792844.25,948819.63
400134,788063,945334,407400.63,792890.00,948843.13
398536,787694,945089,407550.97,792896.88,948838.63
397286,787453,945183,407618.38,792865.25,948807.38
395899,787614,945185,407602.03,792798.56,948752.38
395911,787739,945303,407504.56,792701.75,948677.63
396031,787955,945388,407333.88,792580.13,948586.81
396523,788326,945463,407100.31,792439.13,948483.25
396642,788394,945579,406814.38,792284.06,948369.88
397095,788616,945762,406487.31,792119.00,948249.44
397304,788912,945868,406129.19,791947.50,948124.63
397586,788875,945796,405748.13,791772.75,947997.25
397658,788930,945923,405351.44,791597.13,947869.00
398047,789011,946566,404945.56,791422.63,947741.38
398507,789427,946315,404536.91,791251.50,947616.50
398917,789500,946345,404131.97,791086.50,947496.19
399021,789599,946279,403735.81,790929.31,947381.38
398809,789587,946735,403349.88,790781.00,947272.88
399237,789462,946381,402974.81,790641.75,947171.81
399119,789228,946126,402614.19,790510.31,947077.00
399081,789269,946355,402270.47,790385.44,946986.75
398938,789305,946030,401943.50,790267.00,946900.44
398951,789193,946077,401633.19,790155.25,946818.00
399074,789255,946077,401339.81,790049.75,946739.69
399254,789456,946415,401064.38,789951.63,946666.38
399561,789735,946441,400808.22,789862.38,946599.19
399948,789824,946459,400573.13,789782.88,946538.75
400103,790188,946753,400360.56,789712.94,946485.06
400972,790381,946906,400172.38,789653.38,946438.88
401573,790676,947050,400011.59,789605.75,946401.19
402024,790900,947232,399880.84,789571.50,946372.75
402927,791345,947450,399780.88,789551.38,946353.94
403280,791758,947748,399712.50,789546.56,946345.50
404043,791935,947982,399677.97,789558.13,946348.25
405007,792533,948354,399679.00,789586.00,946362.50
405563,792656,948312,399716.69,789630.19,946388.13
406128,792625,948534,399792.00,789690.50,946424.88
406397,792753,949075,399904.25,789765.50,946472.44
407216,793112,948898,400051.88,789854.00,946530.50
407477,793362,948747,400233.59,789955.75,946598.19
407884,793409,948792,400447.28,790070.13,946674.00
408161,793699,949427,400688.47,790196.00,946757.00
408614,793684,949023,400953.19,790332.25,946846.81
409168,793811,949135,401241.50,790477.38,946942.44
409167,793660,949454,401552.94,790629.31,947042.63
409696,794048,949384,401884.56,790786.63,947146.56
410142,793967,949357,402234.31,790948.50,947254.13
410357,794229,949405,402600.47,791114.00,947364.63
410823,794539,949667,402980.81,791283.50,947477.44
411446,794830,949746,403374.06,791457.69,947592.75
411675,794663,949747,403779.44,791635.69,947710.13
411650,793497,948871,404194.59,791814.50,947828.13
409697,792493,948083,404612.06,791987.63,947942.00
408036,791163,947020,405018.34,792145.00,948044.00
405793,789945,946263,405398.00,792276.94,948127.13
401199,788116,945054,405735.63,792375.13,948186.13
398960,787577,944703,406012.69,792433.13,948216.81
397085,786922,944299,406210.31,792448.50,948218.13
394611,786813,944086,406318.75,792422.44,948190.81
394130,786739,944104,406336.25,792358.00,948136.88
394017,786865,944252,406264.97,792260.25,948059.81
394016,786936,944925,406112.63,792134.31,947963.94
394230,787367,944739,405890.06,791985.81,947853.63
394690,787485,944803,405608.69,791820.38,947732.94
394928,787703,944722,405280.03,791642.75,947604.69
394828,787776,945307,404912.13,791457.13,947470.88
395214,787863,944806,404511.72,791266.75,947333.38
395406,787899,944965,404088.44,791074.00,947194.00
395599,788011,945460,403651.28,790880.69,947054.38
396069,788373,945505,403206.97,790689.50,946916.88
396552,788439,945442,402762.53,790503.25,946784.00
396756,788454,945374,402324.25,790323.63,946656.88
396501,788454,945342,401896.19,790152.00,946535.38
396997,788512,945219,401480.94,789989.31,946419.13
397135,788374,945337,401081.28,789835.13,946308.25
397115,788356,945411,400699.34,789688.38,946202.75
396942,788304,945151,400335.69,789548.94,946102.38
396836,788246,945115,399989.94,789416.63,946006.88
397002,788290,945132,399662.19,789291.38,945916.13
397200,788551,945279,399353.09,789173.94,945830.50
397471,788783,945563,399063.94,789065.69,945751.19
397867,788821,945703,398796.91,788967.63,945679.50
398692,789365,945929,398554.25,788880.38,945616.06
399165,789552,946024,398338.69,788804.75,945561.00
399569,789740,946282,398153.34,788742.75,945515.50
400056,789950,946794,398000.25,788695.38,945480.63
401144,790454,946713,397881.25,788663.25,945456.75
401687,790742,946770,397799.06,788647.56,945444.38
402114,790883,946906,397754.75,788648.75,945443.25
403003,791622,947894,397746.50,788666.81,945453.75
403593,791785,947681,397773.38,788702.50,945477.38
404110,791817,947627,397837.72,788756.00,945514.00
404657,792065,947880,397940.44,788826.00,945562.00
405436,792388,948186,398080.69,788911.63,945620.75
405913,792376,948029,398257.72,789012.00,945690.25
406174,792589,948108,398469.63,789125.69,945769.13
406772,792937,948286,398713.25,789251.75,945856.00
407237,792979,948371,398986.16,789389.88,945950.38
407719,793111,948467,399287.06,789538.38,946051.31
408173,793322,948621,399614.31,789695.44,946157.88
408648,793275,948597,399965.88,789859.63,946268.88
408886,793356,948318,400339.31,790029.50,946383.00
409302,793565,948714,400731.78,790204.00,946499.13
409883,793799,948802,401140.69,790382.63,946617.38
410257,793827,948916,401564.03,790565.00,946737.69
410483,794066,949215,402000.50,790750.25,946860.25
411430,794573,949574,402448.19,790937.88,946984.94
411799,794660,949532,402906.13,791128.25,947111.63
412278,794805,949721,403374.69,791321.56,947240.88
412808,795050,949769,403853.56,791517.94,947372.75
412407,793808,948823,404340.06,791714.38,947504.63
411564,792736,948086,404827.75,791903.50,947630.94
409802,791577,947180,405305.81,792076.25,947745.50
405238,789467,946054,405758.53,792225.63,947843.13
403280,788445,945007,406165.00,792343.88,947918.38
401034,787610,944394,406505.13,792422.25,947965.25
399204,787162,944048,406766.09,792457.00,947980.88
396373,786739,943917,406939.31,792449.00,947966.13
395860,786585,943840,407019.19,792400.63,947923.50
395441,786669,943808,407008.19,792315.81,947856.00
395205,787260,944195,406914.38,792200.50,947767.63
395551,787291,944381,406747.22,792061.19,947663.13
395991,787509,944452,406518.09,791903.50,947546.63
396007,787656,944680,406238.03,791732.00,947421.25
396420,787646,944496,405916.69,791550.19,947289.25
396572,787678,944638,405563.09,791361.13,947152.75
396541,787701,944602,405184.81,791167.25,947013.50
396942,788195,944902,404787.75,790971.69,946873.50
397103,788323,944999,404378.00,790778.06,946735.13
397594,788546,945148,403962.94,790589.38,946600.38
398097,788582,945249,403549.56,790407.25,946470.56
398265,788589,945263,403143.34,790232.50,946346.50
398269,788570,945257,402748.34,790065.88,946228.94
398302,788448,945468,402366.94,789907.63,946117.88
398262,788321,945215,402000.44,789757.38,946013.38
398302,788333,945158,401649.69,789614.38,945915.13
398253,788410,944939,401315.38,789479.00,945822.63
398071,788514,945537,400996.75,789352.00,945735.44
398473,788596,945229,400693.38,789234.38,945654.25
398645,788645,945243,400408.03,789126.25,945579.56
398864,788663,945745,400143.31,789027.13,945511.25
399372,789145,945706,399900.81,788937.88,945450.00
400113,789316,945770,399683.25,788860.06,945397.25
400497,789570,946006,399493.72,788794.88,945353.63
400917,790237,946417,399333.56,788743.75,945320.31
401833,790380,946358,399204.16,788708.63,945298.00
402530,790477,946622,399108.50,788689.75,945286.63
402951,791203,947057,399048.59,788686.56,945286.25
403895,791315,947159,399025.25,788699.44,945297.38
404476,791485,947284,399039.56,788729.25,945320.50
405052,791659,947367,399092.00,788775.75,945355.13
405918,792032,947570,399181.00,788838.25,945400.75
405966,792219,947610,399304.53,788916.38,945456.50
406413,792215,947746,399461.63,789009.19,945521.63
407455,792750,948003,399651.38,789115.06,945595.63
407817,792672,947976,399873.13,789233.06,945678.00
408137,792917,948105,400126.03,789362.50,945767.75
408399,792982,948544,400407.81,789502.44,945863.88
409040,793031,948305,400715.72,789651.38,945965.63
409461,793121,948337,401048.00,789807.63,946072.31
409637,793199,948380,401402.47,789969.88,946183.13
409921,793784,949033,401775.00,790137.38,946297.56
410715,793745,948853,402162.81,790310.50,946416.13
411170,793933,948814,402566.31,790488.75,946538.44
411382,794133,949486,402985.00,790671.38,946663.38
412156,794612,949274,403417.06,790858.38,946790.63
412705,794699,949392,403862.00,791050.25,946920.81
412986,794610,949318,404318.94,791246.00,947053.50
411951,793290,948226,404784.56,791443.13,947185.25
410853,791960,947371,405250.28,791634.69,947309.69
408957,790873,946547,405702.13,791808.69,947420.00
407045,789035,945069,406124.81,791955.25,947511.00
402770,788063,944683,406500.31,792067.38,947577.88
400854,787362,944100,406808.78,792138.75,947616.50
399366,786954,943903,407038.31,792167.38,947625.63
397258,786780,943795,407184.94,792154.94,947606.50
396561,786817,943865,407246.94,792105.00,947562.13
396557,787102,943983,407226.06,792022.69,947496.00
396875,787676,944373,407129.63,791913.63,947411.75
397018,787728,944369,406968.22,791783.56,947313.38
397381,787794,944511,406752.81,791638.13,947204.63
397479,787985,944868,406493.63,791481.81,947088.88
397871,787904,944695,406199.38,791317.75,946968.50
398134,788006,944675,405878.47,791148.25,946845.50
398336,788183,944874,405538.44,790975.88,946721.38
398878,788707,945591,405185.19,790803.75,946598.63
399342,788789,945362,404825.00,790635.50,946480.13
399721,788831,945433,404465.75,790473.38,946367.25
399808,788841,945776,404113.34,790318.13,946260.63
399810,788854,945205,403770.63,790170.31,946159.63
399851,788787,945087,403439.19,790030.13,946063.63
400106,788717,945160,403120.78,789897.25,945972.00
399715,788736,945149,402816.88,789771.75,945885.06
399787,788505,944934,402527.53,789653.50,945802.56
399917,788625,945110,402252.56,789541.50,945724.06
400179,788897,945129,401993.03,789435.88,945649.94
400407,788830,945265,401750.56,789337.25,945580.75
400537,789096,945485,401526.56,789246.75,945517.50
400979,789234,945593,401322.13,789165.38,945461.25
401932,789714,945969,401138.38,789094.75,945412.94
402255,790016,946033,400977.47,789036.63,945373.88
402513,790202,946195,400843.00,788992.25,945344.38
403550,790947,946564,400737.31,788962.00,945324.25
404220,790918,946806,400662.81,788946.63,945314.19
404658,791110,946960,400622.03,788947.00,945315.38
405329,791351,947621,400616.00,788963.25,945328.50
406182,791832,947417,400645.44,788995.50,945353.44
406481,791925,947433,400711.00,789044.00,945390.00
406996,792145,947574,400811.44,789108.19,945437.38
407897,792635,948209,400945.06,789187.44,945495.38
408114,792592,947948,401110.63,789281.50,945563.88
408678,792763,948024,401307.66,789389.13,945641.94
408940,792804,948299,401534.94,789508.63,945728.38
409457,793158,948130,401790.19,789638.69,945822.13
409894,793147,948051,402071.47,789778.63,945921.75
410189,793184,948378,402376.75,789926.88,946025.94
410020,793391,948396,402703.19,790082.06,946134.56
410880,793241,948561,403048.19,790243.00,946247.25
411386,793498,948530,403410.06,790407.88,946363.31
411588,793926,948680,403787.31,790575.81,946481.56
412422,793923,948813,404178.53,790746.63,946601.25
412747,794140,948885,404583.25,790920.50,946722.63
413117,794431,949139,405000.38,791097.63,946845.88
413644,794750,949294,405426.84,791278.50,946971.25
414210,794751,949434,405860.78,791463.00,947099.00
414287,794605,949095,406302.69,791649.63,947227.88
413077,793067,948119,406750.47,791835.00,947355.31
411654,791811,947055,407194.91,792011.38,947475.25
409555,790628,946313,407620.25,792167.25,947579.75
407557,789498,945211,408010.06,792293.69,947662.63
403546,787955,944569,408347.19,792384.13,947719.75
401712,787402,944133,408613.63,792433.38,947748.13
400508,787169,943898,408799.47,792440.63,947747.00
398805,787212,944410,408903.31,792409.13,947719.00
398541,787320,944129,408926.44,792343.75,947668.00
398587,787513,944209,408872.81,792249.63,947597.50
398570,787510,944863,408750.13,792131.50,947510.38
398908,788034,944687,408568.00,791994.44,947410.38
399340,788197,944693,408336.75,791843.88,947301.31
399510,788233,944844,408066.25,791684.00,947186.25
399208,788380,944934,407764.63,791518.19,947067.38
399951,788520,944898,407438.88,791349.75,946946.69
400440,788611,945100,407096.66,791180.75,946825.50
400577,788970,945426,406745.25,791012.69,946705.81
401351,788967,945334,406391.06,790847.88,946589.25
401287,789007,945289,406040.00,790688.13,946476.81
401565,788987,945343,405695.97,790534.81,946369.13
401516,788956,945180,405361.00,790388.06,946266.13
401446,788744,945126,405036.19,790247.75,946167.38
401327,788714,945171,404722.69,790113.25,946072.88
400940,788750,945046,404421.13,789984.25,945982.63
401057,788649,945061,404131.50,789860.88,945896.50
401068,788714,945086,403853.69,789743.38,945814.50
401298,788803,945616,403588.50,789632.13,945736.94
401645,789008,945478,403337.84,789528.00,945664.75
402075,789177,945485,403104.38,789432.25,945599.13
402478,789414,945776,402890.69,789346.00,945540.88
403031,790047,946308,402698.94,789270.81,945491.13
403590,789974,946101,402531.31,789208.38,945451.00
404054,790276,946295,402390.50,789159.44,945420.56
404662,790579,946843,402278.66,789124.38,945399.88
405029,790800,946807,402196.94,789103.94,945389.31
405815,791257,946747,402146.25,789098.75,945389.38
406367,791441,946954,402127.94,789109.44,945399.94
406491,791851,947334,402142.81,789136.50,945420.88
407629,791915,947498,402191.31,789179.88,945453.06
408073,792194,947463,402273.50,789238.75,945496.00
408335,792714,947852,402388.19,789311.88,945548.63
409235,792709,947737,402534.06,789398.75,945610.19
409514,792662,947731,402710.69,789498.63,945679.81
409832,792721,947755,402916.50,789610.25,945756.38
410377,793042,948106,403147.75,789731.94,945839.13
410557,792930,948022,403401.28,789862.81,945928.00
410711,793079,948010,403676.00,790001.25,946021.88
411463,793375,948388,403970.38,790145.88,946119.75
411679,793267,948312,404282.75,790295.75,946221.50
412148,793526,948314,404612.38,790450.13,946326.44
412453,793722,948948,404958.19,790608.88,946434.00
413322,793879,948786,405319.31,790771.63,946544.38
413558,793995,948722,405695.50,790938.00,946657.63
413647,794001,948570,406084.81,791107.00,946772.50
412845,792768,947970,406483.31,791277.00,946887.25
411421,791589,947014,406882.75,791441.88,946997.81
409810,790480,946139,407269.38,791590.50,947096.69
407917,789483,944993,407628.75,791713.75,947176.88
403222,787678,944266,407942.94,791804.75,947233.31
401554,787157,943803,408191.31,791857.25,947262.38
399924,786720,943615,408362.06,791869.25,947263.25
397202,786508,943247,408451.81,791843.13,947237.00
397416,786653,943476,408459.56,791782.75,947185.69
397235,786737,943676,408387.63,791692.25,947113.25
397118,787199,944057,408242.63,791576.19,947023.94
397595,787242,944002,408034.31,791439.75,946921.50
397778,787396,944130,407773.53,791288.25,946809.50
397972,787451,944180,407470.25,791125.88,946691.00
398077,787570,944250,407131.75,790955.75,946567.94
398151,787489,944097,406764.56,790780.44,946442.00
398200,787649,944214,406376.31,790602.00,946314.13
398634,788124,944639,405974.06,790423.19,946186.00
399104,788178,944604,405564.50,790247.13,946059.75
399454,788280,944646,405155.13,790076.25,945937.38
399616,788409,945033,404751.69,789912.44,945820.13
400006,788299,944780,404358.38,789756.38,945708.94
399860,788126,944586,403978.38,789607.75,945603.75
399887,788160,944619,403613.13,789466.13,945503.81
399814,788300,944570,403263.50,789332.00,945409.63
399838,788206,944642,402930.44,789206.00,945321.94
399899,788123,944490,402614.13,789087.69,945239.75
400079,788200,945134,402315.22,788976.50,945162.38
400094,788451,944856,402034.69,788873.00,945090.38
400437,788652,944970,401773.50,788778.50,945024.94
400842,788699,944958,401533.25,788693.81,944966.56
400786,789348,945365,401315.50,788620.00,944915.69
401707,789403,945509,401121.75,788558.50,944873.63
402316,789663,945625,400954.63,788510.63,944841.00
402856,790237,946103,400816.97,788476.63,944818.00
403924,790349,946215,400711.34,788457.19,944805.00
404519,790528,946335,400640.72,788453.25,944803.25
404889,790795,946537,400606.34,788465.06,944813.13
405697,791239,946826,400606.69,788492.88,944834.63
406194,791456,947002,400640.75,788537.06,944867.88
406865,791542,947050,400710.31,788597.19,944912.63
407325,792058,947281,400816.00,788672.13,944968.00
407846,792015,947416,400956.25,788761.13,945033.25
408264,792097,947495,401129.88,788863.25,945108.06
408481,792287,947783,401335.00,788977.25,945191.13
409222,792329,947460,401569.28,789101.88,945280.63
409421,792594,947630,401831.09,789235.88,945375.63
409675,792640,947560,402117.84,789378.25,945475.63
410037,792907,948037,402426.09,789528.25,945579.81
410602,792854,947927,402753.53,789684.56,945688.06
410865,793038,947894,403099.06,789846.13,945799.81
411198,793141,948380,403461.03,790012.00,945914.13
411684,793615,948357,403837.44,790181.94,946031.06
412221,793686,948313,404227.25,790356.38,946150.69
412608,793792,948515,404629.50,790534.75,946272.50
412368,793484,948016,405042.38,790716.13,946395.19
412224,792571,947618,405461.72,790897.13,946515.50
411128,791510,946739,405880.13,791069.75,946628.94
409471,789595,945520,406286.84,791225.31,946730.19
405364,788439,944484,406664.69,791355.19,946812.75
403253,787623,944022,406992.38,791450.69,946870.63
401219,786848,943593,407254.44,791507.06,946900.94
397974,786161,943129,407441.19,791522.88,946903.38
397241,786151,943076,407545.06,791498.88,946878.75
396569,786207,943124,407563.31,791438.63,946829.31
396108,786624,943586,407499.88,791347.25,946758.88
396436,786753,943525,407362.81,791230.38,946671.50
396538,786930,943602,407161.97,791094.00,946571.13
396739,786987,944201,406907.13,790942.88,946460.88
396924,787221,944062,406607.69,790780.88,946343.88
397113,787180,943982,406272.56,790611.25,946223.00
397137,787135,944011,405909.38,790436.50,946100.19
397394,787544,944515,405524.56,790258.75,945976.94
397775,787573,944273,405124.56,790081.13,945855.25
398143,787682,944163,404717.22,789905.94,945736.00
398462,787829,944650,404309.44,789735.13,945619.88
398585,788010,944512,403906.31,789570.50,945508.13
398792,787850,944413,403511.66,789413.06,945401.69
398888,787907,944367,403128.56,789263.06,945300.63
398428,787847,944483,402758.84,789121.00,945204.88
398856,787847,944310,402403.44,788987.44,945114.56
399169,787833,944352,402064.06,788861.69,945029.38
398957,788136,944380,401742.38,788743.25,944948.94
399463,788063,944468,401439.31,788632.50,944873.50
399324,788126,944566,401156.13,788530.25,944803.88
399607,788273,944575,400893.50,788437.25,944740.44
400261,788639,944828,400651.50,788354.38,944683.69
400722,788823,945017,400431.75,788282.88,944634.50
401071,789060,945160,400238.19,788223.88,944593.88
402092,789740,945679,400073.94,788177.81,944562.00
402693,789768,945663,399941.53,788145.56,944539.50
402676,789970,945835,399842.94,788128.38,944527.38
403332,790301,946371,399777.88,788126.88,944526.38
404592,790770,946437,399747.56,788141.75,944537.13
404959,790840,946487,399754.59,788173.38,944559.88
405412,791129,946676,399799.03,788221.19,944594.44
406369,791523,947335,399879.38,788284.69,944640.25
406810,791663,947090,399995.00,788363.75,944697.19
407430,791783,947079,400146.38,788457.56,944764.69
407719,791840,947676,400332.69,788564.63,944841.56
408191,792274,947584,400551.50,788683.75,944927.38
408849,792341,947657,400800.94,788814.50,945022.13
409337,792403,947417,401079.63,788955.75,945124.44
409210,792604,947749,401385.25,789106.19,945232.56
409967,792660,947779,401714.31,789265.00,945345.88
410495,792799,947852,402065.06,789430.44,945463.75
410880,793365,948168,402436.06,789601.38,945585.44
411436,793167,947978,402825.69,789777.25,945710.13
411740,793303,948277,403232.13,789957.38,945837.31
411861,793311,948113,403652.84,790140.63,945966.63
412475,793628,948394,404082.91,790326.13,946097.25
412932,793793,948563,404519.13,790513.75,946229.13
413383,794011,948728,404963.44,790703.50,946362.63
414101,794532,949054,405417.00,790895.00,946497.50
414518,794636,949050,405878.84,791088.38,946633.50
414745,794949,949379,406348.69,791284.63,946771.25
415179,795217,949606,406825.19,791484.63,946911.25
415698,794854,949232,407307.16,791687.38,947052.44
415324,793796,948454,407792.34,791888.25,947191.81
414158,792630,947598,408274.28,792079.25,947323.88
410175,790205,946250,408740.94,792251.81,947442.63
408052,788982,944959,409173.34,792395.75,947541.06
405705,788093,944396,409549.75,792500.56,947611.38
403641,787254,943806,409854.44,792561.00,947649.94
400207,786689,943461,410075.44,792576.00,947656.38
399293,786705,943444,410202.94,792547.19,947631.88
398765,786686,943510,410236.38,792479.00,947579.88
398068,787043,943754,410182.63,792377.00,947504.44
398454,787076,943737,410050.56,792247.13,947409.94
398716,787258,944089,409849.88,792094.88,947300.31
398889,788043,944240,409591.09,791925.13,947179.50
399332,787824,944381,409284.88,791743.19,947051.00
399627,787736,944307,408941.47,791553.25,946917.50
399658,787904,944464,408569.69,791358.06,946781.00
400042,788016,944547,408175.81,791160.38,946643.38
400367,788131,944734,407766.25,790962.88,946506.75
400638,788343,944829,407349.31,790768.00,946373.00
400975,788808,945034,406932.38,790578.25,946243.56
401371,788772,945054,406521.00,790396.25,946119.50
401225,788637,944948,406119.28,790223.13,946001.75
401280,788461,945068,405729.22,790058.63,945890.06
401544,788472,944981,405352.72,789902.00,945784.38
401329,788370,944816,404991.63,789753.06,945684.75
401316,788368,944675,404646.44,789611.69,945590.50
401398,788704,945336,404317.31,789478.19,945501.63
401419,788487,945018,404004.81,789353.31,945419.25
401777,788672,945010,403710.44,789237.31,945343.63
401924,788826,945528,403436.03,789130.69,945274.69
402352,789200,945403,403183.25,789034.75,945212.94
402900,789247,945531,402954.28,788950.75,945159.44
403269,789643,945713,402751.41,788879.38,945115.00
403610,790255,946093,402575.94,788822.13,945080.56
404530,790251,946259,402429.31,788780.50,945057.13
405230,790506,946406,402314.66,788754.75,945045.25
405656,791112,946932,402234.31,788744.81,945044.63
406616,791175,946802,402189.38,788751.13,945055.25
407025,791409,946863,402181.13,788774.13,945077.06
407409,791649,947120,402209.19,788813.75,945109.75
408453,791986,947405,402271.56,788869.69,945153.38
408949,792221,947539,402367.47,788941.63,945208.00
409377,792258,947561,402498.50,789028.75,945273.13
409871,792744,947853,402664.19,789129.56,945347.63
410310,792714,947767,402862.13,789242.88,945430.50
410593,792792,947887,403090.56,789367.88,945521.00
410936,792837,948462,403347.25,789503.19,945618.25
411643,793239,948212,403630.06,789647.75,945721.88
411933,793248,948199,403937.53,789800.88,945831.13
412018,793350,948205,404267.06,789961.38,945945.00
412671,793453,948688,404614.88,790128.25,946062.75
412992,793533,948579,404978.56,790300.50,946184.56
413348,793567,948601,405357.47,790476.38,946309.63
413719,793840,949056,405750.44,790654.63,946436.75
414304,794273,948920,406156.00,790835.69,946565.44
414755,794296,948911,406573.34,791019.88,946695.63
415160,794732,949178,407001.56,791207.25,946827.25
415761,795070,949695,407439.19,791398.50,946961.13
416451,795302,949808,407885.78,791594.50,947098.63
416841,795310,949682,408341.75,791794.63,947239.31
416862,794318,948806,408805.72,791996.25,947381.06
415403,793013,947848,409271.56,792193.13,947518.50
413750,791682,946979,409727.25,792374.00,947643.50
411743,790430,945835,410158.25,792528.75,947748.50
407542,788673,944859,410549.56,792649.13,947827.44
405469,787939,944317,410883.41,792728.13,947876.25
403856,787425,943983,411142.63,792763.25,947893.63
401706,787326,943866,411318.94,792755.50,947880.56
401139,787191,943850,411410.72,792707.88,947839.31
400756,787307,944009,411418.75,792625.50,947773.81
400771,787418,944696,411348.56,792513.75,947688.50
401085,787753,944473,411209.75,792378.38,947587.75
401491,788085,944552,411013.34,792224.94,947475.56
401638,788217,944729,410769.78,792058.88,947355.38
401981,788599,945350,410487.06,791884.63,947230.50
402429,788528,945048,410173.00,791705.94,947104.38
402587,788620,945042,409837.25,791525.31,946978.25
402799,788774,945588,409487.97,791344.75,946853.13
403257,789306,945430,409131.13,791167.25,946731.19
403830,789376,945525,408773.38,790996.06,946613.94
404155,789398,945700,408420.94,790833.00,946502.63
403712,789547,945505,408077.59,790679.06,946397.81
404347,789273,945521,407745.31,790534.63,946299.13
404374,789286,945436,407426.41,790398.56,946206.19
404362,789424,945394,407122.50,790270.13,946118.63
404180,789074,945250,406833.69,790148.88,946035.75
404400,789109,945441,406560.09,790034.19,945957.63
404353,789249,945422,406302.28,789926.38,945884.44
404762,789410,945471,406060.47,789826.31,945816.50
404635,789655,945732,405834.91,789735.13,945754.50
405303,789779,945912,405627.66,789653.81,945699.38
405958,790205,945968,405441.44,789583.25,945652.25
406464,790303,946245,405278.81,789524.38,945613.56
406716,790672,946471,405142.66,789478.25,945584.06
407244,790945,947144,405034.44,789446.06,945564.19
408308,791358,947011,404956.06,789428.94,945554.50
408888,791619,947152,404910.50,789427.63,945555.88
409414,791931,947220,404899.28,789442.56,945568.63
410005,792638,948163,404920.75,789474.06,945593.00
410685,792716,947914,404973.47,789522.63,945630.13
411148,792849,947893,405059.63,789588.38,945679.50
411500,793035,948555,405180.00,789670.31,945739.38
412002,793320,948362,405332.78,789767.50,945809.25
412515,793338,948337,405516.50,789878.75,945888.75
412885,793500,948265,405729.59,790002.50,945976.88
413185,793731,948515,405969.28,790137.63,946071.94
413766,793658,948470,406232.88,790282.88,946173.25
414092,793700,948634,406519.59,790436.00,946279.81
414414,793949,948746,406828.06,790595.38,946390.69
414784,794015,948778,407155.97,790759.88,946504.94
415109,794102,948826,407501.13,790928.75,946622.13
415664,794290,949014,407861.94,791101.25,946741.88
416308,794778,949200,408236.56,791277.44,946864.25
416273,794979,949250,408622.94,791458.00,946989.13
416866,794910,949382,409020.09,791642.69,947116.00
417106,794792,949063,409427.41,791829.69,947244.25
416994,793973,948560,409842.44,792015.56,947371.50
415955,792914,947676,410259.44,792193.75,947492.25
414533,791826,946484,410668.47,792356.19,947600.25
410656,789591,945445,411053.38,792493.63,947688.88
408579,788788,944861,411393.50,792596.38,947752.06
406913,788127,944473,411673.88,792659.38,947787.13
403906,787693,944499,411885.53,792683.13,947794.44
403193,787472,944138,412020.94,792669.56,947776.00
402576,787456,944066,412077.41,792620.75,947733.56
402129,787610,944548,412058.06,792540.19,947669.63
402119,788053,944559,411969.16,792433.50,947588.13
402530,788186,944692,411819.38,792306.75,947493.63
402813,788511,944853,411618.94,792165.06,947389.75
402917,788813,945062,411376.72,792013.63,947279.56
403600,788913,945157,411101.00,791856.88,947165.88
403832,788978,945186,410801.31,791697.25,947050.63
404079,789447,945583,410485.88,791536.63,946935.38
404558,789638,945624,410160.94,791377.75,946821.75
405092,789703,945726,409833.19,791223.88,946712.19
405566,789921,945789,409509.13,791077.25,946608.19
405793,789919,945682,409193.13,790938.94,946510.13
405577,789734,945574,408887.44,790809.00,946417.50
405705,789589,945617,408593.38,790686.50,946329.88
405667,789562,945531,408312.88,790570.81,946246.69
405480,789435,945451,408046.59,790461.63,946167.50
405402,789464,945322,407793.44,790358.25,946091.88
405592,789443,945767,407553.00,790260.44,946019.50
405564,789448,945428,407325.97,790168.13,945950.38
406007,789555,945487,407113.56,790081.56,945885.25
406167,789606,945608,406917.44,790001.25,945824.94
406441,790254,946364,406737.97,789928.63,945770.69
407247,790440,946083,406576.31,789866.44,945724.13
407583,790556,946157,406436.59,789815.75,945685.63
408045,790918,946987,406321.88,789776.94,945655.38
408702,791437,946953,406233.63,789751.25,945634.44
409327,791607,946931,406173.69,789740.38,945624.50
409677,791769,947187,406143.31,789744.38,945625.75
410489,792291,947521,406142.59,789763.50,945638.44
411127,792454,947451,406172.13,789798.63,945662.69
411598,792631,947603,406233.50,789849.25,945697.50
412130,793272,948045,406327.06,789914.63,945742.25
412870,793233,947984,406452.44,789994.25,945796.50
413273,793412,948071,406609.50,790088.06,945860.13
413538,793448,948169,406796.63,790194.94,945932.50
414038,793535,948112,407011.16,790313.19,946012.38
414198,793639,948334,407250.50,790441.13,946098.88
414520,793595,948188,407512.50,790577.25,946190.88
415237,793932,948581,407794.97,790719.75,946287.13
415503,793980,948474,408096.28,790867.63,946386.75
415810,794136,948594,408415.72,791020.75,946489.88
415955,794215,949133,408751.47,791178.56,946596.50
416746,794425,948991,409101.75,791340.25,946706.56
416950,794622,949072,409465.78,791505.63,946820.25
417152,794460,948843,409841.88,791673.75,946936.56
415864,793055,947965,410225.06,791841.94,947053.13
414482,791670,946843,410605.22,792002.88,947164.63
412712,790460,945826,410968.84,792144.50,947262.00
410746,789450,944757,411302.25,792257.63,947338.13
406418,787730,944045,411588.19,792335.63,947388.38
404627,787234,943713,411807.38,792373.06,947409.63
402977,786789,943399,411948.63,792368.63,947401.38
400773,786717,943429,412008.50,792325.00,947365.44
400639,786841,943493,411986.63,792246.63,947305.00
400383,786890,943592,411885.88,792138.13,947223.81
400411,787189,944127,411713.31,792004.13,947125.50
400523,787304,944001,411478.50,791849.56,947013.94
400902,787514,943948,411191.53,791679.63,946892.69
400943,787581,944065,410862.31,791498.88,946764.38
401168,787606,944075,410499.06,791310.63,946631.25
401187,787780,944095,410108.81,791117.63,946495.00
401533,787977,944365,409699.25,790922.88,946357.63
401982,788397,944607,409277.63,790729.13,946221.13
402282,788341,944546,408850.66,790538.50,946087.25
402536,788406,944522,408425.06,790353.69,945957.31
402551,788433,944893,408005.91,790176.25,945832.31
402721,788293,944545,407596.25,790006.50,945712.75
402711,788135,944466,407198.63,789844.06,945598.63
402782,788171,944414,406814.94,789688.56,945489.63
402158,788165,944720,406444.56,789540.50,945386.25
402387,788038,944270,406086.00,789400.25,945288.50
402333,788043,944308,405741.06,789267.25,945195.75
402405,788079,944709,405411.88,789140.88,945107.25
402540,788279,944773,405099.41,789021.88,945024.19
402710,788348,944606,404804.94,788911.13,944947.88
403021,788648,944883,404529.88,788809.69,944878.81
403524,788998,944877,404276.25,788719.38,944817.38
404097,789142,944989,404046.50,788642.00,944763.75
404577,789415,945252,403843.75,788577.88,944718.31
405162,790055,945795,403670.31,788527.25,944681.94
405992,790093,945786,403528.56,788491.13,944655.50
406498,790447,946004,403420.88,788470.75,944640.06
407054,790702,946052,403348.44,788467.06,944636.13
407857,791117,946410,403311.25,788480.44,944643.63
408189,791295,946501,403309.06,788511.13,944662.63
408668,791292,946474,403342.31,788558.25,944692.63
409252,791724,946912,403410.44,788620.00,944732.50
409724,791582,946781,403512.31,788694.88,944781.38
409947,791705,946828,403646.94,788781.94,944839.00
410242,791762,947393,403811.94,788880.13,944904.63
410689,792114,947102,404004.94,788988.38,944977.75
410965,792165,947064,404223.91,789106.25,945057.69
411511,792259,947294,404467.00,789232.75,945143.38
411871,792770,947709,404731.22,789367.25,945234.75
412541,792574,947414,405014.06,789509.38,945331.56
412683,792683,947458,405316.25,789657.69,945432.63
413056,792647,947555,405637.31,789810.50,945536.75
412875,792010,946995,405974.00,789965.06,945642.44
411983,791167,946287,406320.41,790116.06,945745.44
410327,789949,945321,406666.25,790256.38,945839.75
406117,787709,943823,406997.88,790378.50,945918.38
403947,786776,943167,407296.50,790473.81,945973.88
401833,786112,942762,407540.00,790533.81,946002.88
399990,785447,942491,407713.69,790554.88,946004.94
397249,785167,942161,407808.88,790537.63,945980.94
396643,785114,942138,407819.56,790484.00,945932.38
396274,785165,942365,407747.63,790397.50,945862.19
396196,785618,942465,407600.22,790283.63,945774.38
396333,785742,942562,407386.00,790148.31,945672.69
396518,785990,942767,407115.63,789996.88,945560.31
396911,786309,942938,406799.47,789833.50,945440.38
397065,786215,942993,406446.97,789661.69,945315.63
397385,786129,942996,406067.13,789484.25,945188.13
397448,786280,943530,405667.88,789303.50,945059.56
397885,786795,943378,405255.94,789122.50,944931.75
398473,786859,943505,404838.66,788944.88,944807.13
398658,787027,943560,404423.00,788773.00,944687.50
398744,787295,943987,404012.00,788608.88,944573.88
399099,787189,943670,403607.69,788454.00,944467.06
399305,787122,943576,403215.88,788308.25,944366.88
399323,787139,943728,402841.00,788171.13,944272.50
399248,786906,943414,402484.19,788042.06,944183.31
399147,786841,943313,402145.50,787920.13,944098.75
399224,786940,943456,401824.91,787804.94,944018.81
398935,787064,943332,401521.97,787697.13,943943.63
399326,787071,943515,401236.44,787597.38,943873.38
399597,787234,943618,400970.00,787505.94,943808.56
399733,787567,944017,400724.47,787423.06,943749.88
400229,787776,943986,400501.13,787349.81,943697.94
400699,787948,944129,400301.97,787287.75,943653.88
401247,788159,944331,400129.19,787237.88,943618.50
402197,788766,944818,399984.53,787201.38,943593.13
402563,788942,944959,399869.78,787179.75,943578.94
403071,789164,945000,399787.34,787173.63,943576.38
403980,789798,945495,399738.88,787182.88,943584.63
404507,789833,945527,399725.47,787207.63,943603.75
405125,790109,945684,399748.31,787248.50,943634.13
405512,790213,946276,399807.44,787305.13,943676.00
406290,790517,946023,399902.00,787376.88,943728.63
406806,790701,946288,400031.78,787462.88,943791.88
407290,790747,946264,400195.81,787562.38,943865.50
407600,791178,946733,400390.63,787674.00,943948.75
408081,790998,946380,400612.41,787796.75,944040.69
408435,791198,946530,400860.97,787929.13,944139.63
408749,791192,947054,401135.75,788069.50,944244.13
409333,791512,946724,401434.50,788216.88,944353.25
409628,791563,946867,401755.44,788370.50,944466.75
409852,791789,946828,402096.25,788529.88,944584.13
410371,792005,947007,402454.13,788694.63,944704.63
410725,791875,946824,402827.19,788864.25,944827.19
410686,791424,946497,403213.31,789035.63,944949.75
410153,789648,945423,403607.91,789203.88,945068.56
406962,788466,944376,403999.25,789360.38,945177.56
405000,787344,943612,404368.69,789494.00,945269.13
402693,786387,942968,404698.75,789596.44,945338.00
398511,785002,942060,404975.56,789662.63,945381.06
396809,784537,941776,405184.28,789688.69,945395.88
395573,784355,941598,405311.66,789674.50,945382.63
394062,784419,941718,405353.59,789623.19,945343.63
393883,784538,941843,405312.91,789539.25,945282.19
394112,784807,941967,405195.34,789428.56,945202.56
394389,785060,942693,405010.56,789297.00,945108.88
394783,785447,942522,404769.97,789150.13,945005.13
395080,785555,942706,404484.34,788992.88,944895.25
395328,785576,942646,404163.31,788828.69,944781.75
395480,785988,943184,403813.69,788660.50,944666.81
396021,786099,942890,403441.94,788491.63,944552.63
396411,786211,943115,403057.75,788324.88,944440.38
396848,786403,943633,402670.06,788162.38,944331.75
397439,786828,943541,402285.56,788006.44,944228.75
397838,786724,943566,401910.31,787859.25,944132.50
397869,786739,943448,401548.63,787721.19,944043.25
397752,786601,943304,401202.19,787592.38,943960.00
397880,786350,943121,400871.63,787472.25,943881.63
397847,786472,943119,400557.66,787359.19,943807.25
397787,786325,943361,400260.63,787252.50,943736.63
397699,786332,943209,399980.25,787152.00,943670.00
398004,786459,943209,399716.81,787057.63,943607.75
398046,786419,943225,399471.22,786969.63,943549.88
398509,786869,943680,399244.06,786888.88,943497.25
398695,786994,943598,399036.19,786816.81,943451.13
399134,787156,943755,398849.94,786754.56,943411.88
399793,788011,944188,398687.47,786702.94,943379.81
400439,788051,944353,398551.00,786663.63,943355.88
401004,788296,944450,398443.63,786638.63,943341.38
401568,788505,945289,398367.56,786628.63,943337.00
402494,789086,945214,398324.50,786634.13,943343.50
403002,789452,945353,398316.19,786656.63,943362.25
403570,789628,945548,398343.28,786696.50,943393.38
404286,790223,946116,398403.53,786753.69,943436.81
404923,790301,946095,398495.31,786828.13,943492.50
405492,790452,946086,398621.06,786919.13,943560.06
405890,790535,946513,398782.00,787025.19,943638.25
406556,790786,946229,398976.56,787144.75,943725.38
407001,790915,946377,399203.38,787276.75,943820.63
407423,791129,946534,399460.63,787420.06,943923.38
408047,791270,946776,399745.19,787573.69,944033.44
408195,791318,946839,400054.13,787736.38,944150.25
408624,791478,946720,400385.84,787906.56,944272.81
408817,791602,947015,400738.50,788082.75,944399.25
409469,791772,947144,401109.72,788264.00,944529.13
410126,791968,947300,401498.63,788449.63,944662.50
410346,792050,947276,401904.22,788639.00,944799.25
410984,792386,947406,402324.00,788831.63,944938.38
411066,792389,947571,402755.25,789027.00,945079.31
411600,792503,947541,403196.75,789224.31,945221.56
412311,793015,948029,403647.81,789422.88,945364.75
412815,793177,948061,404107.88,789623.00,945509.25
413012,793353,948316,404576.63,789825.25,945655.56
413629,793632,948360,405052.91,790029.88,945803.81
414450,794084,948853,405536.47,790237.13,945954.25
414887,794248,948821,406027.81,790447.63,946107.25
415103,794216,948769,406526.00,790661.00,946262.13
414092,792777,947741,407026.13,790874.88,946417.25
412845,791189,946471,407518.69,791081.50,946567.38
410865,789750,945332,407990.97,791267.00,946701.25
408276,788352,943962,408427.81,791419.75,946809.75
403732,786484,943139,408808.69,791531.38,946887.25
401666,785802,942689,409112.31,791595.13,946929.63
399932,785392,942458,409326.47,791609.44,946936.50
397671,785128,942250,409447.50,791577.50,946909.75
397252,785273,942424,409474.94,791503.88,946852.75
397088,785401,942604,409411.94,791393.94,946770.06
397322,786232,943208,409266.88,791253.63,946666.63
397675,786369,943351,409051.63,791090.63,946547.75
398038,786470,943451,408778.38,790911.50,946418.63
398341,786713,943594,408458.50,790721.13,946283.00
399009,786958,943721,408101.94,790523.75,946143.63
399275,787270,943761,407718.13,790323.56,946002.69
399504,787283,943870,407316.63,790124.00,945862.00
400090,787765,944168,406905.28,789927.25,945723.38
400368,787749,944334,406490.97,789735.75,945588.81
400830,787709,944372,406080.38,789551.38,945460.38
401076,787752,944264,405679.13,789375.38,945338.75
401005,787802,944294,405290.66,789208.13,945223.75
401208,787653,944159,404916.88,789049.88,945115.13
401052,787591,944120,404559.13,788900.13,945012.44
400586,787622,944455,404216.00,788758.63,944915.50
400674,787417,944023,403885.38,788625.00,944824.13
400598,787403,943959,403568.63,788498.69,944737.88
400668,787460,944337,403267.53,788379.31,944656.00
400795,787694,944037,402982.81,788267.56,944578.63
401209,787693,944300,402716.03,788164.31,944506.50
401643,788088,944398,402469.50,788070.44,944441.00
402389,788550,944927,402245.44,787987.81,944383.69
402833,788773,944904,402046.19,787918.38,944336.06
403463,789030,944965,401875.38,787863.44,944298.31
403946,789467,945589,401735.97,787823.63,944270.38
404758,789855,945855,401629.66,787800.13,944253.75
405331,790121,945974,401558.25,787794.13,944250.00
405825,790329,946054,401522.69,787805.75,944259.13
406759,790773,946394,401522.63,787834.88,944280.88
407077,790952,946630,401557.84,787881.56,944315.25
407505,791156,946722,401628.56,787945.31,944362.38
408505,791821,946985,401734.25,788025.00,944421.38
409014,791777,946995,401874.59,788120.06,944491.25
409276,791809,947077,402049.50,788229.94,944571.25
409638,791892,947089,402256.97,788353.25,944660.13
410271,792200,947229,402494.63,788488.31,944756.56
410545,792185,947287,402760.63,788634.13,944859.63
410866,792213,947378,403052.47,788788.88,944968.38
410943,792736,947861,403365.63,788950.94,945082.38
411748,792542,947627,403696.31,789119.25,945201.31
412100,792663,947586,404045.09,789292.88,945324.13
412248,792793,947868,404411.56,789470.75,945449.19
413001,793039,947891,404793.44,789652.38,945576.00
413283,793228,948078,405189.75,789837.38,945704.75
413652,793469,948238,405598.97,790025.50,945835.69
414333,793784,948410,406018.81,790217.13,945968.88
414820,794091,948507,406448.06,790412.44,946104.19
415301,794228,948818,406887.38,790611.63,946241.56
415571,793612,948399,407336.31,790813.44,946381.00
414721,792562,947375,407790.81,791013.25,946519.13
413543,791327,946494,408242.13,791201.63,946648.19
411859,790035,945572,408678.38,791368.75,946760.88
407700,787974,944226,409085.56,791505.06,946850.88
405724,787188,943675,409445.56,791601.94,946912.63
403909,786600,943183,409739.72,791655.56,946943.50
401075,786135,942894,409957.13,791666.25,946943.75
400499,786091,942897,410092.72,791636.19,946914.88
400200,786214,943226,410145.00,791569.50,946860.75
400022,786487,943269,410118.59,791471.75,946785.75
400258,787009,943726,410022.19,791349.38,946694.63
400581,787281,943953,409865.78,791209.19,946592.06
400876,787404,944094,409659.75,791056.44,946482.06
400873,788253,944677,409412.19,790895.50,946368.00
401550,788038,944485,409130.63,790730.94,946253.00
402210,788249,944558,408825.75,790566.00,946138.75
402535,788413,944921,408507.56,790403.50,946026.38
403539,788998,945198,408184.25,790246.13,945917.75
403779,789008,945033,407863.47,790097.06,945815.19
404044,789063,945041,407550.44,789957.56,945719.25
404327,789137,945032,407247.94,789828.00,945629.63
404759,789132,945071,406958.75,789708.69,945546.13
404771,789014,945077,406686.00,789599.00,945468.94
404689,788760,944996,406431.06,789497.81,945397.56
404214,788605,944862,406192.56,789403.56,945331.19
404343,788620,944811,405968.66,789314.94,945269.13
404510,788732,944873,405759.19,789231.88,945211.25
404489,788847,945035,405564.28,789154.81,945157.88
404742,788977,944945,405383.91,789084.63,945109.31
405194,789125,945245,405219.84,789021.88,945066.00
405869,789758,945583,405074.81,788967.50,945028.44
406228,789921,945831,404951.13,788923.13,944997.88
406728,790194,946015,404851.13,788890.75,944976.25
407234,790578,946232,404776.63,788871.88,944964.75
408250,791148,946650,404729.75,788868.06,944964.25
408809,791452,946936,404713.25,788880.88,944975.94
409259,791635,946901,404728.50,788910.75,945000.00
409451,792516,947761,404773.16,788957.56,945036.06
410462,792440,947492,404845.31,789021.38,945084.50
410996,792594,947577,404947.75,789102.38,945144.88
411434,792662,947871,405082.25,789199.13,945216.13
412293,793092,948040,405248.25,789310.63,945297.88
412865,793116,948129,405445.81,789436.00,945389.75
413041,793365,948137,405673.78,789574.00,945490.75
413671,793656,948443,405928.06,789723.50,945599.88
414278,793794,948373,406205.81,789883.81,945716.25
414543,793756,948461,406507.75,790053.63,945838.75
414951,794130,948701,406833.38,790230.69,945965.94
415322,794131,948669,407180.09,790413.63,946096.88
415644,794107,948564,407545.66,790601.63,946230.69
415949,794134,948820,407927.56,790793.38,946366.63
416237,794536,948955,408323.56,790987.75,946504.25
416977,794634,949050,408732.41,791184.75,946643.69
417390,794806,949170,409153.28,791384.00,946784.38
417781,795267,949667,409584.63,791584.75,946926.13
418172,795443,949692,410024.56,791787.00,947069.13
418760,795641,949670,410472.50,791991.56,947213.75
419163,795711,949873,410928.19,792198.63,947359.88
418960,794617,948974,411389.59,792404.94,947505.19
418120,793279,947911,411851.13,792602.75,947643.88
416465,791995,946987,412302.88,792782.50,947768.63
411550,790002,945656,412729.56,792935.50,947873.44
410286,788879,944782,413111.06,793053.50,947953.00
408350,788040,944175,413429.34,793129.00,948001.81
406845,787609,943801,413673.94,793159.19,948017.38
404893,787409,943735,413839.06,793145.69,948001.00
404296,787456,943847,413921.84,793092.25,947955.75
403754,787685,944017,413924.63,793004.13,947885.88
404052,788217,944615,413853.25,792887.63,947796.63
404684,788424,944722,413717.25,792749.13,947693.75
405190,788726,944946,413530.00,792595.00,947581.31
405615,789487,945399,413303.50,792430.69,947462.88
406126,789557,945569,413047.50,792261.44,947342.00
406918,789818,945588,412771.38,792091.88,947221.75
407008,789886,945798,412483.50,791925.19,947103.94
407784,790508,946212,412190.06,791764.13,946990.81
408379,790568,946290,411897.47,791611.81,946884.63
408768,790735,946197,411612.53,791469.88,946786.19
408925,790831,946239,411340.16,791338.94,946695.06
408905,790556,946137,411082.44,791218.63,946610.75
408939,790241,945900,410839.50,791107.38,946532.44
408860,789973,945689,410610.94,791002.88,946458.75
408682,789974,945632,410396.19,790903.63,946388.38
408488,789798,945546,410194.06,790808.88,946320.63
408562,789714,945566,410003.63,790718.00,946255.38
407919,790280,946155,409823.13,790631.19,946193.25
408571,790066,945957,409651.22,790549.63,946136.00
409229,790318,946094,409491.06,790474.38,946084.31
409158,790369,946330,409346.44,790406.50,946038.38
410007,790996,946604,409219.09,790347.31,945999.13
410599,791144,946598,409112.00,790299.00,945967.81
410859,791555,946811,409027.69,790262.94,945945.19
411765,792039,947340,408966.13,790240.50,945932.13
412339,792292,947453,408928.19,790232.94,945930.13
412934,792723,947728,408917.97,790241.44,945939.75
413365,793191,948150,408938.00,790266.38,945961.19
414005,793367,948168,408988.47,790307.75,945994.50
414778,793484,948246,409069.94,790365.69,946039.38
415127,793552,948419,409182.88,790439.63,946095.38
415397,793849,948587,409325.69,790528.00,946161.88
415940,794003,948460,409496.19,790630.06,946237.69
416505,794046,948757,409693.63,790744.63,946321.69
417048,794345,949076,409917.16,790869.88,946413.06
417174,794347,948850,410164.66,791004.44,946511.00
417513,794378,948778,410434.19,791147.25,946614.19
417727,794520,948812,410723.69,791297.13,946721.31
418287,794742,949160,411031.13,791453.19,946831.75
418714,794837,949229,411355.31,791614.75,946945.69
419038,795103,949405,411695.19,791781.31,947063.25
418417,795430,949695,412047.13,791952.38,947184.13
419182,794420,948774,412406.75,792125.69,947306.75
418621,793343,947928,412771.31,792295.00,947425.63
417251,792250,946109,413134.41,792452.00,947534.56
413590,789982,945388,413480.88,792587.00,947626.50
411501,788959,944822,413790.41,792689.44,947693.63
409428,788054,944297,414046.94,792752.75,947731.94
405972,787230,943829,414238.56,792775.25,947740.75
404988,787138,943703,414354.81,792757.63,947720.56
404162,786975,943626,414390.66,792701.63,947673.38
403582,787455,944126,414347.94,792610.88,947602.50
403520,787560,944065,414232.44,792491.13,947512.00
403835,787942,944268,414052.75,792349.38,947406.56
404083,788130,944542,413819.28,792191.50,947290.75
404777,788592,944786,413542.13,792023.00,947168.25
405059,788721,944862,413231.38,791848.50,947042.38
405300,788892,944970,412896.56,791671.69,946915.44
405900,789274,945540,412545.47,791495.31,946789.00
406238,789381,945411,412185.19,791322.31,946665.00
406764,789607,945584,411823.41,791155.25,946546.00
407133,789724,945559,411466.75,790996.25,946433.56
407296,789730,945556,411118.44,790846.38,946328.00
407537,789799,945552,410780.50,790706.13,946229.13
407593,789707,945471,410456.75,790575.31,946136.75
406212,789816,945644,410148.47,790453.81,946050.25
407047,789319,945353,409853.81,790340.56,945969.00
406760,789208,945369,409572.22,790233.69,945892.63
406986,789155,945217,409304.03,790131.94,945821.00
407207,789307,945028,409050.31,790035.38,945753.13
407087,789284,945100,408812.25,789944.50,945688.13
407259,789490,945338,408589.97,789859.88,945626.75
407404,789673,945751,408382.19,789782.13,945570.81
407983,789894,945784,408188.94,789712.13,945522.00
408335,790160,946014,408014.59,789651.38,945481.25
408934,790908,946639,407863.50,789601.38,945448.88
409839,791028,946470,407738.56,789563.50,945425.50
410268,791352,946645,407642.75,789540.13,945412.13
410738,791505,946735,407577.47,789532.44,945409.13
411347,791966,947120,407542.13,789540.63,945416.75
411964,792240,947442,407536.63,789565.31,945435.88
412510,792339,947469,407562.94,789606.31,945466.88
413007,792687,947995,407622.00,789662.50,945508.94
413432,792652,947756,407712.81,789732.75,945561.06
413606,792631,947689,407834.06,789815.75,945622.63
414081,792899,947689,407983.94,789910.13,945692.13
414350,793237,948066,408158.50,790015.44,945768.88
414961,793312,948111,408354.75,790131.50,945852.88
415141,793331,948172,408573.63,790257.06,945943.50
414806,793918,948615,408813.97,790391.00,946039.88
415763,793725,948354,409072.44,790532.75,946141.13
416178,793655,948180,409348.63,790680.94,946246.25
416365,793515,947606,409641.94,790833.44,946353.25
414983,791806,946859,409947.22,790984.75,946458.25
413608,790612,945945,410253.53,791125.31,946554.38
411575,789465,945145,410547.25,791245.75,946635.00
406400,787595,943876,410812.19,791339.25,946694.38
405095,786818,943346,411028.56,791399.75,946727.56
403457,786315,942989,411179.44,791421.63,946732.44
401886,786048,943046,411256.25,791403.94,946709.63
400000,785971,942782,411254.94,791349.25,946661.13
399674,786103,942903,411174.25,791262.00,946590.25
399464,786277,942989,411019.13,791147.25,946500.63
399818,786703,943519,410798.13,791010.75,946396.56
400258,786876,943562,410521.78,790858.31,946282.81
400458,787080,943631,410201.75,790694.63,946162.50
400740,787490,944145,409848.13,790523.63,946037.88
401039,787541,943892,409469.38,790348.88,945910.88
401368,787547,943823,409073.38,790173.38,945783.50
401751,787742,944182,408667.56,789999.63,945657.63
402180,788093,944422,408256.81,789830.06,945535.38
402475,788243,944626,407845.56,789667.31,945419.25
402761,788396,944639,407441.25,789513.25,945310.63
402536,788679,944687,407048.50,789368.88,945209.75
403064,788427,944568,406668.78,789234.75,945116.25
402989,788122,944342,406305.47,789110.00,945029.50
402787,788068,944309,405960.25,788993.00,944948.19
402753,787916,944218,405632.59,788882.88,944871.75
402615,787920,944257,405322.09,788778.88,944799.75
402664,787895,944168,405028.50,788680.69,944732.00
401845,788183,944641,404751.56,788588.81,944669.13
402699,788225,944509,404491.19,788504.25,944612.38
403155,788313,944696,404248.63,788427.56,944562.00
403624,788993,944890,404026.50,788359.25,944518.38
404257,789098,945179,403827.78,788300.63,944482.25
404549,789254,945156,403654.88,788253.94,944454.75
405085,789459,945230,403509.25,788220.13,944435.75
406094,790010,945728,403392.00,788200.00,944425.50
406607,790141,945904,403305.13,788194.63,944425.50
406949,790336,946137,403251.22,788204.31,944436.38
407181,790882,946770,403230.50,788228.63,944458.00
408432,791274,946710,403242.94,788268.25,944490.50
408866,791358,946706,403290.44,788324.13,944534.38
409316,791585,946879,403373.19,788396.00,944589.25
409798,791949,947127,403487.88,788483.00,944654.63
410393,791998,947023,403631.91,788584.56,944729.75
410697,792009,947173,403806.13,788699.13,944813.25
411082,792482,947429,404009.13,788825.13,944904.13
411553,792242,947313,404237.50,788961.63,945001.44
411995,792335,947334,404491.16,789106.50,945104.13
412219,792387,947580,404769.63,789258.00,945211.38
412346,792646,947621,405069.69,789415.00,945322.69
412931,792679,947609,405388.69,789576.81,945437.50
413245,792878,947665,405725.00,789742.63,945554.88
412952,793300,948214,406076.75,789912.00,945674.88
414154,793433,948257,406442.38,790085.13,945798.38
414762,793529,948312,406821.44,790262.00,945925.50
415070,793597,948267,407213.63,790442.06,946055.25
414766,792721,947649,407616.19,790622.38,946185.50
414057,791587,946608,408023.13,790796.38,946310.75
411854,790347,945731,408423.75,790955.63,946423.81
407897,787852,944099,408802.97,791089.38,946517.19
405705,787007,943394,409141.63,791186.75,946583.63
403408,786298,943131,409418.94,791242.38,946619.75
401521,785682,942639,409620.50,791255.50,946625.75
398858,785365,942477,409737.75,791227.00,946602.75
398111,785200,942439,409765.19,791159.25,946552.50
397544,785457,942545,409704.50,791056.56,946478.38
397587,785910,942925,409562.44,790925.38,946384.63
397737,786114,943027,409348.44,790772.38,946276.13
397841,786211,943131,409073.88,790603.06,946156.50
398096,786741,943339,408749.06,790422.00,946029.06
398171,786471,943396,408383.06,790233.00,945896.88
398525,786530,943556,407985.19,790038.88,945762.19
398608,786689,943748,407564.28,789842.13,945626.81
398697,786916,943662,407127.19,789645.44,945492.25
399367,787118,943861,406680.78,789451.81,945360.13
399708,787230,943932,406232.59,789263.63,945232.31
399912,787592,944168,405788.91,789082.88,945110.25
399992,787278,943880,405353.84,788910.75,944994.63
399998,787225,943892,404930.38,788747.13,944885.00
399953,787182,943854,404520.38,788591.50,944780.75
399857,786896,943641,404125.00,788443.31,944681.25
399911,786967,943775,403745.00,788301.88,944586.19
399833,786968,943737,403381.25,788167.13,944496.06
399917,787226,943951,403034.09,788039.88,944411.38
399969,787196,943925,402704.06,787921.00,944332.88
399842,787381,944120,402391.94,787811.25,944261.00
400150,787870,944481,402098.59,787710.88,944195.94
400887,787886,944364,401826.16,787620.88,944138.06
401612,788087,944690,401578.75,787542.94,944088.56
401846,788373,944830,401359.75,787478.25,944048.88
402750,788960,945062,401169.88,787428.25,944019.75
403467,789094,945407,401010.94,787394.50,944001.88
403828,789345,945541,400886.69,787377.25,943995.94
404492,790176,945882,400798.50,787376.50,944001.75
405136,789967,945957,400746.53,787392.13,944018.94
405729,790206,946003,400732.13,787424.50,944047.63
406106,790320,946434,400755.53,787473.25,944087.38
406928,790682,946620,400816.19,787537.50,944138.19
407140,790748,946697,400913.31,787616.75,944200.38
407760,790994,946642,401045.38,787709.88,944273.38
408402,791493,946943,401210.31,787816.00,944355.75
408783,791388,946841,401406.56,787934.25,944446.69
408951,791403,946844,401632.63,788063.63,944544.69
409385,791735,947369,401886.19,788202.44,944648.50
409750,791549,947133,402164.75,788349.13,944757.50
410100,791707,947150,402466.13,788502.25,944870.94
410169,791781,947293,402787.50,788660.75,944988.00
410758,792029,947367,403125.69,788824.00,945108.13
411283,792096,947574,403479.03,788991.50,945230.88
411470,792186,947656,403846.94,789162.38,945356.13
411881,792963,948078,404227.94,789335.63,945483.63
412474,792829,948013,404620.56,789511.56,945613.25
413037,793053,948087,405024.56,789690.88,945744.88
413537,793328,948384,405439.69,789873.88,945878.63
