365687,981330,1186746,360235.56,977990.50,1184383.75
366270,981098,1186643,360384.63,978089.63,1184467.00
366809,981157,1186705,360559.00,978198.75,1184556.00
367128,981242,1187179,360758.25,978316.75,1184650.25
367619,981714,1187096,360981.06,978443.06,1184749.62
368038,981861,1187016,361226.22,978577.88,1184853.75
368440,982006,1187133,361492.41,978720.88,1184961.75
368828,982344,1187812,361778.16,978871.50,1185074.12
369383,982240,1187350,362082.19,979029.00,1185191.25
369769,982238,1187284,362403.63,979191.81,1185311.12
369820,981601,1186806,362740.63,979357.31,1185431.25
368949,980704,1186285,363088.25,979520.88,1185548.25
368362,980055,1185802,363438.53,979675.00,1185657.75
367195,979405,1185344,363782.69,979813.88,1185755.37
365098,978347,1184688,364111.81,979932.75,1185838.25
363888,977873,1184376,364415.22,980027.13,1185903.50
362915,977487,1184169,364681.66,980094.88,1185950.25
361601,976999,1184311,364903.31,980135.38,1185978.50
359757,976486,1183852,365073.84,980148.25,1185988.75
358990,976224,1183777,365187.47,980133.38,1185982.25
358443,975962,1183523,365242.81,980091.56,1185960.00
357011,975706,1183461,365240.50,980024.44,1185923.00
356564,975576,1183347,365180.38,979933.81,1185872.12
356250,975271,1183137,365064.63,979821.63,1185808.50
355058,975281,1183397,364896.78,979690.00,1185733.50
355182,974836,1183239,364679.88,979541.00,1185648.62
354870,974704,1183091,364418.50,979375.81,1185555.75
354595,974842,1183046,364117.97,979196.31,1185455.75
354365,974529,1182850,363783.13,979005.25,1185349.25
354324,974611,1182900,363418.94,978804.50,1185237.50
354242,974520,1182988,363030.88,978596.25,1185121.62
353876,974860,1183662,362623.44,978383.31,1185004.87
354485,974776,1183416,362201.56,978168.50,1184890.25
354733,974844,1183473,361772.00,977954.13,1184778.87
354772,975057,1183582,361340.91,977742.13,1184670.62
354820,974786,1183289,360912.31,977533.88,1184565.50
355009,974726,1183329,360489.69,977329.88,1184463.50
354874,974807,1183381,360075.91,977131.13,1184365.25
354903,974895,1183472,359672.84,976938.63,1184271.25
355034,974885,1183622,359282.25,976753.63,1184182.75
355136,974961,1183413,358906.25,976576.75,1184099.75
355353,975419,1184216,358547.19,976408.75,1184022.37
355733,975404,1184103,358207.63,976250.88,1183951.87
356071,975538,1183959,357889.88,976104.81,1183889.75
356340,975627,1183975,357596.00,975971.63,1183835.62
356695,976038,1184336,357326.09,975852.13,1183789.50
356868,976289,1184349,357080.06,975747.75,1183752.25
357391,976416,1184628,356860.50,975659.25,1183724.12
356957,977241,1185291,356669.06,975587.63,1183706.50
358035,977084,1185136,356505.50,975533.88,1183700.75
358783,977232,1185273,356371.88,975497.88,1183706.50
359020,977444,1185622,356270.66,975478.88,1183722.87
359873,977897,1185431,356202.53,975477.00,1183749.00
360160,978080,1185661,356168.22,975492.50,1183784.37
360279,978173,1185698,356166.81,975525.00,1183829.12
361021,978552,1186031,356195.38,975573.25,1183882.75
361545,978740,1186041,356252.59,975636.50,1183945.25
362046,978795,1186190,356340.31,975714.50,1184016.00
362384,979224,1186839,356459.19,975806.25,1184094.75
362941,979357,1186939,356607.88,975911.38,1184181.75
363628,979644,1186888,356785.75,976029.50,1184277.75
364062,979900,1187163,356992.31,976160.13,1184382.25
364957,980275,1187438,357226.69,976302.94,1184494.87
365288,980489,1187570,357487.88,976457.81,1184615.50
366033,980616,1187541,357775.75,976623.88,1184743.37
366669,981219,1188049,358089.47,976800.00,1184877.12
366912,980848,1187744,358427.25,976985.13,1185016.00
366798,980459,1187297,358786.31,977176.38,1185157.75
366492,979980,1187072,359161.50,977369.00,1185298.75
365423,978957,1186404,359544.94,977557.13,1185434.37
364421,978271,1185772,359926.56,977734.06,1185560.87
363273,977645,1185397,360296.00,977894.31,1185674.50
360538,976633,1185282,360643.00,978034.63,1185773.62
359469,976022,1184715,360955.63,978151.88,1185857.62
358180,975574,1184287,361222.38,978241.38,1185924.25
357164,975228,1184231,361436.03,978301.19,1185971.50
354963,974571,1183983,361591.22,978330.88,1185999.75
354205,974154,1183661,361682.38,978330.06,1186009.87
353557,973986,1183617,361708.31,978299.25,1186002.12
351988,973799,1183403,361671.47,978241.00,1185977.50
351911,973340,1183426,361574.06,978157.75,1185937.37
351648,973179,1183072,361418.63,978050.25,1185882.75
351133,973212,1182865,361209.50,977919.63,1185815.00
350540,972884,1182899,360951.00,977768.56,1185735.50
350304,972616,1183021,360647.31,977599.13,1185645.37
350107,972620,1183071,360303.63,977413.69,1185546.50
349710,972647,1183020,359924.25,977214.88,1185441.00
349857,972705,1183090,359513.53,977006.13,1185330.25
349900,972676,1183214,359079.06,976790.13,1185216.25
349970,973036,1183362,358629.00,976569.75,1185101.00
350231,972962,1183387,358169.75,976347.94,1184986.25
350540,973034,1183459,357706.88,976127.31,1184873.12
350503,972958,1183530,357245.22,975909.63,1184762.87
350732,972965,1183504,356788.88,975696.13,1184656.25
350792,973105,1183770,356341.38,975487.88,1184554.00
350934,973223,1183578,355905.94,975286.50,1184457.25
351159,973280,1184047,355485.13,975093.50,1184366.62
351331,973657,1184020,355081.47,974910.25,1184283.25
351468,973711,1183955,354697.44,974738.63,1184207.87
351680,973671,1184709,354334.94,974579.38,1184139.50
352334,974110,1184337,353996.31,974433.00,1184078.75
352581,974206,1184467,353684.50,974300.88,1184026.37
352960,974634,1184602,353401.38,974184.13,1183983.37
353398,975072,1185042,353146.81,974084.44,1183950.50
353978,975311,1185121,352921.13,974003.38,1183929.00
354395,975380,1185198,352727.75,973941.06,1183918.50
354907,976136,1185783,352569.41,973897.38,1183918.87
355725,976222,1185860,352447.31,973872.75,1183930.25
356148,976414,1185845,352362.75,973867.94,1183953.75
356654,976705,1186090,352316.00,973882.44,1183988.50
357469,977243,1186473,352306.03,973916.38,1184035.00
357777,977273,1186364,352332.16,973969.75,1184093.00
358287,977516,1186640,352394.47,974041.38,1184161.50
358049,977914,1187162,352491.69,974129.94,1184239.75
359537,978061,1187219,352622.31,974234.56,1184328.00
359969,978464,1187239,352786.81,974355.00,1184426.25
360431,978543,1187581,352984.63,974490.81,1184533.75
361465,979110,1187700,353214.72,974641.25,1184649.75
361916,979375,1187893,353477.13,974806.13,1184774.25
362397,979587,1187785,353770.56,974985.06,1184906.50
363358,980269,1188345,354092.63,975176.88,1185045.50
363838,980236,1188412,354441.81,975380.75,1185191.37
364357,980565,1188492,354817.91,975596.25,1185343.75
364984,980993,1189349,355219.88,975822.50,1185501.25
365889,981069,1189010,355646.69,976058.50,1185664.12
365914,981296,1189168,356096.75,976303.31,1185832.00
366610,981373,1189242,356567.13,976555.75,1186004.37
367361,981703,1189504,357054.50,976814.75,1186180.62
367821,981611,1189517,357556.88,977079.50,1186360.12
368089,981291,1189318,358073.69,977346.38,1186541.25
367973,980704,1188818,358602.47,977611.13,1186721.12
366694,979746,1187959,359135.69,977868.19,1186895.00
365827,978982,1187560,359662.44,978109.88,1187057.37
364409,978124,1186936,360171.47,978329.50,1187204.00
361367,976785,1186017,360651.53,978520.88,1187330.75
360173,976280,1185925,361089.25,978678.75,1187434.75
358644,975825,1185621,361470.94,978800.63,1187515.00
355539,975169,1185190,361787.31,978886.25,1187571.75
354809,974405,1184828,362031.06,978935.00,1187605.00
353937,974111,1184775,362196.09,978946.00,1187614.50
353149,973818,1184802,362281.50,978920.31,1187602.25
351511,973177,1184373,362288.53,978859.63,1187569.50
351189,973126,1184417,362218.28,978765.63,1187517.87
350781,972781,1184295,362075.44,978640.81,1187449.25
349508,972451,1184248,361866.44,978487.88,1187365.75
349372,972139,1183985,361596.25,978309.13,1187268.87
349193,972082,1183862,361269.63,978106.81,1187159.50
348840,972111,1183920,360892.59,977883.75,1187039.25
348576,971824,1183910,360471.75,977643.06,1186910.00
348330,971783,1183915,360013.28,977387.94,1186773.75
348370,971680,1183928,359523.63,977121.63,1186632.75
348344,971918,1184087,359009.19,976847.38,1186488.62
348511,971907,1184228,358476.44,976568.75,1186343.75
348703,971963,1184009,357932.78,976288.88,1186199.75
348721,972235,1184560,357385.06,976010.19,1186057.50
348871,972047,1184122,356838.38,975735.00,1185918.00
349048,972054,1184246,356297.63,975465.13,1185782.00
349015,971988,1184145,355766.81,975201.75,1185650.25
348712,972109,1184246,355247.25,974946.13,1185523.25
348943,971993,1184063,354739.56,974699.25,1185401.37
349118,972012,1184214,354247.81,974461.75,1185284.50
349304,972852,1184678,353775.22,974235.25,1185173.62
349629,972651,1184681,353323.63,974022.38,1185070.00
349972,972772,1184755,352896.97,973824.50,1184975.12
350387,972911,1185127,352499.09,973642.25,1184889.75
350958,973257,1185130,352132.69,973476.25,1184814.00
351116,973229,1185221,351799.94,973327.56,1184749.25
351407,973401,1185235,351501.41,973195.88,1184695.25
351232,973707,1185821,351236.44,973081.25,1184652.50
352229,973956,1185681,351004.88,972984.13,1184622.00
352710,974071,1185688,350808.56,972905.13,1184603.25
352999,974544,1186172,350648.81,972844.25,1184594.50
353916,974735,1186212,350526.16,972801.81,1184596.25
354329,974896,1186246,350441.75,972778.06,1184608.75
354553,975101,1186398,350395.34,972772.75,1184632.00
355138,975480,1186488,350384.78,972785.38,1184665.50
355626,975717,1186817,350408.75,972816.00,1184708.75
356138,975860,1186740,350467.50,972864.13,1184761.50
356830,976507,1187526,350560.63,972928.50,1184823.50
357203,976439,1187335,350687.03,973008.44,1184894.37
357617,976757,1187438,350845.84,973103.88,1184974.62
358068,976742,1187456,351035.63,973214.25,1185063.50
358872,977292,1187879,351253.75,973338.50,1185160.00
359452,977418,1188027,351498.50,973476.38,1185264.75
359819,977470,1188018,351770.88,973626.75,1185377.00
358970,977365,1187727,352068.88,973788.13,1185495.75
359336,976361,1187199,352386.44,973956.50,1185618.00
358841,975656,1186539,352717.00,974124.00,1185738.00
357824,974737,1185329,353052.63,974282.75,1185849.75
355066,973273,1184813,353380.63,974425.19,1185947.62
353430,972397,1184472,353684.59,974543.56,1186027.00
351516,971591,1184224,353950.53,974632.50,1186085.75
348879,970557,1183631,354167.75,974689.38,1186123.50
347979,969998,1183427,354327.28,974712.25,1186139.25
347114,969354,1183101,354423.31,974698.75,1186133.00
346216,969078,1183324,354454.56,974648.69,1186106.00
344804,968842,1183094,354420.91,974564.25,1186060.25
344535,968687,1182943,354322.94,974448.13,1185997.87
344171,968574,1182811,354164.66,974303.63,1185920.62
343595,968395,1183011,353951.81,974133.88,1185830.25
343428,968317,1182903,353689.69,973942.38,1185729.25
343155,968313,1182986,353383.44,973732.25,1185619.75
342899,968647,1182915,353038.63,973506.88,1185503.75
342877,968467,1183133,352661.19,973269.88,1185383.00
342979,968429,1183118,352256.94,973025.00,1185259.50
343489,968546,1183292,351833.00,972775.50,1185135.50
343771,968932,1183769,351397.31,972524.81,1185012.87
344259,969151,1183810,350957.25,972276.88,1184894.75
344367,969267,1183815,350519.13,972035.00,1184782.50
344839,969513,1184608,350086.38,971801.88,1184677.37
345096,969487,1184058,349662.28,971579.69,1184580.62
345468,969588,1184164,349253.13,971368.88,1184492.12
345600,969659,1184530,348863.78,971169.69,1184411.50
345739,969927,1184276,348496.22,970983.19,1184338.75
346052,969898,1184339,348151.91,970810.25,1184274.00
346288,969979,1184377,347832.47,970651.19,1184217.25
346595,970364,1184732,347539.09,970506.50,1184169.00
347128,970497,1184828,347273.19,970377.50,1184130.00
347426,970602,1185027,347036.75,970264.56,1184101.00
347669,971069,1185562,346830.78,970167.44,1184082.00
348224,971183,1185521,346655.66,970086.50,1184073.75
348510,971272,1185485,346512.06,970022.38,1184076.50
348926,971553,1185722,346400.16,969975.38,1184089.75
349535,971882,1185804,346319.06,969945.44,1184113.00
349952,972138,1186119,346268.34,969933.13,1184146.37
350476,972303,1186145,346249.56,969938.19,1184189.75
351201,973011,1186438,346263.75,969959.94,1184242.50
351722,972887,1186703,346311.06,969997.88,1184304.25
352067,973028,1186734,346391.63,970052.00,1184375.25
352502,973337,1187404,346504.38,970121.88,1184455.75
353441,973549,1187109,346648.72,970206.88,1184544.75
353818,973611,1187250,346824.81,970306.13,1184642.00
354139,973799,1187184,347031.31,970418.13,1184746.62
354645,974144,1187838,347265.47,970542.13,1184858.00
355176,974141,1187587,347525.31,970677.25,1184976.75
355361,974257,1187476,347809.56,970822.25,1185100.75
355726,974481,1187991,348116.06,970975.50,1185227.75
356210,974951,1187946,348442.50,971136.88,1185357.50
356663,974947,1187936,348787.47,971306.44,1185490.00
357026,974976,1187997,349149.44,971482.75,1185625.00
357416,975024,1188052,349525.63,971664.63,1185761.50
357377,974610,1187546,349912.59,971849.94,1185897.75
357075,973953,1187133,350307.31,972033.88,1186030.37
356382,972746,1185889,350704.50,972210.19,1186155.12
353856,971593,1185534,351093.38,972371.56,1186267.75
352350,970606,1184883,351458.69,972509.50,1186362.50
350642,969735,1184459,351787.38,972617.50,1186435.75
347223,968208,1183670,352068.22,972690.56,1186485.25
346140,967655,1183203,352289.50,972724.00,1186509.00
345052,967102,1182906,352442.06,972716.50,1186506.12
342536,966575,1182921,352522.44,972669.00,1186477.50
342303,966243,1182742,352529.19,972583.25,1186425.00
342006,966140,1182682,352462.59,972461.88,1186351.75
341473,965865,1182640,352326.88,972308.00,1186260.12
340861,965688,1182624,352127.50,972125.38,1186152.75
340664,965510,1182529,351869.88,971917.00,1186032.12
340435,965625,1182564,351560.38,971686.69,1185900.25
340298,965985,1183017,351206.09,971439.19,1185760.00
340401,965977,1182838,350814.28,971179.50,1185615.00
340655,966108,1182886,350392.66,970912.13,1185467.12
340832,966300,1183753,349949.09,970641.13,1185318.00
341605,966798,1183855,349491.94,970370.63,1185171.50
341638,967202,1183924,349029.31,970105.56,1185031.25
342263,967353,1183808,348567.94,969849.88,1184899.00
343025,967981,1184346,348112.56,969606.94,1184775.50
343617,968150,1184395,347668.44,969379.94,1184662.50
343911,968362,1184493,347243.91,969170.75,1184560.87
344202,968909,1185256,346844.75,968980.13,1184471.00
344500,968815,1184948,346473.09,968808.88,1184393.50
345000,968750,1185012,346130.94,968657.13,1184328.75
345144,968950,1185266,345819.94,968524.31,1184277.12
345826,969433,1185167,345540.63,968410.75,1184238.12
346166,969450,1185258,345293.81,968317.06,1184210.75
346423,969690,1185550,345081.31,968243.06,1184194.75
346779,970468,1186023,344903.69,968188.63,1184190.75
347302,970298,1186050,344760.88,968154.00,1184199.37
347825,970745,1186398,344653.38,968139.50,1184220.87
348292,970859,1186703,344581.56,968145.19,1184255.25
349064,971399,1186756,344545.88,968170.81,1184302.12
349633,971603,1187074,344547.03,968216.38,1184361.50
350098,971931,1187102,344585.06,968281.75,1184433.25
351142,972915,1187673,344659.00,968366.44,1184517.00
351774,973127,1187905,344768.94,968471.50,1184613.50
352343,973235,1187983,344916.09,968597.38,1184722.37
352847,973877,1188938,345100.19,968742.63,1184843.00
353813,973950,1188733,345320.19,968905.88,1184975.37
354306,974214,1188765,345575.69,969086.56,1185119.25
354885,974458,1188867,345865.25,969283.56,1185273.00
355966,975108,1189441,346186.72,969495.81,1185435.75
356566,975476,1189529,346539.00,969723.25,1185608.00
357099,975816,1189622,346922.19,969965.88,1185788.75
357876,976558,1190567,347335.31,970222.50,1185976.62
358830,976650,1190438,347777.50,970491.88,1186171.75
359651,976860,1190446,348248.44,970773.88,1186374.12
360318,977299,1190616,348747.28,971067.75,1186582.87
361512,977954,1191177,349271.88,971373.13,1186797.37
362445,978334,1191314,349821.28,971690.25,1187018.00
363144,978607,1191635,350396.81,972018.75,1187244.50
364322,979724,1191962,350997.84,972357.13,1187476.37
365234,979793,1192225,351623.13,972705.13,1187713.25
365951,980080,1192459,352273.13,973063.31,1187955.12
366777,980368,1193216,352947.22,973430.88,1188201.50
367957,981173,1193355,353644.06,973807.00,1188452.50
368900,981498,1193451,354363.50,974192.00,1188708.75
369413,981728,1193511,355104.13,974585.13,1188969.62
370079,981799,1193690,355862.66,974984.50,1189233.37
370590,981371,1193163,356635.53,975386.63,1189497.50
370521,980974,1192707,357418.63,975785.69,1189757.50
370312,980217,1192358,358205.47,976175.63,1190008.87
368977,979685,1192158,358986.56,976550.50,1190248.00
368182,979216,1191537,359750.19,976904.81,1190472.25
366950,978763,1191267,360485.13,977234.50,1190678.62
365364,978280,1191179,361181.81,977536.63,1190865.50
364440,977996,1191026,361831.13,977809.13,1191032.62
363713,977743,1190890,362424.94,978051.06,1191180.12
363095,977681,1191082,362958.75,978262.63,1191308.37
362208,977337,1190752,363430.50,978444.38,1191418.25
361720,977192,1190696,363838.69,978596.81,1191510.25
361383,976960,1190767,364183.84,978721.00,1191586.00
360716,976998,1190855,364466.66,978818.19,1191646.75
360692,976796,1190701,364688.53,978890.25,1191694.00
360549,976849,1190602,364854.19,978939.00,1191728.75
359979,977123,1190788,364967.78,978967.13,1191751.25
359732,977032,1190698,365031.44,978978.06,1191762.75
360152,977091,1190692,365049.69,978973.81,1191765.00
360552,977142,1191066,365029.94,978956.25,1191759.50
360863,977515,1191100,364979.63,978928.13,1191747.75
361260,977724,1191231,364905.19,978892.56,1191732.50
361726,977899,1191323,364813.00,978852.56,1191715.25
361443,978330,1191883,364708.13,978810.56,1191698.00
362557,978486,1191862,364595.13,978769.00,1191683.00
363267,978564,1191933,364480.19,978730.00,1191671.25
363398,978963,1192021,364368.75,978694.31,1191662.50
364086,978939,1192182,364264.31,978662.94,1191656.62
364389,979126,1192184,364170.13,978637.13,1191654.75
364706,979244,1192010,364088.59,978617.75,1191656.75
364913,979517,1192558,364019.81,978605.50,1191662.25
365418,979628,1192675,363963.88,978601.13,1191673.00
365806,979807,1192578,363923.75,978604.88,1191689.25
366316,980322,1193385,363902.28,978617.38,1191710.75
366969,980627,1193414,363901.25,978640.00,1191738.75
367416,980744,1193476,363922.44,978673.94,1191774.50
367892,980911,1193419,363966.75,978719.13,1191818.50
368415,981509,1193958,364032.78,978775.88,1191870.12
369122,981598,1193822,364119.69,978845.00,1191929.75
369437,981730,1194017,364230.41,978926.25,1191996.75
369390,982552,1194673,364365.50,979019.44,1192071.25
370721,982404,1194236,364523.88,979125.25,1192153.37
370742,982583,1194404,364706.56,979242.88,1192242.00
371410,982780,1194713,364913.19,979371.13,1192336.00
372376,983182,1194852,365143.66,979509.75,1192435.87
372909,983342,1194943,365399.22,979658.50,1192541.50
373325,983535,1195103,365679.56,979816.88,1192652.25
373769,983813,1195482,365981.50,979983.81,1192768.50
374511,983821,1195400,366302.56,980158.38,1192890.00
374969,984083,1195459,366644.03,980339.63,1193016.00
375329,984525,1195818,367006.16,980526.56,1193144.87
375991,984555,1195785,367387.31,980718.75,1193276.37
376513,984849,1195764,367786.44,980916.13,1193410.25
376935,984951,1195975,368202.41,981118.88,1193546.00
377556,985260,1196160,368633.34,981326.25,1193683.75
378081,985318,1196115,369077.81,981537.63,1193823.00
378442,985403,1196260,369535.19,981752.00,1193963.00
379097,986000,1196509,370004.06,981968.06,1194103.37
379343,985724,1196480,370482.63,982185.38,1194244.25
379820,985645,1196376,370969.72,982402.69,1194384.62
379633,985275,1195955,371463.25,982617.75,1194522.50
379036,984124,1195145,371957.94,982825.56,1194654.00
378520,983569,1194808,372446.56,983019.63,1194774.50
377874,983104,1194516,372922.13,983195.13,1194881.25
375704,982886,1194434,373375.88,983350.31,1194973.37
374702,982050,1193889,373796.63,983483.63,1195050.50
373928,981696,1193610,374175.63,983592.13,1195110.75
372688,981302,1193824,374507.53,983673.94,1195153.25
371065,980881,1193302,374786.50,983728.81,1195178.50
370642,980928,1193252,375007.72,983757.25,1195187.50
370141,980650,1193189,375170.94,983761.06,1195181.25
368953,980490,1193073,375277.88,983742.63,1195161.00
368826,980300,1193141,375329.94,983704.00,1195128.12
368509,980298,1193131,375328.91,983646.00,1195084.50
368254,980257,1193241,375278.22,983570.13,1195031.50
367625,980196,1193135,375181.38,983478.50,1194970.00
367585,979952,1193011,375041.69,983373.06,1194902.00
367533,980125,1193059,374863.81,983255.75,1194828.50
367207,980179,1193143,374652.50,983129.00,1194750.62
367039,980232,1193159,374411.38,982995.56,1194670.00
367386,980295,1193158,374145.38,982857.56,1194587.75
367675,980621,1193569,373860.81,982716.75,1194504.75
367700,980471,1193596,373563.53,982574.81,1194422.62
368028,980718,1193600,373258.53,982434.13,1194343.50
368318,980763,1194096,372951.00,982297.00,1194268.25
368574,980857,1193772,372645.53,982164.75,1194197.75
368752,980816,1193692,372346.00,982038.25,1194132.00
368928,980842,1193734,372055.25,981917.69,1194071.00
369003,981194,1194212,371775.22,981803.88,1194015.75
369040,981127,1193993,371506.94,981698.00,1193967.00
369032,981124,1193866,371251.63,981600.31,1193924.37
369544,981269,1194377,371010.94,981510.88,1193886.37
369742,981698,1194077,370787.16,981430.63,1193852.62
370179,981615,1194180,370582.41,981360.88,1193824.12
370486,981926,1194306,370398.50,981301.88,1193801.62
370680,982224,1194399,370236.41,981254.38,1193785.37
371389,982380,1194633,370097.25,981219.38,1193775.75
371862,982518,1194857,369983.31,981197.13,1193773.50
372180,983201,1195062,369896.19,981187.38,1193779.25
372834,983038,1195045,369836.63,981190.44,1193792.62
373285,983166,1195209,369805.59,981206.38,1193813.75
373654,983314,1195228,369803.50,981234.88,1193842.25
374337,983842,1195713,369828.34,981275.88,1193878.25
374848,983843,1195626,369878.81,981329.94,1193922.50
374762,984142,1195880,369956.56,981396.56,1193974.75
375573,984361,1196237,370061.88,981474.94,1194034.50
376350,984572,1195911,370194.94,981564.38,1194101.25
376806,984857,1196327,370356.69,981665.00,1194174.25
377124,984990,1196666,370546.47,981776.88,1194253.75
378054,985474,1196669,370763.19,981899.75,1194339.87
378587,985672,1196616,371007.13,982033.88,1194432.25
379036,985818,1196746,371277.75,982178.88,1194530.00
380069,986311,1197406,371573.34,982333.75,1194633.50
380294,986359,1197212,371892.69,982498.13,1194743.50
380618,986392,1197373,372235.06,982671.25,1194859.50
381061,986341,1197298,372598.84,982851.00,1194979.50
380661,985957,1196755,372980.34,983034.69,1195101.37
380721,985361,1196142,373374.13,983217.75,1195220.75
380313,984757,1195946,373774.69,983395.06,1195333.75
378611,983820,1195281,374173.94,983562.63,1195436.87
377851,983489,1194970,374561.00,983716.88,1195527.50
376669,983029,1194729,374926.19,983852.88,1195603.62
375801,982725,1194468,375261.91,983967.19,1195664.50
373977,982373,1194299,375560.47,984058.88,1195709.87
373308,981982,1194253,375814.56,984127.31,1195739.87
372579,981961,1194229,376020.44,984172.69,1195755.62
371160,981630,1194172,376176.75,984196.00,1195758.25
370704,981429,1194107,376281.88,984198.00,1195749.00
370143,981218,1193917,376334.75,984179.50,1195728.75
368521,981059,1194028,376335.88,984142.00,1195697.50
368928,981005,1193820,376286.84,984087.25,1195656.37
368762,980954,1193741,376190.44,984016.88,1195606.25
368396,980882,1193797,376050.56,983932.25,1195548.87
368019,980863,1193782,375871.13,983835.31,1195485.62
367880,980920,1193922,375655.69,983728.13,1195417.75
367757,980890,1194036,375408.69,983612.88,1195347.00
367551,981240,1194240,375134.75,983491.44,1195275.00
367874,981123,1194082,374838.91,983366.13,1195203.25
367936,981260,1194140,374526.56,983239.13,1195132.00
367942,981278,1194784,374202.50,983112.44,1195062.25
368138,981354,1194481,373870.94,982987.50,1194995.50
367804,981520,1194309,373535.38,982865.50,1194932.00
368282,981344,1194278,373198.69,982747.38,1194872.00
368337,981559,1194372,372863.75,982634.19,1194814.75
368518,981547,1194385,372533.09,982527.50,1194760.87
368397,981393,1194393,372210.25,982426.63,1194710.62
368510,981941,1194816,371897.81,982330.88,1194664.25
368733,981961,1194436,371597.44,982241.69,1194621.50
369164,981925,1194566,371311.69,982160.38,1194582.87
369481,982040,1194754,371043.56,982087.19,1194548.75
369912,982426,1194758,370794.91,982022.75,1194519.75
370207,982450,1195089,370567.31,981968.13,1194496.50
370379,982538,1195111,370362.81,981923.56,1194479.75
370344,983267,1195439,370182.44,981888.63,1194469.75
370795,983083,1195311,370026.16,981863.56,1194466.62
371340,983152,1195480,369894.41,981849.56,1194470.12
371544,983164,1195734,369788.06,981846.63,1194480.25
372007,983416,1195644,369707.50,981854.13,1194496.75
372518,983663,1195771,369653.28,981872.06,1194519.62
372903,983854,1195935,369626.19,981900.88,1194549.00
373167,984336,1196497,369625.75,981941.13,1194586.00
373568,984142,1196314,369651.09,981992.63,1194631.12
373927,984228,1196124,369701.81,982054.19,1194683.37
374135,984520,1196393,369777.25,982124.19,1194740.37
374779,984551,1196419,369876.50,982201.75,1194801.25
375124,984591,1196543,369999.44,982286.88,1194866.62
374984,984879,1196561,370144.56,982379.25,1194936.37
375875,985095,1196734,370309.31,982479.00,1195010.12
376245,985291,1196730,370493.22,982586.13,1195087.50
376532,985308,1196659,370696.81,982700.19,1195167.62
376925,985833,1197451,370919.47,982820.06,1195249.75
377670,985783,1197126,371160.56,982945.25,1195334.00
377936,985823,1197146,371420.19,983075.94,1195420.87
378350,986024,1197166,371697.25,983211.69,1195510.12
378640,986375,1197451,371988.97,983352.38,1195601.50
379311,986366,1197455,372293.09,983498.00,1195695.25
379678,986659,1197627,372611.00,983648.13,1195791.25
380006,987246,1197981,372942.19,983802.88,1195889.00
380203,987060,1197827,373283.91,983962.50,1195988.00
380726,986653,1197692,373635.69,984125.25,1196088.25
380747,986490,1197102,373997.19,984287.88,1196187.75
379993,985373,1196505,374364.28,984445.81,1196282.75
379234,984865,1196001,374729.50,984593.13,1196368.75
378179,984332,1195664,375084.31,984725.13,1196442.25
374832,983381,1195400,375419.63,984838.88,1196501.50
374393,982947,1194874,375724.03,984931.38,1196545.37
373556,982417,1194605,375985.94,984999.25,1196572.25
372423,982247,1194403,376198.81,985041.00,1196581.75
370728,981897,1194365,376358.06,985057.25,1196575.00
369991,981646,1194245,376459.19,985048.88,1196553.00
369358,981527,1194317,376501.34,985016.81,1196517.00
367902,981196,1194129,376485.63,984962.56,1196468.50
367507,981128,1194041,376412.59,984887.56,1196408.75
367034,980913,1193986,376283.63,984793.63,1196338.87
366737,980816,1194346,376102.50,984682.63,1196259.75
365787,980624,1193816,375872.81,984556.56,1196172.62
365406,980462,1193805,375597.38,984416.75,1196078.50
365018,980328,1193727,375279.63,984264.50,1195978.50
364475,980536,1193814,374922.69,984101.88,1195874.25
364518,980553,1193925,374530.00,983931.81,1195767.00
364634,980653,1194062,374109.13,983757.13,1195659.00
363588,981322,1194473,373666.69,983581.13,1195552.25
364558,980976,1194355,373207.16,983407.00,1195448.75
364461,980964,1194223,372736.88,983235.88,1195349.25
364810,981029,1194366,372261.97,983068.44,1195253.50
365045,981104,1194112,371788.03,982905.63,1195161.62
365050,981153,1194243,371319.94,982748.75,1195073.50
364961,981102,1194263,370860.69,982598.38,1194989.25
364627,981169,1194378,370410.56,982454.69,1194909.87
365003,981273,1194219,369970.03,982318.25,1194835.50
365155,981508,1194387,369543.31,982190.25,1194765.87
365100,981503,1194793,369134.09,982071.38,1194701.25
365482,981506,1194602,368744.16,981961.63,1194642.37
365743,981867,1194858,368375.88,981861.63,1194590.25
366012,982068,1194765,368031.50,981773.25,1194545.25
366201,982446,1195071,367712.56,981697.63,1194508.12
366741,982408,1195070,367420.69,981635.63,1194478.75
367082,982550,1195256,367157.72,981586.81,1194457.62
367840,983127,1195645,366925.44,981550.88,1194444.62
368028,983229,1195497,366725.44,981528.50,1194440.00
368584,983435,1195684,366558.69,981520.63,1194443.62
368758,983483,1195689,366425.66,981527.38,1194455.62
369458,983769,1196050,366326.25,981548.13,1194476.00
369848,984004,1196069,366260.81,981582.56,1194504.75
370262,984195,1196287,366229.31,981630.63,1194542.00
370679,984907,1197524,366229.50,981692.50,1194588.00
371317,984750,1196678,366259.38,981768.56,1194643.62
371646,984929,1196632,366320.63,981857.94,1194707.62
371651,985036,1197010,366413.06,981959.13,1194778.37
372546,985339,1196904,366534.63,982071.38,1194855.00
373165,985439,1196900,366685.38,982193.94,1194937.25
373451,985462,1196989,366865.25,982325.75,1195024.25
373880,985822,1197216,367071.78,982465.88,1195115.75
374365,986188,1197480,367302.56,982614.50,1195212.00
374727,986174,1197338,367557.06,982771.38,1195312.75
375321,986479,1197728,367834.56,982935.19,1195417.00
375601,986701,1197617,368133.72,983105.00,1195524.50
375981,986747,1197610,368452.59,983280.63,1195634.37
376236,986900,1197832,368788.94,983461.25,1195746.25
377028,987209,1198053,369140.09,983646.13,1195860.25
377288,987373,1198079,369504.44,983835.13,1195976.75
377913,987623,1198130,369882.44,984028.00,1196094.87
378609,987962,1198613,370274.50,984224.00,1196214.12
378898,987901,1198610,370679.69,984422.25,1196334.50
379354,988019,1198702,371097.25,984622.38,1196457.00
379833,988274,1199191,371526.25,984824.13,1196581.37
380706,988746,1198962,371966.50,985027.88,1196707.75
381005,988764,1199169,372418.00,985234.13,1196835.75
381439,988999,1199070,372879.63,985442.38,1196965.50
381932,989130,1199642,373349.63,985652.38,1197096.50
382185,988815,1199071,373826.38,985863.00,1197228.50
382112,988210,1198626,374307.56,986070.38,1197359.00
381896,987596,1197839,374789.16,986269.06,1197483.00
380250,986415,1197107,375263.66,986453.13,1197595.87
379152,985626,1196635,375720.00,986616.13,1197692.75
377951,985265,1196281,376147.75,986753.50,1197770.50
375173,984473,1195879,376538.22,986864.50,1197828.25
374431,984169,1195682,376881.69,986948.63,1197865.37
373564,983799,1195726,377169.22,987003.75,1197882.50
372674,983911,1195515,377396.63,987029.31,1197881.50
371094,983417,1195391,377561.56,987027.13,1197863.37
370468,983260,1195389,377661.63,986998.88,1197829.50
370081,983306,1195368,377697.75,986947.00,1197781.75
368985,983096,1195502,377672.44,986874.13,1197722.25
368648,982999,1195303,377587.59,986782.38,1197652.75
367856,982763,1195169,377446.31,986673.44,1197574.37
367162,982840,1195286,377252.81,986548.88,1197488.00
367193,982716,1195265,377011.91,986410.81,1197394.87
367004,982578,1195303,376728.25,986261.50,1197297.00
366722,982534,1195406,376406.50,986102.94,1197195.75
366605,982757,1195525,376051.94,985937.31,1197092.75
366687,982801,1195438,375670.19,985767.50,1196989.50
366645,982963,1195503,375267.25,985596.13,1196887.50
366581,983105,1195822,374848.56,985425.31,1196787.75
366780,982996,1195597,374419.28,985256.69,1196691.50
366562,982922,1195231,373983.81,985091.13,1196598.50
366486,982971,1195825,373545.34,984929.38,1196507.25
366172,982903,1195434,373106.19,984772.00,1196418.25
366470,982895,1195474,372668.94,984619.56,1196332.50
366548,982917,1195440,372237.19,984472.38,1196250.50
366494,983219,1195655,371812.88,984332.06,1196172.50
366550,983383,1195584,371396.94,984200.75,1196099.25
366890,983406,1195588,370993.56,984079.00,1196031.00
366918,983963,1195968,370606.84,983966.69,1195968.00
367145,983613,1195921,370238.88,983863.94,1195911.00
367557,983801,1196005,369891.75,983771.38,1195860.62
367693,983657,1195954,369567.75,983689.38,1195817.00
368423,984178,1196379,369268.25,983617.88,1195780.50
368584,984225,1196326,368995.06,983558.00,1195751.62
368827,984392,1196510,368750.19,983510.25,1195730.75
368324,984617,1196890,368534.19,983474.31,1195718.00
369454,984705,1196867,368346.81,983450.00,1195713.75
369748,984769,1196801,368188.88,983437.38,1195718.00
370089,984963,1196907,368061.00,983436.19,1195730.00
370636,985189,1197076,367963.31,983446.38,1195749.25
370942,985357,1197051,367896.19,983468.00,1195775.75
371352,985512,1197191,367859.38,983500.88,1195808.75
371854,985995,1197642,367852.19,983544.75,1195848.50
372418,985918,1197434,367874.38,983599.13,1195895.50
372633,986107,1197514,367926.13,983664.13,1195948.75
373026,986400,1198279,368006.56,983739.13,1196007.50
373586,986389,1198013,368114.56,983823.50,1196072.00
373782,986454,1197919,368249.28,983916.50,1196142.25
374483,986615,1197980,368409.63,984017.38,1196217.75
375084,987194,1198415,368594.38,984126.50,1196298.00
375517,987361,1198360,368802.56,984245.38,1196383.25
376011,987494,1198510,369034.53,984373.44,1196473.37
376233,987800,1199122,369289.81,984509.06,1196567.62
376605,987401,1198706,369566.25,984650.44,1196665.62
376781,987037,1198151,369861.44,984794.88,1196765.75
376514,986576,1197731,370171.81,984938.56,1196864.62
375172,985466,1196943,370491.69,985076.25,1196957.50
374168,984835,1196505,370811.81,985201.50,1197040.12
373132,984261,1196229,371120.38,985309.50,1197109.37
370196,983452,1195582,371406.50,985397.50,1197164.00
369070,982878,1195404,371658.63,985462.69,1197202.50
367969,982518,1195167,371864.78,985502.38,1197223.75
366823,982114,1195185,372018.19,985515.56,1197227.62
365066,982055,1195089,372114.50,985502.88,1197215.25
364499,981705,1195062,372150.13,985465.94,1197188.75
364034,981563,1195100,372125.78,985406.25,1197149.87
362995,981675,1195289,372044.44,985325.75,1197100.87
362635,981267,1194873,371908.56,985227.00,1197043.25
362337,981252,1194723,371721.28,985111.38,1196977.00
362073,981274,1194948,371487.38,984980.88,1196902.50
361484,981186,1195025,371211.44,984838.13,1196822.00
361191,981045,1194861,370897.19,984685.00,1196737.00
360953,981047,1195012,370548.88,984523.50,1196649.00
361128,981243,1195062,370171.97,984355.81,1196559.00
361228,981298,1195190,369772.88,984184.81,1196468.75
361305,981440,1195325,369358.03,984012.88,1196379.75
361524,982162,1195808,368933.19,983842.13,1196293.62
362250,982137,1195749,368504.81,983675.38,1196212.00
362530,982165,1195593,368080.16,983515.75,1196135.75
362728,982122,1195771,367664.50,983364.88,1196065.00
362881,982326,1195962,367260.69,983223.13,1196000.50
363032,982328,1195972,366870.81,983091.00,1195942.87
363257,982348,1195944,366497.97,982968.81,1195892.25
363105,983096,1196067,366143.72,982857.31,1195848.00
363517,982733,1196214,365808.38,982757.63,1195810.75
363836,982803,1196288,365494.66,982669.75,1195780.50
364089,982875,1196900,365205.50,982593.25,1195757.50
364287,983119,1196565,364941.94,982528.00,1195741.37
364608,983263,1196551,364704.75,982474.63,1195732.62
364953,983525,1196837,364494.69,982433.38,1195731.50
364859,983775,1197209,364312.25,982404.94,1195738.62
365823,983893,1197130,364158.03,982389.38,1195755.00
366234,984066,1197176,364033.53,982386.63,1195779.62
366731,984803,1197405,363939.88,982396.63,1195811.75
367578,984760,1197715,363878.25,982419.69,1195851.25
368050,984952,1197834,363850.19,982456.63,1195899.25
368255,985042,1197865,363855.69,982507.38,1195955.62
369090,985359,1198040,363892.81,982571.13,1196019.50
369394,985312,1197958,363960.44,982647.13,1196090.37
369871,985506,1198227,364059.19,982734.13,1196167.25
370178,986061,1198834,364188.53,982831.25,1196249.62
371183,986104,1198519,364347.81,982938.63,1196337.50
371494,986306,1198677,364537.13,983056.25,1196430.87
371890,986480,1198722,364755.31,983183.88,1196529.50
372627,986824,1199010,364998.72,983320.88,1196633.00
373162,986964,1199136,365265.06,983467.13,1196741.50
373504,987228,1199028,365555.56,983622.00,1196854.37
373513,987928,1199792,365869.00,983785.25,1196970.75
374739,987772,1199549,366202.66,983956.88,1197090.50
375357,987908,1199594,366557.94,984136.13,1197214.00
375810,987933,1199762,366935.63,984321.75,1197340.50
376503,988110,1199633,367334.41,984512.38,1197469.00
376600,987608,1199335,367752.41,984705.63,1197597.87
376444,987193,1198987,368185.63,984897.63,1197724.25
374897,985956,1198257,368626.31,985083.38,1197844.25
374029,985223,1197642,369063.06,985256.50,1197953.50
372924,984724,1197488,369484.78,985410.50,1198048.50
371451,983829,1196824,369881.56,985541.25,1198127.75
368508,983365,1196486,370240.63,985646.00,1198189.75
367327,982803,1196200,370548.13,985722.25,1198232.25
366036,982510,1196051,370795.81,985768.63,1198255.25
363960,982224,1195903,370979.94,985785.75,1198259.50
363288,981984,1195982,371097.19,985774.88,1198246.25
362674,981947,1195886,371145.38,985738.00,1198217.75
361346,981361,1196076,371125.81,985677.00,1198175.00
360875,981216,1195674,371041.00,985593.25,1198119.25
360394,981064,1195544,370892.97,985487.63,1198051.87
360035,981076,1195503,370685.69,985362.38,1197974.25
359116,980961,1195525,370423.75,985220.13,1197887.50
358876,980675,1195417,370111.06,985063.13,1197793.62
358608,980671,1195459,369752.81,984893.00,1197693.62
357734,981260,1196101,369353.88,984712.50,1197589.75
358289,981030,1195855,368919.31,984525.63,1197485.50
358568,980893,1195856,368457.50,984334.88,1197381.62
358401,980878,1196237,367976.63,984141.50,1197278.75
358746,981164,1195928,367483.00,983947.44,1197177.50
358799,981077,1195905,366982.81,983755.13,1197078.62
358675,981149,1195928,366481.06,983566.13,1196982.87
358725,981146,1196088,365980.84,983381.38,1196890.87
359201,981290,1196013,365485.91,983202.25,1196803.37
359128,981307,1196141,365001.47,983029.75,1196720.75
359304,981497,1196229,364531.34,982864.75,1196643.50
359234,981580,1196180,364077.63,982708.00,1196571.87
359490,981619,1196386,363642.31,982560.75,1196506.25
359751,981736,1196372,363227.63,982424.13,1196447.00
360150,982060,1196684,362835.88,982298.75,1196394.75
360187,982078,1196738,362468.75,982185.75,1196350.25
360441,982129,1196704,362127.94,982085.38,1196313.75
361063,982630,1197015,361814.97,981997.25,1196284.50
361518,982678,1197263,361532.03,981922.25,1196263.25
361889,982803,1197378,361281.59,981861.25,1196251.37
362226,982943,1197830,361064.88,981814.19,1196248.75
362755,983286,1197749,360882.44,981781.38,1196254.75
363105,983334,1197776,360734.75,981762.88,1196270.25
363641,983519,1197781,360622.09,981758.25,1196294.87
364321,984348,1198652,360543.00,981768.00,1196328.25
364749,984295,1198244,360496.31,981793.38,1196370.75
365078,984388,1198295,360484.06,981834.13,1196421.87
365689,984601,1198978,360507.34,981889.00,1196481.00
366281,985018,1198840,360565.81,981957.75,1196548.25
366951,985081,1198941,360659.34,982040.13,1196624.00
367494,985224,1198994,360787.75,982135.13,1196707.50
367930,985714,1199136,360949.25,982242.75,1196798.37
368800,985793,1199252,361142.44,982363.13,1196895.50
369264,986064,1199340,361367.63,982495.25,1196998.62
369801,986627,1199790,361624.31,982637.88,1197107.00
370772,986754,1199776,361911.50,982791.00,1197220.37
371430,986954,1199802,362229.25,982954.63,1197338.75
371882,987068,1199960,362576.69,983128.13,1197461.50
372927,987544,1200415,362951.03,983310.75,1197588.75
373646,987874,1200490,363350.78,983502.75,1197721.25
374013,988028,1200633,363776.81,983703.88,1197858.50
375027,988799,1201039,364228.41,983913.44,1197999.87
376013,988987,1201241,364704.91,984131.69,1198145.37
376335,989100,1201240,365206.50,984359.00,1198295.50
376980,988966,1200964,365731.28,984593.88,1198449.50
377039,988217,1200479,366275.75,984832.13,1198603.75
376576,987558,1199961,366834.19,985067.38,1198754.00
375725,987074,1199340,367397.69,985293.63,1198895.12
372997,986152,1199232,367955.19,985506.38,1199024.00
371612,985297,1198496,368491.88,985700.44,1199138.00
370106,984478,1198090,368990.81,985869.63,1199234.75
368632,983981,1198101,369439.50,986009.44,1199312.12
365965,983546,1197768,369827.47,986118.13,1199370.50
364962,983229,1197486,370144.75,986195.44,1199410.00
364191,983007,1197520,370387.31,986242.13,1199431.50
362495,982669,1197470,370555.34,986260.13,1199436.25
362095,982665,1197343,370648.97,986251.63,1199426.00
361935,982601,1197280,370670.38,986218.38,1199401.87
361281,982445,1197418,370624.50,986162.50,1199365.25
360428,982162,1197242,370515.25,986086.06,1199318.25
359888,981789,1197094,370345.63,985989.81,1199261.50
359451,981797,1197095,370119.56,985874.81,1199195.75
358763,981708,1197105,369840.44,985743.25,1199122.25
358822,981896,1197277,369512.31,985598.13,1199043.12
358915,981992,1197247,369143.47,985442.75,1198960.00
358393,982489,1197714,368742.97,985280.44,1198874.25
359229,982310,1197596,368318.34,985114.38,1198787.50
359547,982446,1197658,367877.13,984947.13,1198701.87
359518,982455,1197903,367426.06,984781.06,1198619.00
359971,982511,1197740,366970.94,984617.50,1198539.87
360078,982619,1197848,366517.31,984457.81,1198464.75
360334,982558,1198048,366070.06,984303.13,1198394.00
360491,983008,1198234,365632.94,984154.25,1198329.12
360729,982892,1197995,365209.25,984012.75,1198270.25
360972,982967,1198051,364802.31,983879.56,1198217.00
361150,983098,1198832,364414.94,983755.44,1198168.75
361446,983361,1198541,364049.31,983641.38,1198126.62
361765,983507,1198616,363707.56,983538.38,1198091.75
362142,983598,1198820,363391.81,983447.06,1198065.25
362759,984054,1198959,363102.31,983368.00,1198047.00
363102,984214,1199029,362839.56,983302.13,1198037.75
363599,984354,1199119,362607.81,983250.31,1198036.75
363958,985025,1199675,362410.19,983212.88,1198044.00
364765,984893,1199539,362247.88,983190.13,1198059.87
365222,985072,1199558,362122.38,983182.31,1198084.25
365760,985162,1199604,362034.41,983189.13,1198116.75
366235,985605,1199826,361983.44,983210.13,1198156.62
366661,985721,1200009,361968.38,983245.63,1198204.00
367363,985899,1200049,361989.44,983295.25,1198258.75
367772,986159,1200364,362046.75,983358.00,1198320.50
368499,986226,1200472,362139.69,983433.13,1198389.50
368869,986229,1200531,362267.50,983519.50,1198465.25
369562,986499,1200804,362429.25,983616.00,1198547.25
370205,986912,1200676,362624.13,983722.63,1198634.75
370699,987018,1200777,362851.38,983839.50,1198727.00
371189,986940,1200830,363109.34,983965.50,1198823.37
371994,987608,1201415,363395.94,984099.63,1198924.00
372469,987469,1201349,363709.53,984241.50,1199029.87
372891,987742,1201373,364049.56,984390.81,1199140.50
373314,988067,1201824,364414.38,984546.69,1199254.25
374326,988165,1201657,364802.59,984708.63,1199370.50
374847,988204,1201558,365214.06,984876.25,1199488.75
375084,988400,1201872,365647.28,985048.88,1199609.25
376189,988922,1202109,366098.47,985226.13,1199732.00
376663,989021,1202203,366565.69,985408.50,1199857.50
377085,989039,1202117,367050.06,985595.63,1199985.00
377573,988931,1202355,367551.19,985785.75,1200113.75
377153,988131,1201683,368065.19,985975.56,1200241.87
376972,987424,1201124,368585.88,986159.13,1200365.50
375912,986553,1200225,369105.25,986330.13,1200479.75
373000,985362,1199498,369613.00,986482.19,1200579.00
371218,984411,1199023,370093.91,986608.63,1200659.00
369626,983774,1198687,370529.91,986704.69,1200718.00
366264,983415,1198367,370907.56,986768.38,1200755.00
365061,982789,1198085,371216.06,986799.38,1200770.12
363891,982211,1197876,371446.03,986797.25,1200763.87
362941,982036,1198297,371594.13,986762.63,1200737.75
361191,981667,1198086,371660.13,986697.13,1200694.50
360776,981517,1197938,371644.22,986602.88,1200636.50
360291,981404,1197741,371550.53,986482.50,1200565.50
358971,981267,1198028,371385.44,986339.44,1200483.00
358745,981054,1197781,371153.88,986176.63,1200391.37
358502,980951,1197633,370860.19,985996.00,1200291.50
358231,981040,1197804,370510.50,985799.75,1200184.50
357705,980882,1197602,370111.47,985590.88,1200071.50
357701,980991,1197734,369669.44,985372.25,1199954.25
357574,981013,1197806,369191.44,985147.06,1199834.50
358023,981234,1198034,368684.88,984918.38,1199714.00
358105,981227,1198035,368157.78,984689.25,1199595.12
358356,981423,1198148,367618.59,984461.94,1199478.87
358478,981493,1198470,367074.63,984238.38,1199366.50
358613,981282,1198041,366531.56,984019.69,1199258.50
358743,981438,1198090,365994.25,983806.81,1199154.62
358761,981238,1198175,365466.66,983600.88,1199055.25
358798,981546,1198258,364950.91,983402.75,1198961.00
359156,981497,1198291,364449.13,983213.63,1198872.50
359330,981539,1198432,363966.13,983034.25,1198790.37
359126,982043,1198714,363504.34,982865.75,1198715.00
359286,981987,1198565,363063.75,982710.00,1198646.87
359902,981927,1198770,362647.25,982567.25,1198586.25
360231,982097,1199252,362259.00,982436.88,1198533.87
360645,982366,1199037,361901.56,982319.56,1198490.00
361171,982436,1199068,361577.06,982215.94,1198455.00
361731,982644,1199340,361287.69,982126.31,1198429.00
361250,982963,1199789,361034.38,982051.25,1198413.12
362592,983182,1199594,360817.16,981991.75,1198408.00
362980,983156,1199706,360637.44,981947.50,1198412.50
363467,983764,1199845,360496.06,981917.63,1198425.87
364359,983790,1199989,360393.75,981902.25,1198447.50
364615,983744,1199807,360331.28,981901.50,1198476.75
364957,983829,1200064,360307.63,981914.50,1198513.25
365591,984189,1200299,360320.06,981940.50,1198556.75
366145,984323,1200421,360366.94,981979.50,1198607.75
366424,984387,1200531,360448.84,982030.94,1198665.75
366865,984860,1201055,360565.13,982093.88,1198731.00
367831,985050,1200853,360714.88,982168.38,1198803.12
368333,985266,1200842,360898.25,982254.88,1198881.50
368895,985309,1200955,361114.63,982353.00,1198965.25
369594,985795,1201158,361360.81,982462.00,1199054.00
370176,985891,1201139,361634.19,982581.88,1199147.25
370665,986095,1201399,361935.81,982712.19,1199244.75
370726,986829,1202089,362264.75,982852.63,1199347.00
371805,986512,1201646,362618.13,983003.13,1199454.75
372018,986466,1201490,362995.31,983161.94,1199566.00
372521,986215,1201034,363394.81,983325.88,1199678.50
371814,985104,1200266,363812.03,983490.19,1199788.50
370751,984332,1200006,364238.19,983647.63,1199890.75
369542,983450,1199464,364661.78,983791.50,1199981.37
366087,982171,1198766,365069.38,983916.50,1200057.25
364636,981627,1198450,365444.38,984018.06,1200115.50
363184,981097,1198096,365771.56,984091.50,1200154.50
361697,980492,1198023,366041.44,984134.88,1200174.12
359307,980235,1197606,366246.19,984148.13,1200174.25
358331,979856,1197340,366378.75,984131.50,1200155.37
357444,979491,1197349,366437.13,984085.63,1200118.75
356160,979194,1197185,366422.91,984011.63,1200066.00
355768,979087,1197217,366338.59,983911.38,1199998.50
355350,978972,1197099,366187.63,983787.56,1199918.50
354429,978934,1197314,365974.91,983642.88,1199827.25
354261,978833,1197181,365705.59,983480.06,1199726.50
353955,978572,1197032,365384.66,983301.69,1199618.50
353848,978507,1196814,365018.09,983110.00,1199504.25
353500,978425,1196972,364612.38,982907.13,1199384.25
353344,978296,1196739,364173.25,982695.19,1199260.00
353435,978205,1196858,363706.81,982475.94,1199132.62
352812,978838,1197412,363218.16,982252.00,1199003.87
353554,978397,1196845,362712.13,982026.38,1198875.75
353814,978501,1196979,362197.03,981801.13,1198748.75
353904,978525,1196985,361680.69,981578.00,1198623.50
354033,978558,1196851,361168.06,981358.75,1198500.62
354213,978337,1196743,360663.44,981144.25,1198380.25
354275,978347,1196659,360170.56,980934.75,1198262.00
354070,978316,1196789,359691.88,980731.06,1198146.25
354366,978193,1196890,359229.13,980533.88,1198034.00
354534,978234,1197114,358784.88,980343.19,1197927.00
354637,978263,1197171,358361.44,980159.50,1197825.87
354797,978267,1197048,357960.56,979983.63,1197730.75
355174,978475,1197245,357583.88,979816.25,1197642.00
355339,978505,1197306,357233.38,979658.38,1197560.50
355733,978679,1197179,356909.81,979510.88,1197486.25
355727,978769,1197157,356613.56,979374.38,1197418.62
356107,978912,1197339,356345.56,979249.63,1197357.50
356818,979343,1197574,356107.06,979136.75,1197303.25
357211,979260,1197631,355899.47,979036.38,1197256.75
357483,979309,1197827,355724.78,978948.88,1197218.75
357767,979529,1198568,355583.47,978874.63,1197189.25
358444,979925,1198244,355475.41,978814.19,1197168.62
358928,979908,1198199,355401.38,978768.25,1197157.25
359350,980121,1198288,355361.72,978736.38,1197155.25
359991,980778,1199039,355354.75,978719.25,1197162.75
360594,980783,1198740,355379.44,978718.00,1197180.50
361033,980889,1198796,355437.50,978732.25,1197208.25
361495,981054,1199401,355529.78,978760.63,1197244.25
362174,981516,1199186,355655.25,978803.13,1197288.75
362800,981619,1199347,355813.63,978859.75,1197341.50
363210,981677,1199159,356004.13,978929.88,1197402.12
363841,982117,1199433,356225.25,979012.63,1197469.37
364461,982373,1199553,356475.75,979108.31,1197542.75
365233,982522,1199698,356755.38,979216.56,1197622.25
365920,983114,1200282,357064.09,979336.50,1197708.00
366779,983145,1200239,357401.72,979467.75,1197800.25
367239,983375,1200187,357767.63,979610.13,1197898.75
367811,983558,1200344,358160.13,979763.31,1198003.00
368850,984240,1200694,358576.31,979927.25,1198112.50
369634,984361,1200794,359014.88,980102.50,1198227.50
369878,984587,1200838,359476.94,980288.50,1198347.75
370878,984770,1201240,359961.69,980484.00,1198472.25
371061,984177,1200585,360466.84,980686.38,1198599.87
370372,983862,1200125,360988.06,980891.13,1198727.00
370076,983245,1199683,361517.59,981093.00,1198849.75
368152,981814,1198854,362044.63,981285.38,1198964.00
366760,981276,1198452,362555.56,981460.75,1199065.12
364995,980548,1198022,363036.63,981613.88,1199150.00
361859,979678,1198263,363476.31,981742.00,1199217.75
360772,979100,1197595,363862.56,981842.63,1199269.00
359925,978871,1197321,364184.56,981913.00,1199302.75
358880,978577,1197493,364437.25,981952.75,1199318.25
357106,978305,1197013,364618.31,981963.25,1199315.87
356757,978043,1196946,364725.81,981945.75,1199297.00
356271,977872,1196774,364762.16,981901.94,1199263.00
355047,977487,1196709,364731.81,981834.19,1199214.87
355000,977299,1196750,364638.44,981744.63,1199154.25
354776,977262,1196569,364486.25,981634.06,1199082.75
354420,977213,1196521,364280.63,981504.13,1199001.00
353979,977074,1196330,364026.81,981357.06,1198909.25
353975,976959,1196487,363730.06,981195.63,1198809.75
353922,976989,1196462,363396.59,981022.38,1198704.37
354089,977034,1196594,363031.38,980840.00,1198595.25
354372,977255,1196508,362639.81,980651.50,1198484.00
354674,977302,1196614,362231.75,980460.00,1198371.75
354309,977778,1197303,361816.25,980267.94,1198259.75
355422,977638,1196962,361399.63,980077.88,1198150.25
355842,977764,1197191,360988.06,979892.00,1198044.75
355908,978014,1197439,360586.44,979712.63,1197945.00
356746,978342,1197504,360199.06,979541.94,1197851.75
356952,978186,1197311,359830.69,979381.63,1197766.00
357246,978621,1197366,359484.63,979232.38,1197687.25
357920,979058,1198003,359162.56,979095.75,1197616.75
358498,979146,1198034,358867.13,978973.19,1197556.00
358668,979293,1197961,358601.97,978865.88,1197505.75
359221,979462,1198723,358369.09,978774.31,1197465.25
359886,979899,1198578,358170.00,978699.06,1197434.62
360372,980238,1198551,358006.44,978641.19,1197415.00
360883,980380,1198635,357879.38,978601.44,1197406.25
361767,980940,1199500,357787.31,978580.00,1197409.00
362417,981282,1199502,357729.44,978577.75,1197425.00
363252,981497,1199573,357710.38,978595.19,1197454.37
363766,982358,1200185,357733.50,978632.19,1197496.00
364945,982471,1200165,357799.31,978689.13,1197549.50
365639,982660,1200096,357908.81,978766.38,1197615.12
366164,982955,1200408,358061.69,978863.38,1197691.75
367273,983529,1200978,358255.88,978979.31,1197779.75
367856,983531,1200967,358490.06,979113.88,1197879.50
368605,983850,1201121,358764.56,979265.63,1197990.75
368963,984466,1201866,359078.03,979433.13,1198111.87
370225,984603,1201634,359428.50,979615.88,1198242.50
371035,984984,1201886,359816.00,979813.56,1198382.50
371605,985172,1202206,360239.69,980025.56,1198531.75
372772,985605,1202146,360697.94,980250.81,1198688.75
373405,985815,1202366,361189.81,980488.50,1198853.12
373938,986130,1202514,361713.22,980737.38,1199023.75
375003,986731,1202883,362264.63,980996.63,1199200.25
375859,986789,1203029,362842.09,981265.38,1199382.75
376331,986991,1203093,363445.38,981542.88,1199570.25
376818,987488,1203969,364072.19,981827.50,1199761.50
378056,987606,1203615,364720.19,982117.88,1199956.25
378193,987877,1203488,365387.72,982413.81,1200154.00
379097,988059,1203789,366072.06,982714.88,1200353.50
380259,988589,1204033,366770.19,983020.56,1200554.75
380836,988662,1204215,367480.44,983330.63,1200757.87
381341,988750,1204210,368203.19,983643.63,1200962.00
381633,988740,1204326,368936.94,983957.19,1201166.00
381768,988162,1203601,369677.22,984268.31,1201366.75
381399,987502,1203039,370418.25,984571.50,1201560.37
380807,986902,1202670,371152.31,984860.63,1201742.50
378344,985651,1201769,371869.75,985129.63,1201909.00
376949,984989,1201507,372556.88,985372.00,1202056.25
375542,984524,1201005,373197.81,985583.50,1202181.75
372257,984282,1200919,373780.63,985762.63,1202284.37
371488,983644,1200644,374295.06,985908.69,1202364.00
370568,983299,1200663,374731.69,986021.31,1202421.75
369847,983153,1200699,375087.03,986101.25,1202459.50
368389,982885,1200383,375361.03,986149.88,1202478.75
368214,982826,1200522,375554.25,986169.38,1202480.75
367727,982810,1200485,375670.53,986162.25,1202467.87
366796,982603,1200684,375715.38,986131.75,1202442.50
366742,982540,1200452,375693.63,986080.69,1202406.25
366482,982289,1200295,375609.63,986010.13,1202360.25
366182,982391,1200410,375468.66,985920.75,1202304.50
365919,982208,1200457,375276.34,985814.75,1202240.37
365867,982230,1200418,375038.50,985694.81,1202170.12
365521,982301,1200355,374760.91,985563.63,1202095.25
365977,982375,1200473,374449.19,985424.00,1202016.75
366214,982415,1200492,374110.50,985278.31,1201936.00
366147,982536,1200572,373752.63,985128.88,1201854.25
366337,982942,1200969,373381.56,984977.94,1201772.62
366717,982684,1200616,373002.81,984827.38,1201692.25
366931,982495,1200592,372622.19,984678.19,1201613.50
367062,982499,1200657,372244.41,984530.88,1201536.50
367293,982819,1200886,371872.38,984386.63,1201462.50
367382,982742,1200830,371508.56,984247.13,1201392.50
367628,982819,1200885,371156.69,984113.19,1201326.62
367807,983472,1201104,370818.97,983986.19,1201265.25
367928,983289,1201055,370496.31,983868.13,1201208.62
368586,983366,1201219,370192.50,983759.75,1201157.50
368755,983375,1201831,369911.69,983661.06,1201112.75
369283,983784,1201549,369656.00,983572.63,1201074.87
369989,983983,1201599,369427.88,983495.75,1201044.62
370399,984190,1201893,369230.06,983431.38,1201022.50
370173,984613,1202242,369063.69,983380.63,1201009.37
371252,984741,1202109,368929.06,983344.50,1201006.00
371937,984949,1202191,368827.38,983323.00,1201011.37
372293,985526,1202462,368759.69,983315.75,1201024.75
373060,985600,1202723,368726.56,983323.13,1201046.25
373621,985701,1202715,368728.69,983345.50,1201076.62
374058,985805,1202862,368766.09,983382.50,1201115.75
375140,986027,1203076,368837.56,983433.13,1201163.12
375448,986256,1203239,368942.44,983496.75,1201219.00
376013,986415,1203311,369081.63,983573.00,1201282.87
376481,986866,1203783,369255.06,983661.38,1201354.00
377215,987118,1203720,369461.47,983761.75,1201431.75
377571,987165,1203779,369699.72,983874.13,1201516.50
378307,987512,1203870,369968.31,983998.06,1201608.00
379072,987806,1204139,370264.19,984133.00,1201705.62
379552,987984,1204186,370584.56,984278.81,1201809.25
380136,988194,1204214,370930.88,984434.69,1201918.00
380174,988716,1204956,371302.63,984600.13,1202031.25
381244,988684,1204523,371696.97,984774.88,1202148.50
381690,988377,1204513,372113.50,984957.00,1202269.25
381883,988204,1203927,372550.75,985143.06,1202391.75
381485,987423,1203484,373003.94,985328.63,1202512.50
380691,986578,1203011,373465.31,985507.63,1202626.50
379591,985952,1202538,373924.94,985673.88,1202730.00
376400,984560,1201720,374370.31,985822.75,1202819.25
375107,983949,1201235,374785.94,985949.31,1202890.75
373457,983526,1200906,375156.53,986048.25,1202941.87
372030,982847,1200770,375471.69,986116.88,1202972.25
369327,982232,1200476,375722.34,986154.31,1202982.12
368339,981868,1200271,375899.94,986159.44,1202972.50
367472,981581,1200157,376001.66,986132.69,1202944.25
365681,981179,1200090,376028.53,986075.63,1202899.25
365182,981078,1199961,375981.38,985989.94,1202838.62
364583,980708,1199772,375861.81,985877.88,1202764.00
363588,980437,1199888,375674.13,985741.63,1202676.25
363262,980197,1199562,375423.59,985583.25,1202576.75
363099,980301,1199607,375114.88,985404.88,1202467.12
362623,980116,1199325,374753.91,985209.56,1202348.75
362247,980186,1199510,374346.69,985000.38,1202223.12
362289,980070,1199666,373899.50,984780.13,1202092.25
362513,980164,1199730,373420.09,984551.63,1201958.87
362284,981100,1200564,372915.16,984318.75,1201825.12
363098,980780,1199903,372391.31,984086.00,1201693.25
363449,980708,1199960,371858.94,983856.25,1201564.00
363534,980804,1200221,371326.94,983630.63,1201438.50
364206,981095,1200183,370801.38,983411.13,1201318.00
364448,981131,1200176,370288.38,983200.00,1201203.25
364622,981044,1200129,369792.69,982998.25,1201094.50
364777,981207,1200303,369316.53,982806.38,1200991.75
364973,981257,1200222,368861.63,982625.25,1200895.62
364995,981245,1200296,368430.56,982455.38,1200806.00
365335,981471,1200674,368025.50,982296.94,1200723.25
365595,981656,1200590,367648.06,982151.13,1200647.75
366072,981691,1200708,367300.31,982018.56,1200580.50
366337,981915,1200778,366983.94,981899.50,1200522.00
367017,982357,1200973,366700.19,981794.88,1200472.37
367249,982376,1200931,366450.31,981705.88,1200431.87
367681,982586,1201038,366235.47,981632.63,1200400.00
368287,983024,1201401,366056.47,981574.88,1200376.75
368628,982925,1201400,365913.84,981532.75,1200362.25
368956,983130,1201441,365807.56,981506.00,1200357.00
369475,983244,1202147,365737.13,981494.00,1200360.25
370276,983521,1201950,365702.84,981496.50,1200372.25
370627,983668,1201963,365705.19,981513.31,1200393.75
371056,983885,1202148,365743.41,981544.13,1200424.50
371473,984543,1202711,365814.31,981588.94,1200464.37
372134,984553,1202405,365915.38,981648.50,1200513.25
373044,984789,1202622,366048.88,981722.50,1200570.50
373509,984933,1203301,366217.06,981810.13,1200635.75
373965,985462,1202964,366418.88,981910.94,1200708.87
374618,985533,1203074,366652.53,982025.13,1200789.75
375177,985613,1203140,366916.94,982151.63,1200877.75
375727,986071,1203308,367210.25,982289.75,1200972.12
376514,986182,1203546,367530.94,982439.75,1201072.75
377049,986439,1203738,367878.88,982600.25,1201179.50
377581,987028,1204046,368253.03,982769.50,1201292.25
378196,986854,1203944,368651.75,982946.63,1201409.75
378714,986944,1204100,369073.38,983130.88,1201532.00
379133,987144,1204023,369515.88,983321.63,1201658.25
380043,987772,1204487,369976.44,983518.75,1201788.00
380670,987874,1204530,370453.41,983722.88,1201921.62
380955,988055,1204568,370947.22,983933.63,1202058.50
381795,988247,1204570,371457.00,984149.63,1202197.75
382040,987901,1204384,371980.72,984368.94,1202337.75
381690,987284,1203920,372515.19,984587.75,1202475.75
381298,986868,1203219,373054.00,984800.94,1202608.50
379431,985475,1202452,373587.25,985002.50,1202731.25
377843,984713,1202084,374101.25,985185.00,1202839.00
376341,984041,1201828,374582.50,985342.88,1202928.87
372700,983062,1201738,375019.06,985473.00,1203000.37
371285,982360,1201074,375397.00,985572.63,1203053.25
369810,982100,1200754,375703.25,985638.63,1203086.00
368676,981864,1200896,375931.06,985671.13,1203098.25
366816,981626,1200443,376077.75,985671.94,1203091.25
366167,981182,1200389,376141.75,985642.69,1203066.00
365575,980968,1200364,376125.31,985584.63,1203024.12
364151,980787,1200046,376033.28,985500.13,1202967.25
364071,980680,1200096,375869.91,985392.25,1202896.25
363603,980391,1200052,375639.81,985262.63,1202812.87
363167,980536,1199941,375348.72,985112.88,1202718.87
362889,980288,1199887,375002.94,984945.50,1202615.25
362773,980303,1199954,374609.31,984763.69,1202504.00
362767,980417,1199960,374175.50,984570.69,1202387.00
362864,980679,1200248,373707.75,984370.25,1202266.50
363378,980823,1200247,373213.16,984166.00,1202144.87
363466,980914,1200349,372702.28,983961.19,1202023.75
363306,981414,1200801,372184.31,983758.38,1201904.62
364307,981578,1200728,371666.41,983560.38,1201789.25
364714,981620,1200884,371155.31,983370.44,1201679.50
364870,981745,1201118,370656.56,983190.13,1201576.25
365860,982139,1201143,370175.50,983020.81,1201480.75
366067,982257,1201226,369717.81,982864.38,1201393.50
366265,982367,1201274,369287.09,982721.88,1201315.25
366606,982841,1201395,368884.47,982593.50,1201246.00
366934,982743,1201357,368511.25,982479.63,1201185.62
367255,982815,1201542,368169.69,982380.69,1201134.00
367316,982936,1202348,367861.00,982296.63,1201091.25
368004,983190,1201981,367585.69,982227.38,1201057.50
368271,983468,1201883,367344.94,982173.25,1201033.62
368735,983622,1202160,367139.53,982134.75,1201019.50
369443,984156,1202434,366967.91,982112.25,1201015.25
369598,984226,1202421,366828.69,982106.13,1201021.37
370324,984545,1202669,366724.69,982116.50,1201037.50
370821,985253,1203252,366658.81,982143.19,1201063.50
371587,985184,1203000,366631.56,982186.06,1201099.00
371963,985069,1203037,366643.09,982244.81,1201144.00
372372,985379,1203159,366692.25,982318.06,1201197.62
373322,985743,1203376,366777.00,982405.25,1201259.50
373631,985882,1203374,366896.13,982506.19,1201329.00
374354,986117,1203575,367050.19,982620.19,1201405.75
374699,986746,1204155,367239.13,982746.50,1201489.50
375826,986722,1204254,367462.34,982884.75,1201580.75
376351,986846,1204352,367719.69,983034.44,1201680.00
376889,987070,1204825,368010.06,983194.75,1201787.50
377734,987482,1204692,368331.91,983364.88,1201902.00
378183,987549,1204715,368684.06,983544.56,1202023.25
378911,987707,1204766,369064.94,983732.63,1202150.00
379644,988615,1205116,369472.47,983928.56,1202281.75
380264,988498,1205388,369904.97,984132.88,1202418.50
380952,988741,1205305,370361.94,984345.25,1202560.50
381326,989267,1206025,370842.25,984564.88,1202706.37
382405,989294,1205791,371344.19,984791.13,1202855.75
382955,989417,1205833,371867.25,985023.50,1203008.75
383351,989544,1205931,372409.81,985260.81,1203164.50
384285,989905,1206102,372968.69,985502.13,1203322.50
384641,990126,1206209,373541.59,985747.38,1203482.25
384903,990230,1206282,374127.25,985995.75,1203643.12
385561,990857,1206919,374723.78,986246.13,1203804.25
386206,990709,1206685,375329.63,986497.63,1203965.50
386697,990726,1206512,375943.75,986749.88,1204126.50
387088,990728,1206430,376564.34,987001.69,1204286.25
386714,989644,1205602,377187.81,987249.19,1204441.75
386085,988883,1205097,377807.47,987485.75,1204588.00
384879,988068,1204499,378414.00,987704.69,1204720.62
381679,987083,1203596,378995.81,987901.44,1204836.50
379739,986032,1203115,379536.81,988071.13,1204932.50
377915,985306,1202758,380018.81,988207.75,1205005.25
375967,984538,1202499,380428.66,988307.00,1205052.87
372325,983656,1201871,380754.75,988366.88,1205075.00
371194,983176,1201774,380985.50,988386.00,1205072.00
370063,982894,1201581,381117.63,988365.13,1205044.75
367977,982710,1201700,381153.44,988307.38,1204996.12
367477,982342,1201426,381095.31,988216.25,1204928.37
366836,982015,1201112,380946.00,988093.50,1204842.75
366189,981958,1201138,380710.94,987940.88,1204740.37
365137,981549,1200886,380396.44,987761.38,1204622.50
364552,981203,1200810,380008.06,987557.38,1204491.12
364136,981115,1200566,379552.47,987331.38,1204348.00
363594,980998,1200679,379037.47,987086.25,1204194.50
363521,981117,1200673,378471.13,986825.75,1204033.12
363299,981070,1200746,377861.75,986553.75,1203866.25
363200,981104,1200892,377217.50,986273.75,1203695.75
363642,981208,1200773,376547.19,985988.81,1203523.75
363625,981125,1200865,375860.25,985702.00,1203351.87
363657,981286,1200985,375164.44,985415.75,1203182.00
363697,981308,1200988,374464.63,985132.56,1203015.75
363861,981253,1200805,373765.44,984854.50,1202853.75
364104,981272,1200766,373074.50,984582.88,1202696.12
363692,981574,1201114,372397.06,984318.94,1202542.75
363725,981423,1200927,371734.75,984064.25,1202394.75
363961,981288,1201031,371091.19,983819.69,1202253.00
364131,981163,1201072,370470.78,983585.31,1202118.62
364328,981529,1201064,369876.81,983361.63,1201991.25
364527,981646,1201187,369311.88,983150.25,1201872.00
364944,981855,1201503,368778.56,982952.88,1201762.00
364663,982166,1201928,368278.81,982770.69,1201663.25
365680,982294,1201889,367814.25,982604.94,1201577.25
366225,982549,1201805,367388.03,982456.50,1201503.50
366839,983311,1202409,367003.44,982326.19,1201441.37
367294,983367,1202281,366662.38,982215.44,1201391.50
367965,983533,1202482,366366.38,982125.50,1201354.00
368450,983711,1202606,366116.44,982056.38,1201329.00
369097,984039,1202823,365911.88,982007.75,1201316.50
369637,984077,1202767,365751.91,981979.25,1201315.87
370196,984384,1203114,365637.88,981969.88,1201326.75
370565,984825,1203794,365570.22,981979.25,1201349.00
371613,984921,1203442,365548.28,982007.00,1201382.75
372175,985138,1203517,365572.38,982052.75,1201427.50
372714,985413,1203585,365641.91,982115.75,1201482.25
373175,985877,1203945,365753.19,982195.88,1201546.50
373654,985931,1203849,365902.38,982292.75,1201619.87
374165,986084,1204006,366089.19,982405.06,1201701.50
374184,986956,1204835,366311.88,982531.63,1201790.87
375581,986831,1204450,366567.81,982672.38,1201888.75
376003,987033,1204678,366857.50,982826.75,1201994.25
376768,987163,1204866,367180.81,982993.75,1202107.00
377884,987755,1204915,367536.94,983172.38,1202226.00
378449,987697,1204979,367926.06,983362.50,1202350.75
378657,987600,1204889,368345.88,983561.88,1202479.87
378478,986870,1204542,368790.28,983767.38,1202610.87
378090,986447,1204063,369251.25,983974.13,1202740.50
377107,985684,1203563,369720.84,984175.06,1202864.50
375762,984258,1202955,370188.75,984363.63,1202979.12
372276,983595,1202207,370638.66,984533.38,1203080.62
370509,982972,1202075,371050.94,984677.75,1203165.25
368934,982410,1201530,371411.25,984792.88,1203231.25
365868,981662,1201134,371711.44,984876.69,1203277.50
365043,981342,1201066,371943.81,984927.94,1203303.12
364156,981047,1201017,372101.31,984947.00,1203309.50
362738,980742,1200988,372182.81,984935.44,1203298.00
362115,980418,1200796,372190.25,984894.75,1203270.00
361786,980191,1200620,372125.25,984826.38,1203226.75
361303,979918,1200586,371991.94,984732.13,1203169.75
360832,980031,1200664,371796.13,984614.38,1203100.87
360526,979821,1200459,371543.31,984476.25,1203021.62
360330,979721,1200408,371239.75,984320.56,1202933.25
359855,980002,1200846,370890.47,984150.00,1202837.25
359993,979716,1200526,370500.50,983967.63,1202736.00
360072,979696,1200574,370078.25,983775.94,1202630.75
359871,979677,1200765,369631.81,983576.88,1202522.50
360540,980027,1200911,369167.88,983373.25,1202413.25
360845,980108,1200747,368694.53,983168.56,1202304.75
361070,980175,1200848,368219.13,982965.38,1202198.00
361498,980379,1201111,367747.06,982766.00,1202094.25
361760,980610,1201057,367283.47,982572.63,1201994.75
361885,980501,1201007,366833.13,982386.94,1201900.12
362326,980652,1201344,366400.00,982209.75,1201810.50
362456,980702,1201230,365987.28,982041.75,1201726.50
362670,980833,1201277,365597.28,981883.88,1201648.87
362930,980851,1201479,365231.69,981736.63,1201577.75
363410,980994,1201469,364891.88,981600.38,1201514.00
363291,981110,1201611,364578.63,981475.63,1201457.50
363807,981268,1201536,364293.19,981362.88,1201408.25
364394,981793,1201965,364037.28,981262.75,1201366.50
364861,981795,1201991,363812.69,981176.19,1201332.75
365148,982076,1202138,363621.25,981104.25,1201307.87
365556,982038,1202855,363463.66,981047.25,1201291.75
366570,982504,1202669,363340.94,981005.06,1201285.12
366950,982852,1202686,363255.06,980978.63,1201288.50
367237,982906,1202789,363206.13,980968.38,1201302.00
368079,983383,1203793,363192.25,980974.81,1201325.50
368631,983575,1203300,363212.94,980998.38,1201360.25
369238,983638,1203386,363269.75,981038.25,1201405.25
369643,983868,1203879,363363.19,981092.75,1201459.50
370332,984150,1203705,363492.13,981161.38,1201522.12
371025,984536,1203884,363656.03,981243.88,1201593.37
371565,984568,1203966,363854.31,981340.25,1201672.75
371954,984922,1204067,364085.19,981449.63,1201759.62
372853,985098,1204244,364346.75,981571.56,1201853.37
373430,985289,1204239,364638.94,981705.25,1201953.25
373969,986253,1204704,364961.09,981849.50,1202058.50
374802,985936,1204711,365311.94,982004.00,1202168.75
375274,986216,1204698,365690.38,982168.88,1202284.00
375961,986421,1205033,366095.00,982343.88,1202404.25
376694,986662,1205196,366522.31,982528.25,1202529.00
377389,986923,1205327,366969.75,982721.38,1202658.75
377730,987059,1205420,367438.19,982922.31,1202792.75
378622,987529,1205671,367927.88,983130.25,1202930.25
379377,987735,1205796,368437.91,983344.81,1203071.25
379711,987716,1205784,368967.25,983565.63,1203215.00
380228,988018,1206224,369513.50,983791.50,1203361.25
380678,987537,1205769,370073.94,984020.38,1203509.00
380292,987077,1205198,370644.69,984248.19,1203655.12
379624,986268,1204785,371218.59,984469.38,1203795.75
376959,984908,1204073,371785.94,984678.44,1203926.62
375286,984192,1203285,372332.13,984869.25,1204043.00
373661,983436,1202722,372838.88,985034.38,1204140.62
371804,982736,1202438,373291.78,985168.56,1204217.00
368394,981622,1201956,373677.88,985268.50,1204271.25
367277,981387,1201739,373984.22,985331.56,1204302.87
366029,980926,1201584,374205.31,985358.00,1204312.12
364288,980429,1201272,374340.41,985349.88,1204300.00
363812,979993,1201020,374389.63,985309.00,1204267.37
363256,979903,1201324,374356.13,985235.75,1204215.75
362813,979942,1201052,374245.56,985131.88,1204148.00
362112,979640,1200832,374063.84,985000.94,1204065.75
361870,979499,1200723,373816.81,984846.00,1203969.75
361743,979410,1200818,373511.59,984670.25,1203861.62
361009,979328,1200780,373154.81,984476.63,1203743.75
361330,979288,1200665,372752.66,984268.13,1203617.75
361436,979470,1200691,372313.56,984048.00,1203485.25
360912,979687,1201161,371846.06,983819.88,1203348.12
361747,979786,1201171,371357.69,983587.13,1203209.37
362356,980071,1201142,370856.69,983353.88,1203071.50
362531,980279,1201544,370351.44,983123.75,1202936.00
363508,980765,1201528,369849.69,982900.31,1202804.75
363935,980784,1201678,369359.34,982686.63,1202679.12
363969,981002,1201759,368886.13,982484.38,1202560.87
364588,981299,1202066,368432.91,982295.00,1202451.00
364835,981243,1201950,368002.88,982119.25,1202350.50
365114,981342,1201958,367599.63,981957.75,1202259.00
365327,981549,1202771,367225.31,981810.88,1202176.62
365704,981688,1202297,366881.34,981679.13,1202104.00
366067,981861,1202420,366569.06,981563.00,1202041.50
366334,982092,1202407,366289.50,981462.75,1201988.75
366892,982612,1202971,366041.88,981379.56,1201946.25
367635,982782,1202944,365826.44,981314.75,1201915.25
368081,982925,1203121,365647.22,981268.38,1201895.75
368487,983541,1203727,365506.75,981239.75,1201887.25
369357,983601,1203676,365405.38,981229.06,1201890.00
370120,984003,1203682,365344.63,981236.88,1201904.50
370607,984080,1203786,365325.44,981263.50,1201930.37
371673,984626,1204072,365347.13,981308.38,1201967.25
372096,984714,1204349,365409.13,981371.50,1202015.00
372602,984879,1204334,365511.81,981451.75,1202073.75
373556,985535,1205045,365654.31,981547.88,1202142.50
374199,985645,1204793,365835.63,981659.50,1202220.75
374850,985882,1204943,366056.00,981786.75,1202308.25
375323,985971,1205368,366314.56,981928.75,1202404.50
376148,986422,1205358,366609.38,982084.38,1202508.75
376712,986561,1205274,366938.94,982252.88,1202620.50
377262,986802,1205647,367301.31,982433.38,1202739.62
378313,987384,1205940,367693.88,982624.88,1202865.75
378835,987397,1205906,368114.97,982826.88,1202999.12
379408,987461,1206132,368564.09,983038.25,1203138.62
379842,988080,1206700,369039.63,983257.50,1203283.37
380688,988115,1206340,369539.25,983483.88,1203432.75
381238,988235,1206442,370061.25,983717.13,1203585.75
381718,988570,1206706,370603.72,983956.44,1203742.00
382822,989062,1206789,371163.81,984201.75,1203901.25
383300,989079,1206796,371739.97,984452.94,1204062.75
383823,989133,1206963,372332.00,984708.63,1204225.50
384170,989902,1207592,372938.34,984967.25,1204389.25
385194,989748,1207450,373557.00,985228.50,1204554.00
385720,989835,1207449,374187.34,985491.94,1204720.12
386144,990006,1207659,374827.97,985756.38,1204887.00
387016,990377,1207741,375476.00,986021.25,1205054.50
387445,990628,1208036,376129.63,986286.75,1205222.25
387828,990657,1207793,376788.31,986552.38,1205390.00
387849,990229,1207288,377449.78,986816.63,1205555.75
387346,989341,1206811,378108.69,987075.13,1205715.87
386449,988409,1206069,378757.16,987320.38,1205865.25
384966,987483,1205194,379384.81,987544.88,1205999.25
380940,985845,1204617,379975.03,987741.25,1206114.25
379279,985077,1204248,380507.44,987902.31,1206206.25
377289,984354,1203837,380967.88,988023.94,1206273.00
372791,983490,1203511,381347.09,988105.44,1206314.37
372010,982983,1203203,381634.69,988146.88,1206330.50
370829,982545,1202897,381821.75,988147.00,1206321.75
369810,981840,1202501,381906.69,988106.00,1206289.12
368096,981413,1202271,381891.97,988025.38,1206233.37
367234,981045,1202157,381779.56,987906.19,1206155.50
366589,980885,1201942,381574.34,987751.25,1206057.50
365707,980510,1201840,381283.81,987563.88,1205941.00
365289,980236,1201829,380915.69,987347.00,1205808.25
365144,980428,1201772,380477.59,987104.38,1205662.00
364586,980209,1201952,379977.94,986840.69,1205504.25
364702,980066,1201704,379425.44,986559.69,1205337.50
364717,979825,1201724,378829.88,986264.00,1205163.75
364537,980002,1201639,378200.50,985956.75,1204984.87
364331,980275,1201891,377543.81,985642.06,1204803.25
364656,979999,1201873,376866.13,985324.00,1204621.00
364531,979935,1201644,376176.63,985004.75,1204439.50
364370,980516,1202257,375482.19,984686.81,1204259.75
364892,980331,1201927,374788.19,984373.88,1204082.75
364917,980166,1201822,374101.69,984067.88,1203910.37
365160,980304,1202108,373428.94,983769.88,1203743.12
365030,980119,1201967,372773.84,983480.81,1203581.75
365027,980045,1201606,372139.16,983201.31,1203426.50
365065,980027,1201734,371526.94,982931.50,1203277.25
364623,980379,1202266,370938.50,982672.75,1203134.75
365302,980483,1202071,370375.09,982427.00,1203001.25
365815,980599,1202361,369840.47,982195.81,1202877.50
366142,981085,1202474,369338.75,981980.13,1202763.75
366441,980988,1202455,368872.38,981780.88,1202660.37
366882,981103,1202569,368443.19,981599.06,1202567.50
367220,981254,1202738,368052.69,981435.00,1202485.50
367694,981557,1202970,367701.50,981289.13,1202415.12
368141,981829,1202938,367390.13,981162.19,1202356.50
368630,981922,1203230,367120.25,981054.75,1202309.75
369099,982298,1203870,366892.81,980966.50,1202274.62
369591,982556,1203575,366707.84,980897.75,1202251.37
370224,982748,1203582,366565.69,980848.88,1202240.00
370626,982872,1203767,366466.56,980819.38,1202240.25
371468,983492,1204159,366408.38,980809.38,1202251.75
371907,983529,1204298,366389.50,980819.06,1202275.50
372317,983594,1204340,366411.22,980847.50,1202311.00
372047,984681,1205044,366472.78,980893.81,1202357.62
373522,984328,1204718,366571.88,980958.25,1202415.00
374122,984390,1204702,366709.06,981039.63,1202482.12
374622,984646,1205144,366884.19,981136.44,1202557.75
375439,984847,1205269,367096.00,981247.44,1202641.62
375803,985167,1205352,367343.16,981372.00,1202734.00
376115,985347,1205403,367623.16,981509.38,1202834.75
377110,985832,1205777,367931.72,981658.75,1202943.00
377669,985874,1205741,368266.50,981818.88,1203058.62
378149,985965,1205773,368628.69,981989.50,1203180.37
378235,985591,1205332,369017.34,982168.94,1203306.25
377696,984913,1204917,369426.72,982353.25,1203433.00
376896,984287,1204364,369848.13,982535.50,1203555.75
375606,983341,1203903,370270.78,982708.63,1203670.25
371848,981793,1202616,370682.16,982864.88,1203771.37
369909,980645,1202232,371064.69,982995.75,1203853.87
367851,979765,1201671,371397.47,983094.50,1203914.50
364019,978561,1201225,371665.13,983157.50,1203952.00
362488,977923,1200782,371855.88,983181.94,1203965.50
361244,977437,1200514,371959.41,983166.00,1203954.75
360202,977085,1200416,371972.75,983110.38,1203920.25
358866,976330,1200177,371897.88,983016.38,1203863.87
358097,975917,1199601,371737.50,982885.13,1203786.62
357499,975826,1199769,371496.44,982718.88,1203689.00
356324,975758,1199878,371179.66,982522.44,1203574.62
356126,975255,1199642,370792.03,982300.25,1203446.75
355670,974982,1199408,370341.56,982053.81,1203306.25
355276,974887,1199518,369836.69,981784.81,1203153.87
354871,974524,1199093,369284.44,981496.38,1202990.62
354607,974553,1199149,368691.78,981191.50,1202818.37
354658,974577,1199196,368066.13,980873.81,1202639.25
354747,974857,1199417,367415.69,980547.81,1202456.50
355053,975050,1199518,366749.03,980218.25,1202272.50
355295,975153,1199513,366074.75,979889.44,1202089.75
355386,975319,1199624,365400.38,979564.25,1201909.75
355392,975316,1199630,364731.69,979245.31,1201733.75
355625,975288,1199487,364073.44,978934.63,1201562.50
355926,975306,1199535,363430.72,978633.81,1201396.50
355920,975344,1199658,362807.63,978344.00,1201236.50
355941,975434,1199791,362206.66,978066.25,1201083.62
356125,975481,1199842,361630.31,977801.75,1200939.12
356574,976050,1200269,361081.50,977551.38,1200803.75
356752,976034,1200094,360563.06,977316.94,1200678.00
356917,976130,1200251,360077.25,977100.00,1200562.75
357238,976344,1201104,359625.53,976901.69,1200458.62
357978,976842,1200671,359210.06,976723.00,1200366.00
358251,976958,1200658,358833.44,976565.50,1200285.75
358553,977164,1200866,358496.81,976429.50,1200218.00
359251,977706,1201728,358200.34,976315.25,1200163.75
359740,977696,1201309,357945.06,976223.13,1200124.00
359999,977888,1201425,357732.06,976152.63,1200098.25
360623,978082,1202050,357561.25,976103.13,1200085.00
361174,978595,1201708,357432.75,976074.50,1200083.75
361914,978717,1202049,357347.00,976067.00,1200094.75
362434,978955,1201988,357304.34,976079.94,1200118.00
362780,979417,1202508,357303.69,976112.88,1200153.25
363802,979675,1202496,357344.00,976165.75,1200200.50
364264,979823,1202572,357425.63,976238.06,1200259.37
364636,980576,1202904,357547.56,976328.25,1200328.25
365438,980493,1203018,357707.84,976435.63,1200406.75
365958,980685,1202974,357905.34,976559.63,1200494.50
366388,980782,1203275,358138.44,976699.06,1200590.62
367280,981337,1203672,358402.94,976852.88,1200695.25
367828,981525,1203592,358695.75,977020.81,1200808.50
368094,981829,1203855,359018.13,977202.25,1200929.50
368867,982363,1204178,359369.63,977396.13,1201057.25
369597,982657,1204263,359748.75,977602.38,1201191.75
370313,982675,1204190,360155.06,977820.38,1201332.37
370718,982977,1204399,360587.53,978048.94,1201478.00
371624,983364,1204690,361044.28,978286.88,1201628.75
372070,983631,1204925,361524.06,978533.81,1201784.25
372446,983738,1204883,362024.59,978788.81,1201944.00
372660,983580,1204769,362542.53,979049.88,1202106.37
372399,982849,1204207,363073.19,979312.94,1202268.37
371409,982091,1203415,363608.63,979571.25,1202425.12
370129,981208,1202780,364137.81,979817.50,1202571.50
366124,979317,1201822,364643.81,980043.13,1202702.37
363730,978194,1201289,365104.25,980238.38,1202812.75
361494,977079,1200624,365500.94,980395.88,1202898.75
357444,975557,1199923,365820.56,980511.63,1202957.75
356000,974862,1199651,366050.38,980582.81,1202988.62
354848,974383,1199180,366182.28,980606.06,1202991.00
353918,973884,1199230,366216.22,980581.25,1202965.87
352248,973483,1198836,366154.84,980510.94,1202914.75
351829,973265,1198617,366001.19,980398.00,1202839.50
351181,972811,1198559,365761.47,980245.75,1202742.50
350187,972568,1198259,365443.56,980057.25,1202625.75
349743,972213,1198203,365054.34,979835.94,1202491.37
349257,972105,1198049,364599.69,979585.19,1202341.25
348197,972126,1198090,364086.34,979309.25,1202177.12
348538,972056,1198061,363522.16,979012.75,1202001.25
348690,972197,1198128,362915.50,978700.44,1201817.00
348708,972323,1198502,362275.63,978377.13,1201628.00
349188,972572,1198540,361612.38,978047.69,1201437.75
349484,972844,1198686,360935.63,977716.81,1201248.62
349897,972932,1198885,360254.69,977388.75,1201063.00
350388,973879,1199061,359577.66,977067.25,1200883.25
350776,973925,1199082,358912.00,976756.63,1200711.00
351068,973934,1199353,358264.31,976460.63,1200547.50
351284,974563,1200043,357639.84,976181.31,1200393.87
352148,974568,1199839,357043.25,975920.44,1200251.75
352295,974658,1199752,356479.50,975679.75,1200122.12
352491,974922,1199865,355951.31,975460.13,1200005.37
353077,975310,1200261,355459.88,975262.81,1199901.75
353503,975396,1200195,355007.19,975088.88,1199812.25
353553,975757,1200354,354595.31,974938.25,1199736.25
354296,976877,1201117,354225.38,974811.25,1199674.00
355150,976797,1201128,353899.56,974709.38,1199626.75
355868,977152,1201156,353620.78,974634.00,1199595.25
356709,977483,1201448,353391.38,974585.88,1199579.37
357635,978067,1201840,353212.06,974565.13,1199579.25
358086,978189,1201893,353082.88,974571.50,1199595.00
358563,978432,1201981,353004.31,974603.81,1199625.87
359678,979435,1202240,352975.44,974660.44,1199670.75
360235,979295,1202629,352995.31,974740.75,1199729.87
360921,979670,1203047,353064.69,974844.75,1199803.50
361367,979775,1203333,353182.97,974971.25,1199891.00
362461,980613,1203270,353348.44,975119.38,1199991.50
363107,980756,1203558,353560.38,975289.13,1200104.25
363849,981105,1203590,353817.50,975479.38,1200228.37
364551,981559,1204237,354117.53,975688.19,1200363.75
365532,981859,1204130,354458.81,975914.38,1200510.25
366030,981848,1204237,354839.97,976156.56,1200666.25
366480,982586,1204356,355258.22,976412.25,1200830.25
367478,982595,1204615,355710.53,976679.56,1201001.00
367964,982829,1204840,356194.97,976958.13,1201178.00
368425,983075,1204895,356708.66,977247.00,1201360.75
369457,983516,1205236,357247.41,977545.00,1201548.37
370035,983587,1205377,357808.50,977851.06,1201740.62
370554,984033,1205463,358391.63,978163.88,1201936.75
371158,984574,1206257,358995.56,978482.38,1202136.25
372248,984678,1206046,359618.56,978805.63,1202339.00
372886,984926,1206137,360260.06,979133.50,1202544.75
373395,985356,1206285,360918.50,979465.63,1202752.87
374194,985924,1206620,361589.31,979802.13,1202962.75
374925,985964,1206747,362269.06,980143.13,1203174.25
375636,986201,1206680,362959.44,980487.00,1203386.75
376114,986993,1207348,363659.91,980832.94,1203599.12
376993,986875,1207395,364367.63,981180.88,1203811.37
377481,986912,1207377,365082.75,981529.50,1204024.00
378182,987327,1207929,365805.09,981877.38,1204236.62
379069,987479,1207806,366533.63,982223.88,1204448.87
379222,987221,1207420,367267.13,982567.38,1204659.75
378801,986710,1206913,368001.06,982904.25,1204865.75
376174,985066,1206155,368726.53,983229.13,1205062.25
375188,984064,1205126,369429.75,983534.00,1205243.00
373037,983078,1204502,370093.19,983808.88,1205402.62
370546,980945,1203233,370699.72,984045.63,1205536.75
365428,979571,1202406,371229.25,984236.63,1205640.75
363251,978670,1202088,371659.59,984373.63,1205711.00
361151,977916,1201630,371978.13,984453.00,1205746.25
357892,976755,1201086,372180.44,984474.50,1205747.25
356999,976331,1200975,372263.81,984438.38,1205714.75
356003,975709,1200703,372228.00,984346.75,1205651.00
354463,975251,1200816,372078.06,984203.50,1205558.75
353915,974792,1200265,371821.44,984012.50,1205440.62
353355,974448,1199965,371465.19,983777.13,1205298.50
352665,973997,1199679,371018.00,983500.88,1205134.12
351580,973915,1199541,370488.59,983188.13,1204949.25
351449,973753,1199598,369885.31,982844.00,1204747.00
351163,973777,1199554,369217.91,982474.13,1204530.37
350021,974382,1200160,368495.75,982084.63,1204303.25
350984,974033,1199793,367728.19,981681.88,1204069.00
351330,974077,1199802,366927.63,981270.63,1203831.00
351502,974022,1199968,366106.50,980854.75,1203591.62
351900,974214,1200030,365275.22,980438.13,1203353.50
352016,974209,1200035,364443.03,980024.50,1203118.87
352144,974251,1200198,363617.50,979616.88,1202889.50
352148,974358,1200252,362803.84,979218.25,1202667.00
352275,974268,1200177,362006.28,978831.00,1202452.75
352400,974280,1199972,361230.25,978456.13,1202246.75
352477,974560,1200390,360480.50,978094.81,1202048.50
352314,974448,1200236,359759.69,977748.25,1201858.37
352641,974555,1200321,359069.81,977418.13,1201678.25
352838,974633,1200542,358413.56,977105.75,1201509.50
353434,975141,1200722,357793.69,976812.63,1201353.25
353821,975139,1200675,357213.19,976540.75,1201210.50
354071,975489,1200991,356675.16,976291.19,1201081.12
354912,976019,1201539,356181.53,976064.75,1200966.25
355416,976308,1201527,355734.50,975862.88,1200866.75
355873,976545,1201644,355336.72,975687.25,1200783.50
356328,976755,1201784,354989.53,975538.50,1200716.25
357444,977289,1202293,354694.03,975416.75,1200665.37
357797,977464,1202166,354451.91,975322.19,1200631.25
358270,977661,1202302,354262.88,975254.50,1200612.87
358985,978337,1202965,354123.69,975213.13,1200609.75
359854,978477,1202885,354032.56,975198.63,1200622.25
360380,978665,1203215,353992.00,975209.88,1200650.37
360981,978955,1203733,354003.06,975245.25,1200693.25
361763,979652,1203729,354064.19,975304.38,1200750.50
362499,979672,1203689,354174.38,975387.13,1200821.50
362974,979934,1203729,354332.06,975492.00,1200905.50
363619,980310,1204002,354533.94,975617.25,1201000.50
364116,980466,1204076,354776.47,975761.63,1201106.25
364797,980653,1204207,355058.31,975923.50,1201221.37
365264,981463,1204760,355378.00,976101.25,1201344.87
366280,981401,1204609,355733.56,976293.81,1201476.12
366768,981663,1204896,356123.59,976500.88,1201615.00
367348,981855,1204815,356545.94,976721.31,1201760.75
368092,982205,1205356,356996.88,976953.75,1201913.00
368643,982437,1205190,357473.25,977197.13,1202071.25
368939,982448,1205188,357973.81,977449.88,1202233.87
368667,981864,1204954,358495.69,977709.00,1202399.00
368278,981289,1204402,359032.34,977969.19,1202563.12
367077,980395,1203732,359573.09,978223.00,1202721.50
365615,979425,1202817,360104.88,978462.88,1202868.87
360925,977089,1201743,360608.69,978679.13,1202999.25
358374,975682,1200775,361059.66,978860.06,1203106.00
356103,974738,1200452,361438.63,978997.38,1203184.50
352282,973100,1200189,361734.38,979087.88,1203233.87
350699,972268,1199105,361936.44,979128.63,1203254.00
349563,971719,1198753,362036.50,979116.56,1203242.75
348573,971394,1199039,362033.88,979052.25,1203200.50
346965,971057,1198548,361931.88,978939.38,1203129.50
346604,970625,1198292,361734.63,978781.88,1203033.12
346303,970516,1198270,361449.94,978583.81,1202913.75
345033,970193,1198136,361086.88,978350.06,1202774.25
344923,969856,1197973,360652.69,978084.88,1202617.12
344801,969798,1197982,360155.19,977791.63,1202444.75
344629,970214,1198035,359603.63,977474.38,1202260.12
344445,970114,1198202,359007.13,977138.88,1202066.50
344522,969963,1198149,358374.50,976790.50,1201867.00
344683,970089,1198314,357714.91,976433.63,1201664.00
345138,970623,1198723,357035.94,976072.75,1201460.75
345629,970756,1198740,356345.75,975713.63,1201260.62
345911,971022,1198768,355655.75,975360.63,1201065.50
345986,971420,1198934,354975.44,975017.13,1200876.75
346801,971415,1199096,354311.38,974686.00,1200696.12
347062,971568,1199216,353669.63,974369.69,1200524.87
347283,971720,1199285,353054.72,974069.94,1200363.87
347757,971755,1199342,352470.13,973787.94,1200213.50
347944,971705,1199221,351919.06,973524.00,1200074.00
348190,971867,1199447,351403.63,973278.13,1199945.25
348414,972461,1199897,350924.69,973050.81,1199828.37
348909,972545,1199915,350483.25,972843.69,1199724.87
349403,972723,1200047,350081.69,972658.13,1199635.12
349742,972989,1200762,349721.94,972494.94,1199558.87
350507,973519,1200615,349405.31,972355.00,1199496.75
351159,973879,1200717,349133.63,972239.75,1199449.50
351614,974047,1200828,348908.31,972149.50,1199417.00
352550,974823,1201483,348727.88,972084.75,1199399.75
353236,975091,1201617,348591.88,972046.19,1199398.75
354101,975470,1201726,348504.00,972034.50,1199414.00
354682,976549,1202445,348466.84,972049.00,1199444.75
355644,976382,1202323,348480.19,972089.31,1199490.62
356438,976648,1202360,348544.13,972155.63,1199551.25
356798,976755,1202499,348657.50,972246.63,1199625.50
357635,977245,1202899,348817.25,972360.63,1199712.50
358403,977480,1203045,349021.19,972496.63,1199812.00
358892,977796,1203296,349268.59,972653.25,1199923.75
359179,978500,1203958,349556.81,972829.19,1200047.00
360439,978614,1203819,349882.91,973023.50,1200181.25
361135,979041,1203828,350246.75,973235.88,1200325.62
361746,979189,1204359,350647.44,973465.25,1200479.00
362909,979842,1204568,351083.31,973710.63,1200640.75
363473,980011,1204584,351553.50,973971.13,1200811.37
364034,980386,1204712,352055.75,974245.69,1200989.75
365079,981176,1205130,352586.56,974533.31,1201174.75
365759,981307,1205344,353143.63,974833.75,1201366.75
366157,981417,1205327,353726.06,975145.81,1201565.00
366849,982064,1206257,354331.69,975467.56,1201768.00
368058,982347,1206195,354958.78,975797.94,1201976.12
368399,982720,1206348,355606.63,976137.00,1202190.00
369353,982982,1206490,356273.25,976484.31,1202409.25
370317,983559,1206691,356955.56,976839.06,1202632.62
370807,983170,1206483,357651.16,977199.75,1202858.75
370878,982966,1206303,358358.81,977562.13,1203085.00
370677,982100,1205501,359074.63,977921.19,1203307.75
367588,980601,1204583,359786.06,978269.00,1203521.50
365641,979261,1203557,360473.25,978594.13,1203718.25
363019,977835,1202864,361116.47,978885.94,1203891.37
357480,975459,1201499,361697.56,979134.06,1204035.50
355020,974303,1200803,362194.81,979328.44,1204145.25
352985,973523,1200481,362586.75,979464.00,1204218.37
349552,972333,1199975,362863.03,979540.25,1204255.25
348928,971688,1199690,363020.81,979557.81,1204257.37
347989,971166,1199419,363059.44,979516.81,1204225.87
347228,970954,1199349,362983.69,979420.06,1204163.00
345666,970384,1198947,362800.06,979272.06,1204070.87
345507,970178,1198702,362515.19,979077.06,1203952.00
344983,970039,1198635,362138.63,978839.94,1203809.00
343902,970064,1198835,361680.81,978566.50,1203645.50
344009,969794,1198595,361151.13,978262.38,1203465.00
343799,969648,1198593,360558.69,977932.19,1203270.50
343793,970079,1198992,359913.44,977580.38,1203064.50
343810,970076,1198771,359226.00,977212.63,1202849.87
344169,970165,1198808,358507.00,976835.25,1202630.25
344043,970321,1198960,357766.56,976453.50,1202408.50
345089,970887,1199414,357013.81,976072.31,1202188.25
345672,971172,1199415,356259.59,975697.44,1201972.62
345947,971303,1199704,355514.94,975333.13,1201764.12
346424,971825,1200161,354788.00,974982.06,1201564.62
347010,971822,1199969,354085.25,974646.56,1201375.75
347290,971818,1199993,353412.59,974329.00,1201198.37
347569,971840,1199883,352774.00,974030.38,1201032.75
347837,972009,1200189,352170.75,973751.00,1200879.00
348188,972074,1200211,351603.75,973491.38,1200737.50
348316,972347,1200297,351076.31,973252.19,1200609.00
348632,973031,1200934,350589.69,973035.00,1200493.50
348814,972947,1200753,350143.03,972841.25,1200391.25
349536,973182,1200920,349738.78,972671.38,1200303.25
350162,973235,1201326,349380.25,972524.75,1200230.25
350810,973975,1201490,349069.56,972401.88,1200172.00
351331,974145,1201605,348807.75,972303.75,1200129.50
352009,974537,1201793,348595.38,972231.00,1200103.00
352124,975051,1202693,348432.13,972183.88,1200093.25
353377,975371,1202266,348317.63,972162.56,1200101.25
354429,975751,1202404,348253.44,972167.25,1200125.00
354809,976211,1202776,348240.75,972197.31,1200163.00
355635,976326,1202834,348278.38,972251.88,1200214.25
356179,976746,1203056,348364.94,972330.00,1200278.75
356813,976926,1203137,348498.63,972430.88,1200355.50
357786,977353,1203618,348676.22,972553.19,1200444.50
358440,977626,1203625,348895.19,972696.06,1200545.25
358988,978085,1204002,349156.25,972858.63,1200657.50
359566,978705,1204677,349458.63,973039.75,1200780.37
360611,978880,1204386,349800.41,973238.63,1200913.25
361108,978922,1204452,350180.19,973454.25,1201055.50
361639,979087,1204542,350595.44,973684.88,1201205.75
362203,979584,1204971,351040.97,973928.63,1201363.62
362740,979784,1204861,351512.03,974184.63,1201528.37
363282,979989,1205062,352008.13,974451.56,1201698.75
363623,981144,1206060,352527.25,974728.63,1201874.50
364811,980838,1205706,353066.44,975016.00,1202056.37
364993,980989,1205680,353625.63,975312.31,1202243.50
365858,981069,1205861,354203.69,975615.25,1202433.87
366936,981599,1206051,354799.63,975923.38,1202626.75
367392,981784,1206289,355413.34,976236.38,1202822.00
367652,981841,1206365,356042.38,976552.94,1203019.50
368185,982034,1206596,356681.69,976871.38,1203218.50
368430,981613,1206155,357326.94,977189.25,1203417.62
367991,981031,1205611,357975.16,977502.00,1203613.25
366814,978677,1204337,358619.31,977802.81,1203799.87
362192,977238,1203146,359241.56,978080.63,1203970.12
359415,975556,1202280,359815.81,978321.31,1204115.75
356570,974000,1201350,360319.72,978513.75,1204230.75
350480,971091,1199721,360736.31,978648.25,1204309.75
348468,969978,1199141,361046.94,978714.88,1204348.12
346647,969081,1198569,361234.63,978710.25,1204343.75
343713,968205,1198211,361294.13,978636.44,1204298.37
342840,967589,1197928,361226.97,978496.81,1204214.00
342301,967472,1197835,361036.38,978295.38,1204094.25
341651,967151,1197596,360730.84,978038.00,1203942.37
340483,966728,1197498,360320.63,977731.00,1203762.12
340090,966454,1197305,359814.75,977379.75,1203557.00
339651,966355,1197201,359223.88,976990.13,1203330.25
338886,966522,1197644,358557.84,976569.25,1203086.12
338816,966171,1197193,357826.13,976124.00,1202828.62
338858,966157,1197161,357040.78,975659.13,1202560.62
338634,966258,1197465,356214.00,975179.38,1202284.87
339321,966749,1197554,355357.19,974691.38,1202005.25
339709,966803,1197662,354482.94,974201.75,1201725.50
340177,967161,1197879,353603.31,973715.94,1201449.12
340642,967614,1198212,352728.06,973239.31,1201179.25
341051,967751,1198319,351865.88,972776.88,1200918.75
341578,967672,1198378,351025.38,972331.56,1200669.87
341790,967812,1198517,350213.75,971904.75,1200433.37
341706,967816,1198408,349435.09,971497.94,1200209.75
341892,967893,1198328,348691.69,971112.06,1199999.00
341912,967805,1198372,347985.38,970747.56,1199801.00
342265,967999,1198476,347317.28,970404.81,1199615.75
342366,968090,1198475,346688.56,970084.44,1199443.75
342743,968408,1198672,346101.69,969787.44,1199285.00
343351,968907,1199174,345559.16,969514.75,1199140.50
343812,969013,1199177,345063.19,969267.38,1199011.37
344170,969168,1199301,344615.69,969046.44,1198898.25
344760,969415,1200099,344217.88,968852.50,1198801.00
345732,970122,1200058,343871.38,968686.25,1198720.50
346212,970475,1200133,343578.19,968549.31,1198658.00
346792,970639,1200348,343338.81,968442.13,1198613.75
347603,971450,1201070,343152.66,968364.50,1198588.00
348335,971631,1200824,343019.63,968316.75,1198581.00
348890,971839,1201048,342940.22,968298.63,1198591.75
349274,972217,1201865,342913.31,968308.75,1198619.00
350388,972938,1201691,342937.47,968347.00,1198662.50
351123,972999,1201651,343012.59,968413.06,1198722.12
351589,973321,1201871,343137.75,968505.38,1198796.50
352003,973914,1202245,343309.69,968622.63,1198885.00
353013,974141,1202224,343525.56,968764.00,1198987.00
353466,974345,1202491,343784.25,968928.00,1199101.25
354138,975165,1202786,344083.81,969112.69,1199226.87
355188,975116,1202872,344422.53,969316.63,1199363.62
355832,975406,1203194,344799.53,969538.75,1199510.50
356452,975742,1203329,345213.00,969777.88,1199666.87
357139,976147,1203818,345658.13,970032.63,1199832.25
358031,976677,1203989,346131.13,970302.56,1200007.00
358433,976617,1203962,346632.63,970586.38,1200190.00
358215,976197,1203668,347161.50,970881.25,1200379.12
358100,975739,1203082,347711.50,971182.25,1200570.50
357018,974832,1202446,348272.22,971481.38,1200758.25
355224,973486,1200847,348829.88,971769.13,1200936.00
350283,970591,1199809,349363.19,972032.88,1201095.87
347610,969064,1198915,349844.88,972257.63,1201229.25
345010,967604,1198164,350253.84,972432.75,1201330.25
340597,965595,1197187,350576.94,972552.56,1201395.87
339022,964646,1196490,350801.72,972612.38,1201423.50
337739,964024,1196236,350918.25,972608.88,1201412.75
336767,963553,1196181,350925.25,972543.25,1201365.25
335098,963079,1195853,350826.56,972419.63,1201284.25
334443,962780,1195474,350626.25,972242.38,1201172.50
334075,962640,1195360,350331.56,972017.00,1201032.62
333105,962277,1195449,349950.63,971750.00,1200868.00
332834,962140,1195335,349490.94,971447.00,1200682.75
332648,961875,1195140,348962.75,971112.19,1200480.00
332230,962034,1195422,348376.63,970749.38,1200262.00
332166,961973,1195374,347741.81,970364.25,1200032.50
332276,961993,1195226,347067.75,969962.63,1199795.00
332531,962378,1195521,346364.81,969550.50,1199552.75
333123,962863,1195713,345642.78,969134.38,1199309.25
333546,963288,1196245,344911.69,968721.00,1199068.50
333943,963582,1196391,344182.25,968316.19,1198834.75
334380,964141,1196887,343463.63,967923.88,1198610.50
335025,964201,1196714,342763.41,967547.44,1198397.50
335454,964552,1196975,342088.44,967190.44,1198197.12
335585,964377,1197100,341443.50,966855.00,1198010.62
336118,964770,1196976,340832.06,966541.75,1197837.75
336383,964824,1197164,340257.34,966251.75,1197678.75
336597,964910,1197049,339721.56,965985.25,1197534.25
336990,965540,1197659,339225.75,965742.81,1197404.25
337457,965674,1197713,338771.13,965525.50,1197290.50
337911,965857,1197689,338359.81,965334.44,1197193.00
338140,966216,1198497,337993.06,965169.63,1197110.75
338971,966736,1198393,337671.47,965031.44,1197044.25
339529,966836,1198394,337396.63,964920.88,1196994.50
339994,967188,1198657,337169.41,964837.81,1196961.12
341189,967826,1199209,336989.34,964782.13,1196944.62
341755,968241,1199249,336856.97,964754.75,1196945.75
342295,968545,1199447,336774.41,964755.88,1196964.00
343123,969601,1200330,336742.44,964784.63,1196998.37
344053,969636,1200225,336761.13,964841.00,1197049.12
344741,969934,1200374,336830.50,964924.94,1197116.50
345277,970124,1200440,336949.31,965035.56,1197199.50
346312,970686,1200824,337114.94,965171.13,1197297.25
346868,970767,1200799,337325.25,965330.25,1197408.50
347436,971129,1201185,337579.63,965511.00,1197532.25
348414,972085,1201564,337876.13,965711.88,1197667.75
348960,972202,1201810,338212.25,965932.38,1197814.87
349635,972338,1201906,338586.94,966172.00,1197973.25
350311,972700,1202402,338998.53,966429.00,1198142.25
351035,973159,1202262,339444.69,966701.94,1198320.75
351906,973328,1202317,339923.63,966989.63,1198507.12
352300,973607,1202516,340433.19,967290.00,1198699.87
353094,974266,1203230,340970.09,967601.50,1198898.87
353898,974522,1203253,341531.88,967923.00,1199105.00
354532,974713,1203456,342117.47,968254.25,1199317.75
355259,975868,1204002,342725.41,968594.50,1199535.50
356508,975950,1204066,343354.75,968943.75,1199757.87
357132,976221,1204092,344005.31,969302.44,1199984.75
357523,976321,1204376,344675.28,969669.38,1200215.50
358797,976703,1204470,345361.16,970042.50,1200449.25
359140,976682,1204336,346060.94,970419.88,1200684.62
359356,976491,1204242,346773.00,970798.50,1200919.25
358965,975024,1203334,347492.56,971174.00,1201149.75
355978,973751,1202412,348206.91,971537.88,1201370.62
353786,972210,1201452,348895.81,971876.88,1201573.75
351041,970586,1200525,349538.72,972178.38,1201752.25
345400,967399,1198475,350115.69,972430.06,1201898.75
343060,966055,1197900,350603.97,972618.75,1202005.75
340991,964974,1197320,350984.00,972737.88,1202070.12
337514,964164,1196774,351245.81,972787.63,1202092.62
336862,963400,1196423,351385.50,972770.50,1202074.50
335997,963256,1196327,351404.16,972688.94,1202017.75
335634,963030,1196373,351308.81,972547.75,1201926.00
334604,962608,1196047,351108.75,972353.13,1201803.00
334409,962535,1196115,350812.97,972110.69,1201652.50
334022,962429,1196030,350431.50,971826.56,1201479.00
332579,962150,1196223,349973.88,971507.06,1201286.37
333006,962137,1196000,349448.31,971157.94,1201078.50
333138,962292,1195822,348864.59,970784.44,1200858.00
333098,962831,1196208,348234.00,970392.56,1200626.87
333756,963101,1196549,347567.88,969989.31,1200389.37
334108,963249,1196710,346878.25,969582.00,1200150.75
334422,963512,1196853,346176.00,969176.25,1199914.87
335427,964276,1197329,345470.31,968777.63,1199684.75
335999,964498,1197349,344770.94,968391.75,1199463.75
336184,964764,1197620,344087.63,968022.75,1199253.50
337066,965300,1198396,343427.19,967673.25,1199055.75
337620,965493,1198317,342795.53,967346.00,1198872.37
337872,965680,1198277,342198.75,967043.25,1198705.37
338136,965827,1198427,341640.31,966765.94,1198555.25
338563,966114,1198465,341120.63,966514.50,1198421.50
338925,966191,1198436,340640.13,966289.19,1198303.75
339431,966438,1198457,340202.25,966089.88,1198200.75
339350,967489,1199466,339808.69,965917.50,1198112.75
340291,967487,1199109,339459.19,965773.88,1198041.00
341073,967552,1199293,339156.19,965659.25,1197985.75
341605,967841,1199728,338902.25,965572.31,1197946.75
342799,968684,1199774,338699.06,965513.19,1197924.00
343390,968943,1200059,338548.59,965483.13,1197917.50
344014,969191,1200252,338451.25,965481.94,1197927.25
344930,969869,1200929,338404.31,965507.88,1197954.00
345731,970075,1201104,338406.06,965560.00,1197998.25
346298,970483,1201115,338458.56,965638.50,1198059.75
346831,971186,1201613,338562.19,965743.00,1198136.75
347804,971339,1201584,338714.94,965872.63,1198228.25
348547,971639,1201955,338915.88,966026.50,1198333.75
349238,972010,1202002,339163.63,966203.56,1198452.62
350195,972775,1202416,339455.69,966403.06,1198584.25
351116,973001,1202554,339790.38,966624.88,1198728.00
351646,973323,1202902,340167.09,966867.44,1198883.25
352861,974127,1203515,340583.75,967128.56,1199049.25
353500,974334,1203453,341037.94,967406.88,1199225.37
354187,974562,1203659,341529.00,967702.19,1199411.25
354811,974849,1203786,342054.97,968013.13,1199606.12
355987,975371,1204157,342613.63,968338.00,1199809.25
356455,975647,1204353,343203.31,968675.88,1200020.00
357046,975836,1204350,343821.06,969024.88,1200237.37
357832,976904,1205264,344461.56,969383.75,1200460.37
358838,976665,1205066,345121.38,969751.50,1200689.00
359255,976941,1205074,345801.16,970126.94,1200922.50
360023,977305,1205806,346500.31,970508.38,1201159.50
361148,977979,1205509,347217.13,970895.38,1201398.75
361612,977963,1205606,347950.56,971287.56,1201639.75
362171,978284,1205677,348698.13,971683.25,1201881.62
363210,978726,1206064,349456.25,972080.81,1202123.37
363708,978923,1206094,350222.72,972479.63,1202365.00
364268,979146,1206558,350996.88,972878.63,1202606.25
365117,979663,1207171,351777.88,973276.63,1202847.50
365297,979321,1206490,352563.69,973672.00,1203087.75
365295,978760,1205996,353350.19,974061.25,1203324.12
364349,977787,1205116,354130.13,974438.50,1203551.62
360598,975188,1203648,354892.03,974793.06,1203762.75
358141,973618,1202681,355616.19,975110.75,1203949.12
355097,972106,1201823,356276.56,975380.50,1204104.50
349684,969499,1200128,356851.38,975594.56,1204224.87
347517,968153,1199478,357321.88,975745.25,1204305.62
345423,967337,1199067,357670.44,975825.75,1204343.37
343924,966501,1199003,357889.63,975834.63,1204338.12
341785,965455,1198277,357979.75,975773.75,1204292.00
341042,965201,1198047,357943.44,975646.00,1204207.50
340397,964954,1198016,357787.88,975456.88,1204088.12
339315,964859,1198495,357522.47,975213.75,1203939.12
339062,964539,1197795,357156.31,974923.94,1203765.12
338601,964307,1197698,356700.25,974592.75,1203568.75
338221,964058,1197688,356165.44,974225.06,1203352.25
337758,964057,1197470,355561.88,973826.63,1203118.75
337659,963844,1197345,354899.50,973402.94,1202871.12
337702,963953,1197545,354188.88,972959.63,1202612.75
337511,964434,1197961,353440.84,972502.94,1202348.00
338516,964775,1198181,352666.63,972040.19,1202081.75
339018,965112,1198203,351879.00,971578.44,1201817.75
339387,965849,1198578,351089.41,971123.44,1201558.62
340409,965700,1198831,350307.97,970679.94,1201307.37
340643,965932,1199010,349544.28,970251.88,1201067.00
340762,966008,1198864,348804.81,969842.13,1200839.25
341068,966125,1198995,348092.38,969452.38,1200624.37
341388,966131,1199025,347409.69,969083.81,1200422.50
341560,966245,1199061,346761.56,968737.06,1200234.12
341776,966764,1199443,346151.53,968412.94,1200059.62
342327,966832,1199534,345581.75,968112.75,1199900.00
342540,967063,1199752,345054.38,967838.25,1199756.50
342874,967297,1200293,344570.69,967590.13,1199629.50
343843,967739,1200227,344132.47,967369.38,1199519.25
344474,968113,1200451,343742.88,967177.06,1199426.75
344812,968395,1200582,343403.78,967014.00,1199352.50
345916,969103,1201632,343115.19,966880.50,1199297.50
346556,969418,1201426,342878.13,966777.50,1199263.87
347062,969573,1201410,342694.63,966705.13,1199250.37
347756,970044,1202220,342564.88,966662.88,1199254.50
348865,970876,1202167,342489.13,966650.88,1199275.75
349495,970908,1202148,342468.00,966669.81,1199314.50
350151,971255,1202433,342500.78,966718.13,1199369.75
351414,972171,1202964,342584.63,966794.88,1199441.62
352077,972518,1203050,342717.75,966900.88,1199529.87
352770,972687,1203328,342901.63,967035.13,1199633.75
353334,973696,1203796,343135.91,967195.19,1199752.37
354278,973488,1203743,343418.00,967379.00,1199884.25
354979,973868,1203866,343746.06,967585.63,1200028.75
355552,974102,1204003,344117.56,967813.75,1200184.12
356474,974637,1204512,344528.19,968061.75,1200350.00
357432,975012,1204606,344974.88,968328.38,1200526.25
357906,975401,1204729,345457.75,968612.75,1200711.50
358053,975836,1205165,345974.88,968913.25,1200904.62
359385,976097,1205423,346522.75,969228.31,1201105.00
360149,976378,1205384,347099.81,969556.50,1201312.25
360667,976800,1205820,347704.19,969896.31,1201525.50
361906,977319,1206032,348333.88,970247.00,1201744.00
362492,977673,1206103,348987.88,970607.94,1201967.50
363051,978045,1206315,349663.91,970978.31,1202195.37
363918,978218,1206799,350358.53,971356.63,1202427.00
363971,977877,1206138,351068.19,971739.81,1202661.50
363461,977024,1205520,351787.38,972122.13,1202894.00
362375,976013,1204579,352506.56,972495.19,1203118.50
358292,973496,1203282,353208.16,972847.44,1203327.75
355483,971784,1202357,353867.03,973164.63,1203513.50
352636,970169,1201374,354460.41,973434.75,1203668.75
347489,967650,1200012,354969.63,973650.44,1203788.50
345470,966564,1199266,355376.00,973805.25,1203867.50
343617,965735,1198771,355665.53,973892.25,1203904.25
342321,965043,1198924,355834.00,973909.69,1203899.50
340251,964281,1198329,355882.38,973860.19,1203856.00
339908,964147,1198280,355813.94,973747.63,1203777.37
339351,963931,1197994,355636.72,973577.75,1203667.37
338583,963658,1198071,355361.31,973357.25,1203529.37
338175,963409,1197906,354997.19,973091.63,1203367.25
337657,963223,1197652,354553.03,972786.50,1203183.87
336905,963277,1197797,354037.53,972447.31,1202981.75
336916,963038,1197552,353459.78,972079.75,1202763.62
336893,963056,1197651,352829.31,971689.25,1202533.00
336985,963080,1198284,352156.34,971281.38,1202293.50
337445,963554,1198267,351452.00,970862.25,1202049.50
337817,963732,1198204,350727.56,970438.19,1201805.37
338182,964165,1198610,349993.63,970015.31,1201564.25
338561,965047,1198920,349258.81,969600.69,1201329.75
339081,964758,1198877,348531.13,969200.50,1201104.50
339582,965012,1199142,347819.06,968816.38,1200889.75
339766,965244,1199536,347129.63,968449.19,1200687.00
340433,965421,1199400,346468.03,968101.06,1200497.50
340551,965540,1199231,345838.88,967773.88,1200321.50
340676,965784,1199465,345244.78,967468.81,1200158.87
341086,965912,1199702,344686.94,967187.00,1200010.25
341401,965996,1199639,344166.88,966928.81,1199876.12
341579,966205,1199954,343686.81,966694.31,1199756.75
341998,967111,1200565,343248.06,966483.75,1199652.25
342845,967218,1200329,342852.38,966298.25,1199562.75
343436,967574,1200634,342502.56,966140.50,1199489.25
344017,967733,1200820,342200.56,966011.25,1199432.50
345174,968522,1201326,341946.91,965910.94,1199393.00
345738,968762,1201515,341742.75,965840.50,1199372.00
346486,969044,1201618,341590.75,965799.75,1199368.75
347500,970015,1202070,341491.25,965787.81,1199382.50
348149,970071,1202227,341443.44,965804.81,1199412.75
348744,970387,1202689,341448.63,965850.63,1199460.00
349338,970697,1203160,341506.56,965924.25,1199524.37
350456,971453,1203103,341615.94,966025.00,1199605.25
351225,971676,1203235,341776.56,966152.63,1199701.50
351923,972025,1203315,341987.34,966306.00,1199812.25
352468,972693,1203970,342245.88,966483.50,1199936.75
353515,972833,1204083,342549.94,966683.94,1200075.12
354041,973052,1204164,342897.69,966905.63,1200226.50
354638,973980,1204597,343286.31,967146.56,1200389.25
355658,974002,1204726,343713.19,967405.25,1200562.25
356472,974398,1204829,344177.06,967681.44,1200745.00
356828,974712,1204991,344675.63,967974.25,1200936.25
358091,975262,1205520,345204.94,968282.38,1201135.50
358709,975606,1205625,345762.50,968605.13,1201342.75
359095,975872,1205730,346347.69,968941.13,1201557.00
359780,976645,1206262,346958.00,969288.50,1201776.50
361104,976714,1206434,347591.78,969646.06,1202000.75
361663,976927,1206376,348248.69,970012.88,1202230.00
362294,977415,1206614,348926.88,970387.75,1202463.12
363295,978079,1206933,349621.69,970770.38,1202699.50
364066,978306,1207052,350330.06,971160.88,1202938.62
364588,978510,1207602,351053.16,971557.75,1203180.62
365211,979425,1207997,351789.38,971960.00,1203425.50
365925,979565,1208032,352535.09,972367.69,1203673.25
366617,979792,1208003,353290.00,972780.13,1203922.87
367267,979941,1208507,354053.81,973195.38,1204173.62
368116,980282,1208481,354825.13,973611.69,1204424.75
368803,980536,1208665,355602.91,974027.81,1204676.25
369134,980604,1208602,356385.41,974442.50,1204926.87
368166,979926,1208268,357168.78,974853.38,1205174.50
368301,979124,1207301,357946.19,975255.31,1205414.62
367059,977961,1206650,358707.38,975638.94,1205640.87
364776,975292,1204974,359438.50,975993.75,1205847.50
359235,973345,1203845,360117.00,976307.13,1206026.75
356095,971654,1203021,360713.88,976564.63,1206171.00
352940,970250,1201971,361206.94,976756.44,1206274.75
347771,967855,1200674,361582.41,976876.38,1206334.50
346191,967080,1200401,361828.06,976919.25,1206347.62
344698,966387,1199914,361935.00,976885.25,1206315.25
343565,965697,1199916,361903.94,976778.63,1206240.87
341896,965405,1199706,361741.44,976604.50,1206128.50
341410,964993,1199511,361454.91,976368.75,1205982.50
340785,964805,1199364,361055.09,976077.88,1205806.25
339629,964533,1199214,360552.28,975738.50,1205603.75
339339,964199,1199011,359955.69,975356.81,1205378.00
339110,964201,1198931,359277.75,974938.88,1205132.37
337651,964618,1199332,358530.50,974491.63,1204870.25
338338,964007,1199095,357724.06,974021.75,1204595.50
338193,963981,1199052,356869.91,973534.25,1204312.25
338436,964249,1199061,355979.94,973034.50,1204023.62
338981,964625,1199234,355066.56,972529.25,1203732.12
339344,964743,1199668,354142.19,972025.00,1203442.00
339465,965015,1199630,353217.56,971526.88,1203157.50
340048,965539,1200229,352300.13,971039.63,1202881.75
340594,965673,1200032,351397.81,970567.88,1202617.50
340946,965818,1200097,350520.56,970115.38,1202365.75
341133,966049,1200529,349675.75,969684.50,1202127.12
341243,966112,1200283,348867.34,969277.13,1201902.75
341572,966117,1200383,348098.38,968894.13,1201693.00
341628,966297,1200279,347371.31,968536.00,1201497.87
341811,966393,1200613,346687.50,968203.31,1201317.50
342353,966562,1200729,346048.44,967896.56,1201152.75
342569,966987,1200679,345456.47,967616.50,1201004.00
343409,967555,1201438,344913.13,967364.00,1200870.75
343848,967663,1201330,344420.22,967139.81,1200754.00
344219,967993,1201604,343980.00,966945.25,1200654.87
344860,968269,1201850,343593.63,966781.13,1200574.25
345903,969068,1202160,343262.56,966648.00,1200512.75
346490,969335,1202265,342988.81,966547.31,1200470.00
347037,969621,1202448,342772.69,966478.88,1200445.62
347491,971009,1203618,342611.78,966442.50,1200440.00
348781,970867,1203394,342504.72,966439.06,1200454.75
349390,971231,1203428,342453.75,966468.50,1200489.37
349892,971407,1203882,342459.28,966529.00,1200541.75
351157,972157,1204119,342519.97,966619.13,1200611.25
351901,972483,1204354,342635.78,966738.38,1200697.87
352468,972920,1204368,342805.50,966885.88,1200800.75
353632,973526,1204936,343025.88,967060.56,1200918.62
354359,973870,1205068,343294.94,967261.50,1201051.25
354797,974094,1205407,343611.66,967487.00,1201198.12
355400,974772,1205996,343973.38,967734.50,1201357.87
356351,975248,1205807,344376.94,968002.75,1201529.00
357227,975389,1205984,344820.63,968291.25,1201710.75
357858,975704,1206074,345302.63,968598.13,1201902.25
359007,976544,1206520,345819.91,968922.00,1202102.50
359396,976670,1206835,346369.50,969262.44,1202311.25
360183,977022,1206769,346949.69,969617.50,1202528.00
361262,977760,1207425,347558.13,969984.94,1202751.00
362019,977948,1207535,348192.94,970363.44,1202980.12
362599,978457,1207700,348853.13,970752.75,1203215.25
363275,978633,1208259,349536.63,971152.19,1203455.50
364322,979281,1208196,350241.19,971560.44,1203700.00
364888,979464,1208439,350965.28,971976.38,1203948.50
365277,979894,1208328,351706.00,972398.88,1204200.00
366471,980533,1209271,352458.34,972826.88,1204453.75
367239,980588,1209020,353219.75,973259.69,1204710.00
367813,980847,1209225,353991.81,973695.63,1204968.00
368354,981096,1209876,354774.44,974132.75,1205226.50
369393,981608,1209944,355565.56,974570.00,1205485.25
369904,981483,1209558,356364.09,975006.38,1205744.25
369969,981170,1209399,357167.25,975438.63,1206001.12
368213,979663,1208110,357968.56,975862.13,1206250.75
366804,978358,1207110,358755.56,976268.63,1206485.25
364566,976858,1206397,359509.69,976644.63,1206697.25
361701,973852,1204571,360211.19,976977.94,1206882.00
355377,972095,1203582,360835.06,977256.50,1207032.87
352567,970745,1202815,361352.25,977467.94,1207143.00
350026,969545,1202124,361745.06,977605.69,1207208.62
346029,967779,1201260,362006.38,977667.25,1207229.00
344641,967229,1200890,362130.94,977651.50,1207204.50
343733,966766,1200779,362116.88,977561.50,1207137.00
342266,966641,1200903,361970.09,977403.25,1207030.75
341765,966298,1200631,361700.56,977183.63,1206890.00
341212,966044,1200376,361317.81,976909.88,1206719.25
340904,965888,1200786,360833.31,976588.88,1206522.62
340317,965916,1200405,360259.31,976227.63,1206304.00
340173,965849,1200518,359607.53,975833.00,1206068.00
339967,965790,1200483,358889.88,975411.75,1205818.75
339905,966355,1200912,358118.00,974970.19,1205560.37
340090,966472,1200901,357303.47,974515.88,1205297.00
340565,966663,1201058,356458.91,974055.69,1205032.37
340753,966853,1201748,355596.56,973595.38,1204769.50
341288,967364,1201636,354727.31,973140.31,1204511.50
341929,967488,1201494,353861.91,972695.63,1204261.50
342117,967812,1201533,353009.81,972265.38,1204020.75
342174,968204,1201785,352177.94,971853.38,1203790.50
343174,968447,1201899,351372.63,971463.44,1203572.25
343271,968472,1201946,350600.25,971097.00,1203367.12
343600,968979,1202471,349865.28,970754.75,1203175.87
343821,968930,1202119,349170.44,970437.44,1202999.00
344037,968982,1202440,348517.91,970146.00,1202837.00
344343,969259,1202578,347909.25,969880.63,1202690.62
344863,969671,1202830,347344.38,969642.00,1202560.75
345505,969962,1202994,346824.00,969431.38,1202448.00
345962,970264,1203218,346352.69,969249.38,1202352.62
346785,970967,1203733,345934.06,969096.13,1202274.62
347411,971063,1203773,345569.50,968972.00,1202214.25
348027,971433,1203990,345260.75,968877.44,1202172.00
348609,971847,1204310,345008.38,968812.75,1202148.00
349647,972376,1204699,344812.75,968778.00,1202142.25
350370,972720,1204797,344674.88,968773.38,1202155.00
350845,973117,1204875,344594.38,968798.19,1202185.75
352172,973829,1205736,344569.50,968851.75,1202233.75
352943,974104,1205827,344599.97,968933.88,1202300.50
353542,974442,1205882,344686.50,969043.88,1202385.12
354201,974849,1206469,344827.81,969180.50,1202485.50
355077,975315,1206327,345021.47,969342.81,1202600.25
355915,975675,1206449,345265.94,969529.50,1202728.25
356632,975932,1206550,345559.44,969739.13,1202868.50
357600,976722,1207199,345898.06,969970.13,1203020.25
358319,976828,1207493,346278.38,970221.44,1203184.12
358719,976932,1207386,346699.69,970491.38,1203359.50
359344,977955,1207823,347159.97,970776.69,1203544.12
360288,977790,1207720,347656.00,971075.56,1203735.75
360846,977939,1207911,348185.50,971387.38,1203933.75
361408,978159,1208042,348745.59,971710.75,1204137.50
362483,978910,1208520,349331.59,972044.31,1204346.75
363159,979144,1208629,349940.38,972388.00,1204561.12
363749,979478,1208940,350572.38,972741.00,1204780.75
364079,979950,1209186,351226.53,973101.81,1205004.50
365217,980143,1209230,351900.19,973469.06,1205231.87
366000,980182,1209324,352591.94,973841.38,1205461.75
365829,979870,1208644,353299.00,974215.81,1205691.87
364891,978758,1207981,354013.38,974586.25,1205917.75
363387,977686,1207254,354722.53,974943.81,1206132.50
361430,976347,1206302,355411.13,975279.06,1206330.12
356044,973523,1205146,356061.72,975582.75,1206503.87
353242,972148,1204215,356650.63,975843.75,1206647.75
350730,971039,1203443,357151.13,976050.25,1206757.00
348434,969898,1202822,357546.31,976195.94,1206829.50
344971,968371,1202051,357826.38,976277.69,1206863.50
343544,967945,1201721,357983.31,976294.06,1206859.00
342680,967489,1201674,358017.22,976247.38,1206818.00
341154,967071,1201380,357933.56,976142.75,1206743.75
340490,966903,1201285,357738.22,975985.75,1206639.25
340224,966771,1201215,357440.13,975781.38,1206508.00
340100,966984,1201584,357051.31,975535.31,1206353.62
339483,966482,1201150,356583.19,975253.25,1206180.25
339281,966312,1201150,356045.63,974940.38,1205990.75
338984,966195,1201237,355448.25,974601.13,1205788.12
338861,966524,1201258,354800.63,974240.94,1205575.87
339032,966675,1201394,354112.56,973866.25,1205357.00
339239,966957,1201640,353394.75,973483.13,1205135.12
339258,967660,1202011,352657.69,973097.06,1204913.25
340014,967705,1202127,351911.31,972713.56,1204694.37
340470,967944,1202260,351165.31,972337.88,1204481.75
340808,968077,1202595,350428.34,971973.88,1204277.25
341437,968511,1202599,349707.94,971624.56,1204082.00
341787,968599,1202536,349011.00,971292.81,1203897.62
341917,968851,1202695,348342.50,970980.50,1203725.50
342408,969431,1203184,347705.50,970689.56,1203566.50
342802,969583,1203138,347103.13,970422.00,1203422.50
343196,969750,1203301,346539.38,970179.38,1203293.50
343589,970288,1203948,346017.28,969962.13,1203179.75
344383,970388,1203687,345539.38,969770.38,1203081.37
344688,970691,1203830,345108.13,969605.38,1202998.75
345266,970921,1204074,344724.88,969467.56,1202932.00
346308,971572,1204545,344390.22,969357.25,1202881.75
346901,971971,1204780,344105.75,969275.63,1202849.25
347521,972453,1204894,343874.06,969223.31,1202834.50
348177,973533,1205738,343696.25,969200.38,1202836.50
349068,973510,1205791,343572.50,969206.75,1202855.87
350085,973873,1205808,343503.69,969243.13,1202893.00
350903,974143,1206067,343490.75,969308.88,1202947.75
352204,974999,1206698,343532.81,969403.31,1203019.37
352677,975090,1206541,343628.56,969526.25,1203108.12
353457,975573,1206895,343778.25,969676.25,1203212.50
354697,976738,1207417,343980.75,969851.69,1203331.50
355378,976612,1207527,344234.38,970052.13,1203464.75
355976,976735,1207621,344538.38,970276.25,1203611.75
356734,977233,1208276,344890.72,970522.00,1203771.25
357607,977678,1208334,345288.59,970788.00,1203943.00
358389,978037,1208343,345729.78,971073.06,1204126.25
359055,978237,1208386,346211.63,971375.38,1204318.75
359853,979135,1209154,346730.91,971693.38,1204519.87
360821,979201,1209113,347284.97,972026.50,1204729.87
361320,979393,1209099,347871.94,972373.06,1204947.25
361884,980386,1209674,348488.56,972730.50,1205170.00
363041,980471,1209709,349131.97,973098.00,1205397.25
363476,980588,1209801,349800.38,973475.13,1205629.00
363948,980822,1210078,350490.50,973860.31,1205864.25
365408,981257,1210487,351198.88,974251.63,1206103.25
366044,981610,1210309,351924.44,974648.25,1206345.00
366572,982010,1210642,352666.94,975049.38,1206588.50
367078,982972,1211935,353424.06,975454.00,1206832.62
368556,982929,1211432,354194.06,975861.50,1207078.25
369048,983104,1211457,354977.06,976271.94,1207326.00
369494,982979,1211247,355771.06,976683.75,1207574.25
369239,982241,1210654,356571.13,977092.13,1207819.75
368684,981495,1209976,357369.56,977490.25,1208056.87
367253,980577,1209267,358155.53,977870.75,1208280.25
363066,978918,1207851,358914.00,978226.38,1208484.37
360530,977197,1207067,359623.13,978548.06,1208663.12
358195,975970,1206379,360259.19,978824.38,1208810.50
