6961,2905,2071,1622
6964,2907,2072,1623
6968,2908,2073,1624
6965,2907,2072,1623
6969,2909,2073,1625
6972,2910,2074,1625
6972,2909,2074,1625
6974,2910,2075,1626
6979,2912,2076,1627
6978,2912,2076,1627
6979,2912,2076,1627
6984,2914,2078,1628
6987,2915,2079,1629
6987,2915,2079,1629
6993,2917,2081,1630
6996,2918,2082,1631
6996,2918,2082,1631
7000,2920,2083,1632
7006,2922,2085,1633
7006,2923,2086,1634
7008,2924,2087,1634
7011,2926,2088,1635
7016,2926,2089,1636
7017,2926,2089,1636
7018,2926,2089,1636
7019,2926,2090,1636
7020,2926,2090,1636
7020,2926,2090,1636
7022,2927,2091,1637
7021,2927,2090,1637
7017,2925,2089,1636
7017,2925,2089,1636
7018,2926,2089,1636
7017,2925,2089,1636
7018,2926,2089,1637
7020,2926,2089,1637
7019,2926,2089,1637
7020,2926,2089,1637
7021,2927,2090,1638
7022,2927,2090,1638
7024,2927,2091,1638
7026,2928,2091,1639
7027,2928,2092,1639
7028,2928,2092,1639
7029,2929,2092,1640
7030,2929,2093,1640
7031,2929,2093,1640
7032,2930,2094,1640
7034,2930,2094,1641
7036,2931,2095,1641
7037,2931,2096,1642
7039,2932,2096,1642
7041,2932,2097,1642
7041,2932,2097,1642
7042,2932,2097,1642
7042,2933,2098,1643
7042,2932,2098,1642
7041,2932,2097,1642
7039,2931,2096,1642
7037,2931,2096,1642
7036,2930,2095,1642
7035,2930,2095,1642
7034,2929,2094,1641
7032,2929,2094,1641
7031,2929,2093,1641
7031,2928,2093,1641
7030,2928,2093,1641
7029,2928,2093,1641
7029,2927,2093,1640
7029,2927,2093,1641
7030,2927,2093,1641
7029,2927,2093,1641
7029,2927,2093,1641
7029,2927,2093,1641
7028,2926,2093,1641
7029,2926,2093,1641
7030,2926,2093,1641
7029,2926,2093,1641
7029,2926,2093,1641
7030,2926,2094,1641
7031,2926,2094,1641
7031,2926,2094,1641
7032,2926,2095,1641
7032,2926,2095,1641
7030,2925,2094,1641
7028,2924,2093,1640
7025,2923,2092,1640
7021,2922,2091,1639
7019,2921,2090,1639
7018,2921,2090,1639
7016,2920,2089,1638
7015,2919,2089,1638
7013,2919,2088,1638
7011,2918,2088,1637
7011,2918,2088,1637
7009,2917,2087,1637
7007,2916,2086,1636
7006,2916,2086,1636
7006,2916,2086,1636
7004,2915,2086,1636
7005,2915,2086,1636
7005,2914,2086,1636
7004,2914,2086,1636
7003,2913,2086,1636
7004,2913,2086,1636
7002,2912,2086,1635
7001,2912,2086,1635
7003,2913,2086,1635
7003,2912,2086,1635
7002,2911,2086,1635
7004,2912,2087,1635
7001,2911,2086,1635
6997,2910,2085,1634
6996,2909,2084,1634
6993,2908,2083,1633
6989,2907,2082,1633
6990,2907,2082,1633
6989,2907,2081,1633
6986,2906,2080,1632
6986,2906,2080,1632
6985,2905,2080,1632
6981,2904,2079,1631
6982,2904,2079,1632
6982,2904,2079,1632
6982,2903,2078,1631
6979,2903,2078,1631
6978,2902,2078,1631
6979,2902,2078,1631
6977,2901,2078,1631
6976,2901,2078,1631
6976,2901,2078,1631
6974,2899,2077,1630
6973,2899,2077,1630
6975,2899,2077,1630
6972,2898,2077,1630
6971,2898,2077,1629
6973,2898,2077,1630
6972,2898,2077,1629
6971,2897,2077,1629
6972,2898,2077,1629
6972,2897,2077,1629
6970,2896,2077,1629
6968,2896,2076,1629
6966,2895,2075,1629
6961,2893,2074,1628
6959,2892,2073,1627
6957,2892,2072,1627
6955,2891,2071,1627
6955,2891,2071,1627
6953,2890,2071,1626
6950,2889,2070,1626
6949,2889,2069,1626
6950,2889,2070,1626
6948,2888,2069,1625
6948,2887,2069,1625
6947,2887,2069,1625
6945,2886,2068,1625
6946,2886,2069,1625
6946,2886,2069,1625
6945,2886,2068,1625
6943,2885,2068,1625
6943,2885,2068,1625
6942,2884,2068,1624
6942,2884,2068,1624
6943,2884,2068,1624
6943,2884,2069,1625
6944,2885,2069,1625
6946,2885,2069,1625
6946,2885,2070,1625
6949,2886,2070,1626
6949,2886,2071,1626
6949,2886,2070,1626
6948,2886,2070,1626
6946,2886,2069,1626
6946,2886,2069,1626
6946,2886,2068,1626
6946,2886,2068,1626
6946,2886,2068,1626
6947,2886,2068,1626
6946,2886,2068,1626
6947,2887,2068,1626
6950,2887,2069,1627
6950,2888,2069,1627
6951,2888,2070,1628
6953,2889,2070,1628
6952,2888,2070,1628
6953,2889,2070,1628
6955,2890,2071,1629
6957,2890,2071,1629
6956,2890,2071,1629
6959,2891,2072,1630
6961,2892,2073,1630
6961,2892,2073,1630
6961,2892,2073,1630
6965,2893,2074,1631
6965,2893,2074,1631
6967,2893,2075,1631
6970,2895,2076,1632
6969,2894,2075,1632
6966,2893,2074,1632
6968,2894,2074,1632
6966,2894,2074,1632
6963,2893,2073,1631
6963,2893,2072,1632
6964,2894,2072,1632
6962,2893,2072,1632
6963,2893,2072,1632
6965,2894,2072,1632
6964,2894,2072,1632
6964,2894,2072,1632
6967,2895,2073,1633
6966,2895,2072,1633
6965,2895,2072,1633
6968,2896,2073,1633
6970,2897,2074,1634
6969,2896,2073,1634
6972,2897,2074,1634
6975,2898,2075,1635
6975,2898,2075,1635
6976,2899,2076,1635
6980,2900,2077,1636
6981,2900,2077,1636
6981,2901,2077,1637
6985,2902,2078,1637
6988,2903,2079,1638
6988,2902,2079,1638
6986,2902,2079,1638
6987,2902,2078,1637
6985,2902,2076,1637
6981,2901,2076,1637
6980,2901,2076,1637
6981,2901,2076,1637
6977,2900,2074,1636
6976,2900,2074,1636
6977,2900,2074,1637
6977,2900,2074,1637
6975,2900,2073,1637
6977,2901,2074,1637
6977,2901,2074,1637
6977,2901,2073,1637
6978,2901,2074,1638
6979,2902,2074,1638
6979,2901,2074,1638
6981,2902,2075,1638
6983,2903,2075,1639
6983,2903,2075,1639
6984,2903,2075,1639
6985,2903,2076,1640
6986,2903,2076,1640
6986,2904,2077,1640
6988,2904,2077,1640
6989,2904,2078,1640
6989,2904,2078,1640
6991,2905,2079,1641
6993,2905,2079,1641
6994,2906,2080,1642
6995,2906,2080,1642
6994,2906,2079,1642
6991,2905,2078,1641
6988,2904,2077,1641
6985,2903,2076,1640
6983,2903,2075,1640
6982,2902,2074,1640
6981,2902,2073,1640
6980,2902,2073,1640
6980,2902,2073,1640
6980,2902,2073,1640
6979,2902,2072,1640
6980,2902,2073,1640
6979,2902,2073,1640
6979,2902,2072,1640
6978,2901,2072,1640
6978,2901,2072,1640
6979,2901,2072,1640
6979,2901,2072,1640
6979,2901,2072,1640
6979,2901,2073,1641
6980,2902,2073,1641
6981,2902,2073,1641
6982,2902,2074,1641
6982,2902,2074,1641
6983,2902,2074,1641
6984,2902,2075,1642
6984,2902,2075,1642
6986,2902,2075,1642
6986,2902,2076,1642
6986,2902,2076,1642
6987,2902,2076,1642
6987,2902,2076,1642
6985,2902,2076,1642
6982,2900,2074,1641
6980,2900,2073,1641
6978,2899,2073,1641
6976,2898,2072,1641
6974,2898,2071,1640
6971,2897,2070,1640
6969,2896,2069,1640
6968,2896,2069,1639
6967,2896,2068,1639
6967,2895,2068,1639
6965,2895,2067,1639
6964,2895,2067,1639
6964,2895,2067,1639
6963,2894,2067,1638
6963,2894,2067,1639
6963,2894,2067,1639
6963,2894,2067,1639
6962,2893,2067,1638
6962,2893,2067,1638
6960,2892,2066,1638
6959,2892,2066,1638
6959,2892,2066,1637
6958,2891,2066,1637
6958,2891,2066,1637
6959,2891,2066,1637
6959,2891,2066,1637
6959,2891,2067,1637
6960,2891,2067,1637
6960,2891,2067,1637
6956,2889,2066,1637
6954,2889,2065,1636
6952,2888,2064,1636
6948,2887,2062,1636
6946,2887,2062,1635
6945,2886,2061,1635
6942,2885,2060,1635
6940,2884,2059,1634
6940,2884,2058,1634
6937,2883,2057,1633
6934,2883,2056,1633
6932,2882,2056,1633
6933,2882,2056,1632
6930,2881,2056,1632
6930,2881,2056,1632
6930,2881,2056,1632
6929,2880,2055,1632
6927,2879,2055,1632
6928,2880,2055,1632
6926,2879,2055,1632
6925,2878,2055,1631
6926,2879,2055,1631
6928,2879,2056,1632
6926,2878,2055,1631
6927,2879,2056,1631
6928,2878,2056,1631
6927,2878,2056,1631
6929,2878,2057,1631
6930,2879,2057,1632
6928,2878,2057,1631
6927,2877,2056,1631
6924,2877,2055,1631
6919,2875,2053,1630
6916,2874,2052,1629
6914,2873,2051,1629
6910,2872,2050,1628
6907,2871,2049,1628
6905,2871,2048,1628
6902,2870,2047,1627
6900,2869,2046,1626
6899,2869,2046,1626
6898,2868,2045,1626
6898,2868,2045,1626
6897,2868,2045,1626
6897,2867,2045,1626
6896,2867,2045,1626
6896,2867,2045,1626
6895,2867,2045,1625
6894,2866,2044,1625
6894,2866,2045,1625
6895,2866,2045,1625
6896,2866,2045,1625
6897,2866,2046,1626
6897,2866,2046,1626
6897,2866,2046,1626
6898,2866,2047,1626
6898,2866,2047,1626
6897,2866,2047,1625
6897,2865,2047,1625
6897,2865,2047,1625
6899,2866,2048,1625
6899,2866,2048,1626
6896,2865,2046,1625
6893,2864,2045,1625
6889,2863,2043,1624
6887,2862,2042,1624
6885,2862,2041,1624
6883,2861,2041,1624
6883,2861,2040,1624
6882,2861,2040,1624
6883,2861,2040,1624
6883,2862,2040,1624
6885,2862,2041,1624
6885,2862,2041,1625
6885,2863,2041,1625
6887,2863,2042,1625
6888,2863,2042,1625
6889,2863,2042,1625
6890,2864,2043,1626
6893,2865,2044,1626
6894,2865,2044,1627
6896,2866,2045,1627
6898,2866,2046,1627
6899,2867,2046,1628
6901,2867,2047,1628
6903,2868,2048,1628
6905,2868,2048,1629
6907,2869,2049,1629
6909,2870,2050,1630
6913,2871,2051,1630
6913,2871,2052,1631
6916,2872,2053,1631
6917,2872,2053,1631
6914,2871,2052,1631
6912,2871,2051,1631
6912,2870,2050,1631
6909,2870,2049,1630
6907,2869,2048,1630
6907,2870,2048,1630
6907,2870,2048,1631
6906,2869,2048,1630
6907,2870,2048,1631
6909,2871,2048,1631
6908,2870,2048,1631
6909,2871,2048,1631
6911,2871,2049,1632
6910,2871,2049,1632
6911,2871,2049,1632
6913,2872,2050,1632
6914,2872,2050,1632
6914,2872,2050,1632
6913,2873,2050,1632
6915,2873,2051,1633
6916,2873,2051,1633
6916,2873,2051,1633
6917,2873,2052,1633
6920,2874,2052,1633
6920,2874,2053,1633
6922,2874,2053,1634
6925,2875,2054,1634
6926,2876,2055,1634
6927,2876,2055,1634
6928,2876,2055,1635
6925,2875,2054,1634
6921,2874,2053,1634
6919,2874,2052,1634
6917,2873,2051,1633
6914,2872,2049,1633
6914,2872,2049,1633
6913,2872,2049,1633
6912,2872,2048,1633
6911,2872,2048,1633
6912,2872,2048,1633
6913,2873,2049,1633
6913,2873,2049,1633
6915,2873,2049,1634
6916,2873,2049,1634
6916,2873,2049,1634
6918,2874,2050,1634
6919,2874,2050,1634
6919,2875,2051,1635
6920,2875,2051,1635
6922,2875,2052,1635
6924,2876,2052,1635
6926,2876,2053,1636
6927,2876,2054,1636
6929,2877,2054,1636
6928,2876,2054,1636
6929,2877,2055,1636
6930,2877,2055,1636
6931,2877,2056,1636
6932,2878,2056,1636
6932,2877,2056,1636
6929,2877,2055,1636
6927,2876,2054,1636
6924,2875,2053,1636
6921,2874,2051,1635
6919,2874,2050,1635
6917,2874,2050,1635
6916,2873,2049,1635
6914,2873,2049,1634
6915,2873,2049,1635
6917,2873,2049,1635
6917,2873,2049,1635
6914,2873,2048,1634
6911,2872,2047,1633
6910,2871,2047,1633
6910,2872,2047,1633
6911,2872,2047,1633
6914,2872,2048,1634
6918,2873,2050,1635
6922,2874,2051,1636
6925,2875,2053,1637
6927,2876,2053,1637
6928,2876,2054,1637
6928,2876,2054,1637
6928,2876,2054,1637
6928,2876,2055,1637
6928,2875,2055,1637
6929,2875,2055,1637
6930,2875,2056,1637
6931,2875,2056,1637
6928,2874,2055,1637
6924,2873,2054,1636
6919,2871,2052,1635
6914,2869,2050,1634
6910,2868,2049,1634
6908,2868,2048,1633
6904,2866,2046,1633
6902,2865,2045,1632
6900,2865,2045,1632
6898,2864,2044,1631
6895,2863,2043,1631
6896,2863,2044,1631
6895,2862,2043,1631
6892,2862,2043,1630
6892,2862,2043,1630
6891,2861,2042,1630
6887,2859,2041,1629
6888,2860,2041,1629
6888,2859,2041,1629
6885,2858,2041,1628
6883,2857,2040,1628
6884,2857,2041,1628
6880,2855,2040,1627
6879,2855,2039,1627
6881,2855,2040,1627
6877,2853,2039,1626
6874,2852,2039,1625
6878,2853,2040,1626
6875,2851,2039,1625
6875,2849,2037,1624
6868,2848,2036,1623
6864,2848,2033,1622
6857,2845,2029,1619
6847,2841,2029,1620
6847,2841,2029,1618
6841,2840,2027,1618
6831,2835,2024,1616
6828,2834,2023,1616
6827,2834,2023,1616
6819,2831,2021,1614
6819,2831,2020,1613
6819,2831,2020,1613
6795,2821,2013,1608
6758,2806,2002,1599
6768,2810,2005,1601
6769,2810,2006,1602
6768,2809,2006,1601
6774,2812,2008,1603
6772,2810,2007,1602
6766,2808,2006,1601
6768,2808,2006,1601
6774,2811,2008,1602
6774,2811,2008,1602
6775,2811,2009,1602
6775,2811,2009,1602
6768,2808,2007,1600
6771,2808,2008,1601
6774,2810,2009,1602
6768,2807,2008,1600
6764,2805,2006,1599
6761,2804,2005,1599
6751,2801,2001,1597
6745,2799,2000,1596
6746,2799,1999,1596
6737,2796,1997,1594
6731,2794,1994,1593
6731,2794,1994,1593
6727,2792,1993,1592
6720,2790,1991,1591
6720,2790,1991,1591
6718,2789,1990,1590
6711,2786,1988,1588
6711,2786,1988,1588
6711,2786,1988,1588
6705,2783,1987,1587
6704,2783,1987,1587
6705,2783,1987,1587
6700,2781,1986,1586
6699,2780,1986,1585
6700,2780,1986,1585
6697,2779,1985,1585
6695,2777,1985,1584
6696,2778,1986,1584
6695,2777,1985,1584
6691,2775,1984,1583
6691,2775,1984,1582
6689,2774,1984,1582
6687,2773,1984,1581
6686,2772,1984,1581
6685,2771,1983,1581
6679,2769,1982,1580
6675,2768,1980,1579
6668,2765,1978,1578
6662,2763,1975,1576
6659,2762,1974,1576
6657,2762,1973,1576
6657,2762,1973,1576
6656,2762,1972,1575
6655,2762,1972,1575
6656,2762,1973,1576
6660,2764,1974,1577
6664,2765,1975,1578
6667,2766,1976,1578
6670,2767,1977,1579
6674,2769,1978,1580
6679,2771,1979,1581
6681,2772,1980,1582
6685,2773,1981,1582
6690,2775,1983,1583
6695,2777,1985,1584
6698,2778,1986,1585
6702,2780,1987,1586
6709,2782,1989,1588
6711,2783,1990,1588
6716,2784,1992,1589
6723,2787,1994,1591
6725,2788,1995,1591
6727,2789,1996,1591
6733,2791,1998,1592
6739,2793,2000,1594
6740,2793,2000,1594
6744,2795,2001,1595
6748,2797,2002,1596
6745,2795,2001,1596
6745,2796,2000,1596
6750,2798,2002,1598
6749,2798,2001,1597
6748,2798,2000,1597
6753,2801,2002,1599
6756,2802,2003,1599
6756,2801,2002,1599
6753,2803,2004,1600
6759,2803,2005,1601
6764,2805,2004,1601
6761,2804,2004,1602
6765,2805,2005,1603
6772,2808,2008,1603
6771,2807,2007,1603
6772,2808,2007,1603
6780,2811,2010,1605
6783,2812,2011,1605
6782,2812,2011,1605
6790,2815,2013,1607
6796,2817,2015,1608
6794,2816,2015,1608
6800,2818,2017,1609
6809,2822,2020,1611
6808,2821,2020,1611
6811,2822,2021,1611
6821,2826,2024,1614
6824,2826,2025,1614
6823,2826,2025,1614
6827,2828,2025,1615
6826,2828,2025,1615
6821,2826,2023,1614
6821,2827,2022,1615
6825,2829,2023,1616
6822,2828,2022,1615
6823,2829,2022,1616
6830,2831,2024,1617
6831,2832,2025,1618
6831,2832,2025,1618
6839,2835,2027,1619
6841,2836,2028,1620
6840,2835,2027,1619
6844,2837,2029,1621
6849,2839,2030,1622
6849,2839,2030,1622
6853,2840,2032,1623
6860,2843,2034,1624
6862,2844,2035,1625
6864,2844,2035,1625
6871,2847,2038,1626
6876,2848,2039,1627
6878,2849,2040,1628
6883,2850,2042,1629
6886,2852,2043,1629
6886,2851,2043,1629
6889,2852,2044,1630
6893,2854,2045,1631
6894,2854,2046,1631
6893,2854,2046,1631
6893,2854,2045,1631
6890,2853,2044,1631
6886,2852,2042,1630
6886,2852,2042,1630
6885,2852,2041,1630
6883,2852,2040,1630
6884,2852,2040,1631
6884,2853,2040,1631
6884,2853,2040,1631
6886,2853,2041,1631
6887,2854,2041,1631
6889,2854,2042,1632
6889,2854,2042,1632
6892,2855,2043,1632
6893,2856,2043,1633
6895,2857,2044,1633
6898,2857,2045,1634
6899,2858,2045,1634
6901,2858,2046,1634
6902,2858,2046,1634
6903,2859,2047,1635
6905,2859,2048,1635
6906,2859,2048,1635
6907,2859,2049,1635
6908,2860,2049,1635
6911,2860,2051,1636
6913,2861,2051,1636
6915,2861,2052,1637
6916,2861,2053,1637
6917,2861,2053,1637
6915,2860,2053,1636
6909,2859,2051,1635
6904,2857,2049,1634
6899,2856,2047,1634
6893,2854,2045,1633
6890,2853,2043,1632
6886,2852,2042,1631
6883,2850,2041,1631
6879,2849,2039,1630
6879,2849,2039,1630
6876,2848,2038,1629
6874,2847,2037,1628
6874,2847,2037,1629
6874,2847,2037,1629
6874,2847,2038,1629
6876,2847,2038,1629
6875,2847,2038,1629
6875,2846,2038,1629
6873,2846,2038,1629
6873,2846,2038,1629
6873,2846,2037,1628
6870,2844,2038,1628
6870,2844,2038,1628
6871,2844,2038,1627
6869,2843,2038,1627
6868,2842,2037,1627
6869,2842,2038,1627
6868,2841,2038,1627
6866,2840,2038,1626
6869,2841,2039,1627
6866,2840,2038,1626
6862,2838,2037,1625
6861,2838,2037,1625
6853,2835,2034,1623
6846,2832,2031,1622
6843,2832,2030,1621
6839,2830,2029,1621
6831,2827,2026,1619
6829,2827,2025,1619
6826,2826,2024,1618
6819,2823,2022,1617
6818,2822,2021,1616
6819,2823,2022,1616
6813,2820,2020,1615
6811,2819,2020,1614
6812,2820,2020,1615
6807,2818,2019,1613
6802,2815,2017,1612
6804,2816,2018,1613
6801,2815,2017,1612
6796,2813,2016,1611
6799,2814,2017,1611
6799,2813,2017,1611
6795,2811,2016,1610
6797,2812,2017,1611
6798,2812,2017,1611
6792,2809,2016,1609
6792,2809,2016,1609
6794,2810,2017,1609
6788,2807,2015,1608
6787,2806,2015,1607
6788,2807,2015,1608
6778,2803,2012,1606
6771,2801,2009,1604
6769,2800,2008,1604
6761,2797,2005,1602
6754,2795,2003,1601
6754,2795,2003,1601
6749,2793,2001,1600
6743,2791,1999,1599
6742,2791,1999,1599
6741,2790,1999,1598
6736,2788,1997,1597
6736,2788,1997,1597
6736,2788,1997,1597
6729,2785,1995,1596
6727,2784,1995,1595
6727,2784,1995,1595
6722,2782,1993,1594
6720,2781,1993,1593
6723,2782,1994,1594
6720,2781,1993,1593
6719,2780,1993,1593
6720,2780,1994,1593
6718,2779,1993,1592
6715,2777,1993,1591
6714,2777,1993,1591
6713,2776,1992,1591
6711,2775,1992,1590
6711,2775,1992,1590
6710,2774,1992,1589
6704,2772,1990,1588
6699,2770,1988,1588
6694,2769,1986,1587
6687,2767,1984,1586
6682,2765,1982,1585
6677,2763,1980,1584
6672,2761,1978,1583
6668,2760,1977,1582
6666,2760,1976,1581
6666,2760,1976,1581
6666,2760,1976,1581
6667,2760,1977,1582
6669,2760,1977,1582
6673,2762,1978,1583
6676,2763,1979,1584
6678,2764,1980,1584
6681,2765,1981,1585
6684,2766,1982,1585
6690,2768,1984,1587
6694,2770,1985,1588
6699,2771,1987,1588
6703,2773,1988,1589
6709,2775,1990,1591
6711,2775,1991,1591
6715,2777,1993,1592
6720,2779,1994,1593
6720,2779,1995,1593
6722,2780,1996,1594
6725,2780,1998,1595
6731,2783,2000,1596
6736,2784,2000,1596
6738,2784,2001,1597
6739,2785,2001,1597
6740,2786,2001,1597
6734,2784,1998,1596
6732,2784,1997,1596
6734,2785,1998,1597
6732,2785,1997,1597
6730,2784,1995,1596
6733,2786,1996,1597
6736,2787,1997,1598
6734,2786,1996,1598
6738,2788,1997,1599
6743,2790,1999,1600
6742,2790,1999,1600
6745,2791,1999,1600
6752,2793,2002,1602
6753,2793,2002,1602
6753,2794,2002,1603
6762,2797,2005,1605
6764,2798,2006,1605
6764,2797,2006,1605
6771,2800,2008,1606
6776,2802,2010,1608
6775,2801,2009,1607
6780,2803,2011,1608
6788,2806,2014,1610
6789,2806,2014,1610
6791,2806,2015,1611
6801,2810,2018,1613
6804,2811,2019,1614
6805,2811,2020,1614
6812,2814,2022,1615
6814,2815,2023,1616
6808,2813,2020,1615
6808,2813,2020,1615
6809,2814,2019,1616
6804,2812,2018,1615
6802,2812,2017,1615
6807,2814,2018,1616
6806,2814,2018,1616
6805,2814,2017,1616
6810,2816,2019,1617
6813,2817,2020,1618
6812,2817,2019,1617
6815,2818,2020,1618
6818,2819,2021,1619
6817,2819,2021,1619
6819,2820,2021,1619
6825,2822,2023,1620
6826,2823,2024,1621
6828,2823,2024,1621
6834,2825,2026,1623
6837,2826,2027,1623
6837,2826,2027,1623
6842,2828,2029,1624
6847,2830,2030,1625
6848,2830,2031,1625
6851,2831,2032,1626
6854,2832,2033,1627
6855,2832,2034,1627
6856,2832,2034,1627
6855,2833,2033,1627
6851,2831,2032,1626
6847,2830,2030,1626
6845,2830,2029,1626
6843,2830,2028,1625
6840,2829,2026,1625
6839,2829,2026,1625
6838,2829,2025,1625
6836,2828,2025,1624
6836,2828,2025,1625
6838,2829,2025,1625
6839,2829,2025,1625
6839,2829,2026,1625
6841,2830,2026,1626
6843,2831,2027,1626
6844,2831,2027,1627
6846,2832,2028,1627
6847,2832,2028,1627
6849,2832,2029,1628
6850,2833,2029,1628
6851,2833,2030,1628
6852,2833,2030,1628
6853,2834,2031,1628
6854,2834,2031,1628
6856,2834,2032,1629
6858,2835,2033,1629
6860,2835,2034,1630
6861,2836,2034,1630
6863,2836,2035,1630
6860,2835,2034,1630
6855,2834,2032,1629
6848,2832,2029,1628
6843,2830,2027,1627
6843,2829,2025,1626
6838,2828,2023,1625
6834,2828,2022,1624
6830,2826,2021,1624
6827,2825,2021,1623
6824,2824,2020,1623
6822,2824,2019,1623
6821,2823,2019,1623
6821,2823,2019,1623
6819,2822,2019,1622
6818,2822,2018,1622
6816,2821,2018,1621
6815,2820,2017,1621
6815,2820,2017,1621
6815,2820,2017,1621
6815,2820,2018,1621
6817,2820,2019,1622
6818,2820,2019,1622
6817,2820,2019,1621
6817,2820,2019,1621
6818,2820,2019,1621
6817,2819,2019,1621
6819,2819,2020,1621
6820,2820,2021,1621
6819,2819,2020,1621
6818,2818,2020,1621
6818,2818,2020,1621
6812,2816,2018,1619
6804,2813,2016,1618
6800,2812,2014,1618
6795,2810,2012,1617
6789,2808,2010,1616
6787,2808,2009,1616
6782,2807,2007,1615
6775,2804,2005,1613
6773,2804,2004,1613
6770,2803,2003,1612
6766,2801,2001,1611
6765,2800,2001,1611
6765,2800,2001,1611
6762,2799,2000,1610
6761,2798,2000,1610
6762,2799,2000,1610
6758,2797,1999,1609
6757,2797,1999,1609
6760,2797,2000,1610
6756,2796,1999,1609
6755,2795,1999,1608
6758,2796,2000,1609
6756,2795,2000,1608
6753,2793,1999,1608
6755,2794,2000,1608
6755,2794,2000,1608
6752,2793,1999,1607
6754,2793,2000,1607
6756,2793,2001,1608
6752,2792,2000,1607
6752,2791,2000,1607
6749,2791,1999,1606
6741,2787,1996,1605
6734,2785,1993,1603
6730,2784,1992,1603
6723,2782,1989,1602
6717,2780,1987,1600
6716,2780,1986,1600
6712,2778,1985,1599
6707,2776,1983,1598
6708,2777,1984,1598
6706,2776,1983,1598
6703,2774,1982,1597
6702,2774,1982,1597
6702,2774,1982,1597
6698,2772,1980,1596
6697,2772,1980,1596
6697,2772,1980,1596
6694,2770,1979,1595
6692,2770,1979,1595
6694,2770,1980,1595
6693,2769,1980,1595
6692,2769,1980,1594
6693,2769,1980,1595
6692,2768,1980,1594
6689,2767,1980,1593
6690,2767,1980,1593
6690,2767,1980,1593
6688,2766,1980,1593
6686,2765,1979,1592
6681,2763,1977,1592
6675,2761,1975,1590
6669,2760,1973,1590
6665,2758,1971,1589
6659,2756,1969,1588
6655,2755,1967,1587
6652,2754,1966,1587
6648,2753,1964,1586
6644,2752,1963,1585
6641,2751,1962,1584
6638,2750,1961,1583
6635,2749,1960,1582
6635,2749,1960,1582
6636,2748,1960,1582
6635,2748,1960,1582
6635,2748,1960,1582
6635,2748,1960,1582
6633,2747,1960,1582
6635,2748,1961,1582
6636,2748,1961,1582
6639,2749,1962,1583
6643,2750,1963,1584
6646,2751,1965,1585
6651,2753,1966,1586
6655,2754,1968,1586
6656,2755,1968,1587
6660,2756,1970,1587
6663,2757,1971,1588
6665,2757,1971,1588
6665,2758,1972,1588
6665,2758,1971,1589
6662,2757,1970,1588
6657,2756,1968,1588
6656,2756,1967,1588
6655,2756,1966,1588
6652,2755,1965,1587
6651,2755,1964,1587
6653,2756,1964,1588
6651,2755,1964,1587
6651,2756,1964,1587
6656,2758,1965,1588
6657,2758,1966,1589
6657,2758,1966,1589
6661,2759,1967,1590
6663,2760,1968,1590
6662,2760,1967,1590
6666,2761,1968,1591
6671,2763,1970,1592
6670,2762,1970,1591
6672,2763,1971,1592
6679,2766,1973,1593
6681,2766,1974,1594
6682,2766,1974,1594
6688,2768,1976,1595
6692,2770,1978,1596
6692,2770,1978,1596
6696,2771,1979,1597
6702,2773,1981,1598
6703,2773,1982,1598
6706,2774,1983,1598
6710,2776,1984,1600
6706,2775,1983,1599
6699,2773,1980,1598
6699,2773,1979,1598
6698,2773,1978,1598
6694,2772,1977,1597
6694,2772,1976,1598
6696,2774,1977,1598
6694,2773,1976,1598
6692,2773,1975,1598
6696,2774,1977,1599
6696,2774,1977,1599
6696,2774,1976,1598
6700,2776,1978,1600
6703,2777,1979,1600
6702,2776,1978,1600
6705,2777,1979,1601
6708,2779,1980,1601
6707,2778,1980,1601
6710,2779,1981,1602
6716,2781,1983,1603
6718,2782,1984,1603
6721,2783,1985,1604
6726,2784,1987,1605
6730,2786,1988,1606
6730,2785,1989,1606
6734,2787,1990,1607
6738,2788,1991,1607
6739,2789,1992,1607
6743,2790,1993,1608
6747,2791,1995,1609
6748,2792,1995,1609
6746,2791,1995,1609
6743,2790,1993,1609
6739,2789,1991,1608
6734,2788,1989,1607
6732,2788,1988,1607
6730,2787,1987,1607
6728,2787,1986,1607
6729,2787,1986,1607
6730,2788,1987,1607
6730,2787,1987,1607
6731,2788,1987,1607
6732,2788,1987,1608
6734,2789,1988,1608
6734,2789,1988,1608
6737,2790,1989,1609
6738,2790,1989,1609
6739,2791,1990,1609
6741,2791,1990,1610
6741,2792,1991,1610
6743,2792,1991,1610
6744,2793,1993,1611
6746,2793,1994,1611
6749,2793,1994,1612
6753,2794,1995,1613
6755,2795,1996,1613
6757,2795,1997,1613
6758,2796,1997,1613
6760,2796,1998,1613
6760,2796,1998,1613
6761,2796,1999,1613
6763,2796,1999,1614
6763,2797,2000,1614
6761,2796,1999,1613
6758,2795,1998,1613
6753,2793,1996,1612
6749,2792,1994,1612
6744,2791,1992,1611
6741,2790,1991,1610
6736,2788,1989,1609
6733,2787,1988,1609
6730,2786,1987,1608
6728,2785,1987,1608
6727,2784,1986,1607
6724,2783,1986,1607
6723,2783,1985,1606
6723,2783,1985,1606
6721,2782,1985,1606
6720,2781,1984,1606
6719,2781,1984,1605
6717,2780,1984,1605
6717,2779,1984,1605
6718,2780,1984,1605
6717,2779,1984,1604
6715,2778,1984,1604
6716,2778,1985,1604
6716,2778,1985,1604
6713,2776,1984,1603
6714,2777,1985,1603
6713,2776,1984,1602
6709,2774,1983,1601
6707,2774,1983,1601
6700,2772,1980,1599
6684,2766,1975,1595
6669,2762,1969,1592
6657,2760,1965,1589
6642,2755,1960,1585
6627,2751,1954,1581
6620,2750,1951,1579
6609,2747,1948,1576
6599,2745,1945,1573
6597,2746,1944,1572
6585,2744,1940,1568
6568,2740,1935,1563
6557,2739,1931,1559
6534,2736,1923,1551
6503,2729,1913,1542
6501,2729,1912,1541
6497,2728,1911,1540
6492,2725,1910,1539
6492,2724,1910,1539
6498,2725,1912,1540
6499,2723,1913,1541
6492,2720,1911,1540
6483,2718,1908,1537
6469,2713,1903,1534
6454,2708,1898,1529
6445,2707,1896,1526
6431,2703,1891,1522
6416,2698,1887,1517
6412,2696,1885,1516
6416,2697,1887,1517
6427,2699,1890,1521
6430,2699,1891,1523
6422,2698,1888,1521
6404,2692,1882,1516
6389,2687,1877,1512
6381,2685,1874,1510
6359,2678,1867,1504
6339,2671,1860,1499
6330,2668,1856,1497
6318,2664,1853,1494
6300,2657,1846,1490
6285,2653,1841,1486
6263,2647,1833,1480
6235,2639,1823,1473
6217,2635,1817,1468
6217,2635,1816,1468
6210,2632,1814,1467
6204,2631,1813,1465
6201,2631,1811,1463
6188,2627,1807,1460
6170,2622,1801,1455
6157,2620,1797,1450
6145,2617,1793,1447
6127,2612,1787,1442
6113,2609,1783,1437
6113,2608,1783,1437
6112,2604,1779,1433
6098,2602,1777,1431
6092,2602,1775,1428
6084,2599,1771,1424
6070,2595,1771,1420
6053,2590,1764,1411
6024,2583,1754,1411
6000,2576,1746,1405
6000,2576,1746,1405
6009,2577,1749,1409
6040,2582,1760,1418
6066,2587,1769,1426
6069,2588,1771,1427
6060,2585,1768,1425
6065,2586,1770,1426
6083,2590,1776,1431
6115,2596,1788,1441
6153,2603,1802,1453
6184,2609,1813,1462
6203,2612,1819,1468
6223,2616,1827,1474
6236,2619,1831,1478
6243,2621,1833,1480
6252,2623,1836,1482
6258,2625,1839,1483
6265,2627,1841,1485
6268,2628,1841,1486
6266,2628,1841,1485
6268,2629,1841,1485
6272,2630,1842,1487
6274,2631,1843,1487
6268,2630,1840,1486
6263,2630,1838,1485
6258,2629,1835,1484
6256,2629,1834,1484
6256,2630,1834,1484
6258,2630,1834,1485
6256,2630,1833,1485
6261,2632,1835,1486
6270,2635,1837,1488
6272,2635,1838,1489
6275,2637,1839,1489
6281,2640,1841,1491
6284,2641,1841,1491
6285,2641,1842,1492
6291,2644,1844,1493
6298,2646,1846,1495
6299,2646,1846,1495
6305,2649,1848,1496
6315,2652,1851,1499
6316,2652,1852,1499
6318,2653,1853,1499
6328,2657,1856,1501
6333,2658,1857,1502
6333,2658,1857,1502
6342,2661,1860,1504
6352,2665,1864,1507
6350,2664,1863,1506
6353,2665,1864,1507
6357,2667,1865,1508
6353,2666,1863,1508
6347,2664,1861,1507
6352,2666,1861,1508
6351,2667,1861,1508
6346,2665,1859,1508
6351,2668,1860,1509
6355,2670,1861,1510
6350,2668,1859,1509
6353,2669,1860,1509
6359,2672,1862,1511
6358,2672,1861,1511
6358,2672,1862,1511
6370,2676,1865,1514
6376,2678,1867,1515
6374,2677,1867,1515
6383,2681,1869,1517
6390,2683,1871,1518
6390,2683,1872,1518
6395,2685,1874,1519
6406,2689,1877,1522
6408,2689,1878,1522
6411,2690,1879,1523
6424,2695,1883,1526
6430,2697,1885,1527
6430,2696,1886,1527
6440,2700,1889,1529
6447,2703,1891,1531
6449,2703,1892,1531
6453,2704,1893,1532
6455,2706,1894,1533
6450,2704,1891,1532
6448,2704,1890,1532
6452,2706,1891,1533
6451,2707,1890,1533
6449,2706,1889,1533
6454,2709,1890,1535
6456,2710,1891,1535
6456,2710,1891,1535
6456,2711,1892,1536
6461,2711,1893,1537
6464,2713,1893,1537
6465,2713,1893,1537
6466,2713,1894,1539
6471,2715,1896,1539
6473,2715,1896,1539
6473,2715,1896,1539
6478,2717,1898,1540
6481,2718,1899,1541
6483,2719,1900,1541
6487,2720,1901,1542
6492,2721,1903,1543
6494,2721,1904,1544
6499,2723,1906,1545
6503,2724,1908,1546
6506,2725,1908,1546
6508,2726,1909,1546
6513,2727,1911,1547
6516,2728,1912,1547
6519,2730,1913,1548
6522,2730,1914,1549
6522,2730,1914,1549
6519,2730,1913,1549
6516,2729,1912,1548
6513,2728,1910,1548
6510,2727,1909,1547
6507,2727,1908,1547
6505,2726,1906,1547
6504,2726,1906,1546
6503,2726,1906,1546
6504,2726,1906,1546
6505,2726,1906,1547
6504,2726,1906,1547
6504,2726,1907,1547
6505,2726,1907,1547
6506,2726,1907,1547
6506,2726,1907,1547
6507,2726,1908,1547
6507,2726,1908,1547
6509,2726,1909,1547
6510,2726,1909,1547
6511,2726,1910,1548
6512,2726,1911,1548
6515,2727,1912,1548
6516,2727,1912,1549
6517,2726,1913,1549
6518,2727,1913,1549
6518,2727,1914,1549
6515,2725,1913,1548
6511,2724,1911,1547
6506,2723,1909,1547
6501,2721,1907,1546
6497,2720,1906,1545
6493,2719,1904,1545
6490,2717,1903,1544
6488,2717,1902,1544
6488,2717,1902,1544
6487,2716,1902,1543
6487,2716,1902,1543
6488,2716,1902,1544
6489,2716,1903,1544
6488,2716,1902,1544
6488,2716,1903,1544
6487,2715,1902,1543
6485,2714,1902,1543
6485,2714,1902,1543
6486,2714,1902,1543
6483,2712,1902,1542
6486,2713,1903,1543
6487,2713,1903,1543
6486,2712,1904,1543
6487,2712,1904,1543
6488,2712,1905,1543
6486,2711,1905,1542
6485,2710,1905,1542
6485,2710,1904,1542
6477,2708,1901,1540
6467,2704,1898,1538
6464,2704,1896,1538
6457,2701,1894,1537
6450,2699,1891,1535
6448,2698,1890,1535
6445,2698,1889,1535
6439,2695,1887,1533
6439,2695,1887,1533
6439,2695,1887,1533
6436,2693,1887,1533
6435,2693,1886,1532
6437,2694,1887,1533
6434,2692,1886,1532
6433,2692,1886,1532
6435,2693,1887,1532
6435,2692,1887,1532
6434,2691,1887,1532
6439,2693,1889,1533
6438,2692,1889,1533
6438,2691,1888,1532
6436,2691,1889,1532
6438,2691,1890,1532
6438,2691,1889,1531
6435,2689,1889,1531
6437,2690,1890,1532
6439,2690,1891,1532
6436,2689,1890,1531
6433,2688,1889,1530
6431,2687,1888,1530
6421,2684,1885,1528
6412,2681,1881,1526
6407,2680,1879,1525
6400,2677,1877,1524
6394,2675,1874,1523
6391,2675,1873,1522
6388,2673,1872,1522
6382,2671,1870,1521
6381,2671,1870,1520
6381,2671,1870,1520
6378,2669,1869,1520
6377,2669,1869,1519
6377,2669,1869,1519
6375,2668,1868,1519
6374,2667,1868,1518
6375,2667,1868,1518
6373,2666,1868,1518
6372,2666,1868,1518
6374,2666,1869,1518
6373,2666,1869,1518
6372,2665,1869,1517
6373,2665,1869,1517
6373,2665,1869,1517
6373,2664,1870,1517
6374,2664,1870,1517
6375,2664,1871,1517
6376,2664,1871,1517
6378,2664,1872,1518
6378,2664,1873,1518
6371,2662,1870,1516
6362,2659,1867,1514
6355,2658,1864,1513
6350,2656,1862,1512
6346,2655,1860,1512
6343,2654,1859,1511
6342,2654,1858,1511
6343,2655,1858,1512
6344,2655,1858,1512
6347,2656,1859,1513
6348,2657,1860,1513
6350,2657,1861,1513
6354,2659,1862,1514
6356,2659,1862,1515
6357,2660,1863,1515
6361,2661,1864,1516
6364,2662,1865,1517
6367,2663,1866,1517
6371,2664,1868,1518
6377,2666,1870,1519
6379,2667,1870,1519
6382,2668,1872,1520
6388,2670,1874,1521
6393,2672,1875,1522
6394,2672,1876,1522
6400,2674,1878,1524
6405,2675,1880,1525
6407,2676,1881,1525
6412,2677,1883,1526
6419,2680,1885,1528
6417,2679,1884,1527
6413,2678,1883,1526
6410,2678,1881,1526
6406,2677,1879,1526
6400,2675,1877,1525
6400,2676,1876,1525
6400,2677,1876,1525
6397,2676,1875,1524
6397,2676,1875,1524
6402,2678,1876,1525
6401,2678,1876,1525
6402,2678,1876,1525
6407,2680,1878,1527
6410,2682,1879,1527
6409,2681,1878,1527
6414,2683,1880,1528
6417,2684,1881,1529
6417,2684,1881,1529
6419,2685,1882,1529
6427,2688,1884,1531
6429,2688,1885,1531
6431,2689,1886,1531
6438,2691,1888,1533
6442,2693,1890,1534
6443,2693,1890,1534
6449,2695,1892,1535
6455,2697,1895,1536
6456,2697,1895,1536
6456,2698,1896,1537
6459,2701,1899,1539
6466,2701,1899,1538
6466,2700,1898,1538
6465,2700,1898,1538
6464,2700,1897,1537
6460,2699,1896,1537
6453,2697,1893,1536
6453,2698,1893,1536
6454,2698,1892,1537
6453,2698,1892,1537
6453,2698,1892,1537
6458,2700,1893,1538
6459,2700,1894,1538
6460,2701,1894,1539
6465,2702,1896,1540
6468,2703,1897,1540
6467,2703,1897,1540
6470,2704,1898,1541
6473,2705,1899,1542
6475,2706,1899,1542
6478,2707,1900,1543
6483,2708,1902,1544
6487,2710,1903,1544
6488,2710,1904,1545
6492,2711,1906,1546
6497,2713,1907,1547
6501,2713,1909,1548
6503,2714,1910,1548
6505,2715,1910,1548
6506,2715,1911,1548
6505,2715,1910,1548
6501,2714,1909,1547
6495,2712,1906,1546
6491,2711,1904,1546
6490,2711,1904,1546
6489,2711,1903,1546
6486,2710,1902,1546
6484,2709,1901,1545
6485,2710,1901,1545
6485,2710,1901,1545
6487,2710,1902,1546
6488,2711,1902,1546
6489,2711,1903,1546
6488,2711,1902,1546
6490,2712,1903,1547
6492,2712,1904,1547
6492,2712,1904,1547
6494,2713,1904,1547
6496,2713,1905,1548
6496,2713,1905,1548
6497,2713,1906,1548
6499,2714,1907,1548
6500,2714,1907,1548
6502,2714,1908,1549
6504,2715,1909,1549
6506,2715,1910,1550
6508,2716,1911,1550
6504,2714,1909,1549
6498,2713,1907,1548
6492,2711,1904,1547
6487,2709,1902,1546
6481,2708,1900,1545
6476,2706,1898,1544
6472,2705,1896,1543
6469,2704,1895,1543
6468,2704,1894,1543
6466,2703,1894,1542
6466,2703,1894,1542
6466,2703,1894,1542
6465,2703,1894,1542
6465,2703,1894,1542
6465,2702,1894,1542
6465,2702,1894,1542
6465,2702,1894,1542
6467,2702,1895,1543
6467,2702,1895,1542
6469,2703,1896,1543
6471,2703,1897,1543
6471,2703,1897,1543
6473,2703,1898,1543
6475,2704,1899,1544
6475,2704,1899,1544
6476,2704,1899,1544
6478,2704,1900,1544
6475,2703,1899,1543
6468,2701,1897,1542
6461,2699,1894,1541
6455,2697,1891,1540
6448,2695,1889,1538
6443,2694,1887,1538
6440,2693,1885,1537
6434,2691,1883,1536
6433,2691,1883,1536
6432,2690,1883,1536
6431,2690,1882,1536
6431,2689,1882,1535
6431,2690,1883,1536
6432,2689,1882,1536
6430,2689,1882,1535
6429,2688,1883,1536
6431,2688,1883,1535
6430,2688,1882,1535
6428,2687,1882,1535
6430,2688,1883,1535
6430,2687,1883,1535
6429,2687,1883,1535
6431,2687,1884,1535
6433,2688,1885,1536
6432,2687,1885,1535
6434,2687,1885,1535
6436,2688,1886,1536
6436,2687,1887,1536
6437,2687,1887,1536
6439,2688,1888,1536
6437,2687,1887,1535
6429,2684,1884,1534
6422,2683,1882,1533
6415,2681,1879,1531
6406,2678,1875,1530
6401,2677,1873,1529
6398,2675,1872,1528
6392,2674,1870,1527
6389,2673,1869,1527
6388,2673,1868,1526
6386,2672,1868,1526
6387,2672,1868,1526
6387,2672,1868,1526
6384,2671,1867,1525
6383,2670,1867,1525
6385,2671,1868,1526
6384,2670,1868,1525
6383,2670,1867,1525
6384,2670,1868,1525
6385,2670,1869,1525
6385,2670,1869,1525
6387,2670,1870,1525
6388,2670,1870,1525
6388,2670,1871,1525
6390,2671,1871,1526
6391,2671,1872,1526
6391,2670,1872,1525
6391,2671,1873,1525
6393,2671,1873,1526
6394,2671,1874,1526
6394,2671,1874,1526
6393,2670,1874,1525
6387,2669,1872,1524
6380,2666,1869,1523
6373,2664,1866,1521
6366,2662,1863,1520
6360,2660,1861,1519
6356,2659,1859,1519
6353,2658,1858,1518
6350,2657,1857,1517
6348,2656,1856,1517
6348,2656,1856,1517
6347,2656,1856,1517
6345,2655,1855,1516
6344,2654,1855,1516
6344,2654,1855,1516
6344,2654,1855,1516
6343,2654,1855,1516
6345,2654,1855,1516
6346,2655,1856,1517
6350,2656,1857,1517
6357,2659,1860,1519
6360,2660,1861,1520
6362,2661,1862,1520
6366,2662,1863,1521
6369,2662,1864,1521
6371,2663,1865,1522
6374,2664,1866,1522
6378,2665,1867,1523
6380,2666,1868,1523
6376,2664,1867,1522
6370,2662,1865,1521
6363,2661,1862,1520
6355,2659,1859,1519
6350,2657,1856,1518
6346,2656,1855,1517
6344,2656,1853,1517
6341,2655,1852,1517
6342,2656,1852,1517
6341,2656,1852,1517
6343,2656,1853,1517
6346,2658,1854,1518
6348,2658,1854,1519
6350,2659,1855,1519
6354,2660,1856,1520
6356,2661,1857,1520
6356,2661,1857,1520
6358,2662,1858,1521
6363,2663,1859,1522
6363,2663,1860,1522
6364,2664,1860,1522
6366,2664,1862,1523
6370,2665,1863,1524
6374,2666,1863,1524
6375,2666,1864,1525
6379,2667,1866,1525
6383,2669,1867,1526
6384,2669,1867,1526
6387,2670,1869,1526
6394,2672,1871,1528
6395,2672,1872,1528
6396,2672,1872,1528
6396,2673,1872,1528
6390,2671,1870,1527
6382,2669,1866,1526
6378,2668,1864,1525
6374,2667,1863,1525
6369,2666,1860,1524
6366,2665,1859,1523
6366,2665,1859,1524
6366,2665,1858,1524
6365,2665,1858,1524
6369,2666,1859,1525
6372,2667,1860,1525
6372,2667,1861,1525
6374,2668,1861,1526
6378,2669,1863,1527
6378,2669,1863,1526
6379,2669,1863,1527
6383,2671,1865,1528
6387,2672,1866,1528
6390,2673,1867,1529
6394,2674,1869,1530
6398,2675,1870,1531
6400,2676,1871,1531
6403,2677,1872,1532
6409,2678,1874,1533
6412,2679,1876,1533
6414,2680,1876,1534
6419,2681,1878,1535
6422,2682,1879,1535
6425,2683,1880,1536
6428,2684,1882,1537
6430,2685,1882,1537
6425,2683,1881,1536
6418,2681,1878,1535
6411,2680,1875,1533
6404,2678,1872,1532
6398,2676,1869,1531
6395,2676,1868,1531
6393,2675,1867,1530
6390,2674,1866,1530
6390,2675,1866,1530
6391,2675,1866,1530
6392,2675,1866,1530
6394,2676,1867,1530
6395,2676,1867,1531
6396,2676,1868,1531
6397,2677,1868,1531
6398,2677,1869,1531
6400,2678,1869,1532
6401,2678,1870,1532
6404,2679,1871,1532
6406,2679,1872,1532
6408,2680,1872,1533
6411,2681,1874,1533
6412,2681,1874,1534
6416,2682,1876,1534
6420,2683,1877,1535
6424,2684,1879,1536
6426,2685,1880,1537
6427,2685,1880,1537
6430,2686,1881,1537
6432,2686,1882,1538
6435,2687,1883,1538
6432,2686,1882,1537
6427,2685,1880,1536
6419,2682,1877,1535
6412,2681,1875,1534
6408,2680,1872,1533
6404,2678,1871,1532
6401,2677,1870,1532
6399,2677,1869,1532
6398,2677,1869,1531
6399,2677,1869,1532
6400,2677,1870,1532
6402,2677,1870,1532
6402,2677,1870,1532
6403,2678,1871,1532
6403,2678,1871,1532
6405,2678,1871,1533
6406,2678,1872,1533
6408,2679,1873,1533
6410,2679,1874,1534
6412,2680,1874,1534
6412,2680,1875,1534
6414,2680,1876,1535
6416,2680,1877,1535
6417,2680,1878,1535
6419,2681,1878,1536
6422,2681,1879,1536
6424,2682,1880,1536
6425,2682,1880,1536
6427,2683,1881,1537
6429,2683,1882,1537
6429,2683,1882,1537
6425,2682,1881,1536
6418,2680,1878,1534
6409,2677,1874,1533
6402,2675,1871,1532
6395,2673,1869,1530
6390,2671,1867,1530
6385,2670,1865,1529
6383,2670,1864,1528
6381,2669,1863,1528
6380,2668,1863,1528
6381,2669,1864,1528
6382,2669,1864,1528
6380,2668,1863,1528
6382,2669,1864,1528
6382,2668,1864,1528
6381,2668,1864,1528
6382,2668,1865,1528
6384,2669,1865,1528
6384,2668,1866,1528
6386,2669,1866,1528
6389,2669,1868,1529
6390,2669,1868,1529
6391,2670,1869,1529
6395,2670,1870,1530
6396,2670,1871,1530
6397,2671,1871,1530
6399,2671,1872,1531
6402,2672,1874,1531
6403,2672,1874,1531
6404,2672,1875,1531
6399,2670,1873,1530
6389,2668,1869,1528
6380,2665,1865,1527
6373,2663,1862,1526
6366,2661,1859,1524
6359,2659,1857,1523
6356,2658,1856,1523
6353,2657,1854,1522
6350,2656,1854,1522
6351,2656,1854,1522
6352,2657,1854,1522
6352,2656,1854,1522
6352,2656,1854,1522
6353,2656,1855,1522
6352,2656,1855,1522
6352,2655,1855,1522
6354,2656,1856,1522
6354,2656,1856,1522
6356,2656,1856,1522
6357,2656,1857,1523
6360,2657,1858,1523
6361,2657,1859,1523
6363,2658,1860,1524
6365,2658,1861,1524
6367,2658,1862,1524
6369,2659,1863,1525
6372,2659,1864,1525
6373,2659,1864,1525
6374,2660,1865,1525
6376,2660,1866,1525
6374,2660,1865,1525
6367,2657,1863,1523
6358,2655,1859,1522
6348,2652,1855,1520
6341,2650,1852,1519
6336,2649,1850,1518
6332,2647,1848,1517
6328,2646,1847,1517
6326,2646,1846,1516
6324,2645,1845,1516
6324,2645,1845,1516
6325,2645,1846,1516
6326,2645,1846,1516
6326,2645,1846,1516
6326,2645,1846,1516
6326,2645,1847,1516
6327,2645,1847,1516
6329,2646,1848,1517
6332,2647,1849,1517
6334,2647,1849,1517
6338,2649,1851,1518
6340,2649,1852,1519
6342,2650,1853,1519
6345,2651,1854,1519
6346,2651,1854,1520
6346,2651,1855,1519
6346,2651,1854,1519
6346,2651,1853,1517
6340,2650,1852,1517
6339,2650,1852,1517
6343,2651,1854,1518
6347,2652,1855,1518
6348,2652,1856,1518
6347,2652,1855,1518
6343,2651,1854,1517
6334,2648,1850,1515
6329,2647,1848,1515
6327,2647,1847,1515
6324,2646,1846,1515
6322,2645,1845,1514
6319,2645,1844,1514
6318,2645,1843,1513
6319,2645,1843,1514
6322,2646,1844,1514
6323,2646,1845,1514
6323,2646,1845,1514
6325,2646,1845,1515
6326,2647,1846,1515
6325,2647,1846,1515
6328,2648,1847,1515
6331,2649,1848,1516
6333,2649,1849,1516
6335,2649,1850,1517
6340,2651,1851,1518
6343,2651,1852,1518
6344,2652,1853,1519
6347,2653,1854,1519
6351,2654,1856,1520
6354,2655,1857,1521
6358,2655,1858,1521
6362,2657,1860,1522
6363,2657,1860,1522
6360,2656,1859,1522
6354,2655,1857,1521
6347,2653,1854,1520
6340,2651,1851,1518
6335,2650,1848,1518
6332,2649,1847,1517
6329,2648,1846,1517
6328,2648,1845,1517
6329,2649,1846,1517
6329,2648,1846,1517
6331,2649,1846,1517
6333,2650,1847,1518
6335,2650,1848,1518
6335,2650,1848,1518
6336,2650,1848,1519
6338,2651,1849,1519
6340,2651,1850,1519
6341,2652,1850,1519
6344,2653,1851,1520
6347,2653,1852,1521
6349,2654,1853,1521
6353,2655,1855,1522
6359,2656,1857,1523
6362,2657,1858,1524
6365,2658,1859,1525
6367,2659,1860,1525
6370,2660,1861,1525
6371,2660,1862,1525
6371,2660,1862,1525
6365,2658,1860,1524
6358,2657,1857,1523
6351,2655,1853,1522
6344,2653,1851,1521
6339,2652,1848,1520
6336,2651,1847,1520
6334,2650,1846,1519
6332,2650,1845,1519
6331,2649,1845,1519
6333,2650,1845,1519
6334,2650,1846,1520
6334,2650,1846,1520
6335,2651,1847,1520
6337,2651,1847,1520
6338,2651,1848,1520
6340,2652,1848,1521
6342,2652,1849,1521
6344,2653,1850,1521
6346,2653,1851,1522
6349,2654,1852,1522
6352,2655,1853,1523
6355,2655,1854,1523
6358,2657,1856,1524
6362,2658,1857,1525
6364,2658,1858,1525
6369,2659,1860,1526
6371,2660,1861,1527
6374,2661,1862,1527
6376,2662,1863,1528
6379,2662,1864,1528
6379,2661,1862,1527
6373,2658,1858,1525
6365,2658,1855,1523
6355,2655,1851,1522
6345,2653,1851,1520
6337,2651,1848,1519
6332,2649,1845,1519
6328,2648,1844,1518
6324,2647,1842,1518
6322,2646,1841,1517
6321,2646,1841,1517
6321,2646,1841,1517
6321,2646,1841,1517
6320,2646,1841,1516
6320,2645,1841,1516
6319,2645,1841,1516
6319,2645,1841,1516
6320,2645,1842,1516
6320,2644,1842,1516
6320,2644,1842,1516
6323,2645,1843,1516
6324,2645,1844,1517
6325,2645,1845,1517
6326,2645,1845,1517
6325,2645,1845,1516
6324,2644,1845,1516
6326,2644,1846,1516
6327,2644,1846,1516
6326,2644,1846,1516
6328,2644,1847,1516
6331,2645,1848,1517
6330,2644,1848,1516
6325,2643,1847,1515
6319,2641,1844,1514
6310,2638,1841,1512
6300,2635,1837,1510
6294,2633,1835,1509
6286,2631,1832,1507
6278,2628,1829,1506
6274,2627,1828,1505
6272,2626,1827,1504
6268,2624,1826,1503
6268,2624,1826,1504
6270,2624,1827,1504
6265,2622,1826,1503
6261,2621,1824,1502
6263,2622,1825,1502
6260,2620,1824,1501
6255,2618,1823,1500
6258,2619,1824,1501
6256,2618,1824,1500
6250,2615,1822,1499
6250,2615,1822,1498
6251,2615,1823,1498
6245,2613,1821,1497
6246,2612,1822,1497
6250,2614,1823,1498
6246,2612,1822,1497
6244,2610,1822,1496
6248,2612,1824,1497
6246,2611,1823,1496
6238,2607,1821,1494
6233,2606,1819,1493
6222,2603,1815,1491
6206,2598,1809,1487
6199,2596,1806,1486
6196,2595,1805,1486
6187,2592,1802,1484
6182,2590,1800,1483
6183,2590,1800,1483
6177,2588,1798,1482
6174,2587,1798,1481
6177,2588,1799,1482
6175,2587,1798,1482
6170,2584,1797,1480
6172,2585,1798,1481
6172,2585,1798,1481
6166,2582,1796,1479
6166,2582,1797,1479
6170,2583,1798,1480
6167,2581,1797,1479
6166,2581,1797,1479
6170,2582,1799,1480
6169,2581,1799,1479
6165,2579,1798,1478
6168,2580,1799,1479
6168,2579,1799,1479
6165,2578,1799,1477
6166,2578,1800,1478
6169,2578,1801,1478
6165,2576,1800,1477
6160,2575,1798,1476
6153,2573,1795,1475
6140,2569,1791,1472
6130,2566,1787,1470
6124,2564,1784,1469
6124,2562,1781,1468
6116,2559,1779,1466
6109,2559,1777,1465
6104,2557,1777,1465
6102,2557,1777,1464
6098,2555,1776,1464
6098,2554,1776,1464
6098,2554,1776,1464
6096,2553,1776,1463
6093,2552,1775,1462
6093,2551,1775,1462
6091,2550,1774,1462
6092,2550,1775,1462
6091,2549,1775,1462
6091,2549,1775,1461
6093,2549,1776,1462
6096,2550,1777,1462
6098,2551,1778,1463
6102,2552,1780,1463
6105,2553,1781,1464
6112,2555,1783,1465
6118,2557,1785,1467
6123,2558,1787,1468
6129,2561,1789,1469
6136,2563,1791,1470
6140,2564,1793,1471
6144,2566,1794,1472
6145,2566,1794,1472
6138,2565,1792,1471
6132,2563,1789,1470
6129,2563,1787,1470
6124,2563,1785,1469
6120,2562,1783,1468
6119,2562,1782,1468
6122,2563,1782,1469
6121,2563,1782,1469
6123,2564,1783,1470
6129,2567,1785,1471
6132,2568,1786,1472
6134,2568,1786,1472
6139,2570,1788,1473
6143,2572,1789,1474
6142,2572,1789,1474
6146,2573,1790,1474
6153,2576,1792,1476
6155,2576,1793,1476
6159,2578,1795,1477
6167,2581,1797,1479
6173,2583,1799,1480
6174,2583,1800,1480
6181,2585,1802,1481
6190,2589,1805,1483
6190,2588,1806,1483
6195,2590,1808,1484
6204,2593,1810,1486
6208,2594,1812,1487
6209,2595,1813,1487
6218,2598,1815,1489
6223,2600,1817,1490
6218,2598,1815,1489
6214,2598,1814,1488
6213,2598,1812,1488
6205,2596,1809,1487
6200,2595,1807,1486
6203,2596,1807,1487
6202,2597,1807,1487
6199,2596,1805,1486
6204,2598,1807,1488
6211,2600,1809,1489
6211,2600,1809,1489
6214,2601,1810,1490
6222,2604,1813,1492
6224,2605,1813,1492
6224,2605,1814,1492
6231,2607,1816,1494
6236,2609,1817,1495
6235,2609,1817,1495
6242,2611,1820,1496
6249,2614,1822,1498
6252,2614,1823,1498
6255,2615,1824,1499
6264,2619,1827,1501
6268,2620,1828,1502
6270,2620,1829,1502
6277,2623,1832,1504
6283,2625,1834,1505
6286,2626,1835,1506
6292,2628,1837,1507
6298,2630,1839,1508
6297,2630,1838,1508
6290,2628,1836,1507
6287,2628,1834,1506
6281,2627,1831,1506
6276,2626,1829,1505
6274,2625,1828,1505
6274,2625,1827,1504
6272,2625,1826,1504
6271,2625,1826,1504
6270,2625,1826,1505
6273,2625,1827,1505
6274,2626,1827,1505
6276,2626,1828,1506
6279,2627,1829,1506
6282,2628,1830,1507
6282,2628,1830,1507
6284,2629,1831,1507
6289,2630,1833,1509
6292,2631,1834,1509
6295,2632,1835,1510
6298,2633,1836,1510
6302,2634,1837,1511
6305,2635,1839,1512
6310,2637,1841,1513
6314,2638,1842,1514
6318,2639,1843,1514
6321,2640,1845,1515
6325,2641,1846,1516
6328,2642,1847,1516
6331,2643,1848,1517
6330,2643,1848,1517
6324,2641,1846,1515
6314,2638,1842,1513
6304,2636,1838,1512
6296,2634,1835,1510
6291,2632,1833,1509
6287,2631,1831,1509
6283,2630,1830,1508
6282,2630,1829,1508
6283,2630,1829,1508
6284,2630,1830,1508
6284,2630,1830,1508
6285,2630,1830,1508
6284,2629,1830,1508
6283,2629,1830,1508
6284,2629,1830,1508
6284,2629,1831,1508
6285,2628,1831,1508
6285,2628,1832,1508
6288,2629,1832,1509
6290,2629,1833,1509
6290,2629,1834,1509
6293,2630,1835,1510
6296,2630,1836,1510
6298,2630,1837,1511
6298,2630,1838,1511
6301,2631,1839,1511
6301,2631,1839,1511
6301,2630,1839,1511
6304,2631,1841,1511
6303,2630,1840,1511
6294,2627,1837,1509
6284,2625,1833,1507
6276,2622,1830,1506
6266,2620,1826,1504
6257,2617,1823,1502
6255,2616,1822,1502
6250,2615,1820,1501
6244,2612,1818,1500
6244,2612,1818,1500
6243,2612,1818,1499
6239,2610,1817,1498
6240,2610,1817,1499
6240,2610,1817,1499
6238,2608,1817,1498
6237,2608,1817,1498
6238,2608,1817,1498
6236,2607,1817,1497
6235,2606,1817,1497
6238,2607,1818,1497
6237,2606,1818,1497
6234,2605,1817,1496
6238,2606,1819,1497
6238,2606,1819,1497
6235,2604,1818,1496
6238,2605,1819,1496
6239,2605,1820,1496
6235,2603,1819,1495
6236,2603,1820,1495
6239,2604,1821,1496
6236,2603,1820,1495
6233,2601,1820,1494
6231,2601,1819,1494
6219,2597,1814,1491
6206,2593,1810,1489
6201,2592,1807,1488
6194,2590,1805,1486
6183,2587,1801,1484
6180,2586,1800,1483
6178,2586,1799,1483
6172,2583,1797,1482
6172,2581,1796,1481
6168,2582,1796,1481
6169,2582,1794,1479
6163,2579,1793,1478
6158,2578,1793,1478
6159,2578,1793,1477
6156,2577,1793,1477
6153,2575,1792,1476
6156,2576,1793,1477
6157,2576,1794,1477
6156,2575,1794,1477
6158,2575,1794,1477
6161,2576,1796,1478
6157,2574,1795,1477
6157,2574,1795,1477
6160,2575,1796,1477
6159,2573,1796,1477
6158,2573,1796,1477
6161,2574,1798,1477
6160,2573,1798,1477
6157,2571,1797,1476
6152,2570,1795,1475
6143,2567,1791,1473
6129,2563,1786,1470
6121,2560,1783,1469
6115,2559,1781,1467
6107,2556,1778,1466
6103,2555,1776,1465
6101,2554,1776,1465
6097,2553,1774,1464
6097,2552,1775,1464
6096,2552,1775,1463
6095,2551,1774,1463
6093,2550,1774,1462
6092,2549,1773,1462
6092,2549,1774,1462
6090,2549,1773,1462
6089,2548,1773,1461
6089,2548,1773,1461
6089,2547,1774,1461
6089,2547,1774,1461
6091,2547,1775,1461
6094,2548,1776,1462
6096,2549,1777,1462
6099,2549,1778,1463
6101,2550,1779,1463
6106,2552,1781,1464
6110,2553,1782,1465
6110,2554,1782,1465
6104,2552,1780,1464
6098,2551,1777,1463
6094,2550,1775,1462
6090,2549,1773,1462
6087,2549,1772,1461
6087,2549,1771,1461
6089,2550,1771,1462
6088,2550,1771,1462
6090,2551,1772,1462
6095,2553,1773,1463
6098,2554,1774,1464
6100,2554,1775,1465
6104,2556,1776,1465
6107,2557,1777,1466
6109,2558,1778,1467
6113,2559,1779,1467
6120,2562,1781,1469
6123,2562,1782,1469
6126,2564,1784,1470
6133,2566,1786,1472
6139,2568,1788,1473
6141,2568,1789,1473
6147,2570,1791,1475
6155,2573,1794,1476
6155,2573,1794,1476
6154,2573,1794,1476
6152,2573,1792,1476
6143,2571,1788,1474
6135,2569,1785,1472
6134,2569,1784,1472
6133,2570,1783,1473
6127,2568,1781,1471
6127,2568,1781,1472
6131,2570,1782,1473
6133,2570,1783,1473
6134,2571,1783,1474
6142,2574,1786,1475
6147,2575,1787,1476
6147,2575,1787,1476
6151,2577,1789,1477
6158,2579,1791,1479
6159,2579,1791,1479
6163,2581,1793,1480
6172,2584,1796,1482
6176,2585,1797,1483
6177,2585,1798,1483
6177,2588,1800,1485
6185,2590,1802,1486
6190,2590,1803,1486
6191,2589,1805,1487
6197,2591,1805,1489
6204,2594,1807,1489
6202,2593,1806,1488
6195,2591,1804,1487
6190,2591,1801,1486
6183,2589,1798,1485
6174,2587,1795,1483
6175,2588,1794,1484
6175,2588,1794,1484
6171,2587,1792,1483
6170,2587,1792,1483
6176,2590,1794,1485
6179,2590,1795,1486
6181,2591,1796,1486
6187,2593,1798,1487
6190,2594,1799,1488
6191,2594,1799,1488
6195,2596,1800,1489
6201,2598,1802,1490
6204,2599,1803,1491
6208,2600,1805,1492
6214,2602,1807,1493
6217,2603,1808,1494
6219,2603,1809,1494
6223,2605,1810,1495
6228,2606,1812,1496
6231,2607,1813,1496
6234,2608,1815,1497
6238,2609,1816,1498
6242,2610,1817,1499
6242,2610,1818,1498
6239,2610,1816,1498
6230,2607,1813,1496
6220,2605,1809,1494
6213,2603,1805,1493
6208,2602,1803,1492
6204,2601,1801,1492
6202,2600,1800,1492
6200,2600,1800,1491
6200,2600,1799,1491
6201,2600,1800,1492
6204,2601,1801,1493
6206,2602,1802,1493
6207,2602,1802,1493
6210,2603,1803,1494
6211,2604,1804,1494
6214,2604,1805,1494
6216,2605,1805,1495
6218,2605,1806,1495
6221,2606,1808,1496
6223,2607,1808,1496
6226,2607,1809,1497
6228,2608,1811,1497
6231,2608,1812,1498
6235,2609,1813,1498
6238,2610,1814,1499
6241,2611,1816,1500
6241,2611,1816,1500
6243,2611,1817,1500
6246,2612,1818,1500
6248,2612,1819,1501
6249,2612,1820,1501
6244,2611,1818,1500
6233,2607,1814,1498
6221,2604,1809,1495
6211,2602,1805,1493
6203,2599,1802,1492
6196,2598,1799,1491
6190,2596,1797,1489
6185,2594,1795,1488
6181,2593,1793,1487
6179,2592,1793,1487
6177,2592,1792,1486
6177,2592,1792,1486
6179,2592,1793,1486
6178,2592,1793,1486
6177,2592,1793,1486
6178,2592,1793,1486
6179,2592,1793,1486
6179,2592,1794,1486
6181,2592,1795,1486
6184,2593,1796,1487
6186,2593,1797,1487
6188,2593,1798,1488
6192,2594,1800,1489
6192,2594,1800,1488
6193,2594,1800,1488
6194,2594,1801,1489
6195,2594,1802,1489
6195,2594,1802,1488
6195,2595,1803,1489
6198,2594,1803,1489
6198,2594,1803,1488
6196,2593,1804,1488
6197,2593,1804,1487
6193,2592,1802,1485
6182,2588,1798,1485
6170,2585,1794,1483
6162,2583,1790,1481
6154,2580,1787,1480
6146,2578,1785,1478
6145,2578,1784,1478
6140,2576,1782,1477
6137,2575,1781,1476
6141,2576,1783,1477
6141,2576,1783,1477
6136,2574,1782,1476
6137,2574,1782,1476
6137,2574,1782,1476
6134,2572,1781,1475
6134,2572,1781,1475
6137,2573,1782,1476
6135,2572,1782,1475
6136,2572,1783,1475
6140,2573,1784,1476
6140,2573,1785,1476
6138,2571,1785,1475
6142,2573,1786,1476
6144,2573,1787,1477
6143,2572,1787,1476
6146,2572,1788,1477
6148,2573,1789,1477
6148,2572,1789,1477
6149,2572,1790,1477
6153,2574,1791,1478
6149,2572,1790,1477
6137,2568,1786,1474
6128,2566,1782,1472
6117,2563,1778,1470
6106,2559,1774,1468
6101,2558,1772,1467
6098,2557,1771,1467
6092,2554,1769,1465
6090,2554,1768,1465
6090,2554,1768,1465
6088,2553,1768,1465
6088,2553,1768,1465
6090,2553,1769,1465
6088,2552,1768,1464
6086,2551,1768,1464
6089,2552,1769,1464
6089,2552,1769,1464
6088,2551,1769,1464
6091,2552,1770,1465
6093,2552,1771,1465
6092,2551,1771,1465
6093,2552,1772,1465
6096,2552,1773,1465
6097,2552,1774,1465
6097,2552,1774,1465
6099,2552,1775,1466
6100,2552,1775,1465
6101,2552,1776,1466
6104,2552,1777,1466
6104,2552,1778,1466
6100,2551,1776,1465
6090,2548,1773,1463
6079,2545,1768,1461
6070,2542,1765,1459
6063,2540,1762,1458
6058,2539,1760,1457
6056,2539,1759,1457
6054,2538,1758,1456
6055,2539,1758,1457
6057,2539,1759,1458
6061,2541,1760,1458
6064,2542,1761,1459
6067,2542,1762,1459
6069,2543,1763,1460
6071,2544,1764,1460
6075,2546,1765,1461
6078,2546,1766,1462
6081,2547,1767,1462
6085,2549,1768,1463
6091,2551,1771,1464
6094,2551,1772,1465
6099,2553,1774,1466
6106,2555,1776,1468
6111,2556,1778,1469
6115,2558,1779,1469
6121,2560,1782,1471
6126,2561,1783,1472
6128,2562,1784,1472
6132,2563,1786,1473
6139,2566,1788,1474
6139,2565,1788,1474
6139,2564,1786,1473
6133,2564,1783,1472
6127,2562,1779,1470
6116,2560,1779,1468
6106,2557,1775,1467
6103,2557,1773,1467
6100,2557,1772,1467
6097,2555,1770,1467
6098,2556,1771,1467
6101,2557,1771,1468
6101,2558,1771,1468
6102,2558,1772,1468
6107,2560,1773,1469
6110,2561,1774,1469
6109,2560,1774,1469
6113,2562,1775,1470
6119,2564,1777,1471
6122,2565,1779,1472
6125,2565,1780,1473
6131,2568,1782,1474
6133,2568,1783,1474
6134,2568,1783,1474
6139,2570,1785,1475
6145,2572,1787,1476
6147,2573,1788,1477
6151,2574,1789,1478
6158,2576,1792,1479
6161,2577,1793,1480
6163,2578,1794,1480
6170,2580,1796,1482
6175,2582,1798,1482
6174,2581,1798,1482
6172,2581,1797,1481
6166,2580,1794,1481
6155,2577,1790,1479
6148,2575,1787,1477
6145,2575,1785,1477
6142,2574,1784,1477
6139,2573,1783,1476
6141,2574,1783,1477
6144,2575,1784,1477
6145,2575,1784,1478
6147,2576,1785,1478
6151,2578,1786,1479
6153,2578,1787,1479
6154,2579,1788,1480
6158,2580,1789,1480
6160,2581,1790,1481
6162,2581,1791,1481
6166,2583,1792,1482
6172,2585,1794,1484
6176,2586,1795,1484
6179,2586,1797,1485
6184,2588,1798,1486
6188,2589,1800,1487
6191,2590,1801,1487
6195,2591,1803,1488
6198,2592,1804,1489
6200,2592,1805,1489
6204,2593,1806,1490
6207,2594,1807,1490
6201,2593,1805,1489
6192,2590,1801,1487
6183,2588,1798,1486
6175,2586,1794,1484
6169,2584,1792,1483
6166,2584,1790,1483
6163,2583,1789,1482
6161,2583,1788,1482
6161,2583,1788,1482
6163,2583,1789,1483
6165,2584,1790,1483
6168,2585,1791,1484
6169,2585,1791,1484
6170,2585,1792,1484
6171,2586,1792,1484
6173,2586,1793,1485
6175,2587,1793,1485
6176,2587,1794,1486
6178,2588,1795,1486
6181,2588,1796,1486
6185,2589,1798,1487
6188,2590,1799,1488
6190,2590,1800,1488
6192,2591,1801,1488
6194,2591,1802,1489
6198,2593,1803,1489
6199,2593,1804,1490
6201,2593,1805,1490
6200,2592,1804,1489
6191,2590,1801,1488
6179,2586,1797,1485
6167,2583,1792,1483
6158,2580,1788,1481
6158,2578,1785,1480
6150,2575,1782,1478
6142,2575,1781,1478
6139,2574,1779,1477
6134,2573,1779,1476
6131,2572,1779,1476
6132,2572,1779,1476
6132,2571,1779,1476
6131,2571,1779,1476
6131,2571,1779,1476
6131,2570,1779,1476
6129,2569,1779,1475
6130,2569,1779,1475
6132,2570,1780,1476
6131,2569,1780,1475
6132,2569,1781,1476
6135,2570,1782,1476
6137,2570,1783,1476
6136,2569,1783,1476
6139,2570,1784,1476
6139,2569,1784,1476
6136,2568,1784,1475
6136,2567,1784,1475
6138,2568,1785,1475
6135,2566,1785,1475
6133,2565,1784,1474
6134,2565,1785,1474
6127,2563,1783,1472
6111,2558,1777,1468
6103,2556,1774,1467
6090,2552,1769,1465
6075,2547,1763,1462
6068,2545,1761,1460
6064,2544,1759,1459
6055,2540,1756,1458
6049,2538,1754,1456
6050,2539,1754,1457
6046,2537,1753,1455
6041,2535,1752,1454
6045,2536,1753,1455
6043,2535,1753,1455
6035,2531,1751,1453
6035,2532,1751,1453
6037,2532,1752,1453
6030,2529,1750,1451
6029,2528,1750,1451
6032,2529,1751,1452
6026,2527,1749,1450
6023,2525,1749,1449
6027,2526,1750,1450
6025,2525,1750,1450
6020,2523,1749,1448
6024,2524,1750,1449
6025,2524,1751,1449
6018,2521,1749,1447
6016,2520,1748,1447
6009,2518,1746,1445
5991,2512,1739,1441
5976,2508,1734,1438
5970,2507,1731,1437
5959,2503,1727,1435
5949,2499,1723,1433
5947,2499,1723,1433
5944,2498,1721,1432
5936,2494,1719,1430
5935,2494,1719,1430
5937,2495,1720,1430
5931,2492,1718,1429
5930,2491,1718,1428
5933,2492,1719,1429
5929,2490,1718,1428
5925,2488,1717,1427
5925,2489,1717,1427
5926,2488,1718,1427
5924,2487,1717,1426
5926,2487,1719,1427
5929,2488,1720,1427
5927,2486,1720,1426
5927,2486,1720,1426
5928,2486,1721,1426
5928,2485,1721,1426
5926,2484,1721,1426
5928,2485,1722,1426
5928,2484,1723,1426
5922,2482,1721,1424
5912,2478,1717,1422
5902,2476,1713,1420
5889,2472,1708,1418
5882,2469,1705,1416
5877,2468,1703,1415
5871,2466,1701,1414
5865,2464,1699,1413
5862,2463,1698,1412
5862,2462,1698,1412
5861,2463,1699,1412
5864,2463,1700,1412
5865,2463,1700,1412
5866,2464,1700,1412
5866,2464,1701,1413
5870,2465,1702,1413
5874,2466,1703,1414
5880,2468,1705,1415
5883,2469,1706,1416
5889,2471,1708,1417
5896,2474,1710,1419
5900,2475,1712,1420
5906,2477,1714,1421
5916,2481,1717,1423
5921,2482,1719,1424
5925,2483,1721,1425
5932,2486,1723,1427
5939,2488,1725,1428
5937,2488,1725,1428
5931,2487,1722,1427
5926,2487,1719,1426
5920,2485,1716,1425
5914,2484,1714,1424
5915,2485,1714,1424
5917,2486,1714,1425
5915,2485,1713,1425
5920,2487,1715,1426
5929,2491,1718,1428
5931,2491,1718,1428
5934,2492,1720,1429
5942,2495,1722,1431
5946,2497,1723,1432
5946,2496,1723,1431
5953,2499,1726,1433
5962,2502,1729,1435
5962,2502,1729,1435
5967,2504,1731,1436
5977,2508,1734,1438
5983,2510,1736,1440
5985,2510,1737,1440
5995,2513,1740,1442
6004,2517,1743,1444
6004,2516,1744,1444
6009,2518,1745,1445
6021,2522,1749,1448
6023,2523,1750,1448
6018,2521,1748,1447
6013,2521,1746,1446
6004,2520,1742,1444
5990,2516,1736,1441
5986,2515,1734,1440
5988,2517,1734,1441
5984,2516,1733,1441
5982,2515,1732,1440
5989,2519,1734,1442
5993,2520,1735,1443
5992,2520,1735,1443
5999,2522,1737,1444
6008,2525,1740,1446
6007,2525,1740,1446
6011,2526,1741,1447
6020,2530,1744,1449
6024,2531,1745,1450
6025,2531,1746,1450
6035,2535,1749,1452
6041,2537,1751,1453
6043,2537,1752,1454
6052,2540,1755,1456
6062,2544,1759,1458
6067,2545,1760,1459
6070,2546,1761,1460
6078,2549,1764,1462
6085,2551,1767,1463
6088,2552,1768,1463
6096,2555,1771,1465
6100,2556,1772,1466
6091,2554,1768,1464
6081,2552,1764,1463
6077,2551,1762,1462
6071,2550,1759,1461
6065,2548,1757,1460
6065,2549,1756,1460
6065,2549,1756,1460
6064,2549,1756,1460
6067,2550,1757,1461
6072,2552,1758,1462
6076,2553,1760,1463
6079,2554,1761,1463
6083,2555,1762,1464
6086,2556,1763,1465
6088,2557,1764,1465
6093,2558,1766,1466
6096,2560,1767,1467
6096,2560,1768,1468
6098,2561,1769,1468
6102,2561,1771,1469
6106,2562,1771,1470
6111,2564,1772,1471
6114,2565,1774,1471
6120,2566,1776,1472
6122,2567,1777,1472
6126,2568,1778,1473
6130,2569,1780,1474
6135,2571,1782,1475
6138,2572,1783,1475
6142,2573,1785,1476
6142,2573,1784,1476
6135,2571,1782,1474
6123,2568,1777,1472
6114,2566,1773,1470
6107,2564,1770,1469
6102,2562,1768,1469
6098,2561,1767,1468
6097,2561,1766,1468
6098,2561,1767,1468
6100,2561,1768,1469
6102,2562,1768,1469
6102,2562,1769,1469
6102,2562,1769,1469
6102,2562,1769,1469
6102,2561,1769,1469
6103,2561,1769,1469
6104,2562,1770,1469
6105,2562,1770,1469
6107,2562,1771,1469
6109,2562,1772,1470
6111,2563,1773,1470
6115,2563,1775,1471
6115,2563,1775,1471
6118,2564,1776,1471
6119,2564,1777,1471
6120,2564,1777,1471
6123,2565,1778,1472
6124,2565,1779,1472
6126,2565,1780,1472
6126,2565,1780,1472
6122,2564,1779,1471
6111,2561,1775,1469
6100,2558,1770,1467
6093,2556,1767,1466
6086,2554,1764,1464
6080,2552,1762,1463
6078,2551,1761,1463
6077,2551,1761,1463
6074,2549,1760,1462
6077,2550,1762,1463
6078,2550,1762,1463
6076,2549,1762,1462
6075,2549,1761,1462
6075,2549,1762,1462
6074,2548,1761,1462
6074,2547,1762,1462
6078,2549,1763,1463
6078,2548,1763,1462
6077,2547,1764,1462
6081,2548,1765,1463
6082,2548,1766,1463
6081,2547,1766,1463
6084,2548,1767,1463
6086,2548,1768,1464
6085,2548,1768,1463
6084,2547,1768,1463
6083,2547,1767,1462
6072,2543,1764,1460
6060,2540,1759,1457
6051,2537,1755,1456
6042,2535,1752,1454
6033,2532,1748,1452
6029,2531,1747,1452
6026,2530,1746,1451
6021,2528,1744,1450
6022,2528,1745,1450
6024,2529,1746,1451
6022,2527,1745,1450
6023,2527,1746,1450
6025,2528,1746,1451
6023,2527,1746,1450
6020,2525,1745,1450
6024,2527,1747,1450
6024,2527,1747,1450
6024,2526,1747,1450
6029,2527,1749,1451
6033,2528,1750,1452
6032,2527,1751,1452
6036,2528,1752,1453
6040,2529,1754,1454
6040,2529,1754,1453
6039,2528,1754,1453
6039,2528,1755,1453
6041,2529,1753,1452
6035,2527,1753,1449
6022,2522,1748,1446
6009,2519,1743,1446
5999,2516,1739,1445
5986,2512,1735,1442
5981,2510,1733,1441
5978,2510,1731,1441
5973,2508,1730,1440
5969,2506,1728,1439
5971,2507,1729,1439
5971,2506,1729,1439
5972,2506,1730,1439
5973,2506,1731,1439
5972,2506,1730,1439
5970,2505,1730,1438
5971,2505,1730,1439
5971,2505,1731,1439
5972,2505,1731,1439
5974,2505,1732,1439
5976,2505,1733,1439
5976,2505,1734,1439
5978,2505,1735,1439
5980,2505,1736,1440
5982,2506,1737,1440
5986,2506,1738,1441
5987,2506,1739,1441
5989,2506,1740,1441
5992,2508,1741,1442
5990,2507,1741,1441
5981,2505,1737,1439
5969,2501,1732,1437
5958,2499,1728,1435
5952,2498,1725,1434
5950,2497,1724,1433
5948,2497,1723,1434
5948,2497,1722,1434
5948,2498,1722,1434
5947,2498,1722,1433
5948,2499,1722,1433
5952,2500,1723,1434
5953,2501,1724,1434
5956,2501,1725,1435
5960,2503,1726,1436
5963,2504,1727,1437
5967,2505,1729,1437
5971,2506,1730,1438
5973,2507,1731,1439
5976,2508,1732,1439
5979,2509,1733,1440
5985,2511,1735,1441
5990,2513,1737,1442
5993,2513,1738,1442
5999,2516,1740,1444
6005,2518,1742,1445
6008,2518,1744,1445
6011,2519,1745,1446
6016,2521,1747,1447
6013,2520,1745,1446
6002,2517,1741,1444
5994,2516,1738,1443
5990,2515,1735,1442
5985,2514,1733,1441
5982,2513,1732,1441
5984,2514,1732,1442
5984,2514,1732,1442
5984,2514,1732,1442
5990,2516,1734,1443
5995,2518,1736,1445
5996,2518,1736,1445
6000,2519,1737,1445
6005,2521,1739,1447
6008,2522,1740,1447
6009,2522,1741,1448
6015,2525,1743,1449
6020,2526,1745,1450
6021,2526,1745,1450
6026,2528,1747,1451
6034,2530,1750,1453
6037,2531,1751,1453
6040,2532,1752,1454
6047,2534,1754,1455
6051,2535,1756,1456
6053,2536,1757,1457
6054,2536,1757,1457
6049,2535,1755,1456
6039,2533,1751,1454
6032,2531,1747,1453
6028,2531,1745,1453
6023,2529,1743,1452
6018,2528,1741,1451
6020,2529,1742,1451
6020,2530,1742,1452
6021,2530,1742,1452
6021,2529,1743,1452
6024,2530,1743,1454
6031,2532,1745,1455
6033,2533,1747,1455
6034,2533,1747,1455
6038,2535,1748,1455
6040,2536,1749,1456
6040,2535,1749,1456
6046,2537,1751,1457
6051,2539,1753,1458
6055,2540,1754,1459
6060,2542,1756,1460
6068,2544,1759,1462
6071,2545,1760,1462
6073,2545,1761,1463
6079,2547,1763,1464
6082,2548,1765,1464
6083,2548,1765,1465
6084,2548,1765,1465
6075,2546,1762,1463
6063,2543,1757,1460
6052,2540,1753,1459
6045,2538,1750,1457
6041,2537,1748,1457
6037,2536,1746,1456
6034,2536,1745,1456
6035,2536,1745,1456
6036,2536,1745,1456
6037,2537,1746,1456
6040,2538,1747,1457
6042,2539,1748,1457
6043,2539,1748,1457
6045,2540,1749,1458
6045,2540,1749,1458
6048,2541,1750,1458
6052,2542,1752,1459
6056,2543,1753,1460
6059,2544,1754,1460
6063,2545,1756,1461
6066,2546,1757,1461
6068,2546,1758,1462
6071,2547,1759,1462
6074,2548,1761,1463
6077,2549,1762,1463
6080,2550,1763,1464
6083,2551,1764,1465
6088,2552,1766,1466
6086,2551,1765,1465
6076,2548,1762,1463
6063,2545,1757,1460
6052,2542,1752,1458
6043,2540,1749,1456
6037,2538,1746,1455
6032,2537,1744,1454
6028,2536,1743,1453
6027,2535,1743,1453
6028,2535,1743,1453
6031,2536,1744,1454
6032,2536,1745,1454
6033,2536,1745,1454
6033,2536,1745,1454
6033,2536,1745,1454
6033,2536,1746,1454
6036,2537,1747,1455
6037,2537,1747,1455
6040,2538,1748,1456
6043,2538,1749,1456
6045,2539,1751,1457
6048,2539,1752,1457
6051,2540,1753,1458
6053,2540,1754,1458
6055,2541,1755,1458
6058,2541,1756,1459
6060,2542,1757,1459
6059,2541,1757,1459
6055,2540,1755,1458
6043,2537,1751,1455
6031,2533,1746,1453
6021,2530,1742,1451
6015,2529,1740,1450
6008,2527,1737,1449
6005,2526,1736,1448
6004,2525,1735,1448
6003,2525,1735,1448
6003,2525,1735,1448
6007,2526,1737,1449
6009,2526,1738,1449
6008,2526,1737,1449
6008,2526,1738,1449
6010,2526,1739,1449
6010,2526,1739,1449
6012,2526,1740,1450
6012,2527,1741,1450
6015,2526,1741,1450
6015,2526,1742,1450
6016,2526,1742,1451
6020,2527,1743,1451
6022,2527,1744,1451
6022,2527,1744,1451
6024,2527,1745,1451
6027,2528,1747,1452
6027,2527,1747,1452
6031,2528,1749,1453
6032,2529,1749,1453
6023,2526,1746,1451
6011,2522,1741,1448
6001,2520,1737,1447
5990,2517,1733,1445
5980,2514,1729,1443
5976,2513,1728,1442
5972,2512,1726,1441
5967,2510,1724,1440
5968,2510,1725,1440
5969,2510,1725,1441
5969,2510,1726,1440
5970,2510,1726,1440
5972,2511,1727,1441
5971,2510,1727,1441
5972,2510,1727,1441
5973,2510,1728,1441
5974,2511,1728,1441
5975,2510,1729,1441
5977,2511,1730,1441
5981,2512,1731,1442
5984,2512,1733,1443
5985,2512,1733,1443
5989,2513,1735,1443
5989,2513,1735,1443
5992,2514,1736,1444
5995,2515,1738,1444
5996,2515,1738,1444
5997,2515,1739,1444
6000,2516,1740,1445
6001,2516,1741,1445
5994,2514,1738,1443
5982,2510,1734,1441
5970,2507,1729,1438
5958,2504,1724,1436
5950,2501,1721,1434
5943,2500,1719,1433
5938,2498,1717,1432
5934,2497,1715,1431
5933,2496,1714,1431
5935,2497,1715,1432
5936,2497,1716,1432
5936,2497,1716,1432
5937,2497,1717,1432
5936,2497,1717,1431
5936,2496,1717,1431
5937,2496,1717,1431
5939,2497,1718,1432
5941,2498,1719,1432
5945,2498,1720,1433
5948,2499,1722,1433
5951,2500,1723,1434
5956,2501,1724,1435
5960,2503,1726,1436
5964,2504,1728,1437
5967,2505,1729,1437
5972,2506,1731,1438
5976,2507,1732,1439
5980,2509,1734,1440
5984,2510,1735,1441
5984,2510,1735,1441
5974,2507,1731,1439
5964,2505,1727,1437
5956,2503,1724,1435
5950,2501,1721,1434
5946,2500,1720,1434
5945,2500,1719,1434
5944,2500,1718,1433
5944,2500,1718,1434
5947,2501,1719,1434
5952,2503,1721,1435
5954,2503,1722,1436
5956,2504,1723,1436
5959,2505,1724,1437
5961,2506,1725,1437
5963,2506,1725,1438
5967,2507,1727,1438
5971,2509,1728,1439
5975,2510,1730,1440
5979,2511,1731,1441
5985,2513,1733,1442
5988,2514,1734,1443
5991,2515,1736,1443
5991,2516,1738,1445
5997,2518,1740,1445
6002,2518,1740,1446
6004,2518,1742,1447
6008,2519,1742,1447
6012,2520,1744,1447
6009,2520,1743,1447
5998,2517,1738,1444
5990,2515,1735,1443
5981,2512,1731,1442
5974,2510,1728,1440
5972,2510,1727,1440
5970,2510,1726,1440
5967,2509,1725,1439
5968,2509,1725,1440
5972,2511,1727,1440
5974,2511,1728,1441
5975,2512,1728,1441
5979,2513,1729,1442
5980,2513,1730,1442
5981,2514,1730,1442
5984,2514,1731,1443
5990,2516,1733,1444
5992,2517,1734,1445
5996,2518,1736,1445
6003,2520,1738,1447
6006,2521,1740,1448
6010,2522,1741,1448
6016,2524,1743,1450
6021,2525,1745,1450
6023,2526,1746,1451
6028,2527,1748,1452
6034,2529,1750,1453
6037,2530,1751,1453
6040,2531,1753,1454
6041,2531,1753,1454
6034,2529,1750,1453
6022,2526,1746,1450
6012,2524,1741,1449
6006,2522,1738,1448
6000,2520,1736,1447
5996,2520,1734,1446
5995,2519,1733,1446
5992,2519,1733,1445
5992,2519,1733,1445
5994,2520,1733,1446
5997,2521,1734,1446
5998,2521,1735,1446
6000,2521,1736,1447
6000,2522,1736,1447
6001,2522,1736,1447
6003,2522,1737,1447
6005,2523,1738,1447
6008,2524,1739,1448
6011,2525,1740,1449
6015,2526,1741,1449
6019,2527,1743,1450
6022,2528,1744,1451
6025,2529,1746,1451
6028,2530,1747,1452
6032,2531,1749,1453
6035,2532,1750,1453
6039,2533,1751,1454
6042,2534,1753,1455
6046,2535,1754,1455
6049,2536,1755,1456
6045,2535,1754,1455
6036,2532,1750,1453
6025,2529,1746,1451
6015,2527,1742,1449
6008,2525,1739,1448
6003,2524,1737,1447
6000,2522,1735,1446
5998,2522,1735,1446
5998,2522,1735,1446
6000,2523,1735,1446
6002,2523,1736,1447
6003,2523,1737,1447
6004,2523,1737,1447
6005,2524,1737,1447
6005,2523,1738,1447
6006,2524,1738,1447
6008,2524,1739,1448
6011,2525,1740,1448
6013,2525,1741,1449
6016,2526,1742,1450
6019,2527,1743,1450
6023,2528,1745,1451
6025,2529,1746,1451
6029,2529,1747,1452
6032,2530,1749,1453
6035,2531,1750,1453
6039,2532,1751,1454
6042,2533,1752,1454
6042,2532,1752,1454
6039,2529,1748,1452
6030,2529,1743,1449
6018,2526,1739,1447
6007,2523,1739,1446
5998,2520,1735,1445
5991,2518,1733,1445
5986,2517,1731,1443
5984,2516,1730,1443
5983,2516,1729,1443
5983,2516,1730,1443
5985,2516,1730,1443
5988,2517,1731,1444
5988,2517,1732,1444
5987,2516,1731,1444
5988,2516,1732,1444
5989,2517,1733,1444
5990,2517,1733,1444
5993,2517,1734,1445
5995,2518,1735,1445
5998,2518,1736,1446
5999,2518,1737,1446
6003,2519,1739,1447
6006,2520,1740,1447
6008,2520,1741,1448
6011,2521,1742,1448
6014,2522,1743,1449
6016,2522,1744,1449
6019,2523,1746,1450
6021,2523,1746,1450
6015,2522,1744,1448
6003,2518,1740,1446
5991,2515,1735,1444
5980,2512,1731,1442
5972,2510,1727,1440
5967,2508,1725,1439
5963,2507,1724,1438
5959,2506,1722,1438
5958,2505,1722,1437
5960,2506,1722,1438
5961,2506,1723,1438
5963,2507,1724,1439
5963,2506,1724,1439
5963,2506,1724,1438
5963,2506,1725,1438
5965,2506,1725,1439
5966,2507,1726,1439
5967,2507,1726,1439
5971,2508,1728,1440
5974,2508,1729,1440
5976,2509,1730,1441
5979,2510,1731,1441
5983,2510,1733,1442
5984,2511,1734,1442
5988,2511,1735,1443
5991,2512,1736,1444
5993,2513,1737,1444
5995,2513,1738,1444
5999,2514,1740,1445
6001,2514,1741,1445
5999,2514,1740,1445
5990,2511,1737,1443
5976,2507,1731,1440
5963,2504,1726,1437
5954,2501,1722,1436
5947,2500,1720,1434
5943,2498,1718,1434
5940,2497,1717,1433
5937,2497,1715,1432
5936,2496,1715,1432
5936,2496,1715,1432
5937,2497,1716,1432
5938,2497,1716,1432
5938,2497,1717,1432
5939,2497,1717,1432
5940,2497,1717,1432
5940,2497,1718,1432
5942,2497,1718,1433
5944,2498,1719,1433
5945,2498,1720,1433
5948,2499,1721,1434
5950,2499,1722,1434
5952,2500,1723,1434
5954,2500,1724,1434
5956,2500,1725,1435
5959,2501,1726,1435
5963,2502,1727,1436
5966,2503,1729,1437
5969,2504,1730,1437
5972,2505,1731,1438
5970,2505,1731,1437
5963,2503,1728,1436
5952,2500,1723,1433
5943,2498,1719,1432
5943,2496,1716,1431
5935,2495,1714,1430
5931,2495,1713,1429
5928,2494,1712,1429
5926,2493,1712,1429
5926,2493,1712,1429
5928,2494,1713,1429
5930,2494,1714,1430
5932,2495,1715,1430
5933,2495,1715,1430
5934,2496,1716,1431
5937,2497,1716,1431
5938,2497,1717,1431
5940,2498,1718,1432
5943,2499,1719,1433
5947,2500,1720,1433
5949,2500,1721,1434
5954,2501,1723,1435
5958,2503,1724,1435
5961,2503,1726,1436
5965,2504,1727,1437
5969,2505,1729,1438
5972,2507,1730,1438
5976,2508,1732,1439
5978,2508,1733,1439
5977,2508,1732,1439
5967,2505,1728,1437
5955,2502,1724,1435
5947,2500,1720,1433
5940,2498,1717,1432
5935,2497,1715,1431
5933,2496,1714,1431
5932,2496,1714,1431
5932,2496,1713,1431
5934,2497,1714,1431
5937,2498,1715,1432
5940,2499,1717,1432
5940,2499,1717,1432
5942,2499,1717,1433
5945,2500,1718,1433
5946,2500,1719,1433
5948,2501,1720,1434
5953,2503,1721,1435
5956,2503,1723,1436
5959,2504,1724,1436
5963,2506,1725,1437
5967,2507,1727,1438
5970,2507,1728,1438
5974,2508,1730,1439
5978,2510,1731,1440
5980,2510,1732,1440
5984,2511,1734,1441
5988,2512,1735,1442
5987,2512,1735,1442
5979,2510,1732,1440
5967,2507,1727,1438
5957,2504,1723,1436
5950,2502,1720,1434
5944,2501,1717,1434
5942,2501,1716,1433
5939,2500,1715,1433
5937,2499,1714,1432
5938,2500,1715,1433
5940,2501,1715,1433
5941,2501,1716,1433
5944,2502,1717,1433
5945,2502,1717,1434
5946,2502,1718,1434
5948,2503,1718,1434
5951,2504,1719,1435
5952,2504,1720,1435
5956,2505,1722,1436
5960,2506,1723,1437
5964,2507,1725,1438
5969,2508,1727,1439
5973,2510,1728,1439
5976,2511,1729,1440
5980,2511,1731,1441
5982,2512,1732,1441
5987,2513,1734,1442
5990,2514,1735,1443
5993,2515,1736,1443
5994,2515,1737,1443
5988,2514,1734,1442
5976,2510,1730,1439
5965,2508,1725,1437
5955,2505,1721,1436
5948,2503,1718,1435
5944,2502,1716,1434
5940,2502,1715,1433
5938,2501,1714,1433
5936,2501,1713,1433
5938,2501,1714,1433
5941,2502,1715,1434
5941,2502,1715,1434
5942,2502,1716,1434
5942,2502,1716,1434
5943,2502,1717,1434
5945,2503,1717,1434
5946,2503,1717,1435
5947,2503,1718,1435
5949,2503,1718,1435
5951,2504,1719,1435
5954,2505,1720,1436
5956,2505,1721,1436
5957,2506,1722,1436
5961,2507,1723,1437
5963,2507,1724,1437
5965,2508,1726,1438
5967,2508,1726,1438
5969,2508,1727,1438
5972,2508,1728,1439
5974,2509,1729,1439
5976,2509,1730,1440
5978,2509,1731,1440
5971,2507,1729,1438
5959,2504,1724,1436
5945,2500,1719,1433
5933,2497,1714,1431
5924,2494,1711,1429
5918,2492,1708,1428
5912,2490,1706,1427
5907,2489,1705,1426
5905,2488,1704,1425
5905,2488,1704,1425
5904,2487,1704,1425
5906,2488,1705,1425
5909,2488,1706,1426
5907,2488,1705,1425
5903,2486,1704,1424
5905,2487,1705,1425
5905,2487,1705,1425
5905,2486,1705,1424
5907,2486,1706,1425
5910,2487,1708,1425
5909,2486,1708,1425
5911,2486,1709,1425
5914,2487,1710,1426
5913,2486,1710,1425
5914,2485,1711,1425
5917,2486,1712,1426
5917,2486,1712,1426
5914,2484,1712,1425
5918,2486,1714,1426
5918,2485,1714,1426
5915,2484,1713,1425
5915,2484,1713,1425
5908,2481,1711,1423
5893,2476,1705,1420
5879,2472,1700,1417
5870,2470,1696,1415
5858,2466,1692,1413
5848,2463,1688,1411
5847,2463,1688,1411
5842,2461,1686,1409
5837,2459,1685,1408
5839,2460,1686,1409
5841,2460,1687,1409
5836,2458,1685,1407
5835,2457,1685,1407
5837,2458,1686,1408
5832,2456,1684,1406
5828,2455,1684,1405
5832,2456,1685,1406
5831,2455,1685,1406
5828,2453,1684,1405
5832,2454,1686,1406
5835,2455,1687,1406
5830,2453,1686,1405
5832,2453,1687,1405
5836,2454,1688,1406
5833,2453,1688,1405
5833,2452,1688,1405
5838,2453,1690,1406
5837,2453,1690,1406
5831,2450,1689,1404
5825,2449,1686,1403
5813,2445,1681,1400
5796,2440,1675,1397
5787,2437,1672,1395
5782,2436,1670,1394
5774,2433,1667,1393
5770,2432,1666,1392
5771,2432,1666,1392
5770,2431,1666,1392
5768,2430,1665,1391
5770,2431,1666,1392
5769,2430,1666,1391
5769,2428,1665,1391
5766,2428,1665,1391
5766,2428,1666,1391
5766,2428,1666,1390
5762,2426,1665,1389
5761,2425,1665,1389
5764,2426,1666,1390
5764,2425,1666,1390
5764,2425,1666,1390
5765,2425,1667,1390
5766,2425,1668,1390
5765,2424,1668,1389
5766,2424,1668,1389
5767,2424,1669,1390
5767,2423,1669,1390
5766,2422,1670,1389
5763,2421,1668,1388
5750,2418,1664,1386
5737,2414,1659,1383
5724,2409,1654,1380
5716,2407,1651,1379
5711,2406,1648,1378
5708,2405,1647,1377
5706,2405,1646,1377
5707,2405,1647,1378
5710,2406,1648,1378
5715,2408,1649,1379
5720,2410,1651,1380
5722,2410,1652,1381
5725,2412,1653,1381
5731,2414,1655,1383
5734,2415,1656,1383
5739,2416,1657,1385
5747,2419,1660,1386
5751,2421,1661,1387
5756,2422,1663,1388
5761,2424,1665,1389
5766,2426,1667,1390
5768,2426,1667,1390
5773,2428,1669,1391
5781,2431,1672,1393
5785,2432,1673,1394
5790,2434,1675,1395
5798,2436,1678,1397
5799,2437,1678,1397
5787,2434,1674,1394
5778,2432,1669,1393
5772,2431,1667,1392
5765,2429,1664,1391
5760,2428,1662,1390
5763,2430,1662,1391
5763,2431,1662,1391
5761,2430,1661,1391
5766,2431,1662,1392
5775,2435,1665,1394
5777,2435,1666,1394
5780,2436,1667,1395
5788,2439,1670,1397
5791,2440,1671,1397
5792,2440,1671,1398
5798,2442,1673,1399
5807,2446,1676,1401
5809,2446,1677,1401
5812,2447,1678,1402
5821,2450,1681,1404
5826,2452,1683,1405
5827,2452,1683,1405
5831,2454,1685,1406
5838,2457,1688,1407
5841,2457,1689,1407
5843,2458,1689,1408
5854,2462,1693,1410
5859,2463,1695,1411
5860,2463,1695,1411
5861,2464,1696,1412
5856,2464,1693,1410
5842,2460,1687,1408
5830,2457,1683,1405
5828,2457,1681,1405
5824,2457,1679,1405
5818,2455,1677,1404
5820,2456,1677,1404
5824,2458,1678,1405
5824,2458,1678,1405
5828,2459,1680,1406
5837,2463,1682,1408
5841,2464,1684,1409
5840,2464,1684,1409
5847,2466,1686,1411
5853,2468,1688,1412
5855,2469,1688,1412
5858,2470,1690,1413
5858,2473,1692,1415
5866,2475,1694,1416
5871,2475,1695,1416
5873,2475,1697,1418
5880,2477,1697,1419
5886,2479,1699,1419
5889,2480,1701,1419
5894,2482,1702,1421
5901,2484,1705,1422
5903,2485,1706,1422
5904,2485,1706,1422
5909,2487,1708,1423
5913,2488,1709,1424
5909,2487,1708,1423
5900,2484,1705,1421
5891,2482,1700,1420
5882,2480,1697,1418
5874,2478,1694,1417
5872,2478,1692,1417
5869,2477,1691,1416
5868,2477,1690,1416
5870,2478,1691,1417
5874,2479,1693,1418
5877,2480,1694,1418
5880,2481,1695,1419
5882,2481,1696,1419
5884,2482,1696,1420
5886,2482,1697,1420
5890,2484,1698,1421
5893,2485,1699,1422
5896,2486,1700,1422
5899,2486,1701,1423
5902,2487,1703,1423
5907,2489,1705,1425
5909,2489,1706,1425
5912,2490,1707,1426
5915,2491,1708,1426
5917,2491,1709,1426
5920,2492,1710,1427
5923,2493,1711,1428
5927,2493,1713,1428
5925,2493,1712,1428
5916,2490,1709,1426
5902,2487,1703,1423
5890,2483,1699,1421
5882,2481,1695,1419
5876,2479,1693,1418
5871,2478,1691,1417
5868,2477,1690,1417
5868,2477,1690,1417
5869,2477,1690,1417
5871,2477,1691,1417
5872,2477,1692,1417
5872,2477,1692,1417
5873,2477,1693,1418
5873,2477,1693,1418
5873,2477,1693,1417
5874,2476,1693,1417
5877,2477,1695,1418
5880,2478,1696,1419
5881,2478,1696,1419
5883,2478,1698,1419
5886,2479,1699,1420
5887,2479,1699,1420
5888,2479,1700,1420
5889,2479,1701,1420
5891,2479,1702,1420
5893,2479,1703,1421
5896,2480,1704,1421
5896,2480,1704,1421
5887,2477,1701,1419
5875,2473,1696,1416
5861,2469,1691,1413
5848,2465,1686,1411
5839,2463,1683,1409
5835,2462,1681,1409
5829,2460,1679,1407
5823,2458,1677,1406
5823,2458,1677,1406
5823,2457,1677,1406
5820,2456,1677,1405
5824,2457,1678,1406
5823,2456,1678,1406
5821,2455,1678,1405
5822,2455,1678,1405
5826,2456,1680,1406
5824,2455,1679,1406
5823,2454,1679,1405
5829,2456,1681,1407
5830,2456,1682,1407
5829,2455,1682,1406
5833,2456,1684,1407
5835,2456,1685,1407
5835,2455,1685,1407
5834,2455,1685,1407
5835,2455,1687,1408
5840,2456,1688,1408
5839,2455,1688,1408
5839,2455,1688,1408
5842,2456,1689,1408
5837,2454,1688,1407
5826,2450,1684,1404
5815,2447,1680,1402
5800,2443,1674,1399
5784,2438,1668,1396
5779,2437,1666,1395
5775,2436,1664,1395
5765,2432,1661,1392
5760,2431,1659,1391
5760,2431,1659,1391
5757,2429,1658,1390
5755,2428,1658,1390
5759,2429,1659,1391
5759,2429,1660,1390
5753,2427,1658,1389
5754,2427,1658,1389
5757,2428,1660,1390
5754,2426,1659,1389
5756,2426,1660,1389
5758,2427,1661,1390
5757,2426,1661,1389
5757,2426,1661,1389
5761,2427,1663,1389
5762,2427,1663,1390
5761,2426,1664,1389
5763,2426,1664,1389
5764,2427,1665,1389
5762,2426,1665,1389
5762,2425,1665,1388
5763,2426,1666,1389
5763,2425,1666,1389
5762,2424,1666,1388
5757,2423,1664,1387
5744,2419,1659,1384
5729,2415,1654,1381
5718,2411,1650,1379
5710,2409,1646,1378
5704,2407,1644,1376
5698,2405,1642,1375
5694,2404,1640,1374
5692,2403,1640,1374
5693,2403,1641,1374
5694,2403,1641,1374
5694,2402,1642,1374
5694,2402,1642,1374
5695,2403,1642,1374
5697,2403,1643,1374
5699,2404,1644,1375
5701,2404,1644,1375
5706,2406,1646,1376
5711,2407,1648,1377
5716,2409,1650,1379
5722,2411,1652,1380
5728,2413,1654,1381
5733,2414,1655,1382
5738,2416,1657,1383
5744,2418,1660,1384
5748,2419,1661,1385
5753,2421,1663,1386
5760,2423,1665,1388
5761,2424,1665,1388
5754,2422,1663,1386
5744,2420,1658,1384
5736,2418,1655,1383
5729,2416,1652,1382
5725,2416,1650,1381
5725,2416,1650,1381
5724,2416,1649,1381
5723,2416,1649,1381
5729,2418,1651,1383
5736,2420,1653,1384
5737,2421,1654,1385
5742,2422,1655,1386
5749,2425,1658,1387
5750,2425,1658,1387
5752,2426,1658,1388
5758,2428,1660,1389
5763,2430,1662,1390
5766,2430,1663,1391
5773,2432,1666,1392
5782,2436,1669,1394
5785,2437,1670,1395
5789,2438,1671,1396
5797,2441,1674,1397
5804,2443,1677,1399
5807,2443,1678,1399
5807,2445,1680,1401
5812,2448,1682,1402
5820,2448,1683,1402
5820,2448,1682,1401
5817,2447,1682,1400
5811,2446,1679,1398
5800,2443,1674,1398
5788,2440,1670,1396
5785,2440,1668,1396
5786,2441,1667,1396
5783,2440,1666,1396
5784,2440,1666,1396
5789,2442,1668,1398
5791,2443,1668,1398
5792,2443,1669,1398
5798,2445,1671,1399
5803,2447,1673,1400
5803,2447,1673,1400
5807,2448,1674,1401
5814,2451,1676,1403
5815,2451,1677,1403
5818,2452,1678,1404
5829,2455,1682,1406
5837,2458,1685,1408
5839,2458,1685,1408
5845,2460,1688,1410
5852,2462,1690,1411
5854,2463,1691,1411
5858,2464,1693,1412
5867,2467,1695,1414
5871,2468,1697,1415
5873,2469,1698,1416
5880,2471,1701,1417
5884,2473,1702,1418
5877,2471,1699,1416
5864,2468,1694,1414
5855,2466,1690,1412
5847,2464,1686,1411
5840,2462,1684,1410
5837,2462,1682,1409
5834,2461,1680,1408
5831,2460,1680,1408
5833,2461,1680,1408
5838,2462,1682,1409
5842,2464,1684,1411
5844,2464,1684,1411
5846,2465,1685,1411
5848,2466,1686,1412
5849,2466,1686,1411
5852,2467,1687,1412
5855,2468,1688,1413
5857,2469,1689,1413
5863,2470,1691,1415
5871,2473,1694,1416
5875,2474,1696,1417
5878,2475,1697,1418
5881,2476,1698,1418
5885,2477,1699,1419
5889,2478,1701,1420
5892,2479,1702,1420
5895,2480,1703,1421
5899,2481,1705,1421
5902,2482,1706,1422
5906,2483,1708,1423
5904,2483,1707,1422
5894,2480,1703,1420
5881,2477,1698,1417
5871,2474,1694,1416
5863,2472,1691,1414
5856,2470,1688,1413
5853,2469,1687,1412
5851,2469,1686,1412
5849,2468,1685,1412
5851,2468,1686,1412
5852,2469,1686,1412
5854,2469,1687,1412
5853,2469,1687,1412
5854,2469,1687,1412
5852,2468,1687,1412
5852,2468,1687,1412
5853,2468,1687,1412
5855,2468,1688,1413
5858,2469,1690,1413
5860,2470,1691,1414
5862,2470,1691,1414
5865,2470,1693,1414
5869,2471,1694,1415
5872,2472,1695,1416
5874,2472,1696,1416
5877,2473,1697,1417
5880,2474,1699,1417
5882,2474,1700,1418
5883,2474,1700,1418
5880,2473,1699,1417
5880,2470,1695,1414
5868,2466,1689,1412
5854,2466,1685,1410
5843,2463,1681,1408
5834,2461,1681,1407
5826,2458,1679,1407
5823,2457,1677,1406
5819,2456,1676,1405
5815,2454,1675,1404
5816,2454,1675,1404
5819,2455,1676,1405
5819,2454,1676,1405
5818,2454,1676,1405
5819,2454,1677,1405
5817,2453,1676,1404
5815,2452,1676,1404
5819,2453,1677,1405
5821,2453,1678,1405
5820,2453,1678,1405
5824,2454,1680,1405
5826,2454,1681,1406
5827,2454,1682,1406
5829,2454,1682,1406
5831,2455,1683,1407
5831,2454,1684,1406
5832,2454,1684,1406
5835,2455,1686,1407
5838,2455,1687,1408
5839,2455,1688,1408
5837,2454,1687,1407
5824,2450,1682,1405
5806,2445,1675,1401
5795,2442,1671,1399
5787,2440,1668,1397
5778,2437,1664,1395
5771,2435,1662,1394
5770,2435,1661,1394
5767,2434,1660,1393
5765,2433,1660,1393
5768,2434,1661,1393
5768,2433,1661,1393
5766,2432,1661,1393
5768,2433,1662,1393
5770,2433,1662,1393
5768,2432,1662,1393
5769,2432,1663,1393
5773,2433,1664,1394
5775,2433,1665,1394
5775,2433,1666,1394
5777,2434,1667,1394
5779,2434,1667,1394
5777,2433,1667,1394
5780,2434,1668,1395
5785,2435,1670,1396
5786,2434,1671,1396
5788,2435,1672,1396
5792,2436,1674,1397
5794,2436,1674,1397
5794,2436,1675,1397
5794,2436,1675,1397
5785,2433,1672,1395
5770,2428,1666,1391
5756,2425,1660,1389
5745,2422,1656,1387
5734,2418,1652,1385
5726,2416,1649,1383
5722,2415,1647,1382
5717,2413,1646,1381
5714,2412,1645,1380
5715,2413,1645,1380
5715,2412,1646,1380
5714,2412,1645,1380
5713,2412,1645,1380
5714,2412,1646,1379
5713,2411,1645,1379
5713,2411,1646,1379
5714,2411,1646,1379
5716,2411,1647,1380
5717,2411,1648,1380
5719,2412,1649,1380
5723,2412,1650,1381
5726,2413,1652,1381
5729,2414,1653,1382
5733,2415,1654,1383
5737,2416,1656,1384
5742,2418,1658,1385
5747,2419,1660,1386
5753,2421,1662,1387
5757,2422,1663,1388
5761,2424,1665,1388
5759,2424,1664,1388
5750,2422,1660,1386
5739,2419,1656,1384
5739,2417,1652,1383
5732,2416,1650,1382
5726,2416,1648,1381
5720,2414,1647,1381
5719,2414,1647,1381
5719,2414,1647,1381
5719,2414,1647,1381
5723,2416,1648,1382
5728,2418,1650,1383
5731,2418,1651,1383
5733,2419,1651,1384
5737,2421,1653,1385
5741,2422,1654,1386
5742,2422,1655,1386
5746,2423,1656,1387
5751,2425,1658,1388
5754,2426,1659,1389
5759,2427,1661,1390
5765,2429,1663,1391
5770,2431,1665,1392
5773,2431,1666,1392
5778,2433,1668,1393
5784,2435,1670,1395
5787,2435,1671,1395
5791,2437,1673,1396
5799,2440,1675,1398
5801,2440,1676,1398
5795,2439,1674,1397
5786,2437,1670,1395
5777,2434,1666,1394
5766,2432,1662,1392
5761,2430,1659,1391
5760,2431,1659,1391
5756,2430,1657,1390
5756,2429,1657,1390
5760,2431,1658,1391
5763,2432,1659,1392
5765,2432,1660,1392
5771,2434,1662,1394
5775,2436,1664,1395
5776,2436,1664,1395
5778,2437,1665,1395
5783,2438,1666,1396
5786,2439,1667,1397
5788,2440,1668,1397
5793,2441,1670,1398
5799,2444,1672,1400
5803,2444,1674,1400
5807,2446,1675,1401
5814,2448,1678,1403
5819,2449,1680,1404
5822,2450,1681,1404
5829,2452,1684,1406
5836,2454,1686,1407
5839,2455,1687,1408
5843,2456,1689,1409
5847,2458,1690,1410
5840,2456,1687,1408
5827,2452,1682,1405
5816,2450,1677,1403
5807,2448,1674,1402
5799,2446,1670,1400
5796,2446,1669,1400
5794,2445,1668,1400
5792,2445,1667,1399
5793,2446,1667,1400
5798,2447,1669,1401
5801,2448,1670,1401
5803,2449,1671,1402
5806,2450,1672,1402
5808,2450,1673,1403
5811,2451,1674,1403
5815,2452,1675,1404
5817,2453,1676,1405
5819,2453,1677,1405
5821,2454,1678,1405
5826,2456,1679,1406
