6657,2931,1949,1442
6658,2931,1949,1442
6658,2931,1949,1442
6657,2930,1949,1441
6656,2930,1949,1441
6657,2930,1949,1441
6657,2930,1949,1441
6656,2929,1949,1441
6656,2929,1949,1440
6656,2929,1950,1440
6657,2929,1950,1440
6657,2929,1950,1440
6658,2929,1951,1440
6657,2928,1951,1440
6657,2928,1951,1440
6659,2929,1952,1440
6660,2928,1952,1440
6661,2928,1953,1441
6663,2929,1954,1441
6665,2929,1955,1441
6663,2928,1954,1441
6664,2928,1954,1442
6661,2927,1953,1441
6655,2925,1951,1440
6650,2924,1949,1440
6646,2923,1947,1439
6639,2920,1944,1438
6633,2919,1942,1437
6629,2918,1940,1436
6625,2917,1939,1435
6621,2915,1937,1434
6621,2915,1937,1434
6622,2915,1937,1434
6620,2915,1936,1434
6618,2913,1937,1434
6618,2913,1937,1434
6620,2914,1937,1434
6619,2912,1937,1434
6621,2913,1938,1435
6622,2913,1939,1435
6621,2912,1938,1435
6621,2912,1938,1434
6623,2913,1939,1435
6622,2912,1939,1435
6621,2911,1939,1434
6622,2912,1940,1434
6623,2912,1940,1435
6621,2911,1940,1434
6623,2911,1941,1434
6623,2911,1941,1434
6621,2910,1941,1434
6621,2910,1941,1434
6623,2910,1941,1434
6622,2909,1941,1434
6624,2910,1942,1434
6626,2910,1943,1434
6626,2910,1944,1434
6626,2909,1944,1434
6626,2910,1944,1434
6624,2909,1943,1434
6619,2907,1941,1433
6613,2905,1939,1432
6607,2904,1937,1431
6601,2901,1934,1430
6595,2900,1932,1429
6591,2899,1930,1428
6586,2897,1928,1427
6583,2896,1927,1427
6582,2896,1927,1427
6581,2895,1926,1426
6579,2894,1926,1426
6578,2894,1925,1426
6577,2894,1925,1426
6576,2893,1925,1425
6577,2893,1925,1425
6576,2893,1925,1425
6576,2892,1925,1425
6577,2892,1926,1425
6577,2892,1926,1425
6577,2892,1926,1426
6579,2892,1927,1426
6579,2892,1927,1426
6580,2892,1928,1426
6582,2892,1929,1426
6583,2893,1929,1426
6585,2893,1930,1427
6587,2894,1931,1427
6589,2894,1932,1427
6592,2895,1933,1428
6594,2896,1934,1428
6596,2896,1935,1428
6599,2897,1936,1429
6602,2898,1937,1430
6604,2899,1938,1430
6606,2900,1939,1430
6609,2900,1940,1431
6608,2900,1939,1431
6606,2900,1938,1430
6603,2899,1937,1430
6599,2898,1935,1429
6594,2897,1933,1428
6591,2897,1932,1428
6587,2896,1930,1427
6582,2895,1928,1426
6579,2894,1927,1425
6579,2894,1927,1425
6579,2894,1927,1425
6578,2894,1926,1425
6579,2895,1926,1425
6580,2895,1927,1425
6580,2895,1927,1425
6581,2895,1927,1426
6585,2897,1929,1426
6585,2897,1929,1426
6586,2897,1929,1426
6590,2898,1930,1427
6592,2899,1931,1427
6593,2899,1932,1428
6596,2900,1933,1428
6600,2902,1935,1429
6602,2902,1935,1429
6604,2902,1936,1429
6608,2904,1938,1430
6612,2905,1939,1431
6614,2905,1940,1432
6618,2907,1941,1433
6622,2908,1943,1433
6627,2909,1944,1434
6631,2910,1946,1436
6639,2912,1949,1437
6641,2913,1950,1438
6644,2914,1951,1438
6649,2915,1952,1439
6649,2916,1953,1440
6645,2914,1951,1439
6643,2914,1950,1439
6641,2914,1949,1438
6636,2913,1947,1437
6636,2912,1945,1437
6633,2912,1945,1437
6632,2912,1943,1436
6628,2911,1942,1435
6625,2910,1942,1435
6626,2910,1943,1436
6629,2912,1943,1436
6629,2911,1944,1436
6632,2912,1945,1437
6636,2913,1946,1438
6637,2913,1946,1438
6640,2914,1947,1439
6644,2915,1949,1440
6646,2916,1949,1440
6647,2916,1950,1440
6649,2917,1951,1441
6653,2918,1952,1441
6654,2918,1953,1442
6656,2919,1954,1442
6659,2920,1954,1442
6660,2920,1955,1443
6662,2921,1956,1443
6665,2922,1957,1444
6668,2923,1958,1444
6670,2923,1959,1445
6673,2924,1960,1445
6675,2924,1961,1445
6677,2925,1962,1446
6679,2926,1963,1446
6682,2926,1964,1447
6685,2927,1965,1447
6686,2927,1965,1447
6688,2928,1966,1448
6688,2928,1967,1448
6686,2927,1966,1448
6683,2926,1964,1447
6678,2926,1962,1446
6675,2924,1961,1446
6671,2923,1959,1445
6668,2923,1958,1445
6665,2922,1956,1444
6662,2921,1955,1444
6661,2921,1955,1443
6660,2921,1955,1443
6661,2921,1955,1444
6661,2921,1955,1444
6660,2921,1954,1443
6661,2921,1955,1443
6661,2921,1955,1444
6661,2921,1955,1444
6662,2921,1955,1444
6663,2921,1956,1444
6664,2922,1956,1444
6664,2922,1956,1444
6666,2922,1957,1444
6667,2922,1957,1444
6667,2922,1958,1444
6668,2923,1958,1444
6669,2923,1959,1444
6670,2923,1959,1445
6670,2923,1960,1445
6671,2923,1960,1445
6671,2923,1960,1444
6671,2923,1960,1444
6672,2923,1961,1444
6672,2923,1961,1444
6673,2923,1961,1444
6674,2924,1962,1444
6675,2924,1962,1444
6675,2924,1963,1444
6676,2924,1963,1444
6675,2923,1963,1444
6672,2922,1962,1444
6668,2921,1960,1443
6664,2920,1959,1442
6660,2919,1957,1441
6656,2918,1956,1441
6652,2917,1954,1440
6648,2916,1953,1439
6646,2916,1952,1439
6644,2915,1951,1439
6644,2915,1951,1439
6643,2914,1950,1438
6643,2915,1950,1438
6641,2914,1950,1438
6642,2914,1950,1438
6641,2914,1950,1438
6641,2913,1950,1438
6640,2913,1950,1437
6640,2913,1950,1437
6640,2913,1950,1437
6640,2913,1950,1437
6643,2913,1951,1438
6645,2914,1952,1438
6647,2914,1953,1439
6650,2915,1954,1439
6652,2915,1955,1440
6653,2915,1956,1440
6656,2916,1957,1441
6658,2916,1958,1441
6659,2916,1959,1441
6661,2917,1959,1442
6664,2918,1961,1442
6666,2918,1961,1443
6666,2918,1962,1443
6668,2918,1962,1443
6668,2918,1963,1443
6668,2917,1962,1442
6666,2916,1961,1442
6664,2916,1960,1442
6660,2915,1958,1441
6655,2913,1958,1440
6652,2912,1957,1440
6649,2912,1956,1440
6646,2910,1954,1439
6642,2909,1953,1439
6641,2909,1952,1438
6639,2908,1951,1438
6638,2908,1951,1438
6639,2908,1952,1438
6638,2907,1951,1438
6636,2906,1951,1438
6638,2907,1951,1438
6637,2907,1951,1438
6636,2906,1951,1438
6637,2906,1951,1438
6638,2907,1952,1438
6638,2906,1952,1438
6638,2906,1952,1438
6639,2906,1953,1438
6639,2906,1953,1438
6639,2906,1953,1438
6642,2907,1954,1438
6642,2906,1954,1438
6642,2906,1954,1438
6643,2907,1955,1439
6645,2907,1955,1439
6644,2906,1955,1438
6645,2906,1956,1439
6646,2907,1957,1439
6647,2907,1957,1439
6648,2907,1957,1439
6650,2907,1959,1440
6651,2907,1959,1440
6651,2907,1959,1440
6652,2907,1959,1440
6650,2906,1959,1439
6646,2905,1957,1439
6640,2903,1955,1438
6636,2902,1954,1437
6630,2900,1951,1436
6626,2899,1950,1435
6621,2898,1947,1434
6617,2897,1946,1434
6612,2895,1944,1433
6612,2895,1944,1433
6610,2894,1943,1432
6608,2894,1943,1432
6606,2893,1942,1431
6604,2892,1941,1431
6603,2892,1941,1431
6604,2892,1941,1431
6602,2891,1941,1430
6600,2890,1940,1430
6598,2889,1940,1430
6597,2889,1940,1429
6597,2888,1940,1429
6596,2888,1940,1429
6597,2888,1940,1429
6599,2889,1941,1429
6601,2889,1942,1429
6602,2890,1942,1430
6605,2891,1943,1430
6606,2892,1944,1430
6608,2893,1944,1430
6610,2894,1945,1431
6611,2894,1946,1431
6613,2895,1946,1431
6619,2897,1948,1432
6625,2899,1951,1433
6629,2901,1952,1434
6632,2902,1953,1434
6635,2903,1954,1435
6637,2903,1955,1436
6636,2903,1955,1435
6634,2903,1954,1435
6631,2902,1952,1435
6627,2901,1951,1434
6624,2900,1949,1434
6622,2900,1948,1433
6619,2899,1947,1433
6615,2898,1945,1432
6613,2898,1945,1432
6614,2898,1945,1432
6613,2898,1944,1432
6613,2898,1944,1432
6614,2898,1944,1432
6614,2898,1945,1432
6614,2898,1945,1432
6617,2899,1946,1433
6618,2900,1946,1433
6619,2900,1946,1433
6621,2900,1947,1434
6625,2902,1948,1434
6627,2902,1949,1435
6629,2903,1950,1435
6633,2904,1952,1436
6637,2905,1953,1437
6639,2905,1954,1437
6642,2906,1955,1438
6645,2907,1956,1439
6647,2908,1957,1439
6648,2908,1957,1439
6648,2909,1959,1440
6651,2909,1959,1440
6652,2909,1960,1440
6654,2910,1961,1441
6657,2910,1961,1442
6661,2911,1962,1442
6662,2912,1963,1442
6664,2912,1964,1442
6665,2912,1964,1442
6663,2912,1963,1442
6660,2911,1962,1442
6658,2910,1961,1441
6655,2910,1960,1441
6653,2909,1958,1441
6650,2908,1957,1441
6650,2908,1957,1441
6648,2908,1956,1440
6648,2908,1956,1440
6649,2908,1956,1441
6648,2908,1956,1441
6648,2908,1956,1441
6649,2908,1956,1441
6650,2909,1957,1441
6651,2909,1957,1441
6652,2909,1957,1441
6654,2910,1958,1442
6655,2910,1959,1442
6656,2910,1959,1442
6658,2911,1960,1442
6659,2911,1960,1443
6660,2911,1961,1443
6661,2912,1961,1443
6664,2913,1962,1443
6665,2913,1963,1444
6667,2913,1963,1444
6670,2914,1965,1445
6671,2914,1965,1445
6673,2915,1966,1445
6675,2916,1967,1445
6677,2916,1968,1446
6677,2916,1968,1446
6679,2917,1969,1446
6681,2917,1970,1446
6682,2918,1970,1446
6683,2918,1970,1446
6683,2918,1970,1446
6681,2917,1970,1446
6677,2916,1968,1445
6672,2915,1966,1444
6667,2914,1964,1443
6662,2912,1962,1443
6657,2911,1960,1442
6652,2910,1958,1441
6649,2909,1956,1440
6647,2908,1956,1439
6645,2908,1955,1439
6645,2908,1955,1439
6644,2908,1955,1439
6643,2908,1954,1439
6644,2908,1954,1439
6644,2908,1955,1439
6645,2908,1955,1439
6645,2908,1955,1439
6646,2908,1955,1439
6647,2908,1956,1439
6648,2907,1956,1440
6650,2908,1958,1440
6652,2908,1958,1441
6653,2908,1959,1441
6654,2908,1959,1441
6654,2908,1959,1441
6653,2907,1959,1441
6655,2907,1960,1441
6656,2907,1960,1441
6655,2907,1960,1441
6655,2907,1960,1441
6655,2907,1961,1441
6654,2906,1961,1441
6654,2905,1961,1441
6656,2906,1962,1441
6655,2906,1962,1441
6653,2905,1961,1440
6652,2904,1961,1440
6648,2903,1959,1439
6640,2900,1956,1438
6635,2899,1954,1437
6632,2898,1953,1437
6625,2895,1950,1435
6617,2893,1948,1434
6613,2891,1946,1433
6606,2889,1943,1432
6598,2886,1941,1430
6597,2886,1941,1430
6594,2885,1940,1429
6589,2882,1938,1428
6588,2882,1938,1428
6587,2882,1937,1428
6583,2880,1936,1427
6581,2879,1936,1427
6583,2880,1936,1427
6580,2878,1936,1426
6575,2876,1934,1425
6580,2878,1936,1426
6579,2877,1936,1426
6579,2874,1935,1425
6574,2875,1935,1425
6575,2875,1936,1425
6576,2875,1934,1424
6570,2872,1934,1424
6570,2871,1934,1424
6571,2872,1935,1423
6568,2870,1934,1423
6564,2868,1933,1422
6567,2869,1934,1423
6564,2868,1933,1422
6559,2865,1932,1420
6561,2866,1933,1421
6563,2867,1934,1421
6557,2864,1932,1420
6555,2863,1932,1419
6555,2863,1932,1419
6548,2860,1929,1418
6540,2857,1927,1416
6537,2857,1925,1416
6528,2854,1922,1414
6518,2850,1918,1412
6513,2849,1917,1412
6508,2847,1915,1411
6498,2843,1911,1409
6495,2842,1910,1408
6495,2842,1910,1408
6490,2840,1908,1407
6486,2839,1907,1406
6486,2839,1907,1406
6482,2837,1906,1406
6477,2835,1904,1404
6477,2835,1904,1404
6476,2835,1904,1404
6469,2832,1902,1402
6467,2831,1901,1402
6467,2831,1902,1402
6464,2830,1901,1401
6463,2829,1900,1401
6465,2829,1901,1401
6462,2828,1901,1401
6459,2826,1900,1400
6459,2826,1900,1400
6458,2826,1900,1399
6455,2824,1899,1399
6457,2824,1900,1399
6455,2824,1900,1398
6449,2822,1898,1397
6445,2821,1897,1396
6446,2821,1897,1396
6446,2820,1898,1396
6446,2819,1898,1396
6444,2819,1898,1395
6441,2818,1897,1394
6435,2816,1895,1393
6430,2814,1893,1391
6424,2812,1891,1390
6418,2810,1888,1389
6412,2808,1886,1388
6408,2806,1884,1388
6405,2806,1883,1388
6402,2805,1882,1387
6400,2804,1881,1387
6398,2804,1880,1387
6401,2805,1881,1388
6403,2806,1881,1388
6406,2807,1882,1388
6407,2808,1882,1389
6408,2809,1882,1389
6411,2810,1883,1390
6414,2811,1884,1390
6415,2812,1884,1390
6419,2813,1885,1391
6423,2815,1887,1392
6427,2817,1888,1393
6428,2817,1889,1393
6433,2819,1890,1394
6439,2821,1892,1395
6440,2822,1893,1396
6443,2823,1894,1396
6450,2825,1896,1398
6453,2827,1897,1398
6454,2827,1897,1398
6458,2829,1898,1399
6464,2831,1901,1400
6465,2831,1901,1400
6467,2832,1902,1401
6474,2835,1904,1402
6476,2836,1905,1402
6477,2836,1905,1402
6483,2838,1907,1403
6488,2840,1909,1404
6487,2840,1909,1404
6487,2840,1908,1404
6490,2842,1909,1405
6485,2841,1907,1404
6480,2840,1904,1403
6481,2841,1904,1404
6481,2842,1903,1404
6474,2840,1901,1403
6474,2840,1900,1403
6478,2843,1901,1404
6477,2843,1901,1403
6474,2842,1899,1403
6477,2844,1900,1403
6477,2845,1901,1404
6479,2844,1900,1403
6476,2844,1900,1403
6477,2844,1901,1404
6482,2847,1901,1404
6482,2847,1901,1404
6481,2847,1901,1404
6486,2849,1902,1405
6491,2851,1904,1406
6489,2850,1903,1405
6493,2851,1904,1406
6498,2854,1906,1407
6496,2854,1906,1407
6496,2854,1906,1406
6502,2857,1907,1407
6504,2858,1908,1408
6504,2857,1908,1408
6510,2860,1910,1409
6520,2863,1913,1411
6524,2864,1915,1412
6529,2865,1917,1413
6539,2868,1920,1416
6545,2870,1922,1417
6547,2870,1923,1418
6551,2872,1924,1419
6553,2873,1925,1419
6551,2873,1924,1418
6548,2873,1923,1417
6546,2873,1922,1417
6543,2873,1920,1416
6539,2872,1918,1416
6539,2872,1918,1416
6539,2873,1917,1416
6538,2873,1917,1416
6540,2873,1917,1417
6542,2874,1917,1418
6539,2873,1916,1417
6537,2873,1915,1417
6538,2873,1916,1417
6538,2873,1915,1417
6535,2872,1914,1416
6532,2872,1913,1416
6531,2872,1913,1415
6529,2872,1912,1414
6528,2872,1912,1414
6531,2873,1912,1415
6532,2873,1913,1415
6532,2874,1913,1415
6536,2875,1914,1416
6538,2876,1915,1416
6540,2876,1916,1416
6543,2877,1917,1417
6546,2878,1918,1418
6549,2879,1919,1418
6551,2880,1920,1419
6553,2880,1921,1419
6554,2881,1921,1419
6556,2881,1922,1420
6557,2882,1922,1419
6558,2882,1922,1420
6559,2882,1923,1420
6560,2883,1924,1420
6562,2883,1924,1420
6563,2883,1925,1420
6563,2883,1925,1420
6560,2882,1924,1420
6556,2881,1922,1419
6553,2880,1921,1419
6549,2879,1919,1418
6544,2878,1917,1417
6540,2876,1916,1416
6536,2875,1914,1416
6533,2874,1913,1415
6531,2873,1912,1415
6530,2872,1912,1414
6529,2872,1912,1414
6527,2871,1911,1414
6526,2871,1911,1414
6525,2870,1910,1414
6525,2870,1910,1413
6524,2869,1910,1413
6524,2869,1910,1413
6525,2869,1911,1414
6523,2868,1911,1413
6523,2868,1911,1413
6525,2868,1911,1413
6525,2868,1912,1413
6524,2867,1912,1413
6525,2867,1912,1413
6527,2868,1913,1414
6526,2867,1913,1414
6528,2867,1914,1414
6530,2868,1915,1414
6530,2868,1915,1414
6530,2867,1915,1414
6533,2868,1916,1415
6533,2868,1917,1415
6531,2866,1916,1414
6533,2867,1917,1414
6535,2867,1918,1414
6534,2866,1918,1414
6536,2867,1919,1414
6536,2867,1920,1414
6532,2865,1918,1413
6532,2863,1916,1412
6526,2863,1915,1412
6525,2863,1914,1411
6520,2861,1912,1410
6514,2858,1911,1410
6512,2858,1911,1409
6510,2857,1910,1408
6505,2855,1909,1408
6505,2855,1909,1408
6506,2855,1910,1408
6504,2853,1909,1408
6502,2852,1909,1407
6506,2853,1910,1408
6504,2852,1910,1408
6502,2851,1909,1407
6505,2852,1910,1408
6505,2851,1911,1408
6502,2850,1910,1407
6504,2850,1911,1408
6506,2851,1912,1408
6503,2849,1911,1407
6503,2848,1911,1407
6507,2850,1913,1408
6502,2848,1912,1407
6499,2846,1911,1406
6502,2847,1912,1406
6502,2847,1912,1406
6498,2845,1911,1405
6499,2845,1912,1406
6501,2846,1913,1406
6498,2844,1912,1405
6499,2844,1913,1406
6502,2845,1914,1406
6498,2843,1913,1405
6494,2841,1912,1404
6493,2841,1911,1404
6489,2839,1910,1403
6480,2836,1907,1402
6476,2835,1905,1401
6473,2834,1904,1400
6465,2831,1901,1399
6461,2830,1900,1398
6460,2829,1899,1398
6456,2828,1898,1397
6452,2826,1897,1396
6452,2826,1897,1396
6450,2825,1896,1396
6444,2822,1895,1394
6444,2822,1895,1394
6444,2822,1895,1394
6442,2821,1894,1394
6441,2820,1894,1394
6443,2820,1895,1394
6441,2819,1895,1394
6439,2818,1894,1393
6439,2818,1894,1393
6438,2817,1894,1393
6436,2816,1894,1393
6435,2816,1894,1392
6434,2815,1894,1392
6434,2815,1894,1392
6434,2814,1894,1392
6434,2814,1894,1392
6433,2813,1894,1392
6433,2813,1894,1392
6432,2812,1895,1391
6434,2813,1895,1392
6438,2814,1897,1392
6439,2814,1897,1393
6440,2814,1898,1393
6441,2814,1898,1393
6443,2815,1899,1393
6442,2816,1898,1394
6441,2816,1897,1393
6439,2815,1896,1393
6438,2815,1896,1393
6437,2816,1895,1393
6437,2816,1895,1393
6435,2816,1894,1392
6439,2818,1895,1393
6440,2818,1895,1393
6439,2818,1895,1393
6440,2819,1895,1393
6444,2821,1897,1394
6446,2821,1897,1395
6447,2822,1897,1395
6450,2823,1898,1395
6454,2825,1900,1396
6454,2825,1900,1396
6458,2826,1901,1397
6462,2828,1903,1398
6465,2829,1904,1398
6467,2829,1904,1399
6474,2832,1907,1400
6479,2833,1908,1401
6481,2834,1909,1402
6487,2836,1911,1403
6495,2839,1914,1405
6498,2840,1915,1405
6502,2841,1916,1406
6510,2844,1919,1408
6515,2845,1921,1409
6516,2845,1921,1409
6521,2847,1923,1410
6521,2850,1925,1411
6528,2850,1926,1412
6528,2850,1926,1412
6528,2850,1926,1412
6531,2851,1926,1413
6531,2852,1926,1412
6528,2850,1925,1412
6528,2851,1924,1412
6529,2852,1925,1413
6526,2851,1923,1412
6524,2851,1922,1412
6527,2852,1923,1413
6530,2853,1924,1413
6528,2852,1923,1413
6532,2854,1925,1414
6537,2856,1926,1415
6537,2856,1926,1415
6537,2856,1926,1415
6544,2859,1929,1417
6548,2860,1930,1417
6547,2859,1930,1417
6551,2861,1931,1418
6557,2863,1933,1419
6555,2862,1932,1419
6558,2863,1933,1419
6564,2866,1935,1421
6566,2867,1936,1421
6566,2866,1936,1421
6571,2868,1938,1422
6576,2870,1939,1423
6577,2870,1940,1423
6579,2871,1941,1423
6585,2873,1943,1425
6588,2874,1944,1425
6589,2875,1944,1425
6594,2877,1946,1426
6599,2878,1948,1428
6600,2878,1948,1428
6603,2879,1949,1428
6607,2881,1950,1429
6606,2881,1950,1429
6604,2880,1949,1429
6602,2880,1948,1429
6600,2880,1947,1428
6596,2879,1945,1428
6594,2878,1945,1428
6593,2878,1944,1427
6591,2878,1943,1427
6591,2878,1943,1427
6594,2879,1944,1428
6598,2880,1945,1429
6601,2880,1946,1430
6609,2882,1949,1433
6618,2884,1952,1435
6623,2885,1953,1437
6627,2886,1955,1438
6630,2887,1955,1439
6633,2887,1956,1440
6641,2888,1959,1443
6637,2887,1958,1442
6623,2883,1953,1438
6615,2881,1950,1436
6646,2888,1961,1444
6712,2903,1984,1462
6718,2904,1986,1464
6715,2903,1985,1463
6707,2902,1982,1461
6705,2902,1981,1460
6715,2903,1985,1463
6754,2911,1999,1474
6765,2913,2003,1478
6725,2905,1989,1467
6712,2903,1984,1462
6721,2905,1988,1465
6718,2904,1987,1463
6737,2908,1993,1469
6715,2903,1985,1463
6708,2901,1983,1461
6718,2902,1986,1465
6690,2897,1976,1457
6693,2897,1977,1458
6697,2898,1979,1460
6677,2894,1972,1454
6677,2895,1971,1454
6677,2895,1971,1454
6673,2894,1970,1453
6664,2892,1967,1450
6650,2889,1962,1446
6637,2886,1957,1443
6621,2883,1952,1438
6606,2879,1946,1434
6589,2876,1940,1429
6579,2874,1937,1426
6564,2871,1932,1422
6549,2868,1927,1418
6540,2865,1924,1415
6530,2863,1920,1412
6522,2862,1918,1409
6511,2859,1914,1406
6500,2858,1910,1402
6489,2856,1907,1399
6484,2855,1905,1397
6484,2855,1906,1397
6489,2857,1908,1398
6489,2857,1909,1398
6492,2857,1910,1398
6494,2857,1912,1399
6498,2858,1913,1400
6501,2858,1913,1400
6502,2858,1914,1400
6503,2858,1915,1400
6504,2858,1915,1400
6500,2857,1914,1399
6496,2855,1913,1398
6495,2855,1912,1398
6489,2853,1910,1397
6484,2851,1908,1396
6480,2851,1907,1396
6475,2849,1905,1395
6469,2846,1902,1394
6467,2846,1902,1393
6466,2846,1901,1393
6462,2844,1900,1392
6460,2844,1900,1392
6461,2844,1900,1392
6458,2843,1899,1391
6454,2842,1898,1390
6455,2842,1898,1390
6453,2842,1898,1389
6451,2841,1897,1389
6455,2842,1899,1389
6457,2843,1900,1390
6457,2842,1900,1390
6461,2842,1901,1391
6465,2844,1903,1392
6467,2844,1904,1392
6468,2843,1905,1392
6472,2845,1906,1393
6471,2844,1906,1393
6474,2844,1907,1394
6477,2845,1908,1394
6482,2846,1910,1395
6477,2844,1909,1394
6479,2844,1910,1394
6479,2844,1910,1394
6477,2843,1910,1394
6475,2843,1909,1393
6475,2843,1909,1393
6476,2843,1910,1393
6472,2842,1909,1392
6470,2841,1907,1392
6465,2840,1906,1391
6455,2837,1902,1389
6451,2835,1900,1388
6447,2834,1899,1387
6443,2833,1897,1387
6440,2831,1896,1386
6437,2830,1895,1386
6436,2830,1894,1386
6432,2828,1893,1385
6431,2828,1893,1385
6429,2827,1892,1384
6428,2826,1892,1384
6427,2826,1891,1384
6426,2826,1891,1384
6426,2825,1891,1384
6424,2824,1891,1383
6423,2824,1891,1383
6425,2824,1891,1383
6422,2823,1890,1382
6425,2824,1892,1383
6422,2823,1891,1382
6422,2823,1891,1382
6421,2822,1891,1382
6418,2821,1890,1381
6424,2823,1892,1382
6419,2821,1891,1381
6424,2822,1893,1382
6422,2822,1892,1381
6424,2822,1893,1382
6424,2822,1893,1382
6425,2823,1894,1382
6431,2824,1896,1383
6433,2825,1896,1383
6436,2826,1898,1384
6435,2826,1897,1384
6433,2825,1896,1384
6431,2825,1895,1384
6430,2825,1894,1384
6431,2826,1894,1384
6429,2825,1893,1384
6430,2826,1893,1385
6429,2826,1892,1385
6430,2827,1893,1385
6431,2827,1893,1385
6437,2829,1895,1386
6437,2829,1895,1386
6443,2831,1897,1388
6446,2832,1897,1388
6450,2833,1899,1389
6451,2834,1899,1390
6458,2836,1901,1391
6463,2838,1903,1392
6465,2838,1904,1392
6468,2839,1905,1393
6473,2841,1907,1394
6475,2842,1907,1394
6475,2842,1908,1394
6475,2843,1909,1395
6478,2843,1909,1395
6480,2844,1910,1395
6481,2844,1910,1396
6484,2846,1911,1397
6490,2848,1913,1397
6492,2849,1914,1397
6492,2848,1914,1397
6497,2850,1916,1398
6501,2852,1917,1399
6502,2852,1918,1399
6505,2853,1919,1399
6510,2855,1920,1400
6510,2855,1920,1400
6508,2854,1920,1400
6508,2855,1919,1401
6507,2855,1918,1401
6502,2853,1916,1400
6499,2853,1914,1400
6498,2853,1913,1400
6493,2852,1912,1399
6490,2851,1910,1398
6492,2852,1910,1399
6494,2853,1911,1400
6493,2853,1911,1400
6495,2853,1911,1400
6498,2855,1912,1401
6497,2854,1911,1400
6496,2854,1911,1400
6499,2855,1912,1401
6501,2856,1912,1401
6500,2855,1912,1401
6504,2857,1914,1402
6508,2858,1915,1402
6508,2859,1915,1402
6511,2860,1916,1403
6519,2863,1919,1404
6523,2864,1920,1405
6523,2865,1920,1405
6528,2866,1922,1406
6532,2868,1923,1407
6534,2868,1924,1407
6536,2869,1925,1407
6540,2871,1926,1408
6541,2871,1927,1408
6542,2871,1927,1408
6544,2872,1928,1409
6546,2872,1929,1409
6546,2872,1929,1409
6547,2873,1929,1409
6547,2873,1929,1409
6543,2872,1927,1408
6538,2871,1925,1408
6534,2870,1923,1407
6528,2869,1920,1406
6521,2867,1918,1405
6516,2865,1915,1404
6511,2864,1913,1404
6507,2863,1912,1403
6506,2863,1911,1403
6507,2864,1911,1403
6506,2864,1911,1403
6505,2864,1910,1403
6505,2864,1910,1403
6505,2864,1910,1402
6505,2864,1910,1402
6506,2864,1910,1403
6508,2865,1911,1403
6509,2865,1911,1403
6511,2866,1912,1403
6513,2866,1913,1404
6515,2867,1913,1404
6517,2868,1914,1405
6518,2868,1915,1405
6520,2869,1915,1405
6521,2869,1916,1405
6524,2870,1917,1406
6526,2870,1918,1406
6528,2870,1918,1407
6529,2871,1919,1407
6530,2871,1920,1407
6533,2872,1921,1408
6535,2872,1922,1408
6538,2873,1923,1409
6539,2873,1923,1409
6539,2873,1923,1409
6535,2872,1922,1408
6530,2870,1919,1408
6522,2868,1916,1406
6516,2866,1914,1405
6510,2864,1911,1404
6505,2863,1909,1403
6498,2861,1907,1402
6495,2860,1906,1402
6493,2859,1905,1401
6491,2859,1904,1401
6491,2858,1904,1401
6491,2859,1904,1401
6489,2858,1903,1401
6487,2857,1903,1400
6487,2857,1903,1400
6488,2857,1903,1400
6488,2856,1903,1400
6486,2855,1903,1400
6485,2855,1903,1400
6486,2855,1903,1400
6486,2855,1903,1399
6484,2854,1903,1400
6486,2854,1904,1400
6485,2854,1904,1399
6483,2852,1903,1399
6483,2852,1903,1399
6484,2852,1904,1399
6480,2850,1903,1398
6479,2849,1903,1397
6480,2850,1904,1398
6479,2849,1903,1397
6474,2847,1902,1396
6477,2848,1903,1397
6476,2847,1903,1396
6472,2844,1903,1395
6472,2844,1903,1395
6472,2844,1903,1395
6464,2841,1900,1393
6456,2838,1897,1392
6451,2837,1895,1391
6440,2833,1891,1390
6428,2829,1887,1387
6424,2828,1885,1387
6416,2825,1882,1385
6404,2821,1878,1383
6400,2820,1876,1382
6399,2820,1876,1382
6392,2816,1873,1381
6388,2815,1872,1380
6390,2815,1872,1380
6384,2813,1871,1379
6377,2810,1869,1378
6379,2811,1869,1378
6379,2811,1870,1378
6373,2808,1868,1377
6374,2808,1868,1377
6376,2808,1869,1377
6372,2806,1868,1376
6369,2804,1868,1376
6374,2806,1870,1377
6371,2804,1869,1376
6366,2802,1868,1375
6370,2803,1869,1375
6372,2803,1870,1376
6367,2800,1869,1375
6367,2800,1869,1375
6371,2801,1871,1376
6368,2799,1870,1375
6367,2798,1870,1375
6372,2800,1872,1376
6371,2799,1872,1375
6366,2796,1871,1374
6367,2796,1871,1375
6368,2796,1872,1375
6358,2792,1868,1373
6350,2790,1865,1371
6345,2788,1863,1371
6334,2785,1859,1369
6325,2781,1856,1367
6322,2780,1854,1367
6317,2778,1852,1366
6311,2775,1850,1366
6308,2774,1849,1365
6307,2774,1848,1365
6302,2771,1847,1364
6299,2770,1846,1364
6298,2770,1846,1364
6293,2768,1844,1362
6288,2766,1843,1361
6286,2765,1842,1361
6282,2764,1841,1360
6278,2762,1840,1359
6276,2761,1839,1358
6275,2760,1839,1358
6271,2759,1838,1357
6270,2758,1838,1356
6269,2757,1838,1356
6266,2756,1837,1355
6264,2755,1837,1355
6265,2755,1837,1355
6266,2755,1838,1355
6268,2756,1838,1355
6268,2756,1839,1355
6269,2756,1839,1355
6271,2757,1840,1355
6276,2759,1842,1356
6280,2761,1843,1357
6284,2763,1844,1357
6287,2764,1845,1358
6289,2765,1845,1358
6288,2766,1845,1358
6286,2766,1843,1358
6280,2765,1841,1357
6278,2765,1839,1357
6277,2766,1838,1357
6273,2765,1836,1356
6270,2765,1834,1356
6271,2766,1834,1356
6271,2767,1834,1356
6271,2767,1834,1356
6270,2768,1835,1356
6273,2768,1836,1357
6277,2770,1835,1357
6276,2770,1835,1357
6279,2771,1836,1359
6285,2774,1838,1359
6289,2775,1840,1359
6289,2775,1840,1359
6296,2777,1842,1361
6304,2781,1844,1362
6304,2781,1845,1362
6307,2782,1846,1363
6316,2785,1849,1364
6322,2787,1851,1366
6322,2787,1851,1366
6328,2789,1853,1367
6337,2793,1856,1369
6339,2793,1857,1369
6341,2794,1858,1369
6350,2798,1860,1371
6355,2800,1862,1372
6355,2799,1862,1372
6361,2802,1865,1373
6370,2805,1867,1375
6371,2805,1868,1375
6374,2806,1869,1375
6383,2810,1872,1377
6384,2811,1872,1378
6377,2809,1869,1376
6375,2809,1868,1376
6375,2810,1867,1376
6367,2808,1863,1375
6361,2806,1861,1374
6362,2808,1860,1375
6361,2808,1859,1375
6356,2807,1858,1374
6360,2809,1858,1374
6365,2811,1860,1376
6363,2811,1860,1375
6364,2811,1859,1375
6371,2814,1862,1377
6374,2815,1863,1377
6374,2815,1863,1377
6380,2817,1865,1379
6386,2820,1867,1380
6390,2821,1868,1381
6394,2822,1869,1381
6403,2826,1872,1383
6406,2827,1874,1384
6407,2827,1874,1384
6414,2830,1877,1386
6420,2832,1878,1387
6422,2833,1879,1387
6424,2834,1880,1387
6429,2836,1882,1388
6433,2837,1883,1389
6437,2838,1884,1389
6443,2841,1886,1391
6447,2843,1888,1391
6448,2843,1888,1391
6453,2844,1890,1392
6459,2846,1892,1393
6461,2847,1893,1394
6460,2847,1893,1394
6459,2847,1892,1394
6455,2846,1890,1393
6448,2844,1887,1392
6443,2843,1885,1391
6438,2842,1883,1390
6433,2841,1880,1389
6428,2840,1878,1388
6427,2840,1877,1388
6425,2840,1877,1388
6425,2840,1876,1388
6426,2840,1877,1388
6427,2841,1877,1388
6427,2841,1877,1388
6428,2841,1878,1389
6431,2842,1878,1389
6433,2843,1879,1389
6435,2844,1880,1390
6438,2844,1881,1390
6440,2845,1882,1391
6444,2846,1883,1392
6447,2847,1884,1392
6449,2848,1885,1393
6451,2848,1886,1393
6454,2849,1888,1394
6456,2849,1888,1394
6459,2850,1890,1395
6461,2850,1891,1395
6464,2851,1892,1396
6466,2851,1893,1396
6469,2852,1894,1397
6472,2853,1895,1397
6474,2853,1896,1397
6474,2853,1896,1397
6475,2854,1897,1397
6476,2854,1897,1398
6476,2853,1897,1397
6471,2852,1895,1397
6471,2850,1893,1396
6465,2848,1890,1394
6459,2848,1888,1394
6454,2847,1886,1393
6447,2845,1886,1392
6444,2844,1884,1391
6440,2842,1883,1391
6437,2842,1882,1391
6437,2841,1882,1391
6436,2841,1882,1391
6435,2840,1881,1390
6435,2840,1882,1391
6436,2840,1882,1391
6435,2840,1882,1390
6436,2839,1882,1390
6438,2840,1883,1391
6439,2840,1884,1391
6440,2840,1884,1391
6442,2841,1885,1392
6444,2841,1886,1392
6443,2840,1886,1391
6444,2840,1887,1392
6447,2841,1888,1392
6446,2840,1888,1392
6446,2839,1888,1392
6449,2840,1889,1392
6449,2840,1890,1392
6449,2839,1890,1392
6451,2840,1891,1392
6452,2840,1892,1393
6450,2839,1891,1392
6453,2839,1892,1393
6454,2839,1893,1393
6454,2839,1894,1393
6454,2838,1894,1393
6456,2839,1895,1393
6451,2837,1893,1392
6446,2835,1891,1391
6441,2834,1889,1390
6434,2832,1886,1389
6425,2829,1883,1387
6422,2828,1882,1387
6417,2826,1880,1386
6410,2824,1877,1385
6406,2822,1876,1384
6406,2822,1876,1384
6402,2821,1874,1383
6399,2819,1874,1383
6400,2820,1874,1383
6398,2819,1874,1383
6395,2817,1873,1382
6396,2818,1873,1382
6397,2818,1874,1382
6394,2816,1873,1382
6396,2816,1874,1382
6398,2817,1875,1382
6396,2816,1874,1382
6394,2815,1874,1381
6398,2816,1875,1382
6397,2815,1875,1382
6396,2815,1875,1382
6397,2815,1876,1382
6400,2815,1877,1382
6398,2814,1877,1382
6399,2814,1877,1382
6401,2814,1878,1382
6400,2814,1878,1382
6399,2813,1878,1382
6401,2813,1879,1382
6401,2813,1879,1382
6400,2812,1879,1381
6400,2812,1880,1381
6402,2813,1880,1381
6396,2811,1879,1380
6392,2809,1877,1379
6387,2808,1875,1378
6379,2805,1872,1377
6373,2803,1870,1376
6368,2802,1868,1375
6364,2801,1866,1374
6356,2798,1863,1373
6352,2797,1862,1372
6350,2796,1861,1371
6346,2795,1860,1371
6345,2794,1860,1370
6344,2794,1859,1370
6342,2793,1859,1370
6340,2792,1859,1369
6340,2792,1858,1369
6340,2791,1859,1369
6340,2791,1859,1369
6341,2791,1859,1369
6340,2790,1859,1369
6339,2790,1859,1369
6340,2790,1860,1369
6341,2790,1860,1369
6344,2791,1861,1370
6344,2791,1862,1370
6348,2792,1863,1371
6350,2793,1864,1371
6354,2794,1865,1372
6357,2795,1866,1372
6357,2796,1868,1373
6360,2797,1869,1373
6363,2797,1870,1374
6366,2798,1871,1375
6370,2799,1873,1376
6374,2800,1873,1376
6376,2801,1874,1377
6380,2802,1875,1377
6382,2803,1876,1377
6382,2803,1876,1377
6381,2803,1875,1377
6381,2803,1875,1377
6379,2803,1874,1377
6377,2802,1873,1377
6376,2802,1872,1377
6376,2802,1872,1377
6376,2802,1871,1378
6374,2802,1870,1377
6376,2803,1871,1378
6379,2804,1872,1378
6379,2804,1872,1378
6382,2805,1873,1379
6384,2806,1874,1379
6385,2806,1874,1380
6387,2807,1875,1380
6392,2809,1876,1381
6394,2810,1877,1381
6395,2810,1877,1381
6400,2811,1879,1383
6407,2814,1882,1384
6409,2814,1882,1384
6412,2815,1884,1385
6417,2817,1885,1386
6419,2817,1886,1386
6419,2818,1887,1386
6423,2819,1888,1387
6427,2821,1889,1387
6429,2821,1890,1388
6433,2823,1892,1388
6440,2825,1894,1390
6442,2825,1895,1390
6443,2826,1895,1390
6448,2828,1897,1391
6453,2830,1899,1392
6454,2830,1900,1392
6457,2830,1901,1393
6462,2832,1902,1394
6461,2832,1902,1394
6456,2831,1900,1393
6454,2831,1899,1393
6453,2831,1898,1393
6449,2829,1896,1393
6445,2829,1894,1392
6446,2829,1894,1393
6445,2829,1893,1392
6443,2828,1893,1392
6444,2829,1893,1392
6445,2830,1893,1393
6444,2830,1893,1393
6446,2830,1893,1393
6450,2832,1895,1394
6452,2833,1895,1394
6453,2833,1896,1394
6457,2834,1897,1395
6462,2836,1899,1396
6463,2836,1899,1397
6467,2837,1901,1397
6471,2839,1902,1398
6474,2840,1903,1399
6476,2840,1904,1399
6481,2842,1906,1400
6484,2843,1907,1401
6486,2843,1907,1401
6488,2844,1908,1401
6492,2845,1910,1402
6494,2846,1910,1402
6496,2847,1911,1403
6498,2848,1912,1403
6500,2848,1913,1403
6501,2849,1914,1403
6504,2849,1915,1404
6507,2851,1916,1404
6509,2851,1916,1405
6510,2851,1917,1405
6510,2852,1917,1404
6506,2851,1916,1404
6502,2850,1914,1403
6497,2848,1912,1402
6493,2847,1910,1402
6488,2846,1908,1401
6484,2845,1906,1400
6480,2844,1904,1400
6477,2844,1903,1399
6477,2844,1903,1399
6478,2844,1903,1399
6478,2845,1903,1400
6478,2845,1903,1400
6479,2845,1903,1400
6480,2845,1903,1400
6479,2845,1903,1400
6480,2845,1903,1400
6480,2845,1903,1400
6480,2845,1904,1400
6480,2845,1903,1400
6480,2845,1904,1400
6480,2845,1904,1400
6481,2845,1905,1400
6482,2845,1905,1400
6482,2845,1905,1400
6483,2845,1905,1400
6484,2845,1906,1400
6486,2845,1907,1401
6486,2845,1907,1401
6488,2846,1908,1401
6488,2846,1908,1401
6490,2846,1909,1401
6492,2846,1910,1402
6493,2847,1910,1402
6494,2847,1911,1402
6495,2847,1911,1402
6497,2847,1912,1402
6498,2848,1913,1403
6498,2847,1913,1403
6495,2846,1911,1402
6489,2844,1909,1401
6484,2843,1907,1400
6478,2841,1905,1400
6474,2840,1903,1399
6469,2839,1901,1398
6466,2838,1899,1397
6463,2837,1898,1397
6460,2836,1897,1396
6460,2836,1897,1397
6460,2836,1897,1396
6457,2835,1896,1396
6457,2835,1896,1396
6457,2835,1896,1396
6456,2834,1896,1396
6457,2834,1896,1396
6458,2834,1897,1396
6458,2834,1897,1396
6457,2834,1897,1396
6460,2834,1898,1396
6461,2834,1898,1396
6461,2834,1899,1396
6462,2834,1899,1396
6464,2835,1900,1397
6465,2835,1900,1397
6465,2835,1901,1397
6467,2835,1902,1397
6468,2835,1902,1397
6468,2835,1903,1397
6472,2836,1904,1398
6473,2836,1904,1398
6473,2836,1905,1398
6474,2836,1905,1398
6476,2837,1906,1398
6476,2836,1906,1398
6476,2836,1907,1398
6478,2837,1907,1398
6477,2836,1907,1398
6471,2834,1905,1397
6466,2833,1903,1396
6460,2831,1900,1395
6453,2829,1898,1394
6447,2827,1895,1393
6443,2826,1893,1392
6435,2824,1891,1391
6430,2822,1889,1390
6429,2822,1888,1390
6427,2821,1887,1390
6424,2820,1886,1389
6424,2820,1886,1389
6423,2820,1886,1389
6422,2819,1885,1389
6422,2819,1886,1389
6423,2819,1886,1389
6422,2818,1886,1388
6422,2818,1886,1388
6424,2819,1887,1389
6423,2818,1887,1388
6423,2818,1887,1388
6424,2818,1887,1389
6425,2818,1888,1389
6424,2818,1888,1388
6425,2818,1888,1388
6427,2819,1889,1389
6426,2818,1889,1388
6427,2818,1889,1388
6428,2818,1890,1388
6429,2818,1890,1388
6428,2818,1890,1388
6429,2818,1891,1388
6429,2818,1891,1388
6429,2818,1891,1388
6430,2818,1892,1388
6433,2819,1893,1388
6433,2819,1893,1388
6433,2819,1893,1388
6433,2819,1893,1388
6427,2817,1891,1387
6419,2815,1888,1386
6412,2813,1885,1385
6405,2811,1882,1384
6405,2809,1880,1382
6399,2807,1877,1381
6392,2807,1875,1380
6387,2805,1873,1379
6382,2804,1872,1379
6380,2803,1872,1379
6379,2803,1872,1379
6378,2802,1871,1379
6377,2802,1871,1379
6376,2801,1871,1378
6377,2802,1871,1379
6379,2803,1872,1379
6381,2803,1873,1380
6384,2804,1873,1380
6387,2805,1874,1381
6390,2806,1875,1381
6392,2807,1876,1382
6396,2808,1878,1382
6398,2808,1878,1383
6402,2810,1880,1384
6405,2811,1881,1384
6407,2812,1882,1385
6409,2812,1883,1385
6413,2813,1884,1386
6417,2814,1885,1386
6420,2815,1886,1387
6422,2816,1887,1387
6426,2818,1889,1388
6428,2818,1890,1388
6430,2819,1891,1389
6434,2820,1892,1390
6439,2822,1894,1390
6440,2822,1895,1391
6442,2823,1895,1391
6442,2823,1895,1391
6437,2822,1893,1390
6431,2820,1890,1389
6428,2819,1889,1389
6424,2819,1887,1389
6419,2817,1885,1388
6416,2816,1883,1387
6414,2816,1882,1387
6413,2816,1882,1387
6412,2816,1881,1387
6413,2816,1882,1387
6415,2817,1882,1387
6414,2817,1882,1387
6415,2817,1882,1387
6418,2818,1883,1388
6419,2819,1883,1388
6419,2819,1884,1388
6424,2820,1885,1389
6427,2821,1886,1389
6427,2821,1886,1390
6430,2822,1887,1390
6433,2823,1888,1391
6436,2824,1889,1391
6437,2825,1890,1391
6442,2826,1892,1392
6446,2827,1893,1393
6447,2828,1894,1393
6450,2829,1895,1394
6454,2830,1897,1395
6457,2831,1898,1395
6459,2831,1898,1395
6463,2833,1900,1396
6466,2834,1901,1397
6468,2834,1902,1397
6471,2835,1903,1397
6475,2837,1904,1398
6477,2837,1905,1399
6477,2837,1906,1399
6479,2838,1906,1399
6475,2837,1904,1398
6469,2835,1902,1397
6463,2834,1899,1397
6459,2833,1897,1396
6454,2832,1895,1395
6450,2831,1893,1395
6448,2830,1892,1394
6446,2830,1891,1394
6443,2830,1890,1393
6444,2830,1890,1394
6444,2830,1890,1394
6444,2830,1890,1394
6443,2830,1890,1393
6444,2831,1890,1393
6444,2830,1890,1393
6443,2830,1890,1393
6444,2831,1890,1393
6446,2831,1891,1393
6446,2831,1891,1393
6448,2832,1892,1394
6450,2833,1892,1394
6452,2834,1893,1394
6453,2834,1894,1394
6457,2835,1895,1395
6459,2836,1896,1395
6461,2836,1897,1396
6463,2837,1898,1396
6466,2838,1899,1397
6467,2838,1899,1397
6467,2840,1901,1397
6471,2839,1901,1397
6471,2839,1902,1398
6473,2840,1902,1398
6474,2840,1902,1398
6476,2841,1903,1398
6478,2841,1904,1398
6479,2842,1904,1398
6480,2842,1905,1398
6481,2842,1905,1399
6478,2841,1904,1398
6473,2840,1902,1398
6466,2838,1899,1397
6459,2836,1896,1396
6454,2835,1894,1395
6451,2834,1893,1394
6448,2832,1891,1394
6444,2831,1890,1393
6441,2831,1889,1393
6441,2831,1888,1393
6440,2830,1888,1393
6440,2830,1888,1393
6439,2830,1888,1393
6439,2830,1888,1393
6439,2830,1888,1393
6440,2830,1888,1393
6441,2830,1889,1393
6443,2830,1889,1393
6444,2831,1890,1393
6445,2831,1890,1394
6446,2831,1891,1394
6448,2832,1892,1394
6450,2832,1893,1395
6453,2833,1894,1395
6454,2833,1894,1395
6456,2834,1895,1396
6458,2834,1896,1396
6460,2835,1897,1396
6462,2835,1897,1396
6464,2836,1898,1397
6465,2836,1899,1397
6466,2836,1900,1397
6468,2836,1901,1398
6471,2837,1902,1398
6472,2837,1902,1398
6473,2837,1903,1398
6473,2837,1903,1398
6474,2838,1903,1398
6472,2837,1903,1398
6468,2836,1901,1397
6461,2834,1898,1396
6453,2831,1895,1395
6447,2829,1892,1394
6441,2828,1890,1393
6435,2826,1887,1392
6429,2824,1885,1391
6425,2823,1883,1390
6423,2823,1883,1390
6421,2822,1882,1390
6422,2822,1882,1390
6420,2822,1881,1389
6417,2821,1880,1389
6415,2820,1880,1388
6416,2820,1880,1388
6416,2820,1880,1388
6416,2820,1880,1388
6419,2821,1881,1389
6420,2821,1882,1389
6421,2821,1882,1389
6422,2821,1883,1389
6424,2822,1884,1390
6424,2822,1884,1390
6424,2822,1884,1390
6426,2822,1885,1390
6427,2822,1885,1390
6427,2822,1886,1390
6430,2823,1887,1390
6431,2823,1887,1390
6433,2823,1888,1391
6435,2824,1889,1391
6438,2824,1890,1392
6438,2824,1891,1392
6438,2824,1891,1391
6440,2825,1892,1392
6441,2825,1892,1392
6441,2825,1892,1392
6442,2825,1893,1392
6438,2824,1892,1391
6431,2822,1889,1390
6421,2819,1885,1388
6413,2818,1881,1386
6405,2815,1878,1385
6398,2813,1875,1384
6393,2812,1873,1383
6388,2811,1871,1382
6386,2810,1870,1382
6387,2810,1870,1382
6386,2810,1870,1382
6385,2809,1870,1382
6384,2809,1869,1382
6384,2809,1869,1382
6384,2808,1869,1381
6382,2808,1868,1381
6381,2808,1869,1381
6382,2808,1869,1381
6381,2808,1869,1381
6380,2807,1869,1380
6380,2807,1869,1380
6379,2807,1869,1380
6379,2807,1869,1380
6379,2807,1869,1380
6381,2807,1869,1380
6381,2807,1870,1380
6382,2807,1870,1380
6382,2807,1871,1380
6384,2807,1871,1380
6386,2808,1872,1381
6389,2808,1873,1381
6390,2808,1874,1381
6392,2809,1875,1382
6393,2809,1875,1382
6395,2810,1876,1382
6397,2810,1877,1383
6399,2811,1878,1383
6401,2811,1879,1383
6402,2812,1879,1383
6399,2811,1878,1383
6393,2810,1875,1382
6388,2808,1873,1381
6382,2807,1870,1380
6377,2805,1868,1380
6373,2804,1866,1379
6369,2803,1865,1378
6367,2803,1864,1378
6366,2803,1863,1378
6367,2803,1863,1378
6367,2803,1863,1378
6366,2803,1863,1378
6367,2803,1863,1378
6368,2804,1864,1379
6370,2804,1864,1379
6373,2805,1865,1380
6375,2806,1866,1380
6376,2806,1867,1380
6378,2807,1867,1380
6382,2808,1869,1381
6384,2809,1870,1382
6386,2809,1870,1382
6389,2810,1871,1382
6392,2811,1873,1383
6394,2812,1873,1383
6397,2812,1875,1384
6400,2814,1876,1384
6403,2814,1877,1385
6404,2814,1877,1385
6409,2816,1879,1386
6413,2818,1881,1387
6415,2818,1882,1387
6417,2819,1883,1387
6421,2820,1884,1388
6423,2821,1885,1389
6425,2821,1886,1389
6428,2822,1887,1389
6431,2823,1888,1390
6430,2822,1888,1390
6425,2821,1885,1389
6419,2820,1883,1388
6412,2818,1880,1387
6405,2816,1877,1386
6400,2815,1875,1385
6395,2814,1873,1384
6389,2812,1870,1383
6386,2811,1869,1383
6385,2811,1868,1383
6386,2812,1868,1383
6385,2811,1868,1383
6385,2812,1868,1383
6386,2812,1868,1383
6386,2812,1868,1383
6387,2812,1868,1383
6389,2813,1869,1384
6391,2813,1870,1384
6392,2814,1871,1384
6395,2815,1871,1385
6398,2816,1872,1385
6399,2816,1873,1385
6401,2817,1874,1386
6405,2818,1875,1386
6407,2818,1876,1387
6410,2819,1877,1387
6412,2820,1878,1388
6414,2820,1879,1388
6416,2821,1880,1388
6419,2822,1881,1389
6422,2823,1882,1389
6425,2824,1883,1390
6426,2825,1884,1390
6429,2825,1885,1390
6432,2827,1886,1391
6434,2827,1887,1391
6436,2828,1888,1391
6438,2828,1889,1392
6438,2828,1889,1391
6438,2827,1887,1391
6433,2825,1884,1390
6427,2825,1879,1387
6413,2821,1878,1387
6411,2821,1878,1385
6401,2818,1874,1385
6398,2818,1872,1385
6389,2815,1869,1383
6386,2814,1867,1383
6385,2814,1867,1382
6384,2814,1866,1382
6383,2814,1866,1382
6380,2813,1865,1382
6381,2813,1865,1382
6380,2813,1865,1382
6380,2813,1865,1382
6380,2813,1865,1381
6381,2813,1865,1382
6382,2814,1866,1382
6383,2814,1866,1382
6384,2815,1867,1382
6386,2815,1867,1382
6388,2815,1868,1383
6389,2816,1869,1383
6391,2816,1870,1383
6392,2816,1870,1383
6395,2817,1871,1384
6397,2817,1872,1384
6399,2818,1873,1384
6401,2819,1874,1385
6404,2819,1875,1385
6405,2819,1876,1386
6407,2819,1876,1386
6407,2819,1877,1386
6409,2820,1877,1386
6408,2819,1877,1386
6409,2819,1878,1386
6410,2819,1879,1386
6408,2818,1878,1386
6401,2816,1875,1385
6392,2814,1872,1383
6385,2812,1868,1382
6376,2809,1865,1380
6370,2807,1862,1379
6364,2806,1860,1378
6358,2804,1858,1377
6355,2803,1857,1377
6354,2802,1856,1377
6352,2802,1856,1376
6350,2801,1855,1376
6349,2800,1855,1376
6349,2800,1855,1376
6347,2799,1854,1375
6348,2799,1854,1375
6350,2800,1855,1376
6348,2799,1855,1375
6348,2798,1855,1375
6348,2798,1855,1375
6349,2798,1856,1375
6345,2797,1855,1374
6346,2796,1855,1374
6349,2797,1857,1375
6346,2796,1856,1374
6346,2795,1856,1374
6347,2795,1857,1374
6349,2795,1858,1374
6345,2794,1857,1373
6347,2794,1858,1374
6347,2794,1858,1374
6345,2792,1858,1373
6346,2792,1858,1373
6347,2793,1859,1373
6344,2791,1858,1373
6342,2790,1858,1372
6346,2791,1860,1373
6346,2791,1860,1373
6340,2788,1858,1371
6337,2787,1857,1371
6330,2785,1854,1370
6317,2781,1849,1367
6306,2777,1845,1365
6300,2776,1842,1364
6289,2772,1838,1362
6278,2769,1834,1360
6274,2768,1832,1360
6269,2766,1830,1359
6261,2763,1828,1357
6261,2763,1828,1357
6260,2763,1827,1357
6254,2760,1825,1355
6249,2758,1824,1355
6252,2759,1825,1355
6251,2758,1825,1355
6246,2756,1824,1354
6247,2757,1824,1354
6249,2757,1825,1354
6245,2755,1824,1353
6244,2755,1824,1353
6247,2756,1825,1353
6245,2755,1824,1353
6241,2753,1824,1352
6241,2753,1825,1352
6244,2753,1825,1352
6243,2753,1824,1351
6238,2750,1824,1350
6238,2750,1824,1351
6239,2750,1824,1350
6237,2749,1824,1350
6235,2748,1824,1349
6236,2748,1824,1349
6236,2748,1824,1349
6232,2746,1824,1348
6232,2746,1824,1348
6234,2746,1825,1349
6231,2745,1824,1348
6229,2743,1824,1347
6228,2743,1823,1347
6219,2740,1820,1346
6206,2736,1815,1343
6195,2733,1811,1341
6185,2730,1807,1340
6174,2726,1802,1337
6166,2724,1799,1336
6159,2722,1797,1335
6152,2719,1794,1333
6146,2717,1792,1332
6144,2716,1791,1332
6142,2715,1791,1332
6139,2714,1790,1331
6136,2713,1789,1330
6134,2712,1788,1330
6132,2711,1788,1330
6134,2711,1789,1330
6136,2712,1789,1330
6137,2712,1790,1330
6139,2713,1791,1331
6141,2713,1791,1331
6146,2715,1793,1332
6151,2717,1795,1333
6156,2719,1797,1334
6161,2720,1798,1335
6166,2722,1800,1336
6169,2723,1801,1337
6175,2725,1803,1338
6180,2727,1805,1339
6185,2729,1807,1340
6189,2730,1808,1341
6195,2732,1810,1342
6201,2735,1813,1343
6204,2735,1814,1343
6209,2737,1815,1344
6216,2740,1818,1346
6221,2741,1820,1347
6222,2742,1820,1347
6224,2742,1821,1347
6223,2743,1820,1348
6215,2741,1816,1346
6208,2740,1813,1345
6205,2740,1811,1345
6202,2739,1809,1345
6198,2738,1808,1344
6197,2738,1807,1344
6199,2740,1807,1345
6197,2739,1806,1344
6198,2740,1807,1345
6204,2742,1808,1346
6205,2743,1809,1346
6204,2742,1808,1346
6209,2744,1810,1347
6217,2748,1812,1349
6218,2748,1813,1349
6220,2748,1814,1349
6227,2751,1816,1351
6233,2753,1818,1352
6233,2753,1818,1352
6239,2755,1820,1353
6247,2758,1823,1355
6250,2759,1824,1355
6251,2759,1825,1355
6260,2763,1828,1357
6265,2764,1829,1358
6266,2765,1830,1358
6272,2767,1832,1359
6281,2770,1835,1361
6281,2770,1835,1361
6286,2771,1837,1362
6291,2774,1839,1363
6298,2776,1841,1364
6297,2776,1841,1364
6302,2778,1843,1365
6311,2781,1846,1367
6313,2781,1846,1367
6313,2781,1847,1367
6316,2783,1847,1368
6313,2783,1845,1368
6304,2780,1841,1366
6298,2779,1839,1365
6296,2780,1837,1365
6291,2778,1835,1364
6286,2777,1832,1364
6285,2778,1832,1364
6285,2778,1831,1364
6284,2777,1830,1363
6282,2777,1831,1364
6286,2779,1832,1364
6289,2780,1832,1364
6288,2780,1832,1364
6287,2780,1831,1364
6294,2783,1833,1365
6297,2784,1835,1366
6298,2784,1835,1366
6301,2786,1836,1367
6305,2787,1838,1367
6307,2788,1839,1368
6311,2789,1840,1368
6314,2790,1841,1369
6317,2791,1842,1369
6317,2791,1842,1369
6322,2793,1844,1370
6326,2794,1845,1371
6328,2794,1846,1371
6330,2795,1847,1371
6335,2797,1849,1372
6338,2798,1850,1373
6339,2798,1851,1373
6343,2799,1852,1374
6346,2800,1853,1374
6348,2801,1854,1375
6351,2802,1855,1375
6354,2803,1857,1376
6356,2803,1857,1376
6358,2804,1858,1376
6359,2804,1859,1377
6354,2803,1857,1376
6346,2801,1853,1375
6338,2799,1850,1374
6331,2797,1846,1372
6325,2796,1844,1372
6319,2794,1841,1371
6314,2792,1839,1370
6311,2792,1838,1369
6310,2791,1837,1369
6311,2792,1838,1370
6310,2791,1837,1370
6310,2791,1838,1370
6311,2792,1838,1370
6312,2792,1838,1370
6313,2792,1839,1370
6313,2792,1839,1370
6314,2792,1839,1370
6316,2792,1840,1370
6317,2792,1841,1371
6319,2792,1842,1371
6320,2793,1842,1371
6319,2792,1842,1370
6319,2792,1842,1370
6323,2793,1844,1371
6325,2793,1845,1371
6327,2794,1846,1372
6331,2794,1847,1372
6333,2795,1849,1373
6336,2795,1850,1373
6338,2796,1851,1374
6340,2796,1851,1374
6340,2796,1852,1374
6342,2796,1853,1375
6345,2797,1854,1375
6347,2797,1855,1375
6346,2796,1855,1375
6347,2796,1856,1375
6348,2797,1856,1375
6345,2795,1855,1375
6335,2792,1851,1373
6324,2789,1847,1371
6312,2786,1842,1369
6299,2782,1837,1366
6290,2779,1834,1365
6283,2777,1831,1364
6274,2774,1827,1362
6268,2772,1825,1361
6267,2772,1825,1361
6265,2771,1824,1360
6261,2769,1823,1359
6261,2769,1823,1360
6260,2769,1823,1359
6257,2767,1822,1359
6257,2767,1822,1358
6258,2767,1823,1359
6255,2765,1822,1358
6254,2765,1822,1357
6257,2766,1823,1358
6256,2765,1823,1358
6253,2763,1822,1357
6256,2764,1823,1357
6257,2765,1824,1357
6254,2763,1823,1357
6254,2763,1823,1356
6257,2764,1825,1357
6255,2763,1824,1356
6253,2762,1824,1356
6256,2762,1825,1356
6256,2762,1826,1356
6256,2760,1824,1355
6252,2760,1825,1355
6252,2760,1825,1355
6253,2761,1825,1354
6250,2759,1825,1354
6248,2757,1824,1354
6251,2759,1826,1354
6250,2758,1825,1354
6247,2756,1825,1353
6243,2755,1823,1352
6235,2753,1820,1351
6219,2747,1814,1348
6207,2744,1809,1346
6200,2742,1806,1345
6190,2739,1802,1343
6179,2735,1798,1341
6174,2734,1796,1340
6170,2732,1794,1339
6164,2730,1793,1338
6163,2730,1792,1338
6163,2730,1792,1338
6158,2728,1791,1337
6157,2727,1790,1337
6157,2727,1791,1337
6156,2726,1791,1336
6153,2724,1790,1336
6154,2725,1790,1336
6155,2725,1791,1336
6154,2724,1791,1336
6154,2723,1791,1335
6156,2724,1792,1336
6155,2723,1792,1336
6154,2723,1792,1335
6156,2723,1793,1336
6157,2723,1794,1336
6157,2722,1794,1336
6158,2722,1794,1336
6160,2723,1795,1336
6160,2722,1796,1336
6160,2721,1796,1336
6161,2722,1797,1336
6161,2721,1797,1336
6161,2721,1797,1336
6162,2720,1798,1336
6163,2720,1798,1336
6163,2720,1799,1336
6164,2721,1799,1336
6160,2719,1798,1336
6152,2718,1794,1334
6143,2715,1790,1333
6134,2713,1787,1331
6129,2712,1784,1330
6123,2711,1782,1329
6120,2710,1780,1329
6118,2710,1778,1329
6117,2710,1778,1329
6117,2711,1778,1329
6119,2712,1778,1329
6122,2713,1779,1330
6122,2713,1779,1330
6125,2714,1780,1330
6130,2716,1782,1331
6134,2718,1783,1332
6137,2719,1784,1333
6141,2720,1786,1333
6147,2722,1788,1335
6150,2723,1789,1335
6153,2724,1790,1336
6159,2727,1792,1337
6163,2728,1794,1338
6167,2729,1795,1338
6173,2731,1797,1339
6179,2733,1799,1341
6181,2734,1800,1341
6184,2735,1801,1342
6191,2738,1803,1343
6195,2739,1805,1344
6197,2739,1806,1344
6203,2741,1808,1345
6209,2744,1810,1346
6210,2744,1810,1346
6213,2745,1812,1347
6220,2747,1814,1348
6224,2749,1816,1349
6224,2749,1816,1349
6226,2750,1816,1350
6225,2750,1815,1350
6214,2747,1811,1348
6203,2744,1806,1346
6200,2745,1804,1346
6195,2744,1801,1345
6187,2741,1798,1344
6183,2741,1796,1343
6184,2742,1796,1343
6182,2742,1795,1343
6182,2742,1795,1343
6187,2744,1796,1344
6189,2745,1797,1345
6188,2745,1797,1344
6191,2746,1798,1345
6191,2748,1799,1346
6196,2748,1799,1345
6195,2748,1800,1345
6196,2748,1802,1347
6202,2751,1802,1347
6207,2752,1803,1347
6206,2752,1803,1347
6210,2753,1805,1348
6217,2756,1807,1349
6219,2756,1808,1350
6221,2757,1809,1350
6227,2759,1811,1351
6231,2761,1812,1352
6232,2761,1813,1352
6238,2763,1815,1353
6244,2765,1817,1354
6247,2766,1818,1355
6248,2766,1819,1355
6254,2769,1821,1356
6258,2770,1822,1357
6260,2771,1823,1357
6264,2772,1825,1358
6269,2774,1826,1359
6271,2775,1827,1359
6274,2775,1828,1360
6273,2776,1827,1360
6265,2774,1824,1359
6253,2770,1819,1357
6244,2768,1815,1355
6238,2767,1812,1354
6231,2765,1809,1353
6225,2764,1807,1352
6221,2763,1805,1352
6219,2763,1804,1351
6220,2763,1804,1351
6221,2763,1804,1352
6223,2764,1805,1352
6224,2764,1805,1352
6225,2764,1806,1353
6227,2765,1806,1353
6230,2766,1807,1354
6232,2767,1809,1354
6236,2768,1810,1355
6240,2769,1811,1355
6243,2770,1813,1356
6247,2771,1814,1357
6251,2772,1816,1358
6254,2773,1817,1358
6258,2775,1819,1359
6262,2776,1820,1360
6265,2776,1821,1360
6268,2777,1822,1361
6271,2778,1824,1361
6274,2779,1825,1362
6277,2779,1826,1362
6279,2780,1827,1363
6281,2780,1828,1363
6284,2781,1829,1364
6287,2782,1830,1364
6289,2782,1832,1364
6292,2783,1833,1365
6293,2783,1833,1365
6294,2783,1834,1365
6291,2782,1833,1365
6281,2780,1829,1363
6270,2776,1824,1361
6259,2774,1820,1359
6250,2771,1816,1358
6242,2769,1812,1356
6234,2767,1809,1355
6227,2765,1807,1354
6224,2764,1805,1353
6222,2763,1804,1353
6223,2763,1805,1353
6223,2763,1805,1353
6222,2763,1805,1352
6222,2763,1805,1352
6223,2763,1805,1353
6224,2763,1806,1353
6225,2763,1806,1353
6227,2763,1807,1353
6229,2764,1808,1353
6231,2764,1809,1354
6233,2764,1810,1354
6234,2765,1811,1354
6235,2765,1811,1354
6237,2765,1812,1354
6239,2765,1813,1355
6239,2765,1813,1355
6240,2765,1814,1355
6243,2765,1815,1355
6246,2766,1817,1356
6245,2765,1817,1356
6248,2766,1818,1356
6250,2767,1819,1356
6250,2766,1819,1356
6251,2766,1820,1356
6254,2767,1821,1357
6255,2767,1822,1357
6254,2766,1822,1356
6257,2767,1823,1357
6257,2766,1823,1356
6255,2763,1819,1354
6244,2763,1814,1352
6233,2760,1809,1350
6221,2757,1809,1348
6208,2753,1804,1346
6197,2749,1800,1346
6189,2748,1797,1344
6179,2744,1793,1342
6171,2742,1790,1341
6170,2742,1790,1341
6170,2742,1789,1340
6167,2740,1788,1340
6166,2740,1789,1339
6166,2740,1789,1339
6164,2738,1788,1339
6163,2738,1788,1339
6165,2739,1789,1339
6164,2738,1789,1339
6163,2737,1789,1338
6166,2738,1790,1339
6167,2738,1790,1339
6165,2737,1790,1338
6167,2737,1791,1339
6170,2738,1792,1339
6168,2737,1792,1339
6168,2736,1792,1339
6172,2737,1794,1339
6172,2737,1794,1340
6173,2737,1795,1339
6175,2737,1796,1340
6177,2738,1797,1340
6175,2736,1797,1340
6177,2737,1797,1340
6180,2738,1799,1341
6180,2737,1799,1340
6180,2737,1799,1340
6183,2737,1800,1341
6182,2736,1800,1341
6175,2734,1798,1339
6166,2732,1794,1338
6156,2729,1790,1336
6145,2726,1786,1334
6138,2723,1783,1333
6132,2722,1780,1332
6125,2720,1778,1331
6120,2718,1776,1330
6119,2718,1775,1330
6120,2718,1776,1330
6119,2717,1776,1330
6118,2716,1776,1329
6118,2716,1776,1329
6118,2716,1776,1329
6119,2716,1776,1329
6121,2716,1777,1330
6121,2716,1778,1330
6122,2716,1778,1330
6124,2716,1779,1330
6126,2716,1780,1330
6127,2716,1781,1330
6129,2716,1782,1331
6131,2717,1783,1331
6135,2718,1784,1332
6137,2719,1786,1332
6140,2719,1787,1333
6144,2720,1788,1333
6148,2722,1790,1334
6153,2723,1792,1335
6159,2725,1794,1336
6163,2726,1795,1337
6167,2728,1797,1338
6171,2729,1798,1339
6175,2730,1800,1339
6179,2731,1801,1340
6183,2733,1803,1341
6188,2734,1805,1342
6189,2735,1805,1342
6189,2735,1805,1342
6185,2735,1803,1341
6178,2733,1800,1340
6168,2730,1796,1338
6161,2729,1793,1337
6157,2728,1791,1336
6150,2726,1788,1335
6145,2725,1786,1335
6144,2725,1785,1334
6145,2726,1785,1334
6145,2726,1785,1335
6147,2726,1786,1335
6150,2728,1787,1336
6151,2728,1787,1336
6152,2728,1787,1336
6156,2730,1789,1337
6161,2732,1791,1338
6163,2732,1792,1338
6166,2733,1793,1339
6172,2736,1795,1340
6174,2736,1796,1340
6176,2737,1796,1340
6181,2738,1798,1341
6181,2740,1800,1342
6185,2740,1801,1342
6187,2741,1802,1343
6190,2741,1804,1344
6195,2743,1805,1345
6199,2744,1805,1345
6200,2744,1806,1346
6206,2746,1808,1346
6211,2747,1810,1347
6214,2748,1811,1348
6216,2749,1812,1348
6223,2751,1814,1349
6226,2752,1815,1350
6228,2752,1816,1350
6232,2753,1818,1351
6235,2755,1818,1352
6230,2753,1817,1351
6223,2752,1814,1350
6218,2751,1811,1349
6213,2750,1809,1349
6206,2748,1806,1347
6204,2747,1805,1347
6202,2747,1804,1347
6199,2747,1802,1347
6199,2747,1802,1347
6204,2748,1804,1348
6206,2749,1804,1348
6206,2749,1805,1348
6210,2750,1806,1349
6214,2752,1807,1350
6217,2753,1808,1350
6220,2753,1809,1351
6225,2755,1811,1352
6229,2757,1813,1353
6230,2757,1814,1353
6235,2759,1815,1354
6241,2760,1817,1355
6244,2761,1819,1355
6247,2762,1820,1356
6253,2764,1822,1357
6257,2765,1823,1358
6259,2766,1824,1358
6262,2767,1826,1359
6266,2768,1827,1359
6269,2769,1828,1360
6272,2770,1830,1361
6276,2771,1831,1361
6279,2772,1832,1362
6282,2772,1833,1362
6285,2773,1835,1363
6289,2774,1836,1364
6292,2775,1837,1364
6295,2776,1839,1364
6296,2777,1839,1365
6294,2776,1838,1364
6288,2774,1836,1364
6279,2772,1832,1362
6271,2770,1828,1361
6263,2768,1825,1360
6257,2767,1822,1358
6251,2765,1820,1358
6245,2764,1818,1357
6243,2763,1816,1356
6242,2763,1816,1356
6243,2763,1816,1356
6244,2764,1817,1357
6244,2764,1817,1357
6245,2764,1817,1357
6245,2763,1817,1356
6246,2764,1817,1357
6248,2764,1818,1357
6250,2765,1819,1357
6252,2765,1820,1358
6254,2766,1821,1358
6257,2766,1822,1359
6259,2767,1823,1359
6261,2767,1824,1359
6262,2767,1824,1359
6263,2767,1825,1360
6264,2767,1826,1360
6265,2767,1826,1360
6266,2767,1827,1360
6266,2767,1827,1360
6267,2767,1828,1360
6269,2767,1829,1360
6269,2767,1829,1360
6270,2767,1830,1360
6272,2767,1830,1360
6273,2767,1831,1361
6273,2767,1831,1360
6274,2767,1832,1360
6274,2767,1832,1360
6271,2765,1831,1360
6263,2763,1828,1359
6255,2761,1825,1357
6243,2758,1820,1355
6233,2755,1816,1354
6226,2753,1813,1352
6219,2751,1810,1351
6208,2747,1806,1349
6203,2746,1804,1348
6203,2745,1803,1348
6201,2743,1802,1347
6196,2743,1800,1346
6191,2741,1800,1345
6190,2741,1800,1344
6186,2739,1799,1343
6180,2737,1797,1343
6179,2736,1797,1343
6179,2736,1797,1342
6174,2733,1796,1341
6173,2732,1795,1341
6174,2733,1796,1341
6173,2732,1796,1340
6169,2730,1795,1339
6171,2730,1796,1340
6171,2730,1796,1340
6166,2728,1795,1339
6166,2727,1795,1339
6169,2728,1796,1339
6164,2726,1795,1338
6161,2724,1795,1337
6164,2725,1796,1338
6163,2724,1796,1337
6157,2722,1794,1336
6159,2722,1795,1336
6160,2723,1796,1336
6154,2720,1794,1335
6152,2718,1794,1334
6156,2720,1795,1335
6152,2718,1794,1334
6144,2715,1792,1333
6139,2714,1790,1332
6128,2711,1785,1330
6111,2704,1779,1327
6102,2702,1775,1325
6095,2700,1773,1324
6081,2695,1767,1321
6071,2692,1764,1319
6070,2692,1763,1319
6067,2690,1762,1319
6060,2687,1760,1317
6060,2687,1760,1318
6061,2687,1760,1318
6054,2684,1758,1316
6052,2683,1758,1316
6054,2684,1759,1316
6052,2683,1758,1316
6047,2680,1757,1315
6050,2681,1758,1315
6051,2681,1759,1315
6046,2679,1758,1314
6046,2679,1758,1314
6049,2679,1759,1314
6047,2678,1759,1314
6045,2677,1758,1313
6047,2677,1759,1314
6048,2677,1760,1314
6044,2675,1759,1313
6044,2675,1759,1313
6047,2675,1760,1313
6044,2674,1760,1312
6043,2673,1760,1312
6045,2673,1761,1312
6044,2673,1761,1312
6042,2671,1761,1312
6043,2671,1761,1312
6043,2671,1762,1311
6039,2669,1761,1311
6033,2667,1759,1309
6024,2665,1755,1308
6011,2661,1750,1305
5998,2657,1745,1303
5987,2654,1740,1301
5976,2650,1736,1299
5968,2647,1733,1297
5962,2646,1731,1296
5957,2645,1729,1295
5956,2644,1728,1295
5956,2644,1728,1295
5956,2644,1728,1295
5958,2645,1729,1295
5962,2647,1730,1296
5965,2648,1731,1297
5969,2650,1732,1298
5973,2651,1734,1298
5977,2653,1735,1299
5981,2654,1736,1300
5986,2657,1738,1301
5990,2658,1739,1301
5996,2660,1741,1303
6002,2662,1743,1304
6009,2665,1746,1305
6013,2666,1747,1306
6018,2668,1749,1307
6026,2671,1752,1309
6032,2673,1754,1310
6035,2674,1755,1310
6041,2677,1757,1311
6049,2680,1760,1313
6052,2681,1761,1313
6052,2681,1762,1314
6054,2685,1765,1316
6063,2685,1766,1316
6067,2686,1767,1316
6069,2687,1767,1317
6072,2688,1768,1318
6075,2690,1768,1318
6067,2688,1765,1317
6057,2685,1761,1315
6053,2685,1758,1315
6048,2685,1756,1314
6041,2682,1753,1313
6037,2682,1751,1312
6039,2684,1751,1313
6037,2683,1750,1313
6036,2683,1749,1312
6043,2686,1751,1314
6048,2688,1753,1315
6047,2688,1753,1315
6050,2689,1754,1315
6058,2692,1756,1317
6061,2693,1757,1318
6062,2693,1758,1318
6068,2696,1760,1319
6077,2699,1762,1321
6077,2699,1763,1321
6080,2700,1764,1321
6089,2703,1767,1323
6094,2705,1769,1324
6095,2705,1769,1324
6102,2708,1772,1326
6110,2711,1774,1328
6112,2711,1775,1328
6114,2712,1776,1328
6124,2716,1779,1330
6129,2718,1781,1331
6130,2717,1781,1331
6136,2720,1783,1332
6144,2723,1786,1334
6147,2724,1787,1335
6150,2724,1789,1335
6158,2728,1791,1337
6163,2729,1793,1338
6162,2729,1793,1338
6159,2729,1791,1337
6155,2729,1789,1337
6145,2726,1784,1335
6135,2724,1780,1333
6132,2724,1778,1333
6127,2723,1776,1332
6121,2721,1773,1331
6118,2721,1772,1331
6121,2723,1772,1332
6123,2724,1773,1332
6125,2724,1774,1333
6130,2726,1775,1334
6133,2727,1776,1334
6133,2727,1776,1334
6136,2728,1777,1335
6141,2730,1779,1336
6143,2730,1780,1337
6145,2731,1781,1337
6150,2732,1782,1338
6154,2733,1784,1338
6156,2734,1785,1339
6160,2735,1786,1340
6164,2737,1788,1341
6168,2738,1789,1341
6171,2738,1790,1342
6176,2740,1792,1343
6178,2741,1793,1343
6182,2742,1795,1344
6185,2743,1796,1345
6189,2744,1798,1345
6192,2745,1799,1346
6195,2746,1800,1346
6200,2748,1802,1347
6202,2749,1803,1348
6204,2749,1803,1348
6206,2750,1804,1348
6210,2751,1806,1349
6213,2752,1807,1350
6209,2751,1805,1349
6201,2748,1802,1348
6193,2746,1799,1347
6186,2744,1795,1346
6180,2742,1793,1345
6174,2741,1790,1344
6167,2739,1788,1343
6164,2738,1786,1342
6162,2737,1785,1342
6162,2737,1785,1342
6161,2737,1785,1342
6161,2737,1785,1342
6161,2736,1785,1342
6162,2737,1786,1342
6163,2737,1786,1342
6164,2737,1787,1342
6165,2737,1787,1342
6165,2737,1788,1342
6165,2737,1788,1342
6165,2736,1788,1342
6165,2736,1789,1341
6166,2736,1790,1342
6168,2737,1790,1342
6170,2737,1791,1342
6171,2737,1791,1342
6172,2737,1792,1342
6175,2738,1793,1343
6176,2738,1794,1343
6177,2738,1795,1343
6180,2739,1796,1344
6181,2739,1796,1344
6182,2739,1797,1344
6184,2739,1798,1344
6185,2739,1798,1345
6184,2739,1799,1344
6184,2738,1799,1344
6186,2739,1799,1344
6186,2739,1800,1344
6183,2737,1799,1343
6182,2737,1799,1343
6175,2735,1796,1342
6163,2731,1791,1340
6152,2728,1787,1338
6144,2726,1784,1337
6136,2723,1780,1335
6127,2720,1777,1334
6122,2719,1775,1333
6116,2717,1773,1332
6113,2715,1772,1331
6114,2715,1772,1331
6112,2715,1772,1331
6108,2713,1771,1330
6108,2713,1771,1330
6110,2713,1771,1330
6108,2713,1771,1330
6108,2712,1771,1329
6111,2713,1773,1330
6113,2713,1773,1330
6110,2712,1773,1330
6111,2712,1773,1330
6113,2712,1774,1330
6111,2711,1774,1330
6111,2711,1774,1330
6114,2712,1775,1330
6113,2711,1775,1330
6111,2710,1775,1329
6114,2711,1776,1330
6114,2711,1776,1330
6112,2709,1776,1329
6114,2710,1777,1329
6116,2710,1778,1330
6115,2710,1778,1329
6115,2709,1778,1329
6118,2710,1779,1330
6118,2710,1779,1330
6116,2708,1779,1329
6116,2708,1779,1329
6115,2708,1779,1329
6107,2705,1776,1327
6097,2702,1772,1326
6089,2700,1769,1324
6078,2697,1765,1322
6069,2694,1761,1321
6063,2692,1759,1320
6057,2690,1756,1318
6050,2688,1754,1317
6048,2687,1753,1317
6049,2687,1753,1317
6045,2686,1752,1316
6044,2685,1752,1316
6045,2686,1752,1316
6045,2685,1752,1316
6043,2684,1752,1315
6044,2684,1752,1316
6046,2684,1753,1316
6045,2684,1753,1316
6045,2683,1753,1315
6046,2683,1754,1316
6045,2683,1754,1316
6047,2683,1755,1316
6049,2683,1756,1316
6051,2683,1757,1317
6051,2683,1757,1317
6051,2683,1757,1317
6049,2682,1757,1316
6046,2681,1756,1315
6043,2680,1755,1314
6042,2680,1755,1314
6043,2680,1755,1313
6046,2681,1757,1314
6052,2682,1759,1316
6057,2683,1761,1317
6062,2684,1763,1318
6064,2685,1763,1318
6065,2686,1764,1319
6066,2686,1764,1318
6063,2685,1763,1318
6063,2684,1760,1317
6057,2683,1757,1316
6051,2683,1755,1315
6044,2681,1752,1314
6038,2680,1752,1314
6035,2679,1750,1313
6030,2678,1748,1313
6027,2678,1747,1312
6026,2678,1747,1312
6030,2679,1747,1313
6030,2679,1748,1313
6031,2679,1748,1313
6033,2680,1748,1314
6035,2681,1749,1314
6036,2681,1749,1314
6040,2683,1751,1315
6044,2684,1752,1316
6047,2685,1753,1316
6049,2686,1754,1317
6054,2688,1756,1318
6058,2689,1757,1318
6060,2689,1758,1319
6063,2690,1759,1319
6070,2693,1761,1321
6072,2693,1762,1321
6074,2694,1763,1321
6079,2696,1765,1322
6083,2697,1767,1323
6084,2697,1767,1323
6087,2698,1768,1324
6092,2700,1770,1325
6095,2701,1771,1325
6097,2702,1772,1326
6103,2704,1774,1327
6108,2706,1776,1328
6110,2706,1777,1328
6112,2707,1778,1329
6117,2709,1779,1330
6116,2709,1779,1329
6109,2706,1776,1328
6103,2705,1773,1327
6098,2705,1770,1327
6090,2702,1767,1325
6084,2701,1765,1324
6083,2701,1764,1324
6080,2701,1763,1324
6078,2700,1762,1323
6080,2701,1762,1324
6082,2702,1763,1324
6082,2702,1763,1324
6080,2701,1762,1324
6084,2703,1763,1324
6086,2704,1764,1325
6086,2704,1764,1325
6088,2704,1765,1325
6093,2706,1766,1326
6094,2707,1767,1326
6094,2707,1767,1326
6099,2708,1768,1327
6102,2710,1770,1328
6105,2710,1771,1328
6109,2711,1772,1329
6112,2713,1773,1330
6114,2713,1774,1330
6117,2714,1775,1331
6121,2716,1777,1332
6123,2717,1777,1332
6125,2717,1778,1332
6128,2718,1779,1333
6132,2719,1781,1333
6134,2720,1781,1334
6135,2721,1782,1334
6139,2722,1783,1335
6142,2723,1785,1335
6144,2723,1786,1336
6146,2724,1786,1336
6145,2724,1786,1336
6138,2722,1783,1335
6130,2720,1780,1333
6124,2718,1777,1332
6118,2717,1774,1331
6113,2715,1772,1331
6111,2715,1771,1330
6109,2715,1770,1330
6109,2715,1770,1330
6109,2714,1770,1330
6111,2715,1771,1331
6111,2715,1771,1331
6112,2716,1771,1331
6114,2716,1772,1331
6117,2717,1773,1332
6121,2718,1774,1333
6124,2719,1776,1333
6127,2720,1777,1334
6131,2721,1778,1335
6135,2723,1780,1335
6138,2724,1781,1336
6141,2724,1782,1337
6144,2725,1783,1337
6144,2726,1784,1338
6147,2726,1786,1338
6150,2726,1787,1338
6152,2727,1788,1339
6154,2727,1788,1339
6157,2728,1789,1340
6160,2729,1790,1340
6161,2729,1791,1340
6165,2730,1792,1341
6167,2730,1793,1341
6170,2731,1795,1341
6173,2732,1796,1342
6176,2733,1797,1342
6178,2733,1798,1343
6181,2734,1799,1343
6182,2734,1800,1343
6181,2734,1800,1343
6175,2732,1797,1342
6167,2730,1794,1341
6159,2728,1791,1339
6153,2726,1788,1338
6147,2725,1786,1337
6144,2724,1784,1336
6141,2723,1783,1336
6139,2723,1783,1336
6139,2722,1783,1336
6140,2723,1783,1336
6139,2722,1783,1335
6139,2722,1783,1335
6140,2723,1783,1336
6142,2723,1784,1336
6144,2723,1785,1336
6147,2724,1786,1337
6150,2725,1787,1337
6151,2725,1788,1338
6153,2725,1789,1338
6155,2726,1790,1338
6156,2726,1790,1338
6157,2726,1791,1338
6159,2726,1792,1339
6161,2727,1793,1339
6161,2727,1793,1339
6162,2727,1794,1339
6163,2728,1794,1339
6164,2728,1795,1339
6165,2727,1795,1339
6168,2728,1797,1339
6171,2729,1798,1340
6172,2729,1799,1340
6174,2729,1800,1341
6178,2730,1801,1341
6179,2730,1802,1341
6180,2730,1802,1341
6179,2730,1802,1341
6173,2728,1799,1340
6164,2725,1796,1339
6157,2724,1793,1338
6153,2722,1791,1337
6147,2720,1789,1336
6143,2719,1788,1336
6143,2720,1787,1336
6142,2719,1787,1335
6140,2718,1787,1335
6142,2719,1787,1335
6142,2719,1787,1335
6141,2718,1787,1335
6142,2718,1788,1335
6144,2719,1789,1336
6145,2718,1789,1336
6145,2718,1789,1336
6149,2719,1791,1336
6151,2719,1792,1337
6151,2719,1792,1336
6153,2720,1793,1337
6156,2720,1794,1337
6157,2721,1795,1338
6159,2721,1796,1338
6162,2722,1797,1338
6163,2722,1798,1338
6164,2722,1798,1338
6165,2722,1799,1339
6168,2723,1800,1339
6169,2723,1801,1339
6169,2723,1801,1339
6172,2723,1802,1340
6173,2723,1803,1340
6174,2723,1803,1340
6178,2725,1805,1340
6179,2725,1805,1341
6179,2725,1806,1341
6178,2724,1805,1340
6171,2722,1802,1339
6162,2720,1799,1338
6153,2717,1795,1336
6146,2716,1792,1335
6139,2714,1789,1334
6133,2712,1787,1333
6129,2711,1785,1332
6125,2709,1783,1331
6125,2709,1783,1331
6123,2708,1782,1330
6121,2708,1782,1330
6120,2707,1782,1330
6119,2707,1782,1330
6118,2706,1781,1330
6117,2706,1781,1330
6117,2706,1782,1330
6118,2706,1782,1330
6118,2706,1782,1329
6117,2705,1782,1329
6116,2705,1782,1328
6117,2705,1782,1328
6120,2706,1783,1329
6123,2707,1785,1329
6126,2708,1786,1330
6130,2709,1788,1331
6133,2710,1789,1331
6137,2711,1790,1332
6139,2712,1791,1332
6141,2713,1792,1333
6144,2714,1793,1333
6147,2714,1794,1333
6150,2715,1796,1334
6154,2717,1797,1335
6156,2718,1798,1335
6158,2718,1799,1335
6161,2719,1800,1336
6164,2720,1801,1336
6163,2720,1800,1336
6157,2718,1798,1335
6150,2717,1795,1334
6141,2715,1791,1333
6133,2712,1788,1331
6127,2711,1785,1330
6123,2711,1783,1330
6118,2709,1781,1329
6115,2709,1780,1328
6117,2709,1780,1329
6117,2709,1780,1329
6117,2709,1780,1329
6119,2710,1781,1329
6121,2711,1781,1329
6121,2711,1781,1329
6122,2711,1782,1330
6126,2713,1783,1330
6129,2714,1784,1331
6131,2714,1785,1331
6134,2715,1786,1332
6138,2716,1788,1332
6140,2717,1788,1333
6144,2718,1790,1334
6150,2720,1792,1335
6153,2721,1793,1336
6155,2721,1794,1336
6158,2722,1795,1337
6163,2724,1797,1338
6165,2724,1798,1338
6168,2725,1799,1339
6173,2727,1801,1340
6176,2728,1802,1340
6179,2728,1804,1341
6183,2730,1805,1341
6187,2731,1807,1342
6188,2731,1807,1342
6184,2730,1805,1342
6179,2729,1803,1341
6171,2727,1799,1340
6164,2725,1796,1339
6158,2724,1794,1338
6155,2724,1792,1338
6151,2722,1791,1337
6149,2722,1790,1336
6151,2723,1790,1337
6153,2723,1791,1337
6153,2723,1791,1337
6155,2724,1792,1338
6158,2725,1792,1338
6159,2725,1793,1339
6161,2726,1794,1339
6165,2727,1795,1340
6168,2728,1796,1340
6170,2729,1797,1340
6173,2730,1798,1341
6177,2731,1799,1342
6179,2732,1800,1342
6182,2733,1802,1343
6186,2734,1803,1343
6189,2735,1804,1344
6191,2735,1805,1344
6195,2737,1807,1345
6198,2738,1808,1346
6201,2739,1809,1346
6204,2739,1810,1347
6208,2741,1812,1347
6210,2741,1813,1348
6213,2742,1814,1348
6216,2743,1815,1349
6216,2744,1816,1349
6219,2744,1818,1350
6222,2744,1818,1350
6223,2745,1817,1349
6220,2744,1817,1349
6214,2742,1814,1347
6202,2739,1810,1347
6194,2737,1806,1345
6185,2735,1802,1344
6178,2733,1799,1343
6171,2731,1796,1341
6166,2730,1794,1341
6162,2729,1793,1340
6160,2728,1792,1339
6160,2728,1792,1339
6161,2729,1792,1339
6160,2728,1792,1339
6161,2729,1792,1339
6161,2729,1792,1339
6162,2729,1792,1339
6162,2729,1792,1339
6163,2729,1793,1339
6164,2730,1793,1339
6164,2730,1793,1339
6164,2730,1794,1339
6167,2730,1795,1339
6170,2731,1796,1340
6172,2732,1797,1340
6174,2732,1798,1341
6175,2732,1799,1341
6181,2734,1801,1342
6181,2734,1801,1342
6184,2734,1802,1343
6184,2734,1802,1342
6185,2734,1803,1343
6186,2735,1803,1342
6188,2735,1804,1343
6190,2736,1805,1343
6191,2736,1806,1343
6195,2737,1807,1344
6196,2737,1808,1344
6191,2735,1806,1344
6181,2733,1802,1342
6170,2729,1797,1340
6158,2726,1792,1338
6151,2725,1790,1337
6147,2723,1788,1337
6141,2722,1785,1336
6138,2721,1784,1335
6133,2719,1782,1334
6132,2719,1781,1334
6131,2719,1781,1333
6129,2718,1781,1333
6131,2719,1781,1334
6134,2719,1782,1334
6139,2720,1784,1335
6142,2721,1785,1336
6144,2721,1786,1337
6145,2721,1787,1337
6146,2722,1788,1337
6146,2722,1788,1336
6146,2722,1788,1336
6149,2722,1789,1337
6151,2723,1790,1337
6154,2723,1791,1338
6157,2724,1792,1338
6161,2725,1794,1339
6163,2726,1795,1339
6163,2725,1795,1339
6166,2726,1797,1340
6168,2727,1798,1340
6169,2727,1798,1340
6172,2728,1800,1341
6175,2728,1801,1341
6178,2729,1802,1342
6180,2729,1803,1342
6181,2729,1803,1342
6176,2728,1802,1341
6165,2725,1797,1339
6154,2722,1793,1337
6143,2719,1788,1335
6134,2716,1784,1334
6128,2715,1782,1333
6123,2713,1780,1333
6117,2711,1777,1332
6111,2709,1775,1331
6110,2709,1774,1330
6108,2708,1774,1330
6106,2708,1773,1329
6105,2708,1773,1329
6105,2708,1773,1329
6105,2708,1773,1329
6106,2708,1773,1329
6107,2708,1774,1329
6106,2708,1773,1329
6106,2708,1773,1328
6108,2709,1774,1329
6111,2709,1776,1329
6114,2710,1777,1330
6114,2711,1778,1330
6117,2712,1780,1332
6123,2712,1781,1332
6124,2712,1782,1332
6125,2712,1782,1332
6127,2713,1783,1332
6127,2713,1783,1332
6127,2712,1783,1332
6129,2713,1784,1332
6130,2713,1785,1332
6132,2713,1786,1333
6133,2713,1786,1333
6137,2714,1788,1333
6138,2715,1788,1334
6138,2714,1789,1334
6139,2715,1789,1334
6135,2713,1787,1333
6125,2710,1783,1331
6114,2708,1779,1330
6104,2705,1774,1328
6094,2702,1771,1326
6086,2700,1767,1325
6078,2698,1764,1323
6071,2696,1761,1322
6068,2695,1760,1322
6067,2694,1759,1321
6067,2694,1759,1321
6067,2694,1759,1321
6065,2694,1759,1321
6063,2693,1758,1320
6061,2693,1758,1319
6062,2693,1758,1319
6064,2694,1759,1320
6066,2694,1760,1320
6067,2695,1760,1320
6069,2695,1761,1320
6072,2696,1762,1321
6075,2697,1763,1321
6078,2698,1765,1322
6083,2699,1766,1323
6088,2701,1768,1324
6093,2702,1770,1325
6096,2702,1771,1326
6099,2703,1773,1326
6101,2704,1774,1327
6104,2705,1774,1327
6107,2706,1776,1328
6110,2707,1777,1328
6115,2708,1779,1329
6117,2709,1780,1330
6122,2710,1782,1331
6125,2711,1783,1332
6125,2710,1782,1332
6118,2709,1779,1331
6106,2706,1774,1329
6093,2702,1769,1326
6082,2699,1765,1325
6075,2698,1761,1323
6067,2696,1758,1322
6059,2694,1755,1321
6054,2693,1753,1319
6054,2693,1753,1319
6054,2693,1753,1319
6053,2693,1753,1319
6054,2693,1753,1319
6055,2694,1753,1319
6056,2694,1753,1319
6058,2694,1754,1320
6062,2696,1756,1321
6064,2696,1756,1321
6066,2697,1757,1321
6070,2698,1759,1322
6074,2699,1760,1323
6076,2699,1761,1323
6080,2701,1763,1324
6084,2702,1764,1325
6086,2702,1765,1325
6089,2703,1766,1326
6093,2704,1768,1327
6095,2705,1769,1327
6097,2706,1769,1327
6101,2707,1771,1328
6104,2708,1772,1329
6107,2709,1773,1329
6110,2709,1775,1330
6114,2710,1776,1331
6117,2711,1777,1331
6116,2711,1777,1331
6108,2709,1773,1330
6098,2706,1769,1328
6088,2704,1765,1326
6080,2702,1761,1325
6073,2700,1758,1324
6068,2699,1756,1323
6063,2698,1753,1323
6060,2697,1752,1322
6061,2698,1752,1322
6063,2698,1753,1323
6063,2698,1753,1323
6063,2699,1754,1323
6065,2699,1754,1323
6065,2699,1754,1323
6067,2700,1755,1324
6069,2700,1755,1324
6072,2701,1756,1324
6075,2702,1757,1324
6077,2702,1758,1325
6079,2703,1760,1325
6083,2704,1761,1326
6085,2705,1762,1326
6089,2706,1763,1327
6093,2707,1765,1328
6095,2707,1766,1328
6096,2708,1767,1328
6099,2709,1768,1329
6101,2709,1769,1329
6105,2710,1770,1330
6106,2710,1771,1330
6110,2712,1772,1331
6113,2712,1773,1331
6115,2713,1774,1332
6118,2714,1775,1332
6121,2715,1777,1333
6122,2715,1777,1333
6121,2714,1777,1333
6112,2712,1773,1331
6100,2709,1768,1329
6087,2706,1763,1327
6076,2703,1758,1325
6068,2701,1754,1324
6061,2699,1751,1322
6054,2697,1748,1322
6050,2696,1747,1321
6049,2696,1746,1320
6051,2696,1747,1321
6053,2697,1748,1321
6053,2697,1748,1321
6052,2696,1747,1321
6053,2697,1748,1321
6054,2697,1748,1321
6056,2698,1749,1321
6058,2698,1750,1322
6060,2699,1751,1322
6062,2699,1752,1322
6062,2699,1752,1322
6064,2700,1753,1322
6065,2700,1754,1322
6066,2700,1755,1322
6068,2700,1755,1322
6070,2700,1757,1323
6072,2701,1757,1323
6073,2701,1758,1323
6074,2701,1759,1323
6075,2701,1759,1323
6076,2701,1760,1323
6076,2701,1760,1323
6078,2701,1761,1324
6079,2701,1762,1324
6079,2701,1762,1324
6082,2702,1764,1324
6081,2701,1763,1324
6073,2699,1760,1322
6060,2695,1755,1320
6046,2691,1749,1318
6033,2688,1744,1315
6022,2684,1739,1313
6015,2683,1736,1312
6007,2680,1733,1311
6000,2678,1730,1309
5999,2678,1730,1309
5999,2677,1730,1309
5997,2676,1730,1309
5996,2675,1729,1308
5996,2675,1730,1308
5995,2675,1730,1308
5994,2674,1730,1308
5997,2674,1731,1308
5998,2674,1732,1309
5996,2673,1732,1308
5997,2673,1732,1308
6001,2674,1734,1309
6001,2673,1734,1309
6000,2672,1734,1308
6005,2673,1736,1309
6006,2673,1737,1309
6003,2671,1737,1309
6006,2672,1738,1309
6009,2673,1739,1310
6007,2671,1739,1309
6007,2671,1739,1309
6012,2672,1741,1310
6012,2672,1741,1310
6011,2671,1741,1310
6016,2672,1743,1311
6018,2673,1745,1311
6015,2671,1744,1310
6010,2669,1742,1309
6002,2667,1739,1308
6002,2662,1732,1305
5985,2657,1726,1302
5969,2657,1723,1301
5962,2655,1720,1300
5954,2653,1720,1297
5943,2648,1716,1297
5938,2647,1714,1297
5937,2647,1713,1296
5933,2645,1712,1295
5931,2643,1712,1295
5935,2645,1713,1296
5933,2644,1713,1295
5929,2642,1712,1294
5931,2642,1713,1295
5933,2643,1714,1295
5930,2641,1713,1294
5930,2641,1714,1294
5934,2642,1715,1295
5934,2641,1716,1294
5932,2640,1716,1294
5936,2641,1717,1295
5938,2641,1718,1295
5935,2639,1718,1294
5937,2639,1719,1295
5941,2641,1720,1295
5939,2639,1720,1295
5938,2639,1720,1295
5941,2639,1721,1295
5941,2639,1722,1295
5939,2637,1721,1294
5940,2637,1722,1294
5942,2638,1723,1294
5941,2637,1723,1294
5940,2636,1723,1294
5941,2636,1724,1294
5937,2634,1722,1293
5925,2631,1718,1291
5911,2627,1712,1289
5898,2623,1707,1286
5885,2619,1702,1284
5875,2616,1698,1282
5867,2614,1695,1280
5859,2611,1692,1279
5853,2609,1690,1278
5851,2608,1689,1277
5850,2608,1689,1277
5848,2607,1689,1276
5849,2607,1689,1276
5850,2607,1689,1276
5851,2607,1690,1276
5853,2608,1691,1277
5856,2609,1692,1277
5859,2610,1693,1278
5863,2611,1695,1278
5867,2613,1696,1279
5872,2615,1698,1280
5877,2617,1700,1281
5882,2618,1702,1282
5889,2621,1704,1283
5895,2623,1706,1284
5899,2624,1708,1285
5905,2626,1710,1286
5911,2628,1712,1287
5916,2630,1714,1288
5918,2631,1715,1289
5923,2632,1717,1289
5929,2635,1719,1291
5932,2636,1720,1291
5936,2637,1721,1292
5942,2639,1723,1293
5947,2641,1725,1294
5948,2641,1726,1294
5946,2641,1724,1294
5941,2641,1722,1293
5930,2638,1717,1292
5920,2635,1713,1290
5916,2635,1711,1290
5915,2635,1709,1289
5909,2633,1707,1289
5908,2633,1706,1288
5914,2636,1708,1290
5917,2637,1709,1290
5917,2637,1709,1290
5924,2639,1712,1292
5930,2642,1713,1293
5932,2642,1714,1293
5936,2643,1716,1294
5945,2647,1719,1296
5950,2648,1720,1297
5952,2649,1721,1298
5960,2651,1724,1299
5969,2655,1727,1301
5972,2656,1728,1301
5977,2657,1730,1302
5986,2661,1734,1304
5992,2663,1736,1305
5994,2663,1737,1306
6001,2665,1739,1307
6001,2668,1742,1308
6009,2669,1743,1309
6011,2669,1744,1309
6014,2669,1747,1311
6023,2673,1747,1312
6027,2674,1749,1312
6029,2674,1750,1312
6035,2676,1752,1314
6045,2680,1755,1315
6048,2681,1756,1316
6050,2681,1757,1316
6053,2683,1758,1317
6047,2682,1755,1316
6035,2678,1750,1314
6026,2676,1746,1313
6021,2676,1743,1312
6014,2674,1740,1311
6008,2673,1738,1310
6007,2673,1737,1310
6007,2674,1736,1310
6007,2674,1736,1310
6012,2675,1738,1311
6018,2678,1740,1313
6019,2678,1740,1313
6020,2678,1741,1313
6025,2680,1742,1314
6030,2682,1744,1315
6033,2683,1745,1316
6038,2685,1747,1316
6043,2687,1749,1317
6046,2688,1750,1318
6048,2688,1751,1318
6053,2690,1753,1319
6057,2691,1754,1320
6061,2692,1756,1321
6066,2693,1758,1322
6072,2695,1760,1323
6076,2696,1761,1324
6080,2697,1763,1324
6084,2699,1764,1325
6088,2700,1766,1326
6090,2701,1767,1326
6092,2701,1768,1327
6096,2703,1769,1327
6100,2704,1770,1328
6102,2705,1772,1328
6105,2705,1773,1329
6106,2706,1773,1329
6102,2705,1772,1328
6092,2703,1768,1326
6082,2700,1763,1325
6072,2698,1759,1323
6064,2696,1755,1322
6058,2694,1752,1321
6052,2693,1750,1320
6045,2691,1747,1319
6042,2690,1746,1318
6041,2690,1746,1318
6042,2690,1746,1318
6042,2690,1746,1318
6042,2690,1746,1318
6042,2690,1746,1318
6042,2690,1746,1318
6044,2691,1747,1318
6045,2691,1748,1318
6047,2691,1749,1318
6048,2691,1749,1318
6049,2691,1750,1318
6050,2691,1750,1318
6050,2691,1751,1318
6051,2691,1751,1318
6053,2692,1752,1319
6053,2692,1753,1318
6054,2691,1753,1318
6056,2692,1754,1319
6057,2692,1755,1319
6058,2692,1755,1319
6059,2692,1756,1319
6060,2692,1756,1319
6061,2692,1757,1319
6062,2692,1758,1319
6066,2693,1759,1320
6067,2693,1760,1320
6067,2693,1760,1320
6065,2692,1759,1320
6058,2690,1756,1319
6044,2686,1751,1317
6033,2683,1746,1315
6025,2681,1743,1313
6017,2678,1740,1312
6008,2675,1736,1311
6004,2674,1734,1310
6000,2673,1733,1309
5998,2671,1733,1309
5997,2671,1733,1309
5999,2672,1733,1309
5996,2670,1732,1308
5995,2669,1732,1308
5995,2670,1733,1308
5996,2669,1733,1308
5997,2669,1733,1308
5994,2668,1734,1308
5997,2668,1734,1308
5998,2669,1735,1308
5997,2667,1735,1308
5997,2667,1735,1308
6001,2668,1737,1309
6001,2667,1737,1308
6000,2666,1737,1308
6003,2667,1739,1309
6006,2668,1740,1309
6004,2666,1739,1309
6005,2667,1740,1309
6008,2667,1741,1309
6006,2666,1741,1309
6006,2666,1741,1308
6011,2667,1743,1309
6010,2667,1743,1309
6009,2666,1743,1309
6012,2666,1744,1309
6014,2667,1745,1310
6010,2664,1744,1309
6003,2662,1742,1308
5994,2660,1738,1306
5978,2655,1732,1303
5963,2650,1726,1301
5955,2648,1722,1299
5947,2646,1719,1298
5934,2642,1714,1295
5928,2640,1712,1294
5927,2640,1711,1294
5923,2638,1710,1293
5921,2637,1710,1293
5922,2638,1710,1293
5921,2637,1710,1293
5917,2635,1709,1292
5918,2635,1709,1292
5919,2636,1710,1292
5918,2634,1710,1292
5917,2634,1710,1291
5921,2635,1711,1292
5920,2634,1712,1292
5919,2633,1712,1291
5921,2634,1713,1292
5923,2634,1713,1292
5921,2633,1713,1291
5922,2633,1714,1291
5923,2633,1715,1292
5924,2633,1715,1292
5923,2632,1715,1291
5924,2632,1716,1291
5924,2632,1716,1291
5923,2631,1716,1291
5924,2631,1717,1291
5925,2631,1717,1291
5924,2630,1717,1290
5923,2630,1717,1290
5924,2630,1718,1290
5922,2629,1717,1290
5911,2625,1713,1288
5897,2621,1708,1285
5883,2617,1702,1283
5870,2614,1697,1280
5860,2611,1693,1278
5851,2608,1689,1277
5844,2606,1687,1276
5840,2605,1685,1275
5840,2605,1685,1275
5840,2605,1685,1275
5841,2605,1686,1275
5844,2606,1686,1275
5847,2608,1687,1276
5849,2608,1688,1276
5852,2610,1689,1277
5856,2611,1691,1278
5860,2613,1692,1278
5863,2614,1693,1279
5867,2615,1695,1280
5872,2617,1696,1280
5876,2618,1698,1281
5879,2619,1699,1282
5885,2621,1701,1283
5890,2623,1703,1284
5894,2625,1705,1285
5898,2626,1706,1285
5904,2628,1708,1287
5909,2629,1710,1287
5912,2630,1711,1288
5918,2632,1713,1289
5927,2635,1716,1291
5931,2636,1718,1292
5935,2638,1719,1293
5941,2640,1721,1294
5945,2642,1723,1295
5940,2640,1720,1294
5932,2638,1717,1293
5926,2637,1714,1292
5926,2635,1710,1291
5917,2635,1707,1289
5909,2633,1706,1289
5908,2633,1706,1289
5906,2633,1705,1288
5903,2632,1703,1288
5904,2633,1704,1289
5911,2635,1706,1290
5913,2636,1707,1290
5914,2636,1707,1291
5919,2638,1709,1292
5925,2641,1711,1293
5926,2641,1712,1293
5930,2642,1713,1294
5939,2645,1716,1295
5944,2647,1718,1297
5946,2647,1719,1297
5953,2650,1721,1298
5960,2652,1724,1300
5962,2652,1724,1300
5965,2653,1726,1300
5974,2656,1729,1302
5979,2658,1731,1303
5981,2658,1731,1303
5986,2660,1734,1305
5994,2663,1736,1306
5996,2664,1737,1306
5999,2664,1738,1307
6005,2667,1740,1308
6010,2669,1742,1309
6012,2669,1743,1309
6018,2671,1745,1311
6025,2674,1748,1312
6027,2674,1749,1312
6027,2674,1749,1312
6025,2674,1747,1312
6016,2672,1743,1311
6005,2669,1738,1309
5996,2667,1734,1307
5992,2667,1732,1307
5986,2665,1730,1306
5981,2664,1727,1305
5980,2664,1727,1306
5983,2665,1727,1306
5985,2666,1728,1307
5989,2667,1729,1308
5995,2669,1731,1309
5999,2670,1732,1310
6001,2671,1733,1310
6002,2671,1734,1310
6005,2672,1735,1311
6007,2673,1736,1311
6010,2674,1737,1312
6014,2675,1738,1313
6018,2676,1740,1313
6022,2677,1741,1314
6026,2678,1743,1315
6032,2680,1745,1316
6036,2681,1747,1317
6041,2682,1749,1318
6048,2684,1752,1320
6054,2686,1754,1321
6060,2687,1756,1322
6068,2689,1759,1324
6078,2692,1763,1327
6087,2694,1766,1329
6093,2695,1768,1330
6098,2697,1770,1331
6103,2698,1772,1332
6108,2700,1774,1334
6113,2701,1776,1335
6115,2702,1777,1335
6111,2701,1775,1334
6100,2698,1770,1333
6088,2695,1765,1331
6077,2692,1761,1329
6069,2690,1757,1327
6062,2688,1754,1326
6057,2687,1752,1325
6053,2686,1750,1324
6053,2686,1750,1324
6054,2686,1751,1324
6056,2686,1752,1325
6057,2686,1752,1325
6059,2687,1753,1325
6059,2687,1753,1326
6061,2687,1754,1326
6062,2687,1754,1326
6063,2688,1755,1326
6065,2688,1756,1326
6068,2688,1757,1327
6070,2689,1758,1327
6072,2689,1759,1328
6073,2689,1759,1327
6074,2690,1760,1328
6075,2690,1761,1328
6076,2690,1761,1328
6076,2690,1762,1328
6078,2691,1764,1329
6082,2691,1764,1329
6083,2691,1765,1329
6083,2691,1765,1329
6085,2691,1766,1329
6085,2691,1766,1329
6084,2691,1766,1328
6085,2691,1767,1328
6088,2692,1768,1328
6090,2693,1769,1329
6088,2692,1768,1328
6081,2690,1765,1327
6069,2686,1760,1325
6055,2682,1755,1323
6046,2680,1751,1321
6040,2678,1749,1320
6032,2675,1746,1319
6028,2674,1744,1318
6027,2674,1744,1318
6027,2673,1744,1318
6024,2672,1743,1317
6025,2673,1743,1317
6025,2672,1743,1317
6023,2671,1743,1317
6022,2671,1743,1316
6023,2671,1743,1316
6022,2671,1743,1316
6020,2670,1743,1315
6021,2670,1743,1315
6019,2670,1743,1314
6018,2669,1743,1314
6019,2670,1744,1314
6022,2670,1745,1314
6021,2670,1745,1314
6021,2669,1745,1314
6024,2670,1746,1314
6025,2670,1747,1314
6024,2669,1747,1314
6027,2670,1748,1314
6028,2671,1749,1314
6026,2669,1749,1314
6027,2670,1749,1314
6030,2670,1750,1314
6029,2670,1751,1314
6030,2669,1751,1314
6034,2670,1753,1315
6034,2670,1753,1315
6027,2668,1751,1314
6017,2665,1746,1313
6005,2661,1741,1311
5991,2657,1736,1308
5980,2654,1731,1306
5973,2652,1728,1305
5964,2649,1725,1304
5955,2646,1721,1302
5952,2645,1720,1301
5951,2645,1720,1301
5948,2644,1719,1300
5946,2643,1719,1300
5947,2643,1719,1300
5944,2642,1718,1299
5943,2642,1718,1299
5945,2642,1719,1299
5945,2642,1719,1299
5944,2641,1719,1299
5945,2641,1719,1299
5947,2642,1720,1299
5946,2641,1721,1299
5947,2641,1721,1299
5950,2642,1722,1299
5951,2642,1723,1299
5951,2642,1724,1299
5953,2642,1724,1299
5955,2642,1725,1300
5956,2642,1726,1300
5958,2642,1727,1300
5960,2643,1728,1300
5960,2643,1728,1300
5961,2642,1729,1300
5962,2643,1730,1300
5965,2643,1731,1301
5966,2643,1732,1301
5967,2643,1732,1301
5964,2642,1731,1300
5956,2640,1728,1299
5942,2636,1722,1296
5929,2633,1717,1294
5918,2630,1712,1292
5910,2627,1709,1291
5902,2625,1706,1290
5897,2624,1703,1289
5894,2624,1702,1288
5895,2624,1702,1289
5898,2626,1703,1289
5901,2627,1704,1290
5902,2627,1704,1290
5904,2628,1705,1290
5907,2629,1706,1291
5907,2630,1707,1291
5910,2631,1708,1292
5914,2631,1710,1293
5918,2633,1711,1293
5922,2634,1711,1294
5925,2635,1713,1294
5928,2636,1714,1294
5933,2638,1716,1295
5936,2639,1717,1296
5940,2640,1718,1297
5945,2641,1720,1298
5949,2643,1722,1298
5951,2643,1723,1299
5955,2644,1724,1300
5960,2646,1726,1301
5964,2647,1727,1301
5966,2648,1728,1302
5971,2649,1730,1302
5976,2651,1732,1304
5979,2652,1733,1304
5981,2653,1734,1305
5986,2655,1735,1305
5981,2653,1733,1305
5968,2650,1728,1303
5958,2648,1724,1301
5951,2646,1720,1300
5942,2644,1716,1299
5937,2642,1714,1298
5935,2643,1713,1298
5934,2643,1712,1297
5933,2642,1712,1297
5938,2644,1713,1298
5942,2646,1715,1299
5943,2646,1715,1299
5944,2646,1715,1299
5949,2648,1717,1300
5953,2650,1719,1301
5956,2650,1720,1302
5960,2652,1721,1303
5967,2654,1724,1304
5970,2655,1725,1305
5973,2656,1726,1305
5980,2658,1729,1306
5985,2660,1731,1308
5987,2660,1732,1308
5992,2662,1734,1309
5999,2664,1736,1310
6002,2665,1737,1311
6005,2666,1738,1311
6010,2668,1740,1312
6015,2670,1742,1313
6017,2670,1743,1313
6021,2671,1744,1314
6026,2673,1746,1315
6030,2674,1748,1316
6033,2675,1749,1316
6038,2677,1751,1317
6040,2678,1751,1318
6034,2676,1749,1317
6022,2673,1744,1315
6011,2671,1739,1313
6000,2668,1734,1311
5990,2665,1730,1309
5983,2664,1727,1308
5978,2663,1724,1307
5972,2661,1722,1306
5970,2661,1721,1306
5973,2662,1722,1306
5976,2664,1723,1307
5976,2664,1723,1307
5978,2664,1724,1307
5979,2664,1724,1307
5981,2665,1725,1308
5983,2665,1726,1308
5987,2667,1727,1309
5991,2668,1729,1310
5994,2669,1730,1310
5997,2670,1731,1311
6001,2671,1733,1312
6005,2672,1734,1312
6008,2673,1735,1313
6011,2674,1737,1313
6014,2675,1738,1314
6017,2675,1739,1314
6020,2676,1741,1315
6024,2677,1742,1316
6027,2678,1743,1316
6029,2679,1744,1317
6032,2680,1745,1317
6035,2681,1746,1318
6039,2682,1748,1318
6043,2683,1749,1319
6046,2684,1751,1320
6047,2684,1751,1320
6042,2683,1749,1319
6029,2679,1744,1317
6015,2676,1738,1314
6015,2672,1732,1312
6001,2669,1727,1310
5989,2669,1722,1308
5978,2666,1719,1306
5968,2664,1719,1304
5961,2661,1715,1304
5958,2661,1714,1304
5957,2660,1714,1304
5958,2660,1715,1304
5958,2660,1715,1304
5958,2660,1715,1303
5956,2659,1715,1303
5957,2659,1715,1303
5957,2659,1716,1303
5959,2659,1716,1303
5959,2659,1717,1303
5961,2659,1718,1303
5962,2659,1719,1304
5963,2659,1719,1304
5964,2659,1720,1304
5967,2660,1721,1304
5969,2660,1722,1304
5969,2660,1723,1304
5972,2660,1724,1305
5973,2661,1724,1305
5973,2660,1725,1305
5975,2660,1726,1305
5976,2661,1726,1305
5976,2660,1727,1305
5976,2660,1727,1305
5979,2661,1728,1305
5979,2660,1728,1305
5977,2659,1728,1305
5978,2659,1729,1305
5974,2657,1727,1304
5958,2652,1721,1301
5941,2647,1714,1298
5928,2644,1709,1296
5914,2639,1704,1293
5902,2635,1699,1291
5896,2634,1697,1290
5889,2631,1694,1289
5881,2628,1691,1287
5881,2628,1692,1287
5884,2629,1693,1288
5880,2627,1692,1287
5877,2625,1691,1286
5879,2626,1692,1287
5879,2625,1692,1287
5876,2623,1691,1286
5878,2624,1693,1286
5882,2625,1694,1287
5879,2623,1694,1286
5879,2622,1694,1286
5884,2624,1696,1287
5884,2623,1697,1287
5881,2621,1696,1286
5885,2622,1698,1287
5888,2623,1699,1287
5884,2621,1699,1286
5886,2621,1699,1286
5890,2622,1701,1287
5889,2621,1701,1287
5886,2619,1701,1286
5890,2620,1702,1287
5891,2620,1703,1287
5887,2618,1702,1286
5889,2618,1703,1286
5893,2619,1705,1287
5888,2617,1704,1286
5881,2614,1701,1284
5872,2611,1697,1283
5855,2607,1691,1280
5835,2600,1683,1276
5823,2597,1678,1274
5816,2595,1675,1273
5802,2590,1670,1270
5793,2587,1667,1269
5790,2586,1666,1268
5788,2585,1665,1268
5784,2583,1664,1267
5785,2583,1665,1267
5787,2584,1665,1267
5782,2581,1664,1266
5780,2580,1664,1265
5783,2581,1665,1266
5782,2580,1666,1266
5781,2579,1666,1265
5783,2579,1666,1265
5786,2580,1668,1266
5784,2579,1668,1265
5785,2578,1668,1265
5788,2579,1670,1266
5788,2579,1670,1266
5787,2577,1670,1265
5788,2577,1671,1266
5789,2578,1672,1266
5789,2577,1672,1265
5789,2576,1672,1265
5789,2576,1673,1265
5790,2576,1673,1265
5789,2575,1673,1265
5788,2574,1673,1265
5788,2574,1674,1265
5789,2573,1674,1265
5788,2572,1674,1264
5788,2572,1675,1264
5787,2571,1675,1264
5781,2570,1672,1263
5768,2566,1667,1261
5755,2563,1661,1259
5743,2560,1656,1256
5734,2557,1652,1255
5729,2557,1650,1254
5724,2556,1648,1254
5722,2556,1646,1253
5723,2557,1646,1253
5727,2559,1648,1254
5734,2561,1650,1255
5737,2562,1651,1256
5739,2563,1652,1256
5744,2565,1653,1257
5750,2567,1656,1258
5754,2569,1657,1259
5759,2570,1659,1260
5767,2573,1661,1261
5772,2575,1663,1262
5776,2576,1665,1263
5782,2579,1667,1264
5791,2582,1670,1266
5795,2583,1672,1267
5799,2585,1673,1267
5808,2588,1676,1269
5815,2590,1679,1271
5817,2591,1680,1271
5823,2593,1682,1272
5832,2596,1685,1274
5837,2598,1687,1275
5839,2598,1688,1275
5846,2601,1690,1276
5854,2604,1693,1278
5856,2605,1694,1278
5861,2606,1695,1279
5869,2610,1698,1281
5872,2611,1699,1281
5862,2608,1695,1280
5853,2606,1691,1278
5846,2605,1687,1277
5836,2603,1683,1276
5827,2600,1679,1274
5828,2602,1678,1275
5827,2602,1678,1275
5822,2600,1676,1274
5826,2602,1677,1275
5836,2606,1680,1277
5838,2606,1681,1277
5839,2606,1681,1277
5847,2610,1684,1279
5854,2613,1686,1281
5856,2613,1687,1281
5861,2614,1689,1282
5872,2619,1692,1284
5877,2620,1694,1285
5880,2621,1696,1286
5888,2624,1698,1287
5897,2627,1702,1289
5901,2628,1703,1290
5905,2629,1705,1291
5916,2633,1708,1293
5923,2636,1711,1294
5925,2636,1712,1294
5932,2638,1714,1296
5941,2642,1717,1298
5945,2643,1719,1298
5948,2644,1720,1299
5958,2647,1723,1301
5963,2649,1725,1302
5966,2650,1727,1302
5972,2652,1729,1304
5981,2656,1732,1305
5984,2657,1733,1306
5982,2656,1732,1306
5978,2656,1730,1305
5966,2653,1724,1303
5953,2650,1719,1301
5944,2648,1715,1300
5940,2647,1712,1299
5933,2646,1709,1298
5927,2644,1707,1297
5927,2645,1706,1297
5929,2646,1707,1298
5931,2646,1708,1298
5934,2647,1709,1299
5937,2649,1710,1299
5939,2649,1710,1299
5939,2649,1711,1300
5940,2651,1713,1300
5944,2651,1714,1301
5948,2652,1715,1302
5951,2653,1715,1302
5955,2654,1717,1303
5960,2656,1719,1303
5963,2656,1720,1304
5966,2657,1721,1305
5972,2659,1723,1306
5976,2660,1725,1306
5980,2661,1726,1307
5984,2663,1728,1308
5989,2664,1730,1309
5993,2665,1731,1310
5997,2667,1733,1310
6001,2668,1734,1311
6004,2669,1736,1312
6007,2669,1737,1312
6010,2670,1738,1312
6011,2671,1739,1313
6015,2672,1740,1313
6017,2672,1741,1314
6020,2673,1742,1314
6019,2672,1742,1314
6011,2670,1739,1313
5996,2666,1733,1310
5982,2662,1727,1308
5969,2659,1722,1305
5959,2656,1718,1304
5950,2654,1714,1302
5942,2651,1711,1301
5936,2650,1708,1300
5935,2649,1708,1299
5935,2649,1708,1299
5936,2650,1709,1299
5936,2649,1709,1299
5936,2649,1709,1299
5936,2649,1709,1299
5937,2649,1710,1299
5938,2650,1710,1299
5940,2650,1711,1299
5941,2650,1712,1299
5943,2650,1713,1300
5946,2651,1714,1300
5948,2651,1715,1300
5950,2652,1716,1301
5953,2653,1717,1301
5956,2653,1719,1302
5958,2654,1720,1302
5961,2654,1721,1303
5963,2655,1722,1303
5964,2655,1723,1303
5965,2655,1723,1303
5967,2655,1724,1303
5968,2655,1725,1303
5967,2655,1725,1303
5969,2655,1726,1303
5972,2655,1727,1304
5971,2655,1727,1303
5973,2655,1728,1304
5974,2655,1728,1304
5966,2652,1725,1302
5951,2648,1720,1300
5937,2645,1714,1297
5923,2640,1708,1295
5911,2637,1703,1293
5905,2635,1701,1292
5899,2634,1698,1291
5892,2631,1696,1289
5891,2630,1696,1289
5893,2631,1696,1290
5893,2630,1696,1289
5891,2629,1696,1289
5893,2630,1697,1289
5893,2630,1697,1289
5891,2629,1697,1289
5894,2629,1698,1290
5898,2630,1699,1290
5897,2629,1699,1290
5897,2629,1700,1290
5901,2630,1702,1291
5902,2630,1702,1291
5902,2629,1703,1290
5906,2631,1704,1291
5909,2631,1705,1292
5908,2630,1706,1292
5911,2631,1707,1292
5915,2632,1708,1293
5915,2632,1709,1293
5916,2631,1710,1293
5920,2633,1711,1293
5922,2633,1712,1294
5921,2632,1712,1293
5925,2633,1714,1294
5928,2634,1715,1295
5929,2634,1716,1295
5930,2634,1716,1295
5930,2634,1717,1295
5931,2632,1714,1294
5923,2632,1708,1291
5908,2627,1702,1288
5893,2623,1702,1286
5878,2619,1696,1283
5865,2615,1691,1283
5856,2612,1687,1282
5850,2610,1684,1281
5843,2608,1682,1280
5839,2607,1681,1279
5841,2607,1681,1279
5841,2607,1681,1279
5839,2606,1681,1278
5839,2606,1681,1278
5840,2606,1681,1278
5839,2605,1681,1278
5840,2605,1682,1278
5842,2605,1683,1279
5844,2606,1684,1279
5844,2605,1685,1279
5847,2606,1686,1279
5848,2606,1687,1279
5850,2606,1687,1280
5851,2606,1688,1280
5852,2606,1689,1280
5853,2606,1689,1280
5855,2606,1690,1280
5857,2607,1691,1281
5858,2607,1692,1281
5861,2607,1693,1281
5863,2608,1694,1281
5865,2608,1695,1282
5867,2609,1696,1282
5869,2609,1697,1282
5873,2610,1699,1283
5878,2612,1700,1284
5882,2613,1702,1285
5885,2615,1703,1285
5887,2615,1704,1286
5879,2613,1700,1285
5866,2610,1695,1282
5853,2607,1689,1280
5844,2605,1685,1279
5836,2603,1682,1277
5831,2602,1679,1277
5827,2601,1677,1276
5826,2601,1676,1276
5825,2601,1676,1276
5828,2602,1677,1276
5831,2603,1678,1277
5832,2604,1679,1277
5834,2604,1679,1277
5838,2606,1680,1278
5841,2607,1682,1278
5843,2607,1683,1279
5848,2609,1684,1280
5854,2611,1686,1281
5857,2612,1688,1281
5859,2613,1689,1282
5864,2615,1691,1282
5869,2616,1692,1283
5872,2617,1694,1284
5877,2618,1696,1285
5883,2621,1698,1286
5886,2621,1699,1286
5889,2622,1700,1287
5895,2624,1702,1288
5900,2626,1704,1289
5902,2626,1705,1289
5905,2627,1706,1290
5912,2630,1709,1291
5914,2630,1710,1292
5916,2631,1711,1292
5922,2633,1713,1293
5926,2635,1714,1294
5927,2635,1715,1294
5923,2634,1713,1293
5915,2632,1709,1292
5902,2629,1703,1290
5889,2625,1698,1288
5883,2624,1695,1287
5880,2624,1693,1287
5874,2622,1691,1286
5870,2621,1689,1285
5873,2622,1690,1286
5877,2624,1691,1286
5877,2624,1692,1287
5881,2625,1693,1287
5885,2627,1694,1288
5888,2628,1695,1289
5890,2628,1696,1289
5897,2631,1698,1291
5902,2632,1700,1292
5906,2633,1702,1292
5912,2635,1704,1293
5918,2637,1706,1295
5922,2638,1708,1296
5922,2639,1709,1296
5925,2641,1711,1297
5930,2641,1713,1298
5936,2643,1714,1299
5938,2643,1714,1299
5943,2645,1716,1301
5949,2647,1718,1301
5953,2648,1720,1301
5958,2649,1722,1302
5964,2651,1724,1303
5968,2653,1726,1304
5972,2654,1727,1305
5975,2655,1728,1306
5981,2657,1730,1307
5984,2657,1732,1307
5987,2658,1733,1308
5988,2659,1734,1308
5985,2658,1732,1307
5973,2655,1727,1306
5959,2651,1721,1303
5948,2648,1716,1301
5938,2646,1712,1300
5930,2643,1709,1298
5924,2642,1706,1297
5920,2641,1704,1297
5918,2641,1704,1296
5920,2641,1704,1297
5924,2643,1705,1297
5925,2643,1706,1298
5925,2643,1706,1298
5927,2643,1707,1298
5930,2644,1708,1299
5933,2645,1709,1299
5936,2646,1710,1300
5939,2647,1712,1300
5942,2648,1713,1301
5946,2649,1714,1301
5949,2650,1716,1302
5952,2651,1717,1302
5955,2651,1718,1303
5958,2652,1719,1303
5961,2653,1721,1304
5963,2654,1722,1304
5966,2654,1723,1305
5969,2655,1724,1305
5971,2655,1725,1306
5974,2656,1727,1306
5977,2657,1728,1307
5979,2657,1729,1307
5981,2658,1730,1308
5984,2658,1731,1308
5987,2659,1732,1309
5989,2659,1733,1309
5990,2659,1733,1309
5988,2659,1733,1309
5978,2656,1729,1307
5963,2652,1722,1304
5948,2648,1716,1302
5936,2645,1711,1300
5926,2642,1707,1298
5918,2639,1704,1296
5912,2638,1701,1295
5908,2637,1700,1295
5906,2636,1699,1294
5906,2636,1700,1294
5908,2637,1700,1294
5908,2637,1700,1294
5907,2636,1700,1294
5909,2637,1701,1294
5911,2637,1702,1294
5912,2638,1703,1295
5914,2638,1703,1295
5917,2639,1705,1295
5918,2639,1705,1295
5920,2639,1706,1296
5923,2640,1707,1296
5924,2640,1708,1296
5925,2640,1709,1296
5928,2641,1710,1297
5931,2641,1711,1297
5933,2642,1712,1298
5933,2641,1713,1298
5937,2642,1714,1298
5938,2643,1715,1298
5940,2643,1716,1299
5941,2643,1717,1299
5944,2644,1718,1299
5944,2643,1718,1299
5945,2644,1719,1299
5949,2645,1720,1300
5950,2645,1721,1300
5949,2644,1721,1299
5943,2643,1718,1299
5929,2639,1713,1296
5914,2634,1706,1294
5902,2631,1701,1292
5894,2629,1698,1290
5894,2626,1695,1289
5885,2624,1692,1287
5878,2624,1690,1287
5874,2623,1690,1286
5873,2623,1690,1286
5872,2622,1690,1286
5872,2622,1690,1286
5874,2622,1691,1286
5874,2622,1691,1286
5873,2621,1691,1286
5876,2622,1692,1287
5877,2622,1693,1287
5878,2622,1693,1287
5881,2623,1695,1288
5884,2624,1696,1288
5884,2623,1696,1288
5887,2624,1697,1288
5892,2625,1699,1289
5893,2625,1700,1290
5895,2625,1701,1290
5898,2626,1702,1291
5901,2627,1704,1291
5902,2627,1704,1291
5905,2628,1706,1292
5908,2628,1707,1292
5909,2628,1708,1292
5911,2629,1709,1292
5914,2629,1710,1293
5916,2630,1711,1293
5919,2630,1712,1294
5922,2631,1713,1294
5923,2631,1714,1294
5918,2629,1712,1294
5907,2626,1708,1292
5893,2622,1702,1290
5879,2618,1696,1287
5869,2616,1692,1285
5861,2613,1689,1284
5853,2611,1686,1283
5847,2609,1683,1281
5844,2608,1682,1281
5845,2609,1682,1281
5845,2608,1683,1281
5846,2608,1683,1281
5846,2608,1683,1281
5847,2608,1684,1281
5849,2609,1685,1281
5850,2609,1685,1281
5852,2609,1686,1282
5853,2610,1687,1282
5856,2610,1688,1282
5858,2611,1689,1283
5861,2612,1690,1283
5864,2612,1692,1284
5867,2613,1693,1284
5871,2614,1694,1285
5875,2615,1696,1286
5879,2616,1698,1286
5883,2617,1699,1287
5885,2618,1700,1287
5889,2620,1702,1288
5893,2621,1703,1289
5896,2622,1704,1289
5899,2623,1706,1290
5902,2624,1707,1290
5907,2625,1709,1291
5911,2626,1710,1292
5914,2627,1711,1293
5917,2628,1712,1293
5914,2627,1711,1293
5902,2624,1706,1291
5889,2621,1700,1289
5877,2618,1695,1287
5867,2615,1691,1285
5859,2613,1688,1284
5853,2612,1685,1283
5848,2611,1683,1282
5845,2610,1681,1281
5846,2610,1682,1281
5850,2612,1683,1282
5851,2612,1684,1282
5851,2612,1684,1282
5853,2613,1684,1283
5857,2614,1686,1283
5860,2615,1687,1284
5863,2616,1688,1284
5867,2617,1690,1285
5870,2619,1691,1285
5872,2619,1692,1286
5877,2621,1694,1286
5881,2622,1695,1287
5884,2623,1696,1288
5887,2624,1698,1288
5893,2626,1700,1289
5897,2627,1701,1290
5899,2627,1702,1290
5904,2629,1704,1291
5909,2631,1706,1292
5909,2631,1706,1292
5910,2632,1708,1293
5913,2632,1709,1294
5916,2633,1710,1294
5919,2633,1710,1294
5921,2634,1711,1295
5925,2635,1712,1295
5929,2636,1714,1296
5929,2636,1714,1296
5923,2635,1712,1295
5912,2632,1707,1293
5899,2629,1701,1291
5886,2625,1696,1289
5878,2623,1692,1287
5870,2622,1689,1286
5861,2619,1685,1284
5856,2618,1684,1283
5858,2619,1684,1283
5859,2619,1684,1284
5856,2618,1683,1282
5857,2619,1684,1282
5860,2620,1685,1283
5865,2621,1687,1284
5871,2623,1689,1286
5878,2625,1691,1287
5883,2626,1693,1288
5887,2627,1695,1289
5892,2629,1697,1290
5897,2630,1698,1291
5899,2631,1700,1292
5902,2632,1701,1292
5906,2633,1702,1293
5911,2634,1704,1294
5914,2635,1706,1294
5919,2637,1707,1295
5924,2638,1709,1296
5928,2639,1711,1297
5931,2640,1712,1298
5934,2641,1713,1298
5937,2642,1715,1299
5940,2642,1716,1299
5944,2644,1717,1300
5948,2645,1719,1301
5951,2646,1720,1301
5952,2646,1720,1301
5947,2644,1718,1301
5934,2641,1713,1299
5920,2637,1707,1296
5909,2634,1702,1294
5900,2632,1699,1293
5893,2630,1695,1292
5886,2628,1692,1291
5882,2627,1691,1290
5881,2627,1691,1290
5884,2628,1691,1290
5886,2629,1692,1291
5888,2629,1693,1291
5888,2629,1693,1291
5890,2630,1694,1291
5893,2631,1695,1292
5896,2631,1696,1292
5898,2632,1697,1293
5901,2632,1699,1293
5904,2633,1700,1294
5907,2634,1701,1294
5910,2635,1702,1295
5913,2636,1704,1295
5916,2637,1705,1296
5919,2637,1706,1296
5922,2638,1707,1297
5924,2638,1708,1297
5926,2639,1709,1297
5928,2639,1710,1298
5931,2640,1712,1298
5933,2641,1712,1299
5935,2641,1713,1299
5937,2641,1714,1299
5940,2642,1715,1300
5942,2643,1716,1300
5944,2643,1717,1300
5945,2643,1718,1300
5942,2642,1717,1300
5931,2639,1712,1298
5917,2636,1706,1296
5902,2632,1700,1293
5889,2628,1695,1291
5879,2625,1691,1289
5871,2623,1687,1288
5863,2621,1684,1286
5860,2620,1683,1285
5860,2620,1683,1285
5862,2621,1683,1286
5863,2621,1684,1286
5864,2621,1684,1286
5863,2621,1684,1286
5864,2621,1685,1286
5865,2621,1685,1286
5867,2622,1686,1286
5867,2622,1687,1286
5868,2623,1688,1286
5871,2623,1689,1287
5873,2623,1690,1287
5875,2624,1690,1288
5877,2624,1691,1288
5880,2625,1692,1288
5882,2625,1693,1288
5883,2625,1694,1288
5885,2625,1695,1289
5887,2626,1696,1289
5890,2627,1697,1290
5891,2627,1698,1290
5894,2628,1699,1290
5896,2628,1700,1290
5896,2628,1700,1290
5899,2629,1701,1291
5901,2629,1702,1291
5903,2629,1703,1291
5905,2630,1704,1292
5905,2630,1705,1292
5899,2628,1702,1291
5885,2624,1696,1288
5872,2620,1691,1286
5860,2617,1686,1284
5850,2614,1682,1283
5843,2612,1679,1281
5837,2611,1676,1280
5832,2609,1674,1279
5831,2609,1674,1279
5833,2610,1675,1280
5834,2610,1675,1280
5834,2609,1675,1280
5836,2610,1676,1280
5838,2610,1677,1280
5839,2610,1677,1281
5841,2611,1678,1281
5845,2612,1680,1282
5847,2612,1681,1282
5850,2613,1682,1282
5853,2614,1684,1283
5856,2615,1685,1284
5859,2615,1686,1284
5862,2616,1688,1285
5866,2617,1689,1285
5868,2617,1690,1286
5871,2618,1691,1286
5874,2619,1693,1287
5877,2619,1694,1287
5879,2620,1695,1288
5882,2620,1696,1288
5884,2621,1697,1288
5885,2621,1698,1289
5888,2622,1699,1289
5892,2623,1700,1290
5894,2623,1701,1290
5895,2623,1702,1290
5892,2622,1700,1290
5880,2619,1696,1288
5864,2614,1689,1285
5849,2610,1683,1282
5837,2607,1678,1280
5827,2604,1674,1279
5820,2602,1671,1277
5813,2600,1668,1276
5809,2599,1666,1275
5808,2599,1666,1275
5811,2600,1667,1276
5811,2600,1668,1276
5812,2600,1668,1276
5812,2600,1668,1276
5814,2600,1669,1276
5818,2601,1670,1277
5820,2602,1672,1277
5822,2603,1673,1277
5826,2603,1674,1278
5829,2604,1675,1279
5834,2606,1677,1279
5837,2607,1678,1280
5841,2607,1680,1280
5844,2608,1681,1281
5849,2610,1683,1282
5852,2611,1685,1283
5855,2611,1686,1283
5858,2612,1687,1284
5862,2613,1688,1284
5865,2614,1690,1285
5868,2615,1691,1285
5871,2616,1692,1286
5874,2617,1693,1287
5878,2618,1695,1287
5882,2620,1697,1288
5886,2621,1698,1289
5887,2622,1698,1289
5881,2620,1696,1288
5869,2617,1691,1286
5853,2613,1684,1283
5853,2609,1678,1280
5839,2605,1673,1278
5826,2605,1669,1277
5817,2603,1666,1275
5809,2601,1666,1274
5803,2600,1663,1274
5801,2599,1662,1274
5803,2600,1663,1274
5805,2600,1664,1274
5807,2601,1665,1274
5808,2601,1666,1275
5810,2602,1666,1275
5811,2602,1667,1275
5815,2603,1668,1276
5820,2605,1670,1277
5823,2606,1671,1277
5826,2606,1673,1278
5830,2608,1674,1279
5834,2609,1676,1279
5837,2610,1677,1280
5840,2610,1678,1280
5845,2612,1680,1281
5847,2613,1681,1281
5850,2613,1682,1282
5854,2615,1684,1283
5858,2616,1685,1283
5860,2616,1686,1284
5863,2617,1687,1284
5867,2618,1689,1285
5870,2619,1690,1285
5872,2620,1691,1286
5876,2621,1693,1287
5880,2622,1694,1287
5883,2622,1695,1288
5880,2622,1694,1287
5870,2619,1690,1286
5855,2615,1684,1283
5842,2612,1678,1281
5833,2609,1674,1280
5826,2608,1671,1279
5820,2606,1668,1277
5815,2605,1666,1277
5814,2605,1666,1277
5817,2606,1667,1277
5819,2606,1668,1277
5822,2607,1669,1278
5824,2608,1670,1278
5827,2609,1671,1279
5830,2609,1672,1279
5835,2611,1674,1280
5839,2612,1675,1281
5843,2613,1677,1282
5847,2614,1679,1283
5851,2615,1680,1283
5855,2617,1682,1284
5859,2618,1684,1285
5863,2619,1685,1286
5867,2620,1687,1286
5871,2621,1689,1287
5876,2622,1690,1288
5880,2623,1692,1289
5884,2624,1693,1289
5888,2626,1695,1290
5892,2627,1697,1291
5895,2627,1698,1291
5898,2628,1699,1292
5901,2629,1701,1293
5904,2630,1702,1293
5908,2631,1703,1294
5911,2632,1705,1294
5913,2632,1705,1295
5910,2632,1705,1294
5900,2629,1700,1292
5883,2624,1693,1290
5868,2620,1687,1287
5855,2617,1681,1285
5845,2614,1677,1283
5836,2612,1674,1281
5830,2611,1671,1280
5825,2609,1669,1280
5826,2610,1669,1280
5830,2611,1671,1280
5832,2611,1672,1281
5834,2612,1672,1281
5835,2612,1673,1281
5837,2612,1674,1282
5841,2614,1675,1282
5843,2614,1677,1283
5847,2615,1678,1283
5849,2616,1679,1284
5851,2616,1680,1284
5854,2617,1681,1284
5856,2617,1682,1285
5858,2617,1683,1285
5861,2618,1684,1285
5863,2619,1686,1286
5866,2619,1687,1286
5866,2618,1687,1286
5866,2619,1689,1287
5869,2619,1689,1287
5870,2619,1690,1287
5871,2619,1690,1287
5872,2619,1691,1287
5874,2620,1692,1287
5875,2619,1692,1287
5876,2620,1693,1287
5879,2620,1694,1288
5880,2620,1695,1288
5880,2620,1695,1287
5879,2619,1695,1287
5869,2617,1691,1285
5852,2612,1684,1283
5834,2607,1677,1279
5821,2604,1671,1277
5809,2600,1666,1275
5797,2596,1662,1272
5788,2594,1659,1271
5782,2592,1656,1270
5778,2590,1655,1269
5779,2590,1656,1269
5782,2591,1657,1270
5781,2590,1657,1269
5779,2589,1656,1269
5781,2589,1657,1269
5782,2589,1658,1269
5779,2588,1658,1268
5781,2588,1658,1268
5784,2589,1660,1269
5782,2588,1660,1268
5781,2587,1660,1268
5786,2588,1662,1269
5787,2588,1663,1269
5785,2586,1662,1269
5788,2587,1664,1269
5792,2588,1665,1270
5791,2587,1665,1269
5790,2586,1665,1269
5795,2587,1667,1270
5794,2587,1668,1270
5792,2585,1667,1269
5796,2586,1669,1270
5799,2587,1670,1270
5796,2585,1670,1270
5797,2585,1670,1270
5801,2586,1672,1271
5797,2584,1671,1270
5783,2580,1666,1267
5771,2577,1661,1265
5757,2573,1655,1263
5740,2567,1649,1260
5730,2564,1645,1258
5726,2563,1643,1257
5718,2560,1640,1256
5712,2558,1638,1255
5716,2559,1640,1255
5717,2559,1640,1255
5714,2557,1640,1255
5715,2558,1640,1255
5718,2558,1641,1255
5716,2557,1641,1255
5716,2556,1642,1255
5721,2558,1643,1256
5722,2558,1644,1255
5720,2556,1644,1255
5723,2557,1645,1255
5726,2558,1647,1256
5724,2557,1647,1255
5725,2556,1647,1255
5729,2558,1649,1256
5730,2557,1650,1256
5729,2556,1650,1256
5731,2556,1651,1256
5733,2557,1652,1256
5732,2556,1652,1256
5733,2556,1653,1256
5734,2556,1653,1256
5733,2555,1653,1256
5732,2554,1653,1255
5734,2555,1654,1256
5736,2555,1655,1256
5736,2554,1656,1256
5737,2554,1656,1256
5735,2553,1656,1256
5724,2550,1652,1253
5706,2544,1645,1250
5690,2540,1638,1247
5675,2536,1632,1245
5663,2532,1627,1243
5653,2529,1623,1241
5645,2527,1620,1239
5642,2526,1619,1239
5641,2526,1618,1239
5644,2527,1619,1239
5646,2527,1620,1239
5646,2528,1621,1240
5647,2529,1622,1240
5650,2529,1623,1241
5654,2530,1625,1242
5658,2532,1625,1243
5663,2533,1626,1244
5668,2535,1628,1244
5675,2537,1631,1245
5678,2538,1632,1245
5683,2540,1634,1246
5689,2542,1636,1247
5694,2544,1638,1248
5697,2545,1639,1249
5703,2547,1641,1250
5709,2549,1643,1251
5713,2551,1645,1252
5718,2552,1647,1253
5725,2555,1649,1254
5729,2556,1651,1255
5731,2557,1652,1255
5736,2559,1653,1256
5743,2562,1656,1257
5746,2563,1657,1258
5750,2564,1658,1258
5757,2566,1661,1260
5763,2569,1663,1261
5762,2568,1663,1261
5758,2568,1661,1260
5750,2566,1657,1259
5735,2563,1650,1256
5721,2559,1645,1254
5716,2558,1642,1253
5712,2558,1640,1253
5706,2556,1637,1252
5702,2555,1635,1251
5707,2557,1636,1252
5710,2559,1638,1253
5711,2559,1638,1253
5715,2561,1640,1254
5721,2563,1641,1255
5722,2563,1642,1255
5725,2564,1643,1255
5734,2568,1646,1257
5741,2570,1649,1259
5743,2570,1650,1259
5749,2572,1652,1260
5757,2576,1654,1262
5760,2576,1656,1262
5763,2577,1657,1263
5772,2580,1660,1265
5779,2583,1662,1266
5781,2583,1663,1266
5788,2585,1666,1268
5796,2588,1669,1270
5801,2590,1670,1270
5804,2590,1672,1271
5812,2593,1674,1273
5819,2596,1677,1274
5821,2596,1678,1275
5826,2598,1680,1275
5834,2601,1682,1277
5837,2602,1684,1278
5834,2601,1683,1277
5829,2600,1680,1276
5820,2598,1676,1275
5807,2595,1670,1273
5800,2593,1667,1272
5798,2593,1665,1272
5794,2593,1664,1271
5790,2591,1662,1271
5792,2593,1662,1271
5798,2595,1664,1272
5800,2596,1665,1273
5804,2597,1666,1273
5809,2599,1668,1274
5812,2600,1669,1275
5815,2601,1670,1276
5820,2602,1672,1277
5826,2604,1674,1278
5829,2605,1676,1278
5833,2606,1677,1279
5838,2608,1679,1280
5841,2609,1681,1280
5844,2610,1682,1281
5849,2611,1684,1282
5854,2613,1685,1283
5857,2613,1687,1283
5860,2614,1688,1284
5866,2616,1690,1285
5870,2617,1692,1286
5874,2619,1693,1286
5878,2620,1695,1287
5883,2622,1697,1288
5887,2623,1698,1289
5891,2624,1700,1290
5895,2625,1701,1291
5899,2626,1703,1291
5899,2627,1704,1291
5901,2628,1704,1292
5903,2628,1703,1291
5898,2626,1698,1289
5888,2624,1698,1287
5872,2619,1692,1284
5858,2616,1686,1284
5846,2612,1681,1282
5837,2610,1677,1280
5828,2607,1673,1279
5821,2605,1671,1278
5821,2605,1671,1278
5822,2606,1671,1278
5825,2607,1672,1278
5828,2607,1673,1279
5826,2606,1673,1278
5827,2606,1673,1278
5827,2606,1674,1278
5829,2607,1675,1279
5831,2607,1676,1279
5833,2608,1677,1279
5836,2608,1678,1279
5838,2609,1679,1280
5840,2609,1680,1280
5840,2609,1680,1280
5840,2609,1681,1280
5842,2609,1681,1280
5845,2610,1683,1281
5845,2610,1683,1280
5847,2610,1684,1281
5850,2610,1685,1281
5852,2611,1686,1281
5852,2611,1687,1281
5855,2611,1688,1282
5858,2612,1689,1282
5860,2612,1690,1283
5862,2613,1691,1283
5865,2613,1692,1283
5865,2613,1693,1283
5863,2612,1692,1283
5857,2610,1690,1282
5843,2606,1685,1279
5826,2601,1678,1276
5812,2597,1672,1274
5803,2595,1668,1272
5793,2592,1664,1270
5783,2588,1660,1269
5778,2587,1658,1268
5774,2586,1657,1267
5772,2584,1657,1266
5773,2584,1658,1267
5776,2585,1658,1267
5774,2584,1658,1267
5774,2583,1658,1267
5777,2584,1660,1267
5777,2584,1660,1267
5776,2583,1660,1267
5779,2583,1661,1267
5782,2584,1663,1268
5781,2583,1663,1267
5782,2583,1664,1267
5788,2585,1666,1269
5788,2584,1666,1269
5788,2583,1667,1268
5792,2585,1668,1269
5795,2585,1670,1270
5794,2584,1670,1269
5796,2584,1671,1270
5800,2586,1672,1270
5800,2585,1673,1270
5799,2584,1673,1270
5804,2585,1675,1271
5805,2586,1675,1271
5804,2584,1675,1270
5805,2584,1676,1271
5807,2585,1677,1271
5798,2582,1674,1269
5784,2578,1669,1267
5771,2574,1663,1265
5757,2570,1657,1262
5742,2565,1652,1260
5735,2563,1649,1258
5728,2561,1646,1257
5719,2558,1643,1255
5714,2556,1641,1254
5717,2558,1642,1255
5717,2557,1643,1255
5715,2556,1642,1254
5716,2556,1643,1254
5718,2556,1643,1255
5716,2556,1643,1254
5716,2555,1644,1254
5719,2556,1645,1254
5720,2556,1645,1254
5719,2555,1646,1254
5724,2556,1647,1255
5725,2556,1648,1255
5725,2556,1649,1256
5728,2553,1646,1252
5715,2553,1648,1254
5722,2554,1649,1254
5723,2554,1649,1254
5724,2554,1650,1254
5724,2554,1650,1254
5725,2554,1651,1254
5728,2553,1652,1254
5730,2553,1653,1255
5731,2554,1654,1255
5732,2553,1654,1255
5731,2553,1655,1255
5733,2553,1655,1255
5733,2553,1656,1255
5732,2552,1656,1255
5731,2551,1656,1254
5725,2549,1653,1253
5713,2546,1649,1251
5700,2542,1643,1249
5687,2539,1638,1247
5676,2536,1633,1245
5668,2534,1630,1243
5663,2533,1627,1242
5660,2533,1626,1242
5661,2533,1626,1242
5664,2534,1627,1243
5669,2536,1629,1244
5672,2538,1630,1244
5674,2538,1631,1245
5676,2539,1631,1245
5681,2541,1633,1246
5685,2542,1634,1246
5688,2543,1636,1247
5692,2545,1637,1247
5698,2547,1639,1248
5701,2548,1641,1249
5706,2550,1642,1250
5712,2552,1644,1251
5717,2554,1646,1252
5720,2555,1648,1252
5726,2556,1650,1253
5733,2559,1652,1255
5737,2560,1654,1256
5741,2561,1655,1256
5747,2564,1658,1258
5753,2566,1660,1259
5754,2566,1660,1259
5758,2567,1662,1260
5764,2570,1664,1261
5769,2571,1666,1262
5771,2572,1667,1262
5777,2574,1669,1263
5783,2576,1670,1264
5778,2575,1669,1263
5768,2572,1664,1262
5758,2570,1660,1260
5748,2568,1655,1259
5739,2565,1651,1257
5735,2565,1649,1257
5734,2565,1648,1257
5729,2564,1647,1256
5728,2563,1646,1256
5734,2566,1648,1257
5740,2568,1650,1258
5740,2567,1650,1258
5743,2569,1651,1259
5750,2571,1653,1260
5753,2572,1655,1261
5756,2573,1656,1261
5763,2576,1658,1263
5771,2578,1661,1264
5773,2578,1662,1265
5778,2580,1664,1266
5786,2583,1667,1267
5791,2584,1669,1268
5794,2585,1670,1269
5801,2588,1672,1270
5808,2590,1675,1271
5811,2591,1676,1272
5816,2592,1678,1273
5824,2595,1681,1275
5829,2597,1683,1276
5832,2597,1684,1276
5838,2600,1686,1277
5844,2602,1688,1278
5847,2603,1690,1279
5852,2604,1691,1280
5860,2607,1694,1281
5864,2608,1695,1282
5864,2608,1695,1282
5859,2607,1693,1282
5849,2606,1689,1280
5837,2602,1683,1278
5827,2600,1679,1277
5821,2599,1676,1276
5821,2598,1674,1275
5815,2596,1671,1274
5809,2596,1670,1273
5806,2595,1670,1274
5807,2596,1670,1274
5809,2596,1670,1274
5810,2596,1671,1274
5813,2597,1672,1275
5814,2598,1673,1275
5816,2598,1673,1275
5819,2599,1674,1276
5824,2601,1676,1277
5827,2602,1677,1277
5830,2602,1679,1278
5834,2604,1680,1278
5838,2605,1682,1279
5841,2606,1683,1280
5844,2607,1685,1280
5848,2608,1686,1281
5852,2609,1687,1282
5856,2610,1689,1282
5859,2611,1690,1283
5863,2613,1692,1284
5867,2614,1693,1284
5870,2615,1694,1285
5873,2616,1696,1285
5875,2616,1697,1286
5879,2617,1698,1286
5881,2618,1699,1287
5884,2619,1700,1287
5886,2619,1701,1288
5888,2620,1702,1288
5888,2620,1702,1288
5882,2618,1700,1287
5869,2614,1694,1285
5854,2610,1688,1282
5841,2607,1683,1280
5830,2604,1679,1278
5821,2601,1675,1276
5813,2599,1672,1275
5807,2597,1669,1274
5804,2597,1668,1273
5804,2597,1668,1273
5805,2597,1669,1273
5804,2596,1668,1273
5804,2596,1668,1272
5804,2596,1669,1272
5805,2596,1669,1272
5807,2597,1670,1273
5809,2597,1671,1273
5812,2598,1672,1274
5814,2598,1673,1274
5817,2599,1675,1274
5819,2599,1676,1275
5821,2600,1676,1275
5823,2600,1677,1275
5825,2600,1678,1276
5827,2601,1679,1276
5829,2601,1680,1276
5831,2602,1681,1277
5833,2602,1682,1277
5834,2602,1683,1277
5836,2603,1684,1277
5838,2603,1684,1278
5838,2603,1685,1278
5839,2603,1686,1278
5843,2603,1687,1278
5844,2603,1688,1279
5844,2603,1688,1278
5841,2602,1687,1278
5831,2599,1683,1276
5815,2594,1677,1274
5802,2590,1671,1271
5793,2588,1668,1270
5784,2585,1664,1268
5776,2583,1661,1267
5772,2582,1659,1266
5770,2581,1659,1266
5769,2580,1658,1265
5770,2580,1659,1265
5772,2581,1660,1266
5771,2580,1660,1266
5771,2579,1660,1265
5774,2580,1661,1266
5776,2581,1662,1266
5775,2580,1662,1266
5778,2581,1663,1267
5782,2582,1665,1267
5782,2581,1665,1267
5783,2581,1666,1267
5789,2583,1668,1268
5790,2583,1669,1269
5791,2583,1669,1269
5795,2584,1671,1269
5798,2585,1673,1270
5798,2584,1673,1270
5800,2584,1674,1270
5800,2586,1675,1271
5803,2585,1676,1271
5804,2585,1676,1270
5803,2584,1677,1271
5806,2585,1677,1271
5808,2585,1678,1271
5807,2585,1678,1271
5809,2585,1679,1271
5812,2586,1680,1272
5810,2585,1680,1271
5805,2583,1678,1270
5795,2580,1674,1269
5781,2576,1668,1266
5764,2571,1662,1263
5753,2568,1657,1261
5744,2566,1653,1260
5734,2562,1650,1258
5726,2560,1646,1257
5723,2559,1645,1256
5721,2558,1644,1256
5720,2558,1644,1255
5721,2558,1645,1255
5721,2558,1645,1255
5719,2557,1645,1255
5720,2557,1645,1255
5722,2557,1646,1255
5723,2557,1647,1256
5724,2557,1647,1256
5725,2557,1648,1256
5727,2558,1649,1256
5728,2557,1649,1256
5729,2557,1650,1256
5731,2558,1651,1256
5732,2558,1652,1256
5733,2558,1652,1256
5735,2558,1653,1257
5735,2558,1654,1257
5736,2558,1654,1257
5737,2558,1655,1257
5739,2558,1656,1257
5739,2558,1656,1257
5743,2559,1657,1258
5746,2560,1659,1258
5748,2560,1660,1259
5751,2561,1661,1259
5753,2562,1662,1259
5756,2563,1663,1260
5757,2563,1663,1260
5751,2562,1661,1259
5740,2559,1656,1257
5727,2556,1650,1255
5715,2553,1645,1253
5705,2551,1641,1251
5699,2549,1638,1250
5692,2548,1635,1249
5688,2547,1634,1248
5688,2547,1633,1248
5691,2548,1634,1249
5694,2549,1635,1249
5697,2550,1636,1250
5700,2551,1637,1250
5702,2552,1638,1251
5704,2553,1639,1251
5710,2555,1641,1252
5715,2556,1643,1253
5718,2557,1644,1254
5720,2558,1645,1254
5724,2560,1647,1255
5729,2561,1648,1256
5730,2561,1649,1256
5736,2563,1651,1257
5742,2566,1653,1258
5745,2566,1654,1259
5749,2567,1656,1259
5754,2569,1658,1260
5758,2571,1659,1261
5760,2571,1660,1261
5763,2572,1661,1262
5769,2574,1663,1263
5772,2575,1664,1264
5775,2576,1666,1264
5780,2578,1668,1265
5785,2579,1670,1266
5787,2580,1670,1267
5786,2580,1670,1267
5780,2578,1667,1266
5768,2575,1662,1264
5755,2572,1657,1262
5748,2570,1653,1261
5745,2570,1651,1260
5740,2568,1649,1259
5736,2567,1648,1259
5738,2569,1648,1259
5742,2570,1649,1260
5742,2570,1650,1260
5746,2572,1651,1261
5751,2573,1653,1262
5751,2574,1653,1262
5753,2574,1654,1263
5756,2574,1657,1264
5762,2577,1658,1265
5767,2578,1658,1266
5770,2579,1660,1266
5774,2580,1661,1266
5781,2582,1663,1268
5784,2583,1665,1268
5787,2584,1666,1269
5793,2586,1668,1270
5798,2588,1670,1271
5801,2588,1671,1271
5806,2590,1673,1272
5812,2592,1675,1274
5816,2593,1677,1274
5819,2594,1678,1275
5824,2596,1680,1276
5829,2597,1682,1277
5831,2598,1683,1277
5835,2599,1684,1278
5841,2601,1686,1279
5845,2602,1688,1280
5849,2604,1689,1280
5852,2605,1690,1281
5852,2605,1690,1281
5842,2602,1686,1279
5828,2599,1680,1277
5814,2595,1675,1275
5803,2592,1670,1273
5793,2589,1666,1271
5786,2588,1663,1270
5780,2586,1660,1269
5775,2585,1658,1268
5775,2585,1658,1268
5778,2586,1659,1269
5780,2587,1660,1269
5781,2587,1660,1269
5782,2587,1661,1269
5784,2588,1661,1270
5787,2589,1662,1270
5790,2590,1664,1271
5794,2591,1665,1271
5797,2592,1666,1272
5800,2593,1668,1273
5804,2594,1669,1273
5806,2594,1670,1274
5810,2595,1672,1274
5813,2596,1673,1275
5816,2597,1674,1275
5819,2598,1675,1276
5822,2599,1676,1276
5825,2599,1678,1277
5827,2600,1679,1277
5830,2601,1680,1278
5832,2601,1681,1278
5835,2602,1682,1278
5837,2602,1683,1279
5839,2603,1684,1279
5840,2603,1685,1279
5842,2603,1685,1279
5843,2604,1686,1280
5841,2603,1686,1279
5833,2600,1683,1278
5817,2596,1676,1275
5800,2591,1669,1272
5785,2587,1663,1269
5773,2583,1658,1267
5762,2580,1654,1265
5753,2578,1651,1263
5748,2576,1649,1262
5745,2575,1648,1262
5744,2575,1648,1261
5746,2575,1648,1262
5746,2575,1649,1262
5745,2574,1649,1261
5746,2574,1649,1261
5748,2575,1650,1262
5749,2575,1650,1262
5749,2574,1651,1262
5753,2575,1652,1262
5754,2575,1653,1262
5753,2575,1653,1262
5756,2575,1654,1263
5758,2576,1655,1263
5757,2575,1655,1263
5756,2574,1655,1262
5758,2574,1657,1263
5759,2574,1657,1263
5758,2573,1657,1262
5760,2573,1658,1263
5762,2574,1659,1263
5761,2572,1659,1263
5760,2571,1659,1262
5764,2573,1660,1263
5763,2572,1661,1263
5763,2570,1660,1262
5760,2570,1661,1262
5763,2570,1661,1262
5761,2570,1657,1260
5750,2565,1657,1258
5736,2561,1652,1255
5723,2558,1646,1255
5706,2552,1640,1252
5692,2548,1635,1250
5689,2547,1633,1249
5681,2545,1630,1248
5672,2541,1627,1246
5672,2541,1627,1246
5675,2542,1629,1246
5672,2540,1628,1246
5669,2538,1627,1245
5673,2540,1628,1246
5672,2539,1629,1246
5669,2537,1628,1245
5673,2538,1630,1245
5677,2539,1631,1246
5674,2537,1631,1245
5673,2536,1631,1245
5679,2538,1633,1246
5677,2537,1633,1246
5674,2535,1632,1245
5678,2536,1634,1246
5681,2537,1635,1246
5677,2535,1635,1245
5678,2535,1635,1245
5682,2536,1637,1246
5681,2535,1637,1246
5678,2533,1636,1245
5681,2534,1637,1245
5682,2534,1638,1246
5679,2532,1637,1245
5678,2531,1638,1245
5682,2532,1639,1245
5680,2531,1639,1245
5677,2529,1638,1244
5678,2530,1639,1244
5672,2528,1637,1243
5653,2521,1630,1240
5636,2517,1623,1236
5622,2513,1617,1234
5607,2508,1611,1231
5594,2504,1606,1229
5586,2502,1603,1227
5578,2499,1600,1226
5571,2496,1598,1224
5570,2496,1598,1224
5572,2496,1598,1224
5570,2495,1598,1224
5568,2494,1598,1223
5567,2493,1598,1223
5567,2493,1598,1223
5566,2492,1598,1222
5566,2492,1598,1222
5567,2492,1599,1223
5567,2491,1599,1222
5566,2490,1599,1222
5566,2490,1600,1222
5567,2490,1600,1222
5568,2489,1601,1222
5571,2490,1602,1222
5574,2491,1603,1223
5577,2492,1605,1223
5579,2493,1606,1224
5582,2494,1607,1224
5588,2496,1609,1225
5593,2497,1611,1226
5598,2499,1612,1227
5603,2502,1614,1228
5607,2503,1616,1229
5611,2505,1617,1230
5617,2507,1619,1231
5624,2509,1622,1232
5627,2511,1623,1232
5628,2511,1623,1233
5623,2510,1620,1232
5613,2508,1616,1230
5599,2505,1610,1228
5590,2503,1606,1227
5586,2503,1604,1226
5582,2502,1601,1226
5576,2500,1599,1225
5577,2501,1598,1225
5582,2504,1600,1226
5585,2505,1601,1226
5588,2506,1602,1227
5596,2509,1605,1228
5601,2511,1606,1229
5603,2511,1607,1230
5608,2513,1609,1231
5618,2517,1612,1233
5622,2518,1614,1234
5625,2519,1615,1234
5625,2522,1617,1236
5632,2525,1620,1237
5641,2525,1621,1238
5643,2525,1623,1239
5648,2527,1623,1240
5657,2530,1626,1242
5663,2532,1628,1242
5664,2532,1629,1242
5671,2535,1631,1243
5680,2538,1634,1245
5683,2539,1635,1246
5685,2539,1636,1246
5694,2543,1639,1248
5702,2546,1642,1249
5704,2546,1643,1250
5709,2548,1645,1251
5719,2552,1648,1253
5722,2553,1649,1253
5720,2552,1649,1253
5717,2552,1647,1253
5709,2551,1643,1252
5696,2547,1637,1250
5688,2545,1634,1248
5689,2547,1633,1249
5686,2546,1632,1249
5682,2545,1630,1248
5685,2547,1631,1249
5693,2550,1633,1250
5696,2550,1635,1251
5698,2551,1635,1251
5706,2554,1638,1253
5711,2556,1640,1254
5714,2557,1641,1254
5720,2559,1643,1255
5729,2562,1646,1257
5733,2564,1647,1258
5736,2564,1649,1259
5744,2567,1651,1260
5751,2570,1654,1262
5754,2571,1655,1262
5759,2572,1657,1263
5768,2576,1660,1265
5773,2577,1662,1266
5777,2578,1663,1266
5783,2581,1666,1268
5790,2583,1668,1269
5794,2585,1670,1270
5798,2586,1671,1271
5803,2588,1673,1272
5806,2589,1674,1272
5808,2589,1675,1272
5812,2590,1676,1273
5817,2592,1678,1274
5820,2593,1680,1275
5823,2594,1681,1275
5825,2595,1681,1276
5818,2593,1678,1275
5803,2589,1672,1272
5790,2585,1666,1270
5779,2583,1662,1268
5770,2581,1658,1267
5762,2578,1654,1265
5757,2578,1652,1265
5754,2577,1650,1264
5753,2577,1650,1264
5756,2578,1651,1264
5759,2579,1652,1265
5761,2579,1653,1265
5762,2580,1654,1265
5765,2581,1654,1266
5768,2582,1656,1266
5772,2583,1657,1267
5773,2584,1658,1267
5776,2584,1659,1268
5778,2585,1660,1268
5780,2585,1661,1268
5783,2586,1662,1269
5785,2587,1663,1269
5787,2587,1664,1269
5789,2588,1665,1269
5791,2588,1666,1270
5795,2589,1667,1270
5796,2589,1668,1270
5799,2590,1669,1271
5800,2590,1670,1271
5802,2591,1671,1271
5803,2591,1671,1271
5805,2591,1672,1272
5807,2592,1673,1272
5809,2592,1674,1272
5812,2593,1675,1273
5814,2593,1676,1273
5814,2593,1676,1273
5809,2592,1675,1272
5794,2588,1669,1270
5779,2583,1662,1267
5764,2579,1656,1264
5764,2576,1652,1262
5753,2573,1648,1261
5743,2573,1645,1259
5736,2571,1643,1258
5730,2570,1643,1258
5728,2569,1642,1258
5728,2568,1642,1258
5730,2569,1643,1258
5731,2569,1643,1258
5731,2569,1643,1258
5731,2568,1644,1258
5733,2569,1645,1259
5735,2569,1645,1259
5735,2569,1646,1259
5737,2569,1647,1259
5740,2570,1648,1260
5740,2569,1648,1260
5740,2569,1649,1260
5743,2570,1650,1260
5744,2570,1651,1260
5744,2569,1651,1260
5746,2570,1652,1260
5749,2570,1653,1261
5750,2570,1654,1261
5751,2570,1655,1261
5756,2571,1656,1262
5756,2571,1657,1262
5757,2571,1657,1262
5760,2572,1659,1263
5763,2572,1660,1263
5764,2572,1661,1263
5766,2572,1662,1264
5768,2573,1663,1264
5762,2571,1661,1263
5748,2566,1655,1261
5735,2563,1650,1258
5721,2559,1644,1256
5709,2555,1639,1254
5701,2553,1636,1252
5696,2552,1634,1252
5688,2549,1631,1250
5684,2548,1630,1249
5688,2549,1631,1250
5689,2549,1631,1250
5687,2548,1631,1250
5688,2548,1632,1250
5690,2549,1632,1250
5689,2548,1632,1250
5691,2548,1633,1250
5694,2549,1635,1251
5695,2549,1635,1251
5695,2548,1636,1251
5699,2549,1637,1251
5701,2550,1638,1252
5701,2549,1638,1251
5702,2549,1639,1252
5707,2550,1641,1252
5707,2550,1641,1252
5707,2549,1642,1252
5710,2550,1643,1253
5712,2550,1644,1253
5712,2550,1644,1253
5714,2550,1645,1253
5716,2551,1646,1254
5715,2550,1646,1253
5715,2550,1646,1253
5718,2550,1647,1254
5719,2551,1648,1254
5720,2550,1649,1254
5720,2550,1649,1254
5718,2549,1648,1253
5705,2545,1643,1251
5689,2541,1637,1249
5674,2536,1631,1246
5661,2533,1625,1244
5650,2529,1621,1242
5641,2527,1618,1240
5634,2525,1615,1239
5629,2523,1613,1238
5628,2522,1612,1237
5629,2523,1613,1238
5628,2522,1613,1237
5627,2522,1613,1237
5626,2521,1613,1237
5627,2521,1613,1237
5628,2521,1614,1237
5631,2522,1615,1237
5634,2523,1616,1238
5637,2524,1618,1238
5640,2525,1619,1239
5643,2526,1620,1239
5647,2527,1621,1240
5651,2529,1623,1240
5655,2530,1625,1241
5660,2532,1626,1242
5664,2533,1628,1243
5668,2535,1630,1244
5668,2536,1631,1244
5673,2538,1633,1245
5677,2538,1634,1246
5680,2538,1636,1247
5684,2540,1636,1247
5688,2541,1637,1248
5692,2542,1639,1248
5695,2543,1640,1249
5700,2545,1642,1249
5705,2546,1643,1250
5708,2547,1644,1251
5707,2547,1644,1251
5701,2546,1641,1250
5688,2543,1636,1248
5673,2539,1630,1245
5662,2536,1625,1243
5658,2535,1623,1242
5651,2534,1620,1241
5645,2532,1618,1240
5645,2533,1617,1240
5650,2534,1618,1241
5652,2535,1619,1242
5656,2536,1621,1243
5660,2538,1622,1243
5662,2539,1623,1244
5664,2539,1624,1244
5670,2541,1626,1245
5676,2543,1628,1247
5678,2544,1629,1247
5683,2545,1630,1248
5689,2547,1633,1249
5694,2549,1635,1250
5697,2549,1636,1251
5702,2551,1638,1251
5708,2553,1640,1253
5711,2554,1641,1253
5714,2555,1642,1254
5721,2557,1645,1255
5727,2559,1647,1256
5730,2560,1648,1257
5733,2561,1650,1257
5740,2563,1652,1259
5744,2564,1653,1260
5745,2565,1654,1260
5753,2567,1657,1261
5759,2569,1659,1262
5761,2570,1660,1263
5760,2570,1660,1263
5757,2569,1658,1262
5744,2566,1652,1260
5730,2562,1646,1258
5719,2560,1642,1256
5712,2558,1639,1255
5705,2556,1636,1254
5700,2555,1633,1253
5700,2556,1633,1253
5701,2556,1633,1253
5702,2556,1634,1254
5706,2558,1635,1254
