2456,1246,748,571
2456,1246,748,571
2459,1248,749,571
2461,1249,750,572
2462,1249,751,572
2464,1250,751,572
2467,1251,752,573
2466,1251,752,573
2464,1250,751,572
2466,1251,751,573
2466,1251,751,573
2464,1251,751,573
2466,1252,751,573
2468,1253,752,574
2469,1253,752,574
2470,1254,752,574
2474,1256,754,575
2475,1256,754,575
2476,1256,754,575
2477,1257,755,576
2478,1258,755,576
2479,1258,755,576
2480,1258,756,577
2482,1259,756,577
2483,1260,757,577
2483,1260,757,577
2485,1260,757,578
2486,1261,758,578
2486,1261,758,578
2487,1261,758,578
2488,1261,759,578
2489,1262,759,579
2489,1262,759,579
2491,1263,760,579
2492,1263,760,579
2493,1263,761,579
2494,1264,761,580
2494,1264,761,580
2493,1263,761,580
2493,1263,760,580
2493,1263,760,580
2492,1263,760,580
2492,1263,760,580
2493,1264,760,580
2493,1264,760,580
2494,1264,760,580
2494,1264,761,580
2494,1264,761,580
2495,1265,761,581
2495,1265,761,581
2495,1265,761,581
2495,1265,761,581
2495,1265,761,581
2495,1265,761,581
2495,1264,761,581
2495,1264,761,581
2496,1265,762,581
2497,1265,762,581
2496,1265,762,581
2497,1265,762,581
2497,1264,762,581
2497,1264,762,581
2497,1264,762,581
2497,1264,762,581
2497,1264,763,581
2497,1264,763,581
2497,1264,763,581
2496,1263,762,581
2494,1262,762,580
2492,1261,761,580
2492,1261,760,579
2489,1261,759,579
2488,1260,759,579
2487,1260,759,579
2486,1259,758,579
2485,1259,758,579
2484,1258,758,578
2484,1258,758,578
2483,1258,757,578
2481,1257,757,578
2481,1257,757,578
2481,1257,757,578
2480,1256,757,578
2481,1257,757,578
2481,1256,757,578
2479,1255,756,577
2477,1254,756,577
2477,1254,756,577
2475,1253,755,576
2474,1252,755,576
2473,1252,755,576
2472,1252,755,576
2470,1250,754,575
2471,1250,754,575
2472,1251,755,576
2470,1250,754,575
2469,1249,754,575
2469,1249,754,575
2467,1248,753,574
2463,1246,752,573
2461,1246,751,573
2459,1245,750,573
2456,1244,749,572
2455,1244,749,572
2455,1244,749,572
2453,1242,748,572
2452,1242,748,571
2452,1242,748,571
2450,1241,747,571
2447,1240,746,570
2448,1240,746,571
2447,1240,746,570
2444,1238,745,570
2444,1238,745,570
2443,1238,745,570
2441,1236,744,569
2440,1236,744,569
2442,1237,745,569
2440,1235,744,569
2438,1235,744,568
2439,1235,744,569
2438,1234,744,568
2436,1233,743,568
2437,1234,744,568
2438,1234,744,568
2436,1233,743,568
2434,1232,743,567
2434,1232,743,567
2430,1230,742,566
2427,1229,740,566
2425,1228,739,565
2422,1227,738,565
2419,1226,737,564
2418,1226,737,564
2416,1225,736,564
2414,1223,735,563
2413,1223,735,563
2413,1223,735,563
2410,1222,734,562
2410,1222,734,562
2409,1222,734,562
2408,1221,733,562
2405,1220,733,561
2405,1220,733,561
2404,1219,732,561
2402,1218,732,560
2402,1217,731,560
2401,1217,732,560
2402,1218,731,560
2400,1217,731,560
2400,1217,731,560
2398,1215,731,559
2398,1215,731,559
2396,1214,730,559
2396,1214,730,559
2396,1214,730,558
2395,1213,730,558
2394,1213,730,558
2391,1212,729,557
2389,1211,728,557
2387,1210,727,557
2401,1217,731,560
2400,1217,731,560
2391,1213,728,558
2384,1210,726,556
2385,1210,726,556
2386,1210,726,557
2387,1211,727,557
2389,1212,727,557
2390,1212,727,558
2390,1212,727,558
2391,1213,727,558
2392,1213,728,558
2392,1214,728,558
2394,1215,728,559
2396,1215,729,559
2397,1216,729,560
2398,1216,730,560
2400,1217,730,560
2402,1218,731,561
2402,1218,731,561
2404,1219,732,561
2407,1220,733,562
2407,1220,733,562
2407,1220,733,562
2407,1221,733,562
2406,1221,732,562
2404,1220,731,561
2404,1220,731,562
2406,1221,731,562
2404,1221,731,562
2405,1221,731,562
2407,1222,731,563
2408,1223,732,563
2407,1222,731,563
2409,1223,732,563
2411,1224,733,564
2411,1224,733,564
2411,1224,732,564
2413,1226,733,564
2414,1226,733,564
2414,1226,733,564
2415,1227,734,565
2418,1228,735,565
2418,1228,735,565
2419,1228,735,566
2422,1230,736,566
2423,1230,736,566
2424,1230,737,566
2427,1232,738,567
2429,1233,738,568
2428,1232,738,567
2427,1232,738,567
2428,1233,738,568
2425,1232,737,567
2423,1231,735,567
2423,1232,735,567
2425,1233,735,567
2423,1232,735,567
2424,1233,735,567
2426,1234,735,568
2426,1234,735,568
2426,1234,735,568
2425,1234,736,568
2427,1235,736,568
2428,1235,736,568
2427,1235,736,568
2428,1235,736,569
2430,1236,736,569
2430,1236,736,569
2430,1236,737,569
2432,1237,737,570
2433,1238,737,570
2433,1237,737,570
2435,1238,738,570
2436,1239,739,570
2437,1239,739,571
2439,1240,740,571
2442,1241,741,572
2443,1242,741,572
2444,1242,741,572
2445,1242,742,573
2444,1242,742,572
2441,1241,740,572
2439,1241,739,572
2437,1240,738,571
2435,1240,737,571
2434,1239,736,571
2433,1239,736,571
2433,1239,736,571
2433,1239,736,571
2434,1240,736,571
2434,1240,736,571
2434,1240,736,571
2434,1240,736,571
2434,1240,736,571
2435,1240,736,571
2434,1240,736,571
2435,1240,736,571
2436,1241,737,572
2436,1241,737,572
2437,1241,737,572
2438,1241,737,572
2438,1242,738,572
2439,1242,738,572
2440,1242,739,573
2442,1243,739,573
2442,1243,739,573
2442,1243,739,573
2442,1243,739,573
2442,1243,740,573
2443,1243,740,573
2442,1243,740,573
2439,1242,738,572
2436,1241,737,572
2433,1240,736,571
2431,1239,735,571
2429,1239,734,571
2428,1238,734,570
2428,1238,733,570
2427,1238,733,570
2427,1238,733,570
2427,1237,733,570
2427,1237,733,570
2426,1237,733,570
2426,1237,733,570
2425,1236,733,570
2424,1236,733,570
2424,1236,733,570
2424,1236,733,570
2424,1236,733,570
2425,1236,733,570
2425,1236,733,570
2425,1236,733,570
2425,1236,733,570
2426,1236,734,570
2426,1236,734,570
2426,1235,734,570
2425,1235,734,569
2425,1235,734,570
2427,1235,734,570
2426,1235,734,570
2425,1234,734,569
2425,1234,734,569
2424,1233,734,569
2419,1232,732,568
2415,1231,730,567
2412,1230,729,567
2409,1228,728,566
2408,1228,727,566
2407,1228,727,566
2405,1227,726,565
2404,1226,726,565
2405,1226,726,565
2404,1226,726,565
2403,1225,726,565
2403,1225,726,565
2402,1225,726,565
2400,1224,725,564
2399,1224,725,564
2400,1224,725,564
2398,1223,725,564
2397,1222,724,563
2398,1222,725,563
2397,1222,725,563
2395,1220,724,562
2396,1221,724,563
2396,1221,725,563
2395,1220,724,562
2395,1220,725,562
2397,1221,725,563
2395,1220,725,562
2397,1220,725,563
2400,1222,727,563
2400,1221,727,563
2398,1221,726,563
2397,1220,726,563
2393,1219,724,562
2387,1217,722,561
2385,1216,721,560
2384,1216,720,560
2381,1215,719,560
2381,1214,719,560
2381,1214,719,560
2380,1214,719,559
2379,1213,719,559
2380,1213,719,559
2379,1213,719,559
2377,1212,719,559
2377,1212,718,559
2376,1211,718,558
2374,1210,718,558
2375,1210,718,558
2376,1211,718,558
2374,1210,718,558
2374,1209,718,558
2375,1210,718,558
2375,1209,718,558
2374,1209,718,558
2374,1209,719,558
2374,1209,719,558
2375,1209,719,558
2375,1209,719,558
2376,1209,720,558
2375,1209,720,558
2373,1208,720,558
2370,1207,718,557
2367,1206,717,556
2363,1204,715,556
2361,1204,715,555
2360,1203,714,555
2359,1203,714,555
2359,1202,714,555
2358,1202,713,555
2357,1202,713,554
2356,1201,713,554
2355,1201,713,554
2356,1201,713,554
2357,1202,714,555
2357,1201,714,555
2357,1201,714,554
2357,1201,714,555
2358,1202,714,555
2359,1202,715,555
2360,1203,715,555
2362,1203,716,556
2363,1204,716,556
2365,1205,717,556
2367,1205,718,557
2369,1206,718,557
2370,1206,719,557
2371,1207,719,557
2372,1207,720,558
2374,1208,720,558
2377,1209,721,559
2378,1210,722,559
2377,1209,721,559
2374,1208,720,558
2372,1208,719,558
2369,1207,718,557
2368,1207,717,557
2368,1208,717,557
2368,1208,717,558
2368,1207,717,557
2369,1208,717,558
2370,1209,718,558
2371,1209,718,558
2372,1209,718,559
2374,1210,719,559
2375,1210,719,559
2374,1210,719,559
2376,1211,719,559
2377,1212,720,560
2377,1211,720,560
2377,1212,720,560
2380,1213,721,560
2381,1213,721,560
2382,1213,722,561
2384,1214,722,561
2386,1215,723,562
2386,1215,724,562
2388,1216,724,562
2391,1217,725,562
2392,1217,725,563
2392,1217,726,563
2394,1218,727,563
2396,1219,727,564
2394,1218,726,563
2391,1218,725,563
2390,1218,724,563
2387,1217,723,562
2386,1217,722,562
2387,1217,722,562
2388,1218,723,563
2387,1217,722,562
2389,1218,723,563
2390,1219,723,563
2390,1219,723,563
2390,1219,723,563
2391,1219,724,563
2392,1220,724,564
2391,1219,724,563
2392,1220,724,563
2394,1220,725,564
2393,1220,724,564
2394,1220,725,564
2396,1221,726,564
2396,1221,726,564
2397,1221,726,564
2397,1221,727,565
2399,1222,727,565
2400,1223,727,565
2401,1223,728,565
2402,1223,728,565
2403,1224,729,566
2405,1225,729,566
2406,1225,730,566
2407,1225,730,566
2408,1225,731,566
2406,1225,730,566
2404,1224,729,566
2401,1223,727,565
2397,1222,726,565
2395,1221,725,564
2394,1221,724,564
2394,1221,724,564
2393,1221,724,564
2394,1221,724,564
2395,1221,725,564
2395,1222,725,564
2396,1222,725,565
2397,1222,725,565
2397,1222,725,565
2396,1222,725,565
2397,1222,726,565
2397,1222,726,565
2398,1222,726,565
2399,1223,726,565
2400,1223,727,565
2401,1223,727,566
2402,1224,728,566
2402,1224,728,566
2403,1224,728,566
2404,1224,729,566
2405,1225,729,566
2406,1225,729,567
2406,1225,730,567
2407,1225,730,567
2405,1224,729,567
2402,1223,728,566
2399,1222,726,565
2395,1221,725,565
2393,1220,724,564
2391,1220,723,564
2390,1220,723,564
2390,1219,723,564
2390,1219,723,564
2389,1219,723,564
2389,1218,723,564
2389,1218,723,564
2389,1218,723,564
2388,1217,723,563
2387,1217,723,563
2386,1216,722,563
2386,1217,722,563
2388,1217,723,563
2387,1217,723,563
2387,1216,723,563
2388,1217,723,563
2389,1217,724,564
2389,1217,724,564
2391,1217,725,564
2403,1222,730,568
2425,1229,738,575
2450,1236,747,582
2467,1242,754,587
2472,1243,756,588
2478,1244,758,590
2480,1245,759,591
2475,1243,757,590
2467,1240,754,588
2467,1238,751,587
2459,1235,747,584
2450,1235,746,583
2446,1233,746,582
2442,1232,744,583
2444,1232,745,583
2442,1231,744,582
2440,1230,744,582
2442,1231,745,583
2443,1231,745,583
2440,1229,744,582
2439,1229,744,582
2440,1229,744,582
2436,1228,743,582
2431,1225,741,580
2426,1224,740,579
2412,1219,735,575
2388,1211,727,568
2375,1207,722,564
2388,1212,726,568
2403,1216,732,572
2415,1219,736,575
2426,1223,740,578
2427,1222,741,579
2426,1221,741,579
2424,1221,740,578
2412,1217,736,575
2384,1207,727,567
2365,1202,719,562
2375,1205,723,565
2384,1207,726,568
2387,1208,727,569
2392,1210,728,571
2389,1208,727,571
2384,1206,725,569
2372,1203,721,566
2348,1195,712,559
2348,1194,713,559
2366,1200,719,564
2376,1203,723,567
2376,1203,723,567
2378,1203,724,568
2377,1203,724,568
2367,1199,720,565
2346,1192,713,559
2338,1190,710,557
2357,1196,717,562
2367,1198,720,565
2373,1200,723,567
2377,1201,724,568
2373,1199,723,567
2361,1195,719,563
2339,1188,711,557
2320,1181,704,551
2321,1182,705,552
2325,1183,706,552
2324,1182,706,552
2322,1181,706,552
2318,1179,704,551
2312,1178,702,549
2307,1176,700,548
2304,1174,698,548
2303,1174,698,548
2301,1173,697,548
2298,1172,696,547
2296,1171,696,546
2295,1171,695,546
2294,1170,695,546
2294,1170,695,546
2293,1169,695,545
2293,1169,695,545
2292,1169,695,545
2293,1169,695,546
2294,1169,695,546
2295,1170,696,546
2295,1170,696,546
2295,1170,696,546
2296,1170,697,547
2299,1171,697,547
2300,1172,698,547
2302,1172,698,547
2303,1173,699,547
2304,1173,699,548
2307,1175,700,548
2308,1175,701,548
2309,1176,701,548
2309,1176,701,548
2311,1177,701,548
2309,1176,701,548
2304,1175,699,547
2302,1175,697,547
2300,1174,696,546
2298,1174,695,546
2298,1174,695,546
2301,1176,696,547
2303,1177,697,547
2302,1176,696,547
2305,1177,697,548
2309,1179,699,549
2309,1179,699,549
2309,1180,699,549
2313,1181,700,550
2314,1182,700,550
2314,1182,700,550
2316,1183,701,550
2320,1185,702,551
2320,1184,702,551
2321,1185,703,551
2326,1187,705,552
2328,1188,705,553
2328,1188,705,553
2331,1189,707,554
2335,1191,708,554
2336,1191,708,554
2337,1191,709,555
2342,1193,710,556
2344,1194,711,556
2344,1194,711,556
2347,1196,712,557
2350,1197,713,558
2346,1196,712,557
2342,1195,710,556
2342,1195,709,556
2340,1195,708,556
2337,1194,707,556
2339,1195,707,556
2342,1197,708,557
2341,1196,708,557
2343,1197,709,557
2347,1199,710,558
2349,1200,711,558
2348,1199,711,558
2351,1201,711,559
2354,1202,712,560
2353,1202,712,560
2354,1202,712,560
2358,1204,714,561
2360,1205,714,561
2360,1204,714,561
2364,1206,716,562
2367,1207,717,562
2367,1207,717,563
2370,1208,718,563
2373,1210,719,564
2374,1211,720,564
2375,1211,720,564
2379,1213,721,565
2381,1214,722,566
2382,1214,722,566
2384,1215,723,566
2384,1216,724,567
2388,1216,725,567
2389,1216,725,567
2390,1217,725,567
2389,1217,725,567
2385,1215,723,567
2380,1214,721,566
2377,1213,719,565
2375,1213,718,565
2374,1213,718,565
2374,1213,718,565
2375,1213,718,565
2376,1214,718,565
2377,1214,719,565
2378,1214,719,566
2379,1215,720,566
2379,1215,720,566
2380,1215,720,566
2381,1216,720,566
2381,1216,720,566
2382,1216,721,567
2383,1217,721,567
2385,1217,722,567
2386,1218,722,568
2388,1218,723,568
2389,1219,724,568
2391,1219,724,568
2392,1220,725,569
2393,1220,725,569
2394,1220,725,569
2394,1220,726,569
2395,1221,726,569
2396,1221,726,569
2397,1221,727,570
2398,1221,727,570
2398,1221,727,570
2396,1220,727,569
2392,1219,725,569
2387,1218,723,568
2383,1216,721,567
2380,1215,720,566
2378,1215,719,566
2378,1215,719,566
2378,1215,719,566
2378,1214,719,566
2379,1214,719,566
2379,1214,720,566
2379,1214,720,566
2379,1214,720,566
2378,1214,719,566
2377,1213,719,566
2377,1213,719,566
2378,1214,719,566
2377,1213,720,566
2377,1213,720,566
2378,1213,720,566
2378,1213,720,566
2379,1213,720,566
2380,1214,721,566
2380,1213,721,566
2381,1213,722,566
2381,1213,722,566
2382,1214,722,566
2382,1213,722,566
2381,1213,722,566
2379,1212,721,566
2376,1211,720,565
2370,1209,717,564
2366,1208,716,563
2362,1207,714,563
2360,1206,714,562
2360,1206,714,562
2361,1206,714,562
2360,1205,714,562
2360,1205,714,562
2359,1205,714,562
2360,1205,714,562
2360,1205,714,562
2359,1204,714,562
2358,1203,714,562
2357,1203,713,561
2356,1202,713,561
2355,1202,713,561
2356,1202,713,561
2355,1202,713,561
2355,1201,713,561
2357,1202,714,561
2356,1201,714,561
2355,1201,713,560
2355,1201,714,560
2356,1201,714,561
2355,1200,714,560
2355,1200,714,560
2356,1200,715,560
2355,1199,714,560
2351,1198,713,559
2348,1197,711,559
2342,1195,709,558
2335,1193,706,556
2333,1192,705,556
2333,1192,705,556
2330,1191,704,555
2330,1190,704,555
2331,1191,704,555
2331,1191,705,555
2329,1190,704,555
2330,1190,704,555
2329,1190,704,555
2327,1189,704,554
2327,1188,704,554
2327,1188,704,554
2325,1187,703,554
2325,1187,703,554
2326,1187,704,554
2326,1187,704,554
2325,1186,704,554
2325,1186,704,554
2326,1187,704,554
2325,1186,704,554
2325,1186,704,554
2326,1186,705,554
2326,1186,705,553
2324,1185,704,553
2320,1184,703,552
2314,1182,700,551
2308,1180,698,550
2305,1179,696,550
2304,1178,696,549
2302,1178,695,549
2301,1177,695,549
2302,1177,695,549
2302,1177,695,549
2301,1176,695,549
2301,1176,695,549
2301,1176,695,549
2300,1175,695,548
2299,1175,695,548
2298,1174,694,548
2298,1174,694,548
2299,1175,695,548
2300,1175,695,548
2301,1175,696,548
2302,1176,696,549
2303,1176,697,549
2305,1177,697,549
2307,1178,698,550
2309,1178,699,550
2311,1179,700,551
2313,1180,700,551
2313,1180,701,551
2314,1180,702,552
2316,1181,701,551
2315,1181,701,550
2310,1179,699,550
2306,1178,697,550
2303,1177,695,549
2300,1177,694,549
2300,1177,694,549
2301,1177,694,549
2302,1178,695,550
2302,1178,695,550
2303,1178,695,550
2305,1179,696,550
2306,1180,696,550
2306,1180,696,551
2308,1180,697,551
2309,1181,697,551
2309,1181,697,551
2310,1181,697,551
2312,1182,698,552
2313,1183,699,552
2314,1183,699,552
2316,1184,700,553
2319,1185,701,553
2319,1185,701,553
2321,1186,702,554
2324,1187,703,554
2326,1188,704,555
2327,1188,704,555
2330,1189,705,555
2332,1190,706,556
2332,1190,706,556
2331,1190,706,556
2329,1189,705,556
2324,1188,702,555
2319,1186,700,554
2318,1186,699,554
2318,1187,699,554
2317,1186,699,554
2317,1186,699,554
2319,1188,699,554
2321,1188,700,554
2321,1188,700,555
2324,1189,701,555
2325,1190,702,555
2325,1190,702,555
2326,1190,702,556
2328,1191,703,556
2328,1191,703,556
2329,1191,703,556
2332,1192,704,557
2334,1193,705,557
2334,1193,705,557
2336,1194,706,558
2339,1195,707,558
2340,1195,707,558
2341,1196,708,559
2343,1197,709,559
2345,1197,709,560
2347,1198,710,560
2348,1198,711,560
2350,1199,711,561
2350,1199,711,561
2348,1198,710,560
2344,1197,708,560
2340,1196,706,559
2336,1195,705,558
2335,1195,704,558
2336,1196,704,559
2337,1196,705,559
2338,1197,705,559
2339,1197,705,559
2340,1197,706,559
2340,1197,706,559
2340,1198,706,559
2341,1198,707,560
2342,1198,707,560
2341,1198,707,560
2341,1198,707,560
2342,1198,707,560
2343,1198,707,560
2343,1198,708,560
2344,1199,708,560
2346,1199,709,560
2347,1200,709,561
2349,1200,710,561
2350,1201,711,561
2352,1201,711,562
2353,1202,712,562
2354,1202,712,562
2355,1202,713,562
2357,1203,713,562
2358,1203,714,563
2359,1204,714,563
2361,1204,715,563
2361,1204,715,563
2359,1203,714,563
2354,1202,712,562
2349,1200,710,561
2344,1199,708,560
2342,1198,707,560
2341,1198,706,560
2341,1198,706,560
2342,1198,707,560
2342,1198,707,560
2343,1198,707,560
2344,1199,708,560
2344,1199,708,560
2343,1198,708,560
2344,1198,708,560
2343,1198,708,560
2343,1198,708,560
2343,1198,708,560
2344,1198,708,560
2344,1198,708,560
2345,1198,709,560
2346,1199,709,561
2347,1199,710,561
2348,1199,710,561
2349,1199,711,561
2349,1199,711,561
2350,1199,711,561
2351,1199,712,561
2352,1200,712,562
2352,1200,712,562
2349,1199,711,561
2345,1197,709,560
2339,1196,707,559
2335,1194,705,558
2333,1194,704,558
2333,1194,704,558
2333,1193,704,558
2333,1193,705,558
2335,1194,705,559
2335,1194,705,559
2335,1193,705,559
2336,1194,706,559
2335,1193,706,559
2334,1193,705,558
2334,1193,705,558
2335,1193,706,558
2335,1193,706,558
2336,1193,706,559
2337,1193,707,559
2338,1193,707,559
2338,1193,707,559
2339,1194,708,559
2339,1194,708,559
2339,1193,708,559
2339,1193,708,559
2340,1193,708,559
2341,1194,709,559
2341,1193,709,559
2341,1193,709,559
2342,1193,710,559
2340,1193,709,559
2335,1191,707,558
2329,1189,705,557
2324,1188,702,556
2319,1186,700,555
2317,1185,699,555
2317,1185,699,555
2317,1185,699,555
2316,1185,699,555
2317,1185,700,555
2318,1185,700,555
2317,1185,700,555
2318,1185,700,555
2318,1185,700,555
2317,1184,700,554
2317,1184,700,554
2317,1184,700,555
2316,1184,700,554
2316,1183,700,554
2317,1184,701,554
2318,1184,701,554
2318,1184,701,554
2319,1184,702,555
2320,1184,702,555
2320,1184,702,555
2320,1184,702,555
2321,1184,703,555
2322,1184,703,555
2323,1184,704,555
2324,1185,704,555
2324,1185,704,555
2324,1184,704,555
2320,1183,703,555
2315,1181,701,554
2308,1179,698,552
2303,1178,696,551
2301,1177,694,551
2299,1176,694,551
2299,1176,694,551
2299,1176,694,551
2299,1176,694,551
2300,1176,694,551
2300,1176,695,551
2300,1176,695,551
2300,1176,695,551
2299,1176,695,551
2299,1175,695,551
2299,1175,695,551
2299,1175,695,550
2299,1175,695,550
2299,1175,695,551
2300,1175,695,551
2302,1176,696,551
2302,1176,696,551
2303,1176,697,551
2305,1177,697,551
2306,1177,698,552
2307,1178,699,552
2309,1178,699,552
2310,1179,700,552
2312,1179,700,553
2314,1180,701,553
2315,1180,701,553
2314,1180,701,553
2309,1179,699,552
2304,1177,697,551
2304,1176,695,551
2300,1175,693,550
2297,1175,693,550
2296,1175,693,550
2296,1175,693,550
2297,1176,693,550
2298,1176,694,551
2299,1176,694,551
2300,1177,695,551
2302,1177,695,551
2302,1177,695,551
2302,1177,695,551
2302,1178,695,551
2303,1178,695,552
2303,1178,696,552
2304,1178,696,552
2306,1179,697,552
2306,1179,697,552
2308,1180,698,553
2310,1180,698,553
2311,1181,699,553
2312,1181,699,553
2314,1182,700,554
2316,1182,701,554
2317,1183,701,554
2317,1183,701,554
2320,1184,702,555
2320,1184,702,555
2316,1183,701,554
2312,1181,699,554
2308,1180,697,553
2304,1179,695,552
2302,1179,695,552
2304,1179,695,552
2305,1180,695,553
2305,1180,696,553
2307,1181,696,553
2309,1182,697,554
2310,1182,697,554
2310,1182,698,554
2312,1183,698,554
2312,1183,698,554
2312,1183,698,554
2313,1183,699,554
2314,1184,699,555
2315,1184,700,555
2316,1184,700,555
2318,1185,701,556
2320,1186,701,556
2321,1186,702,556
2322,1186,703,556
2324,1187,703,557
2325,1187,704,557
2327,1188,704,557
2328,1188,705,558
2327,1188,705,557
2323,1187,703,557
2317,1185,700,556
2313,1184,698,555
2310,1183,697,554
2309,1183,696,554
2310,1183,696,555
2311,1184,697,555
2311,1184,697,555
2313,1185,698,555
2315,1185,698,556
2315,1185,699,556
2316,1186,699,556
2317,1186,699,556
2317,1186,699,556
2317,1186,699,556
2318,1186,700,556
2319,1187,700,556
2319,1187,700,557
2319,1187,701,557
2321,1188,701,557
2322,1188,702,557
2323,1188,702,557
2324,1188,702,558
2325,1188,703,558
2326,1189,703,558
2327,1189,704,558
2328,1189,704,558
2329,1190,705,558
2330,1190,705,559
2328,1189,704,558
2323,1188,702,557
2318,1186,700,556
2313,1185,697,555
2310,1184,696,555
2309,1184,696,555
2309,1184,696,555
2309,1184,696,555
2310,1184,696,555
2311,1184,696,555
2311,1184,697,555
2312,1185,697,555
2313,1185,697,556
2313,1185,697,556
2312,1185,697,556
2312,1185,697,556
2313,1185,698,556
2313,1185,698,556
2314,1185,698,556
2315,1185,698,556
2315,1185,699,556
2317,1185,699,556
2317,1186,700,556
2318,1186,700,556
2318,1186,700,556
2319,1186,701,557
2320,1186,701,557
2321,1186,702,557
2322,1187,702,557
2322,1187,702,557
2322,1186,702,557
2319,1186,701,557
2314,1184,699,556
2308,1182,696,554
2304,1181,694,554
2301,1180,693,553
2300,1180,692,553
2300,1180,693,553
2302,1180,693,554
2303,1180,694,554
2302,1180,694,553
2302,1180,694,553
2303,1180,694,553
2304,1180,694,554
2303,1180,694,554
2302,1180,694,553
2303,1180,694,554
2302,1179,694,553
2301,1179,694,553
2302,1179,694,553
2303,1180,695,553
2304,1180,695,553
2304,1180,695,553
2304,1180,695,553
2303,1179,695,553
2304,1180,696,553
2306,1180,697,553
2306,1180,696,553
2306,1180,697,553
2307,1180,697,553
2308,1181,698,554
2308,1180,698,554
2305,1179,696,553
2305,1177,694,552
2299,1175,691,550
2292,1175,689,550
2288,1174,689,549
2286,1173,688,549
2285,1173,688,549
2285,1173,688,549
2286,1173,688,549
2287,1173,689,549
2287,1173,689,549
2288,1173,689,550
2288,1173,689,549
2287,1173,689,549
2287,1173,689,549
2287,1173,689,549
2287,1173,689,549
2288,1173,689,549
2288,1173,690,550
2289,1173,690,550
2289,1173,690,550
2290,1173,691,550
2290,1173,691,550
2291,1173,691,550
2291,1173,692,550
2293,1174,692,550
2293,1174,692,550
2294,1174,693,550
2294,1174,693,550
2292,1173,692,550
2286,1171,690,549
2281,1169,687,548
2277,1168,685,547
2275,1168,684,547
2274,1167,684,547
2275,1167,685,547
2275,1167,685,547
2276,1168,685,547
2277,1168,686,547
2277,1168,686,547
2277,1168,686,547
2278,1168,686,547
2277,1168,686,547
2277,1167,686,547
2277,1167,686,547
2277,1167,686,547
2278,1167,686,547
2279,1168,687,547
2280,1168,687,547
2280,1168,688,548
2281,1168,688,548
2282,1168,689,548
2283,1169,689,548
2284,1169,690,549
2286,1169,690,549
2287,1170,691,549
2288,1170,691,549
2287,1170,691,549
2283,1168,689,548
2276,1166,686,547
2271,1165,684,546
2268,1164,683,546
2267,1164,682,546
2267,1164,682,546
2267,1164,682,546
2269,1164,683,546
2270,1165,683,546
2271,1165,684,547
2272,1166,684,547
2273,1166,685,547
2274,1167,685,547
2275,1167,685,547
2275,1167,685,548
2276,1167,686,548
2276,1168,686,548
2277,1168,687,548
2278,1168,687,549
2280,1168,687,549
2280,1169,688,549
2281,1169,688,549
2283,1169,688,549
2284,1170,689,549
2285,1170,690,549
2286,1170,690,550
2288,1171,691,550
2290,1172,691,550
2291,1172,692,551
2293,1173,693,551
2295,1173,694,552
2293,1173,693,551
2288,1171,690,550
2282,1170,688,549
2277,1168,686,548
2274,1167,684,548
2274,1167,684,548
2275,1168,684,548
2275,1168,685,548
2276,1168,685,548
2277,1168,686,549
2279,1169,686,549
2279,1169,686,549
2280,1169,687,549
2281,1170,687,549
2280,1169,687,549
2280,1169,687,549
2282,1170,687,549
2283,1170,688,550
2284,1170,688,550
2285,1171,689,550
2287,1172,690,550
2288,1172,690,551
2290,1172,691,551
2291,1173,691,551
2292,1173,692,551
2293,1173,692,552
2295,1174,693,552
2296,1174,694,552
2297,1175,694,552
2298,1175,694,552
2299,1175,695,553
2301,1176,696,553
2301,1176,696,553
2299,1176,695,553
2294,1174,693,552
2288,1172,690,551
2283,1171,688,550
2281,1170,687,550
2281,1170,687,550
2281,1170,687,550
2282,1171,687,550
2284,1171,688,550
2284,1172,688,550
2285,1172,689,550
2286,1172,689,551
2287,1172,689,551
2286,1172,689,551
2287,1172,689,551
2287,1172,689,551
2287,1172,689,551
2288,1173,690,551
2289,1173,690,551
2290,1173,691,551
2292,1174,691,551
2293,1174,692,552
2295,1175,692,552
2295,1175,693,552
2297,1176,693,552
2298,1176,694,553
2298,1176,695,553
2299,1176,695,553
2300,1176,695,553
2301,1177,695,553
2302,1177,696,553
2300,1176,695,553
2295,1175,693,552
2289,1173,690,551
2284,1171,688,550
2282,1171,687,550
2282,1171,687,550
2283,1171,687,550
2283,1171,688,550
2285,1172,688,550
2286,1172,689,551
2287,1172,689,551
2288,1173,690,551
2288,1173,690,551
2288,1173,690,551
2288,1173,690,551
2288,1173,690,551
2289,1173,690,551
2290,1173,691,551
2291,1173,691,551
2291,1173,691,551
2292,1173,692,551
2292,1173,692,551
2293,1173,692,552
2293,1173,693,552
2294,1173,693,552
2295,1173,694,552
2296,1173,694,552
2295,1173,694,552
2296,1173,694,552
2297,1173,695,552
2293,1172,693,551
2286,1170,690,550
2279,1168,687,549
2274,1166,685,548
2270,1165,684,547
2269,1164,683,547
2270,1164,683,547
2269,1164,683,547
2269,1164,683,547
2270,1164,684,547
2271,1164,684,547
2270,1163,684,547
2270,1163,684,547
2269,1163,684,546
2267,1162,684,546
2266,1161,683,546
2267,1162,683,546
2266,1161,683,546
2265,1160,683,545
2266,1161,684,546
2267,1160,684,546
2265,1160,684,545
2266,1160,684,545
2267,1160,685,545
2265,1159,684,545
2265,1159,685,545
2267,1159,685,545
2267,1159,685,545
2265,1158,685,545
2267,1158,686,545
2267,1158,686,545
2262,1156,684,544
2256,1154,682,543
2251,1153,679,542
2243,1150,676,540
2238,1148,674,539
2239,1149,674,540
2238,1148,674,539
2238,1147,673,539
2235,1147,674,539
2236,1147,674,539
2237,1147,674,539
2235,1146,674,538
2235,1145,674,538
2235,1146,674,539
2234,1145,673,538
2231,1143,673,537
2232,1144,673,538
2232,1144,673,538
2229,1142,672,537
2230,1142,673,537
2231,1143,673,537
2230,1142,673,537
2229,1141,673,537
2231,1142,674,537
2231,1141,674,537
2229,1140,673,536
2230,1141,674,536
2231,1141,674,536
2229,1140,674,536
2229,1139,674,536
2230,1140,674,536
2230,1139,674,536
2228,1138,674,535
2225,1138,673,535
2219,1135,670,534
2210,1132,667,532
2205,1131,665,531
2203,1130,664,531
2200,1129,663,530
2199,1128,662,530
2200,1128,663,530
2199,1128,663,530
2199,1127,663,530
2199,1127,663,530
2198,1127,663,529
2197,1126,662,529
2196,1125,662,529
2195,1125,662,529
2195,1125,662,528
2193,1124,661,528
2193,1124,661,528
2193,1124,662,528
2193,1123,662,528
2193,1123,662,528
2193,1123,662,528
2192,1122,662,527
2192,1122,662,527
2193,1122,663,528
2195,1123,663,528
2196,1123,664,528
2197,1123,664,528
2197,1124,664,528
2196,1123,664,528
2192,1122,662,527
2187,1121,660,527
2185,1121,658,526
2184,1121,658,526
2185,1121,658,527
2188,1123,659,527
2189,1123,659,527
2191,1124,660,528
2194,1125,661,528
2197,1126,662,529
2197,1126,663,529
2199,1127,663,530
2201,1128,664,530
2202,1129,664,530
2203,1129,664,531
2206,1131,665,531
2208,1131,666,532
2208,1132,666,532
2209,1132,667,532
2212,1133,669,533
2215,1134,669,533
2215,1134,669,533
2217,1135,669,533
2220,1136,671,534
2223,1137,672,535
2223,1137,672,535
2225,1138,673,535
2229,1140,674,536
2230,1140,674,536
2227,1139,673,536
2224,1139,672,535
2220,1138,669,535
2214,1136,667,534
2212,1136,666,533
2214,1137,667,534
2215,1137,667,534
2215,1137,667,534
2218,1138,668,535
2221,1140,669,535
2221,1140,669,535
2223,1140,670,536
2226,1142,671,537
2227,1142,671,537
2227,1142,671,537
2229,1143,672,537
2232,1144,673,538
2232,1144,673,538
2234,1145,673,538
2238,1147,675,539
2239,1147,675,539
2239,1147,676,539
2243,1149,677,540
2247,1150,678,541
2246,1150,678,541
2248,1151,679,541
2252,1152,680,542
2254,1153,681,543
2255,1153,681,543
2257,1154,682,543
2259,1156,683,544
2255,1154,681,543
2249,1152,678,542
2245,1152,676,541
2242,1151,675,541
2241,1151,674,541
2243,1152,675,541
2245,1153,675,542
2245,1153,676,542
2247,1153,676,542
2250,1155,677,543
2251,1155,678,543
2252,1155,678,543
2254,1156,679,544
2256,1157,679,544
2256,1157,680,544
2257,1157,680,544
2259,1158,680,545
2259,1159,681,545
2260,1159,681,545
2262,1160,682,545
2264,1160,683,546
2265,1161,683,546
2267,1161,684,546
2269,1162,685,547
2270,1162,685,547
2272,1163,686,547
2273,1164,686,547
2275,1164,687,548
2276,1165,688,548
2276,1165,688,548
2278,1166,689,549
2279,1166,688,548
2278,1165,688,548
2274,1164,686,547
2268,1162,684,547
2262,1161,681,546
2259,1160,680,545
2258,1160,679,545
2259,1160,680,545
2259,1160,680,545
2260,1160,680,545
2261,1161,681,545
2262,1161,681,546
2263,1161,682,546
2263,1161,682,546
2263,1161,682,546
2263,1161,682,546
2263,1161,682,546
2263,1161,682,546
2263,1161,682,546
2264,1161,682,546
2265,1161,683,546
2265,1161,683,546
2266,1161,683,546
2266,1161,684,546
2267,1161,684,546
2267,1161,684,546
2268,1161,684,546
2268,1161,685,546
2269,1161,685,546
2270,1162,685,547
2270,1161,686,547
2269,1161,685,546
2265,1160,684,546
2258,1157,681,544
2253,1156,678,543
2248,1154,677,543
2246,1154,676,542
2246,1154,676,542
2247,1154,676,542
2247,1154,676,542
2248,1154,677,542
2249,1154,677,543
2249,1154,678,543
2249,1154,678,543
2248,1153,677,542
2248,1153,677,542
2247,1153,677,542
2246,1152,677,542
2247,1152,677,542
2247,1152,677,542
2246,1151,677,542
2247,1151,678,542
2247,1151,678,542
2245,1150,677,541
2246,1150,678,541
2246,1151,678,541
2246,1150,678,541
2245,1149,678,541
2247,1150,679,541
2247,1150,679,541
2245,1148,678,541
2241,1147,677,540
2235,1145,674,539
2226,1142,671,537
2221,1141,668,536
2220,1140,668,536
2218,1140,667,535
2217,1139,667,535
2218,1140,667,535
2218,1139,667,535
2217,1138,667,535
2217,1138,668,535
2218,1138,668,535
2218,1139,667,535
2216,1137,667,534
2214,1137,667,534
2215,1137,667,534
2214,1136,667,534
2212,1135,666,533
2213,1136,667,534
2214,1136,667,534
2212,1135,667,533
2213,1135,667,534
2214,1135,668,534
2214,1135,668,534
2213,1134,668,533
2214,1134,668,533
2214,1134,668,533
2212,1133,668,533
2214,1134,669,533
2216,1134,669,534
2215,1133,669,533
2212,1132,668,533
2208,1131,666,532
2200,1128,663,531
2192,1126,660,529
2188,1124,658,528
2186,1124,657,528
2185,1123,657,528
2185,1123,657,528
2185,1123,657,528
2184,1122,657,527
2184,1122,657,527
2186,1122,658,528
2185,1122,658,527
2183,1121,657,527
2182,1121,657,526
2183,1121,657,526
2182,1120,657,526
2181,1120,657,526
2181,1120,657,526
2181,1119,657,526
2181,1119,658,526
2182,1119,658,526
2183,1119,658,526
2182,1119,658,526
2182,1118,658,526
2182,1118,659,526
2182,1118,659,526
2183,1118,659,526
2184,1119,660,526
2185,1119,660,526
2185,1119,660,526
2183,1118,659,526
2178,1116,657,525
2173,1115,655,524
2169,1114,653,523
2168,1114,652,523
2167,1114,652,523
2169,1115,653,523
2171,1116,653,524
2173,1117,654,524
2176,1118,655,525
2177,1118,656,525
2180,1119,657,526
2181,1120,657,526
2181,1120,657,526
2183,1121,658,526
2185,1122,658,527
2186,1122,659,527
2188,1123,659,528
2189,1123,660,528
2192,1125,661,529
2192,1125,661,529
2193,1126,662,529
2195,1126,663,530
2198,1127,663,530
2200,1128,664,530
2200,1128,664,530
2203,1129,665,531
2205,1130,666,531
2206,1130,666,531
2205,1130,666,531
2202,1129,664,531
2198,1128,662,530
2192,1126,660,529
2191,1126,659,529
2192,1127,660,529
2193,1127,660,529
2194,1128,660,530
2198,1130,662,530
2201,1131,663,531
2202,1131,663,531
2204,1132,664,532
2206,1133,665,532
2206,1133,665,532
2207,1133,665,532
2210,1134,666,533
2211,1135,666,533
2212,1135,667,533
2214,1136,668,534
2218,1137,669,535
2218,1137,669,535
2219,1137,669,535
2222,1139,671,536
2225,1140,672,536
2226,1140,672,536
2228,1141,673,537
2231,1143,674,538
2232,1143,674,538
2232,1143,674,538
2230,1143,673,537
2225,1141,671,536
2218,1139,668,535
2215,1139,667,535
2215,1139,666,535
2215,1139,666,535
2216,1139,666,535
2219,1140,667,536
2220,1141,668,536
2221,1141,669,536
2224,1142,669,537
2226,1143,670,537
2227,1144,671,537
2227,1144,671,538
2229,1145,671,538
2230,1145,672,538
2231,1145,672,538
2233,1146,673,539
2235,1147,674,539
2237,1148,674,540
2238,1148,675,540
2240,1149,675,540
2241,1149,676,540
2242,1150,676,541
2244,1150,677,541
2246,1151,678,541
2247,1151,679,542
2248,1152,679,542
2248,1152,679,542
2245,1151,677,541
2238,1149,675,540
2234,1148,672,539
2231,1147,671,539
2230,1147,670,539
2230,1147,670,539
2230,1147,671,539
2230,1147,671,539
2231,1147,672,539
2233,1148,672,539
2234,1148,672,539
2235,1149,673,540
2236,1149,673,540
2237,1149,674,540
2238,1150,674,540
2238,1150,674,540
2239,1150,674,540
2240,1150,675,541
2240,1150,675,541
2241,1151,675,541
2242,1151,676,541
2243,1151,676,541
2244,1151,677,541
2245,1152,677,542
2247,1152,678,542
2248,1152,678,542
2248,1153,679,542
2250,1153,679,542
2250,1153,680,542
2250,1153,680,542
2247,1152,678,542
2241,1150,676,540
2235,1148,673,539
2230,1146,671,538
2227,1145,670,538
2226,1145,670,538
2226,1145,670,538
2227,1145,670,538
2229,1145,670,538
2230,1146,671,538
2230,1146,671,538
2230,1146,671,538
2230,1146,672,539
2229,1145,671,538
2229,1145,671,538
2230,1145,671,538
2230,1145,671,538
2230,1145,672,538
2231,1145,672,539
2232,1145,672,539
2232,1145,673,539
2233,1146,673,539
2233,1146,673,539
2233,1145,674,539
2234,1145,674,539
2235,1146,675,539
2235,1145,675,539
2233,1144,674,538
2228,1143,672,538
2222,1141,669,536
2215,1139,667,535
2212,1138,665,535
2211,1137,665,534
2210,1137,664,534
2210,1137,665,534
2211,1137,665,534
2212,1137,665,535
2211,1136,665,534
2212,1137,666,534
2212,1137,666,535
2210,1136,665,534
2210,1135,665,534
2211,1136,665,534
2210,1135,665,534
2210,1135,665,534
2211,1136,666,534
2211,1135,666,534
2211,1135,666,534
2212,1135,667,534
2212,1135,667,534
2212,1135,667,534
2212,1135,667,534
2212,1135,667,534
2213,1135,668,534
2213,1135,668,534
2213,1134,668,534
2213,1134,668,534
2209,1133,666,533
2201,1130,663,531
2195,1128,660,530
2191,1127,658,530
2187,1126,657,529
2186,1125,657,529
2187,1125,657,529
2186,1125,657,529
2185,1124,657,528
2186,1125,657,529
2187,1125,658,529
2186,1124,657,529
2186,1124,657,529
2186,1124,658,528
2185,1123,657,528
2184,1123,657,528
2185,1123,657,528
2185,1123,657,528
2184,1123,657,528
2185,1123,658,528
2186,1123,658,528
2186,1123,658,528
2186,1123,659,528
2187,1123,659,528
2187,1123,659,528
2187,1122,659,528
2188,1123,660,528
2189,1123,660,528
2189,1122,660,528
2187,1122,660,528
2183,1121,658,527
2176,1118,655,526
2170,1116,652,524
2165,1115,651,524
2163,1114,650,523
2162,1113,649,523
2161,1113,649,523
2161,1113,649,523
2161,1113,649,523
2162,1113,650,523
2163,1113,650,523
2164,1113,651,523
2165,1114,651,523
2164,1114,651,523
2165,1114,651,523
2166,1114,651,524
2167,1115,652,524
2169,1115,652,524
2170,1116,653,524
2172,1117,654,525
2174,1117,654,525
2176,1118,655,526
2178,1119,656,526
2179,1119,656,526
2180,1120,657,526
2182,1120,658,527
2183,1121,658,527
2185,1122,659,527
2188,1123,660,528
2189,1123,660,528
2190,1124,661,528
2189,1124,660,528
2184,1122,658,527
2178,1120,655,526
2178,1119,653,526
2174,1119,653,526
2174,1119,653,526
2173,1119,653,526
2174,1120,653,526
2176,1120,654,526
2178,1121,655,527
2179,1121,655,527
2181,1122,656,527
2183,1123,657,528
2183,1123,657,528
2183,1123,657,528
2185,1124,657,528
2186,1124,658,528
2186,1124,658,528
2188,1125,658,529
2190,1126,659,529
2192,1126,660,529
2193,1127,660,530
2196,1128,661,530
2198,1129,662,531
2199,1129,663,531
2201,1130,663,531
2204,1131,664,532
2205,1131,665,532
2206,1132,665,533
2208,1132,666,533
2206,1132,665,533
2200,1130,662,531
2195,1129,660,531
2192,1128,659,530
2190,1128,658,530
2190,1128,658,530
2193,1129,659,531
2195,1130,660,531
2196,1130,660,531
2199,1131,661,532
2201,1132,662,532
2202,1132,663,532
2202,1132,663,533
2203,1133,663,533
2204,1133,663,533
2205,1133,664,533
2206,1134,664,533
2209,1135,665,534
2210,1136,666,534
2211,1136,666,535
2214,1137,667,535
2216,1138,668,535
2217,1138,668,536
2219,1138,669,536
2221,1139,670,537
2223,1140,671,537
2224,1140,671,537
2226,1141,672,538
2226,1141,672,538
2221,1140,670,537
2215,1138,667,536
2209,1136,665,535
2206,1135,663,534
2204,1135,662,534
2205,1135,663,534
2206,1136,663,534
2207,1136,663,534
2209,1136,664,535
2211,1137,665,535
2212,1138,665,535
2213,1138,666,536
2214,1138,666,536
2214,1139,666,536
2214,1139,666,536
2215,1139,667,536
2215,1139,667,536
2216,1139,668,537
2217,1140,668,537
2219,1140,668,537
2221,1141,669,537
2222,1141,670,538
2224,1142,670,538
2225,1142,671,538
2226,1143,671,538
2228,1143,672,539
2229,1143,672,539
2230,1143,673,539
2231,1144,673,539
2231,1144,674,539
2229,1143,673,539
2223,1141,670,538
2217,1139,667,536
2211,1138,665,535
2208,1137,663,535
2207,1137,663,535
2207,1136,663,535
2207,1136,663,535
2207,1136,664,535
2208,1136,664,535
2208,1136,664,535
2208,1136,664,535
2208,1136,664,534
2208,1135,664,534
2207,1135,664,534
2207,1135,664,534
2206,1135,664,534
2207,1135,664,534
2208,1135,665,534
2207,1135,665,534
2207,1134,665,534
2209,1135,665,534
2209,1135,666,534
2209,1134,666,534
2209,1134,666,534
2210,1135,667,534
2211,1134,667,534
2211,1134,667,534
2212,1135,668,535
2211,1134,667,534
2204,1132,664,533
2197,1129,662,532
2191,1127,659,530
2186,1125,657,529
2183,1124,656,529
2183,1124,656,529
2182,1124,656,528
2181,1123,656,528
2182,1123,656,528
2182,1123,656,528
2180,1122,656,528
2180,1122,656,528
2180,1122,656,528
2177,1120,655,527
2176,1119,655,526
2177,1120,655,527
2176,1119,655,526
2175,1118,655,526
2176,1119,655,526
2177,1119,656,526
2175,1118,655,526
2176,1118,656,526
2178,1118,656,527
2177,1118,656,526
2176,1117,656,526
2178,1118,657,526
2177,1117,657,526
2172,1115,655,525
2172,1113,653,524
2166,1112,650,523
2161,1112,647,521
2153,1109,647,520
2149,1107,646,521
2150,1108,646,521
2148,1107,645,520
2146,1105,645,520
2148,1106,646,520
2149,1106,646,520
2146,1105,646,520
2146,1104,646,519
2147,1105,646,520
2144,1103,645,519
2142,1102,644,518
2143,1103,645,519
2143,1102,645,519
2141,1101,645,518
2142,1102,645,518
2143,1102,645,518
2141,1101,645,518
2141,1100,645,518
2144,1101,646,518
2143,1101,646,518
2142,1100,646,518
2142,1100,646,518
2142,1100,646,518
2137,1098,644,517
2131,1095,641,515
2125,1094,639,514
2118,1091,636,513
2114,1090,635,512
2113,1089,634,512
2111,1089,634,512
2110,1088,634,511
2111,1088,634,511
2112,1088,634,512
2111,1087,634,511
2110,1087,634,511
2110,1086,634,511
2108,1086,634,510
2106,1085,633,510
2106,1085,633,510
2105,1084,633,510
2106,1084,633,510
2106,1084,633,510
2106,1084,634,510
2105,1083,634,509
2106,1083,634,510
2107,1084,634,510
2108,1084,635,510
2110,1085,635,510
2111,1085,636,510
2113,1085,637,511
2114,1086,637,511
2111,1085,636,511
2106,1084,633,510
2102,1083,631,509
2099,1083,630,509
2099,1083,630,509
2101,1084,630,509
2103,1085,631,510
2104,1085,631,510
2107,1086,633,510
2110,1088,634,511
2112,1088,634,511
2113,1089,635,512
2115,1090,635,512
2117,1091,636,513
2118,1091,636,513
2120,1092,637,513
2123,1094,638,514
2123,1094,638,514
2124,1094,639,514
2125,1094,640,515
2128,1096,640,516
2131,1097,641,516
2132,1097,641,516
2134,1098,642,516
2138,1100,643,517
2140,1101,644,518
2141,1101,645,518
2143,1102,646,518
2147,1104,647,519
2147,1104,647,519
2144,1103,645,518
2141,1102,644,518
2137,1102,642,517
2132,1100,640,516
2131,1100,639,516
2135,1102,640,517
2136,1102,641,517
2136,1102,641,517
2140,1104,642,518
2144,1106,644,519
2144,1105,644,519
2146,1106,644,520
2149,1108,645,520
2150,1108,646,521
2149,1108,645,520
2152,1109,646,521
2155,1111,647,522
2155,1111,648,522
2156,1111,648,522
2161,1113,649,523
2163,1114,650,523
2163,1114,650,523
2166,1115,652,524
2170,1117,653,525
2171,1117,653,525
2173,1117,654,525
2176,1119,655,526
2178,1120,656,527
2173,1118,654,526
2168,1117,652,525
2166,1117,650,524
2163,1116,649,524
2161,1116,648,524
2163,1117,649,524
2166,1118,649,525
2167,1118,650,525
2170,1119,651,526
2172,1121,652,526
2174,1121,652,526
2174,1121,653,526
2177,1123,654,527
2179,1123,654,528
2179,1124,654,528
2180,1124,655,528
2183,1125,656,528
2185,1126,656,529
2185,1126,657,529
2188,1127,658,529
2191,1128,659,530
2191,1128,659,530
2193,1129,660,531
2194,1129,660,531
2196,1130,661,531
2197,1130,661,531
2200,1131,662,532
2201,1132,663,532
2202,1132,663,532
2202,1132,663,532
2199,1132,662,532
2199,1130,659,531
2192,1128,656,529
2186,1128,654,529
2182,1127,654,529
2182,1127,654,529
2182,1127,654,529
2183,1127,655,529
2185,1128,655,529
2187,1129,656,530
2189,1129,657,530
2191,1130,658,531
2191,1130,658,531
2191,1130,658,531
2191,1130,658,531
2191,1130,658,531
2192,1130,658,531
2193,1130,658,531
2194,1131,659,531
2195,1131,660,531
2196,1131,660,532
2198,1132,661,532
2198,1132,661,532
2199,1132,661,532
2199,1132,662,532
2200,1132,662,532
2200,1132,662,532
2201,1132,663,532
2202,1132,663,532
2202,1132,663,532
2199,1131,662,532
2193,1129,660,531
2187,1127,657,529
2182,1126,655,528
2179,1125,653,528
2178,1124,653,528
2179,1125,653,528
2179,1124,654,528
2181,1125,654,528
2182,1125,655,529
2183,1125,655,529
2183,1125,655,529
2183,1125,655,529
2183,1125,655,529
2182,1125,655,528
2182,1125,655,528
2182,1125,656,528
2182,1125,656,528
2182,1124,656,528
2182,1124,656,528
2185,1125,657,529
2183,1124,657,528
2184,1124,657,529
2184,1124,657,528
2186,1124,658,529
2186,1124,658,529
2187,1125,659,529
2186,1124,658,529
2180,1122,656,528
2175,1120,654,527
2169,1119,651,526
2164,1117,649,525
2162,1116,648,524
2162,1116,648,524
2162,1116,649,524
2162,1115,649,524
2163,1116,649,524
2164,1116,650,524
2164,1116,650,524
2164,1116,650,524
2164,1116,650,524
2163,1115,650,524
2161,1114,649,524
2161,1115,650,524
2162,1114,650,524
2162,1114,649,523
2161,1114,649,524
2162,1114,650,524
2163,1114,650,524
2162,1114,650,524
2162,1113,650,523
2164,1114,651,524
2164,1114,651,524
2164,1113,651,524
2165,1113,652,524
2163,1113,651,523
2156,1110,648,522
2149,1108,645,521
2144,1107,643,520
2140,1105,642,519
2138,1104,641,519
2139,1105,641,519
2139,1104,641,519
2139,1104,641,519
2140,1104,642,519
2141,1105,643,519
2141,1104,643,519
2141,1104,643,519
2141,1104,643,519
2140,1104,643,519
2139,1103,642,518
2140,1103,643,518
2140,1103,643,519
2140,1103,643,518
2140,1103,643,518
2142,1103,644,519
2142,1103,644,519
2142,1103,644,519
2143,1103,645,519
2144,1103,645,519
2145,1103,646,519
2145,1103,646,519
2144,1103,645,519
2138,1101,643,518
2131,1098,640,516
2125,1096,637,515
2121,1095,636,514
2119,1094,635,514
2119,1094,635,514
2119,1094,635,514
2119,1094,635,514
2119,1094,636,514
2121,1094,636,514
2123,1095,637,515
2123,1095,637,515
2123,1095,637,515
2123,1095,637,515
2125,1096,638,515
2126,1096,639,515
2128,1097,639,516
2129,1097,640,516
2131,1098,640,516
2133,1099,641,517
2135,1100,642,517
2137,1100,643,518
2138,1101,643,518
2141,1102,644,518
2143,1103,645,519
2144,1103,646,519
2147,1104,647,520
2149,1105,647,520
2147,1104,647,520
2142,1103,644,519
2136,1102,642,518
2132,1101,640,517
2132,1100,638,517
2129,1100,638,517
2129,1100,639,517
2131,1100,639,517
2132,1101,639,517
2132,1101,639,517
2135,1102,640,518
2137,1103,641,519
2139,1103,642,519
2140,1104,642,519
2142,1104,643,520
2143,1105,643,520
2143,1105,643,520
2144,1105,644,520
2147,1107,645,521
2148,1107,645,521
2149,1107,646,521
2152,1108,647,522
2154,1109,648,522
2155,1110,648,523
2157,1110,649,523
2159,1111,649,523
2160,1112,650,523
2161,1112,650,524
2164,1113,651,524
2166,1114,652,525
2166,1114,652,525
2162,1113,651,524
2158,1112,648,523
2151,1110,646,522
2147,1108,644,521
2146,1108,643,521
2147,1109,643,521
2147,1109,643,522
2149,1109,644,522
2152,1111,645,523
2154,1111,646,523
2155,1112,646,523
2157,1113,647,524
2159,1113,648,524
2159,1113,648,524
2160,1114,648,524
2162,1115,649,525
2163,1115,649,525
2164,1115,650,525
2166,1116,650,526
2168,1117,651,526
2169,1117,652,526
2171,1118,653,527
2173,1119,653,527
2175,1120,654,528
2177,1120,655,528
2179,1121,656,528
2182,1122,657,529
2183,1123,657,529
2185,1123,658,530
2185,1123,658,530
2180,1122,656,529
2172,1119,652,527
2167,1118,650,526
2164,1117,648,526
2163,1117,648,526
2163,1117,648,526
2165,1118,649,526
2166,1118,649,526
2168,1119,650,527
2170,1119,651,527
2172,1120,652,527
2172,1120,652,528
2173,1120,652,528
2174,1121,652,528
2174,1121,653,528
2174,1121,653,528
2175,1121,653,528
2176,1121,654,529
2177,1122,654,529
2178,1122,654,529
2179,1123,655,529
2180,1123,655,529
2181,1123,656,529
2183,1124,656,530
2185,1124,657,530
2187,1125,658,530
2187,1125,658,531
2189,1126,659,531
2188,1125,659,531
2185,1124,657,530
2178,1122,654,529
2172,1120,652,528
2168,1119,650,527
2166,1119,649,527
2166,1119,649,527
2167,1119,649,527
2168,1119,650,527
2169,1119,651,527
2171,1120,651,527
2172,1120,652,527
2172,1120,652,527
2172,1120,652,527
2172,1120,652,527
2172,1120,652,527
2172,1120,652,527
2173,1120,652,527
2174,1120,653,528
2174,1120,653,527
2175,1120,653,528
2176,1121,654,528
2177,1121,654,528
2177,1121,655,528
2179,1121,655,528
2180,1122,656,528
2181,1122,656,529
2182,1122,657,529
2182,1122,657,529
2179,1121,656,528
2172,1119,653,527
2166,1117,650,526
2162,1116,648,525
2159,1115,647,524
2159,1115,647,524
2160,1115,647,524
2161,1115,648,525
2162,1115,649,525
2164,1116,650,525
2165,1116,650,525
2165,1116,650,525
2164,1116,650,525
2163,1115,650,525
2163,1115,649,525
2164,1115,650,525
2164,1115,650,525
2164,1115,650,525
2164,1115,650,525
2165,1115,651,525
2166,1115,651,525
2166,1115,651,525
2167,1116,652,525
2168,1116,652,526
2168,1116,652,526
2170,1116,653,526
2167,1115,652,525
2162,1113,650,525
2156,1112,647,524
2152,1111,645,523
2152,1109,644,522
2149,1109,644,522
2148,1109,645,522
2150,1109,645,523
2151,1110,645,523
2151,1109,645,523
2152,1110,646,523
2154,1110,647,523
2154,1110,647,523
2152,1109,646,523
2153,1109,646,523
2152,1109,646,523
2152,1109,646,523
2152,1109,647,523
2153,1109,647,523
2154,1109,647,523
2154,1109,647,523
2155,1110,648,523
2156,1110,648,523
2156,1110,649,523
2157,1110,649,523
2157,1110,649,523
2154,1108,648,523
2148,1106,645,521
2141,1105,642,520
2135,1103,640,519
2133,1102,639,519
2133,1102,639,519
2133,1102,639,519
2133,1102,639,519
2135,1102,640,519
2137,1102,641,519
2137,1102,641,519
2137,1103,641,520
2138,1103,641,520
2137,1102,641,519
2136,1102,641,519
2136,1102,641,519
2136,1102,641,519
2136,1102,641,519
2136,1102,641,519
2138,1102,642,519
2138,1102,642,519
2139,1102,643,520
2140,1102,643,520
2140,1102,643,520
2140,1102,643,520
2139,1102,643,519
2133,1100,640,518
2127,1098,638,517
2121,1096,635,516
2119,1095,634,516
2119,1095,634,516
2119,1096,634,516
2120,1096,635,516
2121,1096,635,516
2123,1097,636,517
2125,1097,637,517
2126,1098,637,517
2127,1098,637,517
2127,1098,637,517
2127,1099,638,517
2129,1099,638,518
2130,1100,638,518
2131,1100,639,518
2132,1100,639,518
2134,1101,640,519
2135,1101,640,519
2137,1102,641,519
2139,1103,642,520
2140,1103,643,520
2141,1104,643,520
2141,1104,644,521
2143,1104,644,521
2143,1105,642,520
2140,1103,642,519
2133,1101,640,519
2128,1100,637,518
2125,1099,636,517
2123,1098,635,517
2124,1099,635,517
2125,1099,636,517
2126,1100,636,517
2128,1100,637,518
2130,1101,638,518
2131,1102,638,518
2132,1102,638,518
2132,1102,639,519
2133,1102,639,519
2133,1102,639,519
2134,1103,639,519
2135,1103,640,519
2137,1104,640,520
2138,1104,641,520
2139,1105,641,520
2141,1105,642,520
2142,1106,642,521
2143,1106,643,521
2145,1107,643,521
2146,1107,644,522
2147,1107,644,522
2148,1108,645,522
2147,1108,644,522
2143,1106,642,521
2137,1104,640,520
2133,1104,638,519
2132,1103,637,519
2132,1103,637,519
2132,1103,638,519
2135,1104,638,520
2137,1105,639,520
2138,1106,640,521
2140,1106,641,521
2142,1107,641,521
2142,1107,641,521
2142,1107,641,521
2143,1107,642,522
2144,1108,642,522
2144,1108,642,522
2146,1109,643,522
2148,1109,643,523
2149,1110,644,523
2150,1110,644,523
2151,1111,645,523
2153,1111,645,524
2154,1111,646,524
2155,1112,647,524
2157,1113,647,524
2158,1113,648,525
2159,1113,648,525
2159,1113,648,525
2154,1112,646,524
2147,1110,643,523
2142,1108,640,522
2139,1107,639,521
2139,1107,639,521
2139,1107,639,521
2140,1108,639,521
2141,1108,640,522
2143,1109,641,522
2145,1109,642,522
2146,1110,642,523
2147,1110,642,523
2147,1110,643,523
2147,1110,643,523
2147,1110,643,523
2148,1110,643,523
2148,1110,643,523
2149,1111,643,523
2150,1111,644,523
2151,1111,644,524
2153,1112,645,524
2154,1112,645,524
2155,1112,646,524
2156,1113,646,525
2157,1113,647,525
2158,1114,647,525
2159,1114,647,525
2160,1114,648,525
2161,1114,648,525
2162,1115,649,526
2162,1115,649,526
2160,1114,648,525
2153,1112,645,524
2147,1110,642,523
2142,1108,640,522
2139,1107,639,521
2138,1107,639,521
2138,1107,639,521
2139,1107,639,522
2140,1108,640,522
2141,1108,640,522
2143,1108,641,522
2143,1108,641,522
2144,1109,641,522
2143,1108,641,522
2143,1108,641,522
2143,1108,641,522
2144,1109,641,522
2145,1109,642,522
2146,1109,642,523
2147,1109,643,523
2148,1110,643,523
2150,1110,644,523
2151,1110,645,524
2152,1111,645,524
2153,1111,645,524
2154,1111,646,524
2155,1111,646,524
2155,1112,646,525
2155,1112,646,525
2156,1112,647,525
2156,1112,647,525
2156,1112,647,525
2158,1112,648,525
2158,1112,648,525
2154,1111,646,524
2148,1109,644,523
2141,1107,641,522
2136,1105,638,521
2134,1105,638,521
2134,1105,638,521
2134,1104,638,521
2135,1104,638,521
2136,1105,638,521
2137,1105,639,521
2137,1105,639,521
2138,1105,640,521
2138,1105,640,521
2138,1105,640,521
2138,1105,640,521
2140,1106,640,522
2140,1106,641,522
2141,1106,641,522
2142,1106,642,522
2142,1107,642,523
2143,1107,642,522
2143,1106,643,523
2145,1107,643,523
2146,1107,643,523
2146,1107,643,523
2146,1107,644,523
2147,1107,644,523
2148,1107,644,523
2149,1108,645,524
2149,1108,645,524
2150,1108,645,524
2150,1108,646,524
2151,1108,646,524
2151,1108,646,524
2147,1107,644,523
2139,1104,641,522
2133,1102,638,520
2129,1101,637,520
2126,1100,636,519
2126,1100,635,519
2126,1100,635,519
2126,1100,636,519
2127,1100,636,519
2128,1100,637,519
2129,1100,637,520
2129,1100,637,519
2129,1100,637,520
2129,1100,637,519
2128,1100,637,519
2128,1100,637,519
2128,1100,637,519
2129,1100,637,519
2130,1100,638,519
2131,1101,638,520
2132,1101,639,520
2132,1101,639,520
2132,1101,639,520
2133,1101,639,520
2133,1101,640,520
2134,1101,640,520
2134,1101,640,520
2135,1101,641,520
2136,1102,641,520
2137,1102,641,520
2138,1102,642,521
2139,1102,642,521
2136,1101,641,520
2130,1099,638,519
2123,1097,636,518
2119,1096,634,517
2117,1095,633,517
2117,1095,633,517
2117,1095,633,517
2118,1096,633,517
2119,1096,634,517
2121,1096,635,517
2122,1097,635,518
2123,1097,636,518
2124,1098,636,518
2125,1098,636,518
2125,1098,636,518
2124,1098,636,518
2125,1098,636,518
2125,1098,636,518
2125,1098,636,518
2127,1099,637,518
2128,1099,638,518
2130,1100,638,519
2132,1101,639,519
2134,1101,640,520
2135,1102,640,520
2135,1102,641,520
2137,1103,642,521
2139,1103,642,521
2140,1103,642,521
2141,1104,643,521
2142,1104,643,521
2139,1103,642,521
2133,1101,639,520
2129,1100,637,519
2126,1099,636,519
2124,1099,635,518
2125,1099,636,519
2126,1099,636,519
2129,1100,637,519
2130,1101,638,520
2132,1101,639,520
2133,1102,639,520
2134,1102,639,520
2134,1102,639,520
2135,1102,640,521
2136,1103,640,521
2136,1103,640,521
2137,1103,641,521
2139,1104,641,521
2140,1104,642,521
2141,1104,642,521
2142,1105,643,522
2143,1105,643,522
2144,1105,644,522
2146,1106,644,522
2147,1106,645,523
2148,1107,645,523
2149,1107,646,523
2150,1107,646,523
2146,1106,644,523
2140,1104,642,521
2135,1103,639,521
2132,1102,638,520
2132,1102,638,520
2132,1102,638,520
2134,1103,639,521
2136,1103,640,521
2139,1104,641,522
2140,1105,641,522
2142,1105,642,522
2142,1105,642,522
2142,1105,642,522
2142,1105,642,522
2143,1106,642,523
2143,1106,642,523
2143,1106,643,523
2144,1106,643,523
2146,1107,644,523
2147,1107,644,523
2148,1107,645,523
2149,1108,645,524
2150,1108,646,524
2152,1109,646,524
2153,1109,647,524
2153,1109,647,524
2151,1108,646,524
2145,1107,643,523
2140,1105,641,522
2135,1104,639,521
2134,1103,638,521
2134,1103,638,521
2135,1104,639,521
2136,1104,639,522
2139,1105,640,522
2141,1106,641,523
2142,1106,642,523
2143,1106,642,523
2143,1106,642,523
2143,1106,642,523
2142,1106,642,523
2142,1106,642,523
2142,1106,642,523
2142,1106,642,523
2142,1106,642,522
2143,1106,642,523
2144,1106,643,523
2145,1107,643,523
2146,1107,644,523
2147,1108,644,523
2148,1108,644,523
2149,1108,645,524
2148,1108,644,523
2144,1107,643,522
2136,1104,640,521
2131,1103,637,520
2127,1101,635,519
2126,1101,635,519
2126,1101,635,519
2127,1101,635,519
2128,1102,636,520
2130,1102,637,520
2131,1103,637,520
2132,1103,638,520
2132,1103,638,520
2132,1102,638,520
2131,1102,638,520
2131,1102,638,520
2131,1102,638,520
2131,1102,638,520
2131,1101,638,520
2132,1102,638,520
2132,1101,638,520
2132,1101,639,520
2133,1102,639,520
2134,1102,640,520
2134,1102,640,520
2134,1102,640,520
2135,1102,640,520
2131,1100,639,520
2124,1098,636,518
2118,1096,633,517
2113,1095,631,516
2109,1093,629,515
2109,1093,629,515
2110,1093,630,515
2110,1093,630,515
2110,1093,630,515
2111,1093,631,515
2111,1093,631,515
2109,1092,630,515
2109,1092,630,515
2108,1091,630,515
2106,1090,629,514
2105,1090,629,514
2106,1090,629,514
2105,1089,629,514
2103,1088,629,513
2105,1089,630,514
2104,1089,630,513
2103,1088,629,513
2104,1088,630,513
2106,1088,630,514
2105,1088,630,513
2104,1087,630,513
2106,1088,631,514
2103,1087,630,513
2095,1084,627,511
2089,1082,624,510
2089,1081,622,509
2084,1079,620,508
2080,1079,620,508
2078,1078,620,508
2079,1078,620,508
2079,1078,620,508
2078,1077,620,508
2080,1078,621,508
2081,1078,622,508
2078,1076,621,508
2078,1076,621,508
2079,1077,621,508
2077,1076,620,507
2075,1074,620,507
2076,1075,620,507
2077,1075,621,507
2075,1074,620,507
2075,1074,620,507
2077,1075,621,507
2076,1074,621,507
2075,1073,621,506
2076,1074,621,507
2076,1074,621,507
2075,1073,621,506
2076,1073,621,506
2077,1073,622,506
2075,1072,621,506
2071,1071,620,505
2065,1069,617,504
2057,1066,614,502
2051,1064,612,501
2048,1063,610,501
2048,1063,610,501
2046,1062,610,500
2046,1062,610,500
2047,1062,611,501
2047,1062,611,500
2047,1061,611,500
2047,1061,611,500
2047,1061,611,500
2045,1060,611,500
2045,1060,610,500
2044,1059,610,500
2044,1059,610,499
2043,1059,610,499
2044,1059,611,499
2044,1058,611,499
2044,1058,611,499
2044,1058,611,499
2044,1058,611,499
2044,1058,611,499
2044,1058,611,499
2044,1057,611,499
2045,1057,612,499
2045,1058,612,499
2047,1058,613,499
2047,1058,613,499
2048,1058,613,500
2046,1058,613,499
2042,1057,610,498
2036,1055,608,497
2032,1054,606,497
2031,1054,605,497
2032,1055,605,497
2034,1056,606,497
2035,1056,607,498
2038,1057,608,498
2041,1058,609,499
2043,1059,609,499
2045,1060,610,500
2047,1061,611,500
2048,1061,611,500
2048,1062,611,500
2048,1062,612,501
2049,1062,612,501
2052,1063,612,501
2052,1064,613,501
2054,1064,613,502
2057,1065,614,502
2059,1066,615,503
2060,1066,616,503
2062,1067,616,503
2066,1069,618,504
2066,1069,618,504
2068,1070,619,505
2071,1071,620,505
2073,1072,620,506
2073,1072,621,506
2075,1073,621,506
2079,1074,622,507
2080,1075,623,507
2080,1075,623,507
2079,1075,623,507
2076,1074,621,507
2068,1072,617,505
2064,1071,615,504
2065,1071,615,505
2066,1072,616,505
2066,1072,616,505
2070,1074,617,506
2073,1075,619,507
2074,1075,619,507
2075,1076,619,507
2079,1077,621,508
2080,1078,621,508
2079,1077,621,508
2081,1078,621,508
2084,1080,622,509
2084,1080,622,509
2084,1080,623,509
2088,1081,624,510
2091,1082,625,511
2091,1082,625,511
2093,1083,626,511
2097,1085,627,512
2098,1085,628,512
2098,1085,628,512
2101,1087,629,513
2104,1088,630,513
2104,1088,630,513
2106,1089,631,514
2110,1090,632,515
2111,1091,632,515
2109,1090,632,515
2106,1089,630,514
2101,1088,628,513
2096,1087,625,512
2094,1086,624,512
2095,1087,625,512
2097,1088,625,513
2098,1088,626,513
2101,1089,627,514
2104,1091,628,514
2106,1091,629,515
2107,1091,629,515
2108,1092,630,515
2109,1092,630,515
2109,1092,630,515
2110,1093,630,516
2112,1094,631,516
2113,1094,632,516
2115,1095,632,517
2117,1095,633,517
2117,1096,634,517
2118,1096,634,517
2119,1096,634,518
2120,1097,634,518
2122,1097,635,518
2123,1098,635,518
2124,1098,636,518
2126,1098,636,519
2127,1099,637,519
2128,1099,638,519
2130,1100,638,520
2131,1100,639,520
2130,1100,638,520
2125,1099,636,519
2119,1097,633,518
2113,1095,631,516
2110,1094,629,516
2109,1094,629,516
2109,1094,629,516
2110,1094,630,516
2112,1095,630,516
2113,1095,631,517
2115,1096,631,517
2116,1096,632,517
2116,1096,632,517
2117,1096,632,517
2117,1096,632,517
2117,1096,632,517
2116,1096,632,517
2117,1096,633,517
2117,1096,633,517
2118,1096,633,517
2118,1096,633,518
2119,1096,634,518
2120,1096,634,518
2121,1096,635,518
2121,1096,635,518
2122,1096,635,518
2122,1096,636,518
2123,1097,636,518
2123,1097,636,518
2124,1097,636,518
2125,1097,637,518
2125,1097,637,518
2122,1096,636,518
2116,1094,633,517
2109,1092,630,515
2102,1089,628,514
2099,1088,626,513
2099,1088,626,513
2099,1088,626,513
2099,1088,626,513
2100,1088,627,513
2101,1088,627,514
2100,1088,627,513
2100,1088,627,513
2101,1088,628,514
2099,1087,627,513
2098,1086,627,513
2099,1086,627,513
2098,1086,627,513
2097,1085,627,512
2098,1085,627,513
2099,1086,628,513
2099,1085,628,513
2098,1085,628,512
2100,1085,628,513
2100,1085,629,513
2100,1085,629,513
2100,1085,629,513
2102,1086,630,513
2101,1085,630,513
2101,1084,629,512
2100,1084,630,513
2101,1084,630,513
2102,1085,630,512
2100,1083,630,512
2098,1083,629,512
2094,1081,627,511
2085,1078,624,509
2077,1076,621,508
2074,1075,619,507
2072,1074,618,507
2071,1073,618,506
2072,1073,619,507
2073,1074,619,507
2072,1073,619,507
2073,1073,619,507
2074,1073,620,507
2073,1073,620,507
2071,1072,619,506
2071,1072,619,506
2071,1072,619,506
2069,1071,619,505
2069,1070,619,505
2070,1071,619,506
2070,1070,619,505
2069,1070,619,505
2070,1070,620,505
2071,1071,620,506
2070,1070,620,505
2070,1070,620,505
2072,1070,621,505
2071,1070,621,505
2070,1069,621,505
2072,1069,621,505
2072,1069,621,505
2069,1068,620,505
2063,1066,618,504
2057,1064,615,503
2051,1062,613,501
2046,1060,611,501
2046,1060,611,500
2045,1060,611,500
2045,1059,611,500
2046,1060,611,500
2047,1060,612,500
2047,1059,612,500
2047,1059,612,500
2046,1059,612,500
2045,1059,612,500
2044,1058,611,499
2044,1058,611,499
2044,1058,611,499
2044,1057,611,499
2044,1057,612,499
2044,1057,612,499
2045,1057,612,499
2045,1057,612,499
2046,1058,613,499
2047,1058,613,500
2048,1058,614,500
2051,1059,615,500
2053,1060,616,501
2055,1061,616,501
2055,1061,616,501
2052,1060,615,501
2047,1059,612,500
2042,1058,610,499
2039,1057,609,499
2039,1057,608,499
2040,1058,609,499
2041,1058,609,499
2041,1059,610,499
2043,1059,611,500
2046,1060,612,501
2048,1061,612,501
2049,1061,612,501
2050,1062,613,501
2053,1063,614,502
2053,1063,614,502
2053,1063,614,502
2055,1064,615,502
2057,1065,615,503
2058,1065,615,503
2060,1066,616,503
2063,1067,617,504
2064,1068,618,504
2065,1068,618,504
2068,1069,619,505
2071,1070,620,505
2072,1071,621,506
2073,1071,621,506
2076,1072,622,507
2077,1073,622,507
2073,1071,621,506
2068,1070,618,505
2064,1069,616,504
2059,1068,614,504
2058,1068,614,504
2060,1069,615,504
2062,1069,615,504
2063,1069,616,505
2065,1071,616,505
2068,1072,618,506
2069,1072,618,506
2070,1072,618,506
2072,1073,619,506
2073,1074,619,507
2073,1074,619,507
2074,1074,620,507
2077,1076,621,507
2078,1076,621,508
2079,1076,621,508
2082,1078,622,509
2084,1079,623,509
2085,1079,624,509
2087,1080,625,510
2091,1081,626,511
2093,1082,626,511
2093,1082,627,511
2096,1083,628,512
2098,1084,628,512
2096,1083,628,512
2091,1082,626,511
2087,1081,623,510
2082,1080,621,509
2079,1079,620,509
2080,1079,620,509
2082,1080,621,510
2083,1080,621,510
2085,1081,622,510
2089,1083,623,511
2091,1083,624,511
2091,1083,624,512
2093,1084,625,512
2094,1085,625,512
2095,1085,626,513
2095,1085,626,513
2097,1086,626,513
2099,1087,627,514
2100,1087,627,514
2102,1088,628,514
2104,1088,629,515
2104,1089,630,515
2105,1089,630,515
2106,1089,631,516
2108,1090,631,516
2109,1090,631,516
2110,1090,631,516
2111,1091,632,516
2113,1091,632,516
2112,1091,632,516
2109,1090,631,516
2103,1089,628,515
2098,1087,626,514
2094,1086,624,513
2093,1086,624,513
2094,1086,624,513
2095,1086,625,513
2096,1087,625,513
2097,1087,626,514
2099,1088,626,514
2100,1088,627,514
2100,1088,627,514
2100,1088,627,514
2100,1088,627,514
2100,1088,627,514
2100,1088,627,514
2101,1089,627,514
2102,1089,628,514
2104,1089,628,515
2105,1090,629,515
2106,1090,629,515
2107,1090,630,515
2107,1090,630,516
2108,1090,631,516
2109,1091,631,516
2109,1091,631,516
2110,1091,631,516
2110,1090,631,516
2108,1090,631,515
2102,1088,628,514
2095,1086,625,513
2090,1084,623,512
2088,1083,622,512
2088,1083,622,512
2088,1083,623,512
2089,1083,623,512
2090,1084,623,512
2090,1084,624,512
2091,1084,624,512
2091,1084,624,512
2091,1084,624,512
2090,1083,624,512
2090,1083,624,512
2091,1083,624,512
2090,1083,624,512
2090,1083,624,511
2091,1083,624,512
2092,1083,625,512
2091,1083,625,512
2092,1083,625,512
2093,1083,625,512
2093,1083,626,512
2093,1083,626,512
2094,1083,626,512
2094,1083,626,512
2094,1083,626,512
2093,1082,626,512
2088,1081,624,511
2081,1078,621,509
2076,1077,619,508
2073,1076,618,508
2072,1075,618,508
2072,1075,617,507
2071,1075,618,508
2072,1075,618,508
2073,1075,618,508
2073,1075,618,508
2073,1075,619,508
2074,1075,619,508
2072,1074,618,507
2071,1074,618,507
2071,1074,618,507
2071,1074,618,507
2070,1073,618,507
2071,1073,618,507
2072,1073,619,507
2071,1073,618,507
2071,1073,619,507
2073,1074,619,507
2073,1073,619,507
2072,1073,619,507
2073,1073,620,507
2074,1073,620,507
2073,1072,620,507
2070,1071,619,506
2064,1070,616,505
2058,1068,614,504
2053,1066,612,503
2052,1065,611,503
2051,1065,611,503
2051,1065,611,503
2052,1065,612,503
2054,1066,612,503
2053,1065,612,503
2053,1065,613,503
2055,1065,613,503
2054,1065,613,503
2052,1064,612,503
2053,1064,612,503
2053,1065,613,503
2053,1064,613,503
2054,1064,613,503
2055,1065,614,503
2055,1065,614,503
2056,1065,614,503
2057,1065,615,503
2057,1065,615,503
2056,1064,615,503
2057,1064,615,503
2058,1065,615,503
2057,1064,615,503
2052,1062,613,502
2046,1060,611,501
2039,1058,608,500
2034,1056,606,499
2032,1056,605,498
2032,1056,605,498
2032,1055,605,498
2032,1055,605,498
2033,1056,606,499
2034,1056,606,499
2035,1056,607,499
2036,1056,607,499
2037,1057,608,499
2037,1057,608,499
2037,1057,607,499
2038,1057,608,499
2040,1058,608,500
2041,1058,609,500
2043,1059,610,501
2046,1060,611,501
2048,1061,611,501
2049,1062,612,502
2049,1062,613,502
2051,1063,613,502
2052,1063,613,502
2053,1063,613,503
2055,1064,614,503
2056,1064,615,503
2057,1065,615,503
2057,1065,615,503
2053,1064,613,503
2048,1062,611,502
2042,1060,608,501
2040,1060,607,500
2040,1060,607,501
2041,1060,608,501
2042,1061,608,501
2044,1061,608,501
2045,1062,609,502
2046,1062,610,502
2048,1063,610,502
2050,1064,611,503
2051,1064,611,503
2050,1064,611,503
2052,1065,611,503
2054,1066,612,504
2055,1066,613,504
2056,1066,613,504
2058,1067,614,504
2061,1068,615,505
2062,1068,615,505
2064,1069,616,506
2066,1070,617,506
2067,1070,617,506
2067,1071,617,506
2069,1072,618,507
2072,1073,619,507
2073,1073,620,507
2074,1073,620,508
2076,1074,621,508
2074,1073,620,508
2067,1071,617,506
2062,1070,615,506
2059,1069,613,505
2057,1069,612,505
2057,1069,612,505
2059,1070,613,505
2061,1070,614,506
2062,1071,614,506
2065,1072,615,506
2067,1073,616,507
2068,1073,617,507
2068,1073,617,507
2070,1074,617,507
2071,1074,618,508
2071,1074,618,508
2073,1075,618,508
2075,1076,619,509
2076,1076,620,509
2077,1076,620,509
2079,1077,621,509
2081,1078,621,510
2082,1078,622,510
2083,1079,622,510
2086,1080,623,511
2087,1080,624,511
2088,1080,624,511
2090,1082,625,512
2092,1082,626,512
2093,1083,626,512
2094,1083,626,513
2093,1083,626,512
2088,1081,623,511
2088,1079,620,510
2081,1079,618,509
2076,1078,618,509
2074,1077,618,509
2074,1077,617,509
2074,1077,618,509
2076,1078,618,509
2078,1078,619,510
2079,1079,620,510
2081,1079,620,510
2083,1080,621,511
2083,1080,621,511
2083,1080,621,511
2084,1080,621,511
2085,1081,622,511
2085,1081,622,511
2086,1081,622,512
2087,1082,623,512
2089,1082,623,512
2090,1082,624,512
2091,1083,625,512
2092,1083,625,513
2093,1084,625,513
2095,1084,626,513
2096,1084,627,513
2096,1085,627,513
2098,1085,627,514
2099,1085,628,514
2099,1085,628,514
2096,1084,627,513
2090,1082,624,512
2084,1081,622,511
2080,1079,620,510
2077,1078,619,510
2076,1078,618,510
2077,1078,619,510
2078,1078,619,510
2079,1078,620,510
2079,1078,620,510
2080,1078,620,510
2080,1078,620,510
2080,1078,621,510
2079,1078,620,510
2079,1077,620,510
2079,1077,620,510
2079,1077,621,510
2079,1077,621,510
2080,1077,621,510
2081,1078,621,510
2081,1077,622,510
2081,1077,622,510
2082,1078,622,510
2082,1078,622,510
2082,1077,622,510
2082,1077,623,510
2083,1077,623,510
2084,1077,623,510
2084,1077,623,510
2083,1077,623,510
2079,1075,622,509
2071,1072,619,508
2064,1070,616,507
2060,1069,614,506
2056,1067,613,505
2054,1066,612,505
2056,1067,613,505
2056,1067,613,505
2055,1066,613,504
2057,1066,613,505
2058,1067,614,505
2056,1065,613,504
2056,1065,613,504
2055,1065,613,504
2055,1065,613,504
2053,1064,613,503
2051,1063,612,503
2052,1063,613,503
2052,1063,613,503
2050,1062,612,503
2050,1062,612,503
2052,1062,613,503
2050,1061,613,502
2050,1061,613,502
2052,1062,613,503
2052,1061,614,503
2050,1060,613,502
2051,1061,614,502
2052,1061,614,502
2049,1059,613,502
2045,1058,612,501
2040,1056,610,500
2032,1053,606,498
2025,1051,604,497
2024,1051,603,497
2024,1051,603,497
2022,1049,603,496
2022,1049,603,496
2025,1050,604,496
2024,1049,604,496
2022,1048,604,496
2022,1048,604,496
2022,1048,604,495
2019,1046,603,495
2018,1046,602,494
2018,1046,603,494
2017,1045,602,494
2016,1045,602,494
2017,1045,603,494
2018,1045,603,494
2016,1044,603,494
2017,1044,603,494
2018,1045,603,494
2016,1044,603,493
2016,1043,603,493
2017,1043,603,493
2017,1043,604,493
2015,1042,603,493
2011,1041,602,492
2005,1039,599,491
1998,1036,596,489
1993,1034,594,488
1991,1034,594,488
1990,1033,593,488
1989,1033,593,488
1989,1032,593,488
1990,1033,594,488
1990,1032,594,488
1990,1032,594,487
1990,1032,594,487
1988,1031,594,487
1987,1030,593,487
1986,1030,593,486
1985,1029,593,486
1985,1029,593,486
1986,1029,593,486
1987,1030,594,487
1988,1030,594,487
1989,1031,594,487
1991,1031,595,487
1994,1033,596,488
1996,1033,597,488
1996,1034,597,489
1997,1034,598,489
1998,1034,597,489
1997,1034,597,488
1992,1033,595,488
1987,1031,593,487
1986,1031,592,487
1986,1032,592,487
1987,1032,592,487
1989,1033,593,488
1993,1035,594,489
1996,1036,595,489
1998,1037,596,489
2000,1038,597,490
2002,1038,597,490
2002,1039,597,490
2003,1039,598,491
2005,1040,598,491
2007,1041,599,492
2008,1041,599,492
2010,1043,600,492
2013,1044,601,493
2014,1044,601,493
2016,1045,602,494
2020,1047,603,494
2022,1048,604,495
2023,1048,604,495
2024,1048,605,495
2023,1049,604,495
2017,1047,602,494
2011,1045,599,493
2010,1045,598,493
2011,1046,598,493
2010,1045,598,493
2012,1046,599,494
2016,1048,600,494
2018,1049,601,495
2018,1049,601,495
2022,1050,602,496
2025,1052,603,496
2024,1051,603,496
2024,1052,603,496
2028,1053,604,497
2030,1054,605,498
2029,1054,605,497
2032,1055,606,498
2035,1056,607,499
2036,1057,607,499
2037,1057,608,499
2041,1059,609,500
2044,1060,610,501
2044,1060,610,501
2046,1061,611,501
2049,1062,612,502
2046,1061,610,501
2040,1059,608,500
2037,1059,606,500
2035,1059,605,499
2034,1058,605,499
2035,1059,605,499
2038,1060,606,500
2039,1061,607,500
2041,1061,607,501
2043,1062,608,501
2047,1064,609,502
2048,1064,610,502
2049,1065,610,502
2051,1066,611,503
2052,1067,611,503
2053,1067,611,503
2053,1067,612,504
2055,1069,613,504
2057,1069,613,505
2059,1069,613,505
2059,1069,614,505
2062,1070,614,505
2063,1071,615,506
2064,1071,615,506
2065,1072,616,506
2068,1073,617,507
2069,1073,617,507
2069,1073,618,507
2071,1074,618,507
2069,1073,617,507
2063,1071,615,506
2058,1070,612,505
2054,1069,611,504
2053,1069,610,504
2054,1069,610,504
2055,1070,611,504
2057,1070,611,505
2058,1071,612,505
2060,1071,613,505
2062,1072,613,506
2063,1072,614,506
2063,1072,614,506
2064,1073,614,506
2064,1073,614,506
2065,1073,615,507
2066,1074,615,507
2067,1074,615,507
2067,1074,616,507
2068,1074,616,507
2069,1075,616,507
2070,1075,617,508
2071,1075,617,508
2072,1076,618,508
2073,1076,618,508
2073,1076,618,508
2073,1076,618,508
2073,1075,618,508
2070,1075,617,508
2065,1073,615,507
2059,1071,612,506
2055,1070,611,505
2053,1069,610,504
2052,1069,610,504
2053,1069,610,504
2054,1069,611,504
2055,1069,611,505
2056,1069,611,505
2056,1069,612,505
2057,1069,612,505
2056,1069,612,505
2057,1069,612,505
2056,1069,612,505
2056,1069,612,505
2057,1069,612,505
2058,1069,613,505
2058,1069,613,505
2059,1069,613,505
2060,1070,613,505
2060,1070,614,505
2060,1070,614,505
2061,1070,614,505
2061,1070,614,505
2062,1070,615,505
2062,1070,615,505
2063,1070,615,506
2063,1070,616,506
2061,1069,615,505
2061,1067,613,504
2056,1065,610,503
2050,1065,607,501
2042,1063,607,501
2038,1061,605,500
2037,1061,605,500
2036,1060,605,500
2035,1060,605,500
2036,1060,605,500
2037,1060,606,500
2038,1060,606,500
2038,1060,606,500
2039,1060,607,501
2038,1060,606,500
2037,1059,606,500
2038,1060,606,500
2038,1060,606,500
2037,1059,606,500
2038,1059,607,500
2039,1060,607,500
2039,1059,607,500
2038,1059,607,500
2040,1059,608,500
2041,1059,608,501
2040,1059,608,500
2040,1059,608,500
2041,1059,609,501
2040,1059,608,500
2040,1058,608,500
2041,1059,609,500
2041,1058,609,500
2040,1058,609,500
2039,1057,608,500
2034,1056,606,499
2026,1053,603,497
2021,1051,601,496
2019,1050,600,496
2018,1050,600,496
2016,1049,599,496
2016,1049,599,496
2016,1049,599,496
2016,1049,599,496
2017,1049,600,496
2018,1049,600,496
2018,1049,600,496
2016,1048,600,495
2015,1048,599,495
2014,1048,599,495
2012,1047,598,494
2012,1047,598,494
2014,1047,599,495
2015,1047,600,495
2015,1047,600,495
2015,1047,600,495
2015,1047,600,494
2014,1046,600,494
2013,1046,600,494
2013,1046,600,494
2013,1046,600,494
2014,1046,600,494
2016,1046,601,494
2016,1046,601,494
2010,1044,599,493
2003,1042,596,492
1998,1040,594,491
1996,1039,593,490
1996,1039,593,491
1997,1039,594,491
1998,1040,594,491
2000,1040,595,491
2000,1040,595,491
2001,1041,596,492
2002,1041,596,491
2002,1041,596,491
2001,1041,596,491
2001,1041,596,491
2003,1041,596,492
2005,1042,597,492
2006,1042,597,492
2007,1043,597,492
2008,1044,598,493
2010,1044,599,493
2013,1045,600,494
2015,1046,601,494
2016,1047,601,494
2017,1047,602,494
2020,1048,602,495
2021,1049,603,495
2023,1049,604,496
2025,1050,604,496
2027,1051,605,497
2028,1051,606,497
2027,1051,605,497
2023,1050,603,496
2017,1048,601,495
2012,1047,598,494
2010,1046,597,493
2010,1046,598,494
2012,1047,598,494
2013,1047,599,494
2015,1048,599,495
2018,1049,600,495
2019,1050,601,495
2020,1050,601,496
2022,1051,602,496
2022,1051,602,496
2023,1051,602,496
2025,1052,603,497
2027,1053,604,497
2027,1053,604,497
2029,1054,605,497
2031,1055,605,498
2033,1056,606,498
2034,1056,606,498
2035,1056,607,499
2038,1058,608,499
2040,1058,609,500
2040,1058,609,500
2043,1059,610,500
2045,1060,611,501
2046,1060,611,501
2047,1061,612,501
2050,1062,612,502
2050,1062,613,502
2049,1061,612,501
2045,1060,610,501
2039,1059,608,500
2033,1057,605,499
2030,1056,604,498
2032,1057,604,499
2033,1057,605,499
2033,1058,605,499
2035,1058,606,499
2039,1060,607,500
2040,1060,608,500
2041,1060,608,501
2043,1061,609,501
2045,1062,609,501
2045,1062,609,501
2046,1063,610,502
2046,1063,610,502
2048,1063,610,502
2048,1063,611,502
2049,1064,611,503
2051,1064,612,503
2053,1065,612,503
2054,1065,613,503
2055,1066,613,504
2058,1067,614,504
2060,1068,615,505
2060,1068,615,505
2062,1068,616,505
2063,1069,616,505
2064,1069,617,505
2062,1068,616,505
2056,1067,613,504
2050,1065,611,503
2045,1063,609,502
2043,1063,608,502
2044,1063,608,502
2045,1063,608,502
2045,1064,609,502
2047,1064,609,502
2049,1065,610,503
2051,1065,611,503
2052,1066,611,503
2053,1066,612,504
2054,1066,612,504
2054,1067,612,504
2055,1067,612,504
2056,1067,613,504
2057,1068,613,504
2058,1068,614,505
2059,1068,614,505
2061,1069,615,505
2062,1069,615,505
2063,1070,616,506
2064,1070,616,506
2065,1070,617,506
2066,1071,617,506
2068,1071,618,506
2069,1072,618,507
2071,1072,619,507
2071,1072,619,507
2069,1071,619,507
2064,1070,616,506
2057,1067,614,504
2052,1066,611,504
2048,1064,610,503
2046,1064,609,502
2046,1064,609,502
2048,1064,610,503
2049,1065,610,503
2051,1065,611,503
2051,1065,611,503
2052,1065,612,503
2053,1065,612,503
2054,1066,612,504
2053,1065,612,503
2052,1065,612,503
2052,1065,612,503
2053,1065,612,503
2054,1066,613,504
2055,1066,613,504
2056,1066,613,504
2056,1066,614,504
2057,1066,614,504
2058,1067,615,504
2060,1067,615,505
2061,1068,616,505
2061,1068,616,505
2061,1068,616,505
2062,1068,616,505
2062,1068,615,504
2057,1066,615,503
2051,1064,612,503
2044,1062,609,501
2039,1060,607,501
2038,1059,606,500
2037,1059,606,500
2038,1059,606,500
2038,1059,607,500
2040,1060,608,501
2042,1060,608,501
2042,1060,609,501
2043,1060,609,501
2043,1060,609,501
2042,1060,609,501
2042,1060,609,501
2043,1060,609,501
2043,1060,609,501
2043,1060,609,501
2045,1060,610,501
2046,1061,611,502
2046,1061,611,502
2046,1061,611,502
2048,1061,612,502
2048,1061,612,502
2049,1061,612,502
2050,1061,613,502
2050,1061,613,502
2045,1060,611,501
2038,1057,608,500
2032,1055,605,499
2027,1054,603,498
2025,1053,602,497
2025,1053,603,497
2026,1053,603,498
2027,1053,603,498
2028,1054,604,498
2030,1054,605,498
2030,1054,605,498
2030,1054,605,498
2031,1054,605,498
2031,1054,605,498
2031,1054,605,498
2031,1054,605,498
2031,1054,606,498
2031,1054,606,498
2032,1054,606,498
2033,1054,606,499
2033,1055,607,499
2034,1054,607,499
2035,1055,608,499
2036,1055,608,499
2037,1055,608,499
2037,1055,609,499
2038,1055,609,499
2035,1054,608,499
2028,1052,605,497
2021,1050,602,496
2016,1048,600,495
2013,1047,599,495
2013,1047,599,495
2013,1047,599,495
2014,1047,599,495
2015,1047,600,495
2017,1048,600,495
2017,1048,601,495
2018,1048,601,495
2018,1048,601,496
2018,1048,601,495
2018,1048,601,495
2017,1048,601,495
2018,1048,601,495
2018,1048,601,495
2019,1048,602,495
2019,1048,602,496
2020,1048,602,496
2022,1049,603,496
2023,1049,603,496
2024,1050,604,496
2025,1050,604,497
2027,1051,605,497
2028,1051,605,497
2030,1052,606,498
2030,1052,606,498
2027,1051,605,497
2022,1049,603,496
2015,1047,600,495
2012,1046,598,494
2010,1046,598,494
2011,1046,598,494
2012,1047,598,495
2014,1048,599,495
2016,1048,600,495
2018,1049,601,496
2020,1050,601,496
2021,1050,602,496
2021,1050,602,497
2022,1050,602,497
2023,1051,603,497
2023,1051,603,497
2024,1051,603,497
2026,1052,604,497
2027,1052,604,498
2028,1053,605,498
2030,1053,605,498
2031,1054,606,498
2032,1054,606,499
2034,1055,607,499
2036,1056,608,499
2038,1056,608,500
2038,1056,609,500
2040,1057,609,500
2039,1057,609,500
2034,1055,607,499
2027,1053,604,498
2023,1052,602,497
2021,1052,601,497
2020,1051,601,496
2022,1052,601,497
2024,1053,602,497
2026,1053,603,497
2027,1054,603,498
2030,1055,604,498
2031,1055,605,499
2031,1055,605,499
2032,1055,605,499
2033,1056,606,499
2033,1056,606,499
2034,1056,606,499
2035,1057,606,499
2037,1057,607,500
2038,1058,607,500
2039,1058,608,500
2041,1059,609,501
2042,1059,609,501
2043,1060,610,501
2045,1061,610,501
2047,1061,611,502
2048,1062,612,502
2048,1062,612,502
2049,1061,611,502
2047,1061,609,501
2042,1060,609,500
2035,1058,606,499
2032,1057,604,499
2031,1056,604,499
2031,1056,604,499
2032,1057,604,499
2034,1058,605,500
2036,1059,606,500
2038,1059,607,500
2039,1060,607,501
2041,1060,608,501
2041,1060,608,501
2041,1060,608,501
2042,1060,608,501
2042,1061,609,501
2043,1061,609,501
2044,1061,609,502
2046,1062,610,502
2047,1062,610,502
2048,1063,611,503
2050,1063,612,503
2052,1064,612,503
2053,1064,613,504
2054,1064,613,504
2055,1065,614,504
2053,1064,613,503
2047,1062,610,502
2041,1061,608,501
2037,1059,606,500
2034,1059,605,500
2034,1058,605,500
2035,1059,605,500
2036,1059,606,500
2038,1060,606,501
2039,1060,607,501
2040,1060,607,501
2041,1061,608,501
2041,1061,608,501
2041,1061,608,501
2041,1061,608,501
2042,1061,608,501
2043,1061,608,502
2044,1062,609,502
2045,1062,609,502
2047,1063,610,502
2048,1063,611,503
2049,1063,611,503
2050,1064,611,503
2051,1064,612,503
2052,1064,612,503
2053,1064,613,504
2053,1064,613,504
2052,1064,612,503
2046,1062,610,502
2039,1060,607,501
2034,1058,605,500
2031,1057,603,499
2030,1057,603,499
2030,1057,603,499
2031,1057,604,499
2032,1057,604,500
2033,1058,605,500
2035,1058,605,500
2036,1059,606,500
2036,1059,606,500
2037,1059,606,500
2037,1059,606,500
2037,1059,606,500
2037,1059,606,500
2037,1059,607,501
2038,1059,607,501
2039,1059,607,501
2039,1059,607,501
2040,1059,608,501
2040,1060,608,501
2041,1060,608,501
2042,1060,609,501
2043,1060,609,501
2044,1061,610,502
2045,1061,610,502
2046,1061,610,502
2045,1061,610,502
2040,1059,608,501
2033,1057,605,499
2027,1055,602,498
2023,1054,601,498
2022,1053,601,497
2023,1053,601,497
2023,1053,601,497
2024,1054,601,498
2025,1054,602,498
2026,1054,603,498
2027,1054,603,498
2027,1054,603,498
2027,1054,603,498
2028,1055,603,498
2028,1054,603,498
2028,1054,603,498
2029,1055,604,498
2030,1055,604,498
2030,1055,604,498
2032,1055,605,499
2032,1056,605,499
2033,1056,606,499
2033,1056,606,499
2035,1056,607,499
2036,1056,607,499
2036,1056,607,500
2038,1057,608,500
2039,1057,608,500
2038,1057,608,500
2033,1055,606,499
2027,1053,603,498
2020,1051,601,496
2017,1050,599,496
2016,1050,599,496
2016,1050,599,496
2016,1050,599,496
2018,1050,600,496
2020,1051,601,496
2021,1051,601,496
2021,1051,601,496
2022,1051,602,497
2022,1051,602,497
2022,1051,602,497
2022,1051,602,497
2022,1051,602,497
2023,1051,602,497
2023,1051,603,497
2025,1052,603,497
2025,1052,603,497
2026,1052,604,497
2027,1052,604,497
2029,1053,605,498
2030,1053,605,498
2031,1054,606,498
2032,1054,606,498
2033,1054,607,499
2034,1054,607,499
2034,1054,607,498
2033,1054,605,497
2028,1052,602,496
2021,1050,602,495
2016,1048,600,495
2012,1047,598,494
2011,1047,598,494
2011,1047,598,494
2013,1047,598,495
2014,1048,599,495
2016,1048,600,495
2017,1049,601,495
2018,1049,601,496
2019,1049,601,496
2019,1049,601,496
2019,1049,601,496
2020,1049,601,496
2020,1050,602,496
2021,1050,602,496
2023,1051,603,497
2024,1051,603,497
2025,1052,604,497
2027,1052,604,497
2028,1052,605,498
2030,1053,605,498
2031,1053,606,498
2032,1054,607,498
2034,1054,607,499
2034,1055,607,499
2032,1054,606,498
2027,1052,604,497
2021,1050,601,496
2016,1049,600,495
2015,1049,599,495
2016,1049,599,495
2017,1049,600,496
2019,1050,600,496
2021,1051,601,497
2023,1051,602,497
2024,1052,603,497
2025,1052,603,497
2026,1053,604,498
2026,1053,603,498
2027,1053,604,498
2028,1053,604,498
2029,1054,605,498
2030,1054,605,499
2031,1055,606,499
2033,1055,606,499
2034,1055,607,499
2035,1056,607,500
2036,1056,608,500
2037,1057,608,500
2038,1057,609,500
2040,1058,609,500
2041,1058,610,501
2041,1058,610,501
2039,1057,609,500
2034,1056,607,499
2028,1054,604,498
2022,1052,602,497
2020,1052,601,497
2021,1052,601,497
2021,1052,601,497
2023,1053,602,497
2025,1054,603,498
2027,1054,603,498
2028,1055,604,498
2029,1055,604,498
2030,1055,605,499
2030,1055,605,499
2030,1055,605,499
2030,1055,605,499
2031,1056,605,499
2032,1056,605,499
2032,1056,606,499
2033,1056,606,499
2035,1057,607,500
2036,1057,607,500
2037,1058,607,500
2039,1058,608,500
2040,1059,609,501
2041,1059,609,501
2043,1060,610,501
2044,1060,610,501
2045,1060,611,502
2044,1060,610,501
2039,1058,608,500
2033,1057,605,499
2028,1055,603,499
2026,1054,602,498
2025,1054,602,498
2026,1055,603,498
2027,1055,603,498
2028,1055,603,499
2030,1056,604,499
2031,1056,604,499
2031,1056,605,499
2032,1057,605,499
2032,1057,605,499
2032,1057,605,499
2033,1057,605,499
2033,1057,606,499
2034,1057,606,500
2036,1058,607,500
2037,1058,607,500
2038,1059,608,500
2039,1059,608,501
2040,1059,609,501
2042,1060,609,501
2043,1060,610,501
2044,1061,610,502
2046,1061,611,502
2044,1060,610,502
2039,1059,608,501
2032,1057,605,499
2027,1055,603,499
2025,1054,602,498
2024,1054,602,498
2025,1054,602,498
2026,1055,602,498
2027,1055,603,499
2029,1056,604,499
2030,1056,604,499
2031,1056,605,499
2031,1056,605,499
2030,1056,604,499
2030,1056,604,499
2030,1056,605,499
2030,1055,605,499
2031,1056,605,499
2031,1056,605,499
2032,1056,605,499
2032,1056,606,499
2032,1056,606,499
2033,1056,606,499
2034,1056,607,500
2035,1056,607,500
2036,1057,608,500
2037,1057,608,500
2037,1057,608,500
2037,1055,606,499
2033,1055,603,497
2025,1052,600,496
2018,1050,600,495
2013,1049,598,495
2011,1048,598,495
2010,1047,597,495
2012,1048,598,495
2012,1048,598,495
2012,1047,598,495
2012,1047,599,495
2013,1047,599,495
2012,1047,599,495
2011,1046,599,494
2012,1047,599,495
2011,1046,599,494
2010,1045,598,494
2011,1045,599,494
2011,1045,599,494
2010,1045,599,494
2010,1044,599,494
2012,1045,600,494
2012,1045,600,494
2010,1044,599,494
2011,1044,600,494
2013,1045,600,494
2012,1044,600,494
2012,1044,600,494
2013,1044,601,494
2010,1043,600,494
2003,1040,597,492
1997,1039,595,491
1991,1037,592,490
1986,1035,590,489
1985,1034,590,489
1987,1035,591,489
1986,1034,591,489
1986,1034,591,489
1988,1034,591,489
1988,1034,592,489
1987,1034,591,489
1987,1033,592,489
1987,1034,592,489
1986,1033,591,488
1984,1032,591,488
1985,1032,591,488
1986,1032,592,488
1984,1031,591,488
1985,1032,591,488
1986,1032,592,488
1985,1031,592,488
1984,1031,592,487
1985,1031,592,488
1986,1031,592,488
1984,1030,592,487
1985,1030,593,487
1986,1031,593,488
1983,1029,592,487
1977,1027,589,486
1971,1025,587,484
1965,1023,585,483
1960,1021,583,482
1959,1021,582,482
1960,1021,583,482
1960,1021,583,482
1960,1020,583,482
1962,1021,584,483
1963,1021,584,483
1962,1021,584,482
1961,1020,584,482
1961,1020,584,482
1961,1019,584,482
1960,1019,583,482
1959,1019,583,481
1959,1019,583,481
1959,1018,584,481
1958,1018,583,481
1959,1018,584,481
1959,1018,584,481
1959,1018,584,481
1959,1017,584,481
1959,1017,584,481
1959,1017,585,481
1960,1017,585,481
1960,1017,585,481
1961,1017,585,481
1959,1017,585,481
1954,1015,583,480
1948,1013,580,479
1944,1012,578,478
1943,1012,578,478
1944,1013,578,478
1946,1014,579,479
1948,1014,580,479
1951,1016,581,480
1954,1017,582,480
1956,1018,583,481
1957,1018,583,481
1958,1019,583,481
1960,1019,584,482
1961,1020,584,482
1962,1020,585,482
1964,1021,585,483
1966,1022,586,483
1968,1023,587,483
1969,1023,587,484
1971,1024,588,484
1974,1025,589,485
1975,1026,589,485
1977,1027,590,485
1981,1028,591,486
1983,1029,592,486
1983,1029,592,486
1981,1029,591,486
1977,1028,589,486
1972,1026,587,485
1968,1025,585,484
1968,1025,585,484
1970,1026,586,484
1970,1026,586,484
1972,1027,587,485
1976,1029,588,486
1978,1030,589,486
1979,1030,589,486
1981,1031,590,487
1984,1032,591,487
1984,1032,591,487
1983,1032,591,487
1986,1033,591,488
1988,1034,592,488
1988,1034,592,488
1990,1035,593,489
1993,1036,594,489
1995,1037,595,490
1995,1037,595,490
1998,1038,596,491
2002,1040,597,491
2002,1040,597,491
2004,1040,598,492
2008,1042,599,492
2009,1043,600,493
2009,1041,598,492
2004,1041,596,491
1999,1040,593,490
1994,1039,593,489
1990,1037,592,489
1989,1037,591,489
1991,1038,591,490
1993,1039,592,490
1994,1039,593,490
1996,1040,594,491
2000,1041,595,492
2001,1042,595,492
2002,1042,596,492
2004,1043,596,493
2006,1044,597,493
2006,1044,597,493
2007,1044,597,493
2010,1046,598,494
2011,1046,599,494
2012,1047,599,494
2015,1048,600,495
2017,1049,601,495
2019,1049,602,496
2020,1050,602,496
2023,1051,603,497
2024,1051,604,497
2025,1052,604,497
2027,1052,605,497
2029,1053,605,498
2027,1053,605,497
2022,1051,603,497
2017,1049,600,496
2011,1048,598,495
2008,1047,597,494
2008,1047,597,494
2009,1047,597,494
2011,1048,598,495
2013,1049,598,495
2015,1050,599,496
2017,1050,600,496
2018,1050,600,496
2019,1051,601,496
2020,1051,601,497
2020,1051,601,496
2020,1051,601,497
2021,1052,602,497
2022,1052,602,497
2023,1053,602,497
2025,1053,603,498
2026,1053,603,498
2026,1054,604,498
2027,1054,604,498
2029,1054,605,498
2030,1055,605,498
2030,1055,605,498
2031,1055,606,499
2032,1055,606,499
2030,1055,605,498
2024,1053,603,497
2018,1051,600,496
2013,1049,598,495
2011,1048,597,495
2010,1048,597,495
2011,1048,597,495
2012,1048,598,495
2014,1049,599,495
2015,1049,599,496
2017,1050,600,496
2017,1050,600,496
2017,1050,600,496
2017,1049,600,496
2017,1049,600,496
2016,1049,600,496
2016,1049,600,496
2016,1049,600,496
2017,1049,600,496
2017,1049,601,496
2017,1049,601,496
2018,1049,601,496
2019,1049,602,496
2019,1049,602,496
2020,1049,602,496
2021,1050,603,496
2021,1049,603,496
2021,1049,603,496
2020,1049,603,496
2015,1047,601,495
2007,1044,597,493
2001,1042,595,492
1997,1041,593,492
1995,1040,592,491
1994,1040,592,491
1995,1040,593,491
1996,1040,593,491
1995,1039,593,491
1997,1040,594,491
1997,1040,594,491
1996,1039,594,491
1995,1039,594,491
1996,1039,594,491
1995,1038,594,491
1994,1038,593,490
1995,1038,594,491
1995,1038,594,491
1994,1037,594,490
1995,1037,594,490
1996,1038,595,491
1996,1037,595,490
1995,1037,595,490
1997,1037,595,491
1997,1037,596,491
1996,1037,595,490
1997,1037,596,490
1998,1037,596,491
1994,1035,595,490
1986,1033,592,488
1980,1031,589,487
1974,1029,587,486
1969,1027,585,485
1969,1027,585,485
1970,1027,585,485
1969,1027,585,485
1969,1026,585,485
1971,1027,586,485
1971,1027,586,485
1970,1026,586,485
1971,1026,586,485
1971,1026,586,485
1969,1025,586,484
1969,1025,586,484
1969,1025,586,484
1970,1025,586,484
1969,1025,586,484
1970,1025,587,484
1971,1025,587,484
1971,1025,587,484
1971,1025,588,484
1973,1025,588,485
1973,1025,588,485
1973,1025,589,485
1974,1025,589,485
1974,1025,589,485
1975,1025,589,485
1974,1025,589,485
1974,1024,589,484
1971,1024,588,484
1964,1021,586,483
1956,1018,582,481
1951,1016,580,480
1948,1015,579,479
1946,1015,578,479
1946,1015,578,479
1947,1015,579,479
1948,1015,579,479
1949,1015,580,479
1949,1015,580,479
1950,1015,580,480
1949,1014,580,479
1948,1014,580,479
1947,1013,580,479
1948,1014,580,479
1948,1014,580,479
1949,1014,580,479
1950,1014,581,479
1951,1015,581,480
1953,1016,582,480
1955,1017,583,480
1957,1017,584,481
1959,1018,584,481
1962,1019,585,482
1964,1020,586,482
1966,1021,587,483
1967,1021,587,483
1966,1021,587,483
1962,1020,585,482
1956,1018,582,481
1952,1017,580,480
1951,1017,580,480
1951,1017,580,480
1952,1018,580,481
1955,1018,581,481
1958,1020,582,482
1960,1021,583,482
1962,1021,584,482
1964,1022,585,483
1966,1023,585,483
1966,1023,585,483
1967,1024,586,484
1969,1025,586,484
1971,1025,587,484
1971,1025,587,485
1973,1026,588,485
1976,1027,589,485
1977,1028,589,486
1978,1028,590,486
1981,1029,591,486
1984,1030,592,487
1984,1031,592,487
1986,1031,593,487
1989,1033,594,488
1991,1033,594,489
1991,1033,595,489
1991,1033,594,489
1987,1033,593,488
1980,1030,590,487
1975,1029,587,486
1975,1029,587,486
1976,1030,587,486
1976,1030,587,486
1978,1031,588,487
1982,1032,589,487
1982,1033,590,488
1983,1033,591,488
1985,1033,592,489
1987,1034,592,489
1989,1035,592,489
1989,1035,592,489
1990,1035,592,489
1992,1036,593,490
1993,1037,594,490
1994,1037,594,490
1996,1038,595,490
1998,1039,596,491
1999,1039,596,491
2001,1040,596,491
2003,1041,597,492
2006,1042,598,493
2007,1042,599,493
2009,1043,599,493
2011,1044,600,494
2013,1045,601,494
2013,1045,601,494
2013,1045,601,494
2010,1044,599,493
2003,1042,597,492
1998,1040,594,491
1997,1040,594,491
1997,1041,594,491
1997,1041,594,491
2000,1042,595,492
2002,1043,596,492
2004,1043,596,493
2005,1044,597,493
2008,1045,598,494
2008,1045,598,494
2008,1045,598,494
2009,1045,598,494
2010,1046,599,494
2011,1046,599,494
2011,1046,599,494
2013,1047,600,495
2014,1047,600,495
2015,1047,601,495
2016,1048,601,495
2018,1048,602,496
2019,1049,602,496
2021,1049,603,496
2023,1050,604,497
2024,1051,604,497
2025,1051,604,497
2022,1050,603,497
2017,1048,601,496
2010,1047,598,494
2006,1045,596,494
2005,1045,596,493
2005,1045,596,494
2006,1045,596,494
2008,1046,597,494
2009,1046,598,494
2011,1047,599,495
2012,1047,599,495
2013,1047,599,495
2013,1047,599,495
2014,1048,600,495
2014,1048,600,495
2014,1048,600,495
2015,1048,600,496
2016,1048,601,496
2017,1048,601,496
2018,1049,601,496
2019,1049,602,496
2019,1049,602,496
2019,1049,602,496
2020,1049,603,497
2020,1049,603,497
2021,1049,603,497
2022,1049,604,497
2023,1049,604,497
2023,1049,604,497
2020,1048,603,496
2013,1046,600,495
2006,1044,597,494
2001,1042,595,493
1998,1041,594,492
1998,1041,594,492
1998,1041,594,492
1998,1041,594,492
2000,1042,595,492
2001,1042,595,493
2002,1042,596,493
2003,1042,596,493
2003,1042,596,493
2002,1042,596,493
2002,1042,596,493
2003,1042,596,493
2003,1042,596,493
2002,1041,596,493
2003,1042,597,493
2004,1042,597,493
2004,1042,597,493
2005,1042,598,493
2006,1042,598,493
2006,1042,598,493
2006,1041,598,493
2007,1042,599,493
2008,1042,599,493
2007,1042,599,493
2005,1041,598,493
2000,1039,596,492
1993,1037,593,490
1986,1035,591,489
1984,1034,590,489
1982,1033,589,488
1982,1033,589,488
1983,1033,589,488
1984,1034,590,489
1985,1033,590,489
1985,1033,591,489
1986,1034,591,489
1986,1034,591,489
1985,1033,591,489
1985,1033,591,489
1986,1033,591,489
1985,1033,591,488
1984,1032,591,488
1986,1033,592,489
1987,1033,592,489
1986,1033,592,489
1987,1033,592,489
1988,1033,593,489
1988,1033,593,489
1988,1033,593,489
1989,1033,594,489
1990,1033,594,489
1989,1033,594,489
1988,1032,593,489
1984,1031,592,488
1977,1028,589,486
1970,1026,586,485
1968,1026,585,485
1966,1025,584,484
1966,1024,584,484
1965,1024,584,484
1965,1024,585,484
1967,1025,585,484
1967,1024,585,484
1968,1025,586,484
1968,1025,586,484
1968,1025,586,484
1967,1024,586,484
1967,1024,586,484
1967,1024,586,484
1966,1023,586,484
1966,1023,586,484
1967,1024,586,484
1967,1023,586,484
1967,1023,586,484
1968,1023,587,484
1969,1024,587,484
1969,1023,587,484
1969,1023,587,484
1970,1023,588,484
1970,1023,588,484
1970,1023,588,484
1968,1023,587,484
1963,1021,585,482
1957,1018,583,481
1952,1017,580,480
1949,1016,579,480
1948,1016,579,480
1949,1016,579,480
1950,1017,580,480
1953,1017,581,481
1955,1018,582,481
1956,1019,582,481
1958,1020,583,482
1959,1020,583,482
1960,1020,583,482
1960,1021,584,482
1962,1021,584,483
1963,1022,584,483
1963,1022,585,483
1965,1023,585,483
1967,1023,586,484
1968,1024,586,484
1969,1024,587,484
1971,1025,588,484
1973,1026,588,485
1974,1026,589,485
1975,1026,589,485
1976,1027,589,485
1972,1026,588,485
1966,1024,585,484
1963,1023,584,483
1961,1023,583,483
1960,1023,582,483
1961,1023,583,483
1963,1024,584,483
1966,1025,584,484
1967,1025,585,484
1969,1026,586,485
1972,1027,587,485
1972,1027,587,485
1972,1027,587,485
1973,1028,587,486
1975,1028,588,486
1976,1029,588,486
1977,1029,589,486
1979,1030,589,487
1981,1031,590,487
1982,1031,590,487
1982,1032,591,488
1984,1033,592,488
1986,1033,592,488
1987,1033,592,489
1988,1033,593,489
1990,1034,593,489
1991,1034,594,489
1986,1033,592,488
1981,1031,590,487
1977,1031,588,487
1973,1029,586,486
1972,1029,585,486
1973,1030,586,486
1975,1030,587,487
1975,1031,587,487
1978,1031,588,487
1980,1032,589,488
1982,1033,589,488
1982,1033,590,488
1984,1034,590,488
1985,1034,590,489
1985,1034,590,489
1985,1034,591,489
1988,1035,591,489
1989,1036,592,489
1990,1036,592,490
1992,1037,593,490
1994,1038,594,491
1995,1038,594,491
1996,1039,595,491
1999,1040,595,492
2001,1040,596,492
2001,1041,597,492
2002,1041,597,492
2000,1040,596,492
1994,1039,593,491
1988,1037,591,490
1985,1036,589,489
1983,1035,589,489
1984,1035,589,489
1984,1036,589,489
1986,1036,590,489
1988,1037,590,490
1989,1037,591,490
1990,1038,591,490
1991,1038,592,490
1992,1038,592,490
1992,1038,592,490
1992,1039,592,490
1993,1039,592,491
1994,1039,593,491
1995,1040,593,491
1996,1040,594,491
1997,1041,594,491
1998,1041,595,492
1999,1041,595,492
2000,1042,595,492
2001,1042,596,492
2003,1043,596,493
2004,1043,597,493
2005,1043,597,493
2006,1043,598,493
2006,1043,598,493
2003,1043,597,492
1997,1041,594,491
1992,1039,592,490
1987,1038,590,489
1985,1037,589,489
1986,1037,589,489
1987,1038,590,489
1987,1038,590,490
1988,1038,591,490
1989,1038,591,490
1990,1038,591,490
1990,1038,591,490
1991,1038,592,490
1990,1038,591,490
1990,1038,591,490
1989,1037,591,490
1989,1037,591,490
1989,1037,591,490
1989,1037,591,490
1989,1037,591,490
1989,1037,592,490
1990,1037,592,490
1991,1037,592,490
1990,1036,592,490
1991,1037,593,490
1992,1037,593,490
1992,1037,593,490
1992,1037,593,490
1993,1037,594,490
1989,1036,592,489
1983,1033,590,488
1977,1031,587,487
1973,1030,585,486
1970,1029,585,486
1969,1028,584,485
1970,1029,585,485
1970,1028,585,485
1970,1028,585,485
1972,1028,586,486
1972,1029,586,486
1971,1028,586,485
1970,1027,585,485
1970,1027,586,485
1969,1026,585,485
1967,1026,585,484
1968,1026,585,485
1968,1026,585,484
1967,1025,585,484
1967,1025,585,484
1968,1025,586,484
1967,1024,586,484
1966,1024,585,484
1968,1024,586,484
1968,1024,586,484
1967,1023,586,484
1967,1023,586,484
1968,1024,587,484
1965,1022,586,483
1959,1020,583,482
1953,1018,581,481
1946,1016,578,479
1940,1013,576,478
1939,1013,575,478
1940,1013,576,478
1938,1012,575,478
1938,1012,575,478
1940,1012,576,478
1940,1012,576,478
1938,1011,576,477
1939,1011,576,478
1940,1012,577,478
1937,1010,576,477
1936,1010,576,477
1938,1010,576,477
1937,1010,576,477
1935,1009,576,477
1936,1009,576,477
1938,1010,577,477
1938,1009,576,477
1936,1009,576,476
1936,1008,576,477
1937,1008,577,476
1936,1008,576,476
1934,1007,576,476
1936,1007,577,476
1937,1008,577,476
1935,1007,577,476
1935,1006,577,476
1934,1006,576,476
1928,1004,574,474
1919,1000,570,472
1913,999,568,471
1910,997,567,471
1908,996,566,470
1908,996,566,470
1909,997,567,470
1909,996,567,470
1908,996,567,470
1909,996,567,470
1909,996,567,470
1908,995,567,470
1906,994,567,470
1906,994,567,469
1906,994,567,469
1905,993,567,469
1905,993,567,469
1905,993,567,469
1904,992,567,469
1904,992,567,469
1905,992,567,469
1906,993,568,469
1907,993,568,469
1908,993,568,469
1909,994,569,469
1910,994,569,470
1913,995,570,470
1915,996,571,471
1917,997,572,471
1918,998,572,471
1916,997,571,471
1911,996,569,470
1907,995,567,469
1904,994,565,469
1903,994,565,469
1905,995,566,469
1907,996,566,470
1909,996,567,470
1912,998,568,471
1915,999,569,471
1917,1000,570,472
1918,1000,570,472
1920,1001,571,473
1922,1002,572,473
1922,1002,572,473
1923,1003,572,473
1926,1004,573,474
1928,1005,574,474
1929,1005,574,474
1932,1006,575,475
1935,1008,576,476
1936,1008,577,476
1938,1009,577,476
1941,1011,578,477
1941,1012,579,478
1944,1012,579,478
1944,1012,580,478
1947,1013,580,479
1950,1014,581,479
1950,1014,581,479
1946,1013,580,478
1942,1012,578,478
1939,1012,576,477
1935,1010,575,477
1935,1010,574,476
1938,1012,576,477
1941,1013,576,478
1941,1013,577,478
1945,1014,578,479
1949,1016,580,480
1950,1017,580,480
1950,1017,580,480
1953,1018,581,481
1956,1019,582,481
1955,1019,582,481
1956,1019,582,481
1960,1021,583,482
1962,1022,584,483
1962,1022,584,483
1965,1023,585,483
1968,1025,586,484
1969,1025,587,484
1971,1025,587,485
1974,1027,588,485
1977,1028,589,486
1978,1028,590,486
1979,1029,590,486
1978,1029,590,486
1973,1028,587,485
1967,1026,585,484
1964,1025,583,484
1965,1026,583,484
1965,1026,583,484
1967,1026,584,485
1970,1028,585,485
1972,1029,586,486
1974,1029,587,486
1976,1031,588,487
1979,1032,589,487
1980,1032,589,488
1980,1032,589,488
1981,1033,589,488
1982,1033,590,488
1983,1033,590,488
1984,1034,590,488
1986,1035,591,489
1987,1035,591,489
1988,1035,592,489
1990,1036,592,490
1991,1037,593,490
1993,1037,594,490
1994,1038,594,490
1996,1039,595,491
1998,1039,595,491
1998,1039,596,491
1998,1039,595,491
1993,1038,593,490
1986,1036,591,489
1982,1034,588,488
1979,1034,587,488
1980,1034,587,488
1981,1034,588,488
1982,1035,588,489
1984,1036,589,489
1984,1036,590,489
1986,1037,590,490
1987,1037,591,490
1988,1037,591,490
1988,1037,591,490
1988,1037,591,490
1988,1037,591,490
1988,1037,591,490
1989,1037,591,490
1990,1037,592,490
1990,1037,592,490
1991,1038,592,490
1992,1038,592,490
1992,1038,593,490
1993,1038,593,491
1993,1038,593,491
1994,1038,594,491
1995,1039,594,491
1996,1039,594,491
1996,1039,595,491
1997,1039,595,491
1995,1038,594,491
1990,1036,592,490
1983,1034,589,488
1977,1032,587,487
1974,1031,586,487
1973,1031,585,487
1973,1031,585,487
1974,1031,586,487
1975,1031,586,487
1976,1031,587,487
1977,1032,587,487
1978,1032,588,487
1978,1032,588,487
1978,1032,588,487
1978,1032,588,487
1977,1031,587,487
1977,1031,587,487
1977,1031,588,487
1977,1031,588,487
1977,1031,588,487
1977,1031,588,487
1978,1031,588,487
1978,1031,588,487
1978,1031,589,487
1979,1031,589,487
1979,1031,589,487
1979,1030,589,487
1979,1030,589,487
1980,1031,590,487
1979,1030,590,487
1978,1030,589,487
1975,1029,588,486
1968,1026,585,485
1960,1023,582,483
1957,1022,580,483
1955,1022,580,482
1954,1021,580,482
1955,1021,580,482
1956,1022,581,482
1957,1022,581,482
1957,1021,581,482
1958,1022,582,483
1959,1022,582,483
1957,1021,582,482
1957,1021,581,482
1957,1021,582,482
1957,1021,581,482
1957,1020,581,482
1958,1021,582,482
1958,1021,582,482
1958,1020,582,482
1957,1020,582,482
1957,1020,582,482
1958,1020,583,482
1958,1020,582,482
1957,1019,582,482
1958,1020,583,482
1959,1020,583,482
1958,1019,583,482
1958,1019,583,482
1955,1018,582,481
1947,1015,579,480
1941,1013,576,479
1938,1012,575,478
1935,1011,574,478
1934,1011,574,477
1935,1011,574,477
1936,1011,574,478
1936,1011,575,478
1937,1011,575,478
1938,1011,576,478
1938,1011,576,478
1938,1011,576,478
1938,1011,576,478
1937,1011,576,478
1936,1010,575,477
1936,1010,575,477
1937,1010,576,478
1937,1010,576,477
1937,1010,576,477
1938,1010,576,478
1938,1010,577,478
1939,1010,577,478
1939,1010,577,478
1939,1010,577,478
1939,1010,577,478
1940,1010,578,478
1940,1010,578,478
1940,1010,578,478
1939,1009,578,477
1936,1008,576,477
1929,1006,573,475
1923,1004,571,474
1919,1003,569,473
1917,1002,568,473
1918,1002,569,473
1919,1003,569,474
1920,1003,570,474
1923,1004,571,474
1925,1005,571,475
1926,1005,572,475
1928,1006,573,476
1929,1007,573,476
1929,1007,573,476
1930,1007,573,476
1931,1008,574,476
1933,1008,574,476
1934,1009,575,477
1936,1009,575,477
1937,1010,576,477
1939,1011,576,478
1940,1011,577,478
1942,1012,578,478
1944,1013,578,479
1945,1013,579,479
1946,1014,579,479
1949,1015,580,480
1950,1016,581,480
1951,1016,581,480
1951,1016,582,481
1953,1017,582,481
1955,1017,582,481
1954,1017,582,480
1950,1016,581,479
1945,1014,578,479
1940,1013,576,478
1937,1012,574,478
1936,1012,574,478
1938,1013,575,478
1940,1013,576,479
1941,1014,576,479
1943,1015,577,479
1946,1016,578,480
1947,1016,579,480
1948,1016,579,480
1950,1017,579,481
1951,1018,580,481
1950,1017,579,481
1950,1017,579,481
1952,1018,580,481
1954,1019,581,481
1955,1019,581,482
1957,1020,582,482
1960,1021,583,483
1961,1022,584,483
1962,1022,584,483
1965,1023,585,484
1967,1024,586,484
1968,1024,586,484
1970,1025,587,485
1972,1026,588,486
1973,1026,588,486
1974,1026,588,486
1973,1027,588,486
1969,1025,586,485
1963,1023,584,484
1958,1022,582,483
1958,1022,581,483
1958,1022,581,483
1958,1022,581,483
1961,1023,582,484
1964,1024,583,484
1965,1025,584,485
1967,1025,585,485
1969,1026,585,485
1970,1027,586,486
1969,1027,585,486
1970,1027,586,486
1972,1028,586,486
1973,1028,587,486
1974,1028,587,487
1976,1029,588,487
1977,1030,588,487
1978,1030,589,487
1979,1030,589,488
1981,1031,590,488
1982,1032,590,488
1984,1032,591,489
1985,1033,592,489
1987,1033,592,489
1987,1033,592,489
1985,1033,591,489
1980,1031,589,488
1974,1029,587,487
1970,1028,585,486
1970,1028,585,486
1971,1028,585,487
1972,1029,586,487
1974,1030,587,487
1977,1031,587,488
1977,1031,588,488
1978,1031,589,488
1979,1031,589,489
1980,1032,589,489
1981,1032,589,489
1981,1032,589,489
1981,1032,589,489
1982,1032,590,489
1983,1032,590,489
1984,1033,590,489
1985,1033,591,489
1986,1033,591,490
1987,1034,592,490
1987,1034,592,490
1989,1034,592,490
1990,1035,593,490
1991,1035,593,491
1991,1035,594,491
1992,1035,594,491
1993,1036,594,491
1991,1035,594,491
1985,1033,591,489
1978,1031,588,488
1973,1029,586,487
1970,1028,585,487
1970,1028,585,487
1970,1028,585,487
1971,1028,585,487
1973,1029,586,487
1974,1029,587,487
1975,1029,587,487
1975,1029,587,488
1975,1029,587,488
1975,1029,587,487
1975,1029,587,487
1975,1029,587,487
1975,1029,587,487
1976,1029,588,487
1977,1029,588,488
1977,1030,588,488
1978,1030,589,488
1979,1030,589,488
1979,1030,589,488
1980,1030,590,488
1981,1030,590,488
1981,1031,590,488
1983,1031,591,489
1984,1031,591,489
1983,1031,591,489
1982,1030,591,488
1976,1028,588,487
1969,1026,585,486
1963,1024,583,485
1961,1023,582,485
1960,1023,582,484
1960,1023,582,484
1961,1023,582,485
1962,1024,583,485
1963,1023,583,485
1964,1024,584,485
1965,1024,584,485
1965,1024,584,485
1965,1024,584,485
1965,1024,584,485
1965,1024,584,485
1965,1024,584,485
1966,1024,585,485
1967,1025,585,486
1967,1024,585,486
1968,1024,585,486
1968,1025,586,486
1968,1025,586,486
1969,1025,586,486
1969,1024,586,486
1970,1025,586,486
1970,1025,587,486
1969,1024,587,486
1970,1025,587,486
1972,1025,588,486
1971,1025,588,486
1968,1024,586,485
1963,1022,584,484
1957,1020,582,483
1951,1018,579,482
1949,1017,578,482
1948,1017,578,482
1948,1017,578,481
1949,1017,578,481
1950,1017,579,482
1951,1018,580,482
1952,1018,580,482
1953,1018,580,482
1953,1018,581,482
1952,1018,580,482
1952,1017,580,482
1952,1017,580,482
1952,1017,580,482
1952,1017,580,482
1953,1017,581,482
1953,1017,581,482
1953,1017,581,482
1954,1017,581,482
1955,1018,582,482
1955,1018,582,482
1955,1018,582,482
1956,1018,583,483
1957,1018,583,483
1958,1018,583,483
1958,1018,583,483
1957,1018,583,483
1952,1016,581,482
1946,1014,578,481
1941,1012,576,480
1938,1011,575,479
1937,1011,575,479
1938,1011,575,479
1939,1011,576,479
1940,1012,576,479
1941,1012,577,480
1942,1012,577,480
1943,1013,578,480
1943,1013,578,480
1943,1013,578,480
1944,1013,578,480
1944,1013,578,480
1945,1013,579,480
1946,1014,579,480
1948,1014,579,481
1949,1015,580,481
1950,1015,581,481
1952,1016,581,482
1953,1016,581,482
1954,1017,582,482
1955,1017,582,482
1958,1018,583,483
1959,1019,584,483
1960,1019,584,483
1959,1019,584,483
1955,1018,582,482
1950,1016,580,481
1950,1014,578,480
1945,1014,577,480
1943,1014,577,480
1942,1014,577,480
1943,1014,577,480
1945,1015,577,481
1947,1015,578,481
1948,1016,579,481
1949,1016,579,481
1951,1017,580,482
1952,1017,580,482
1952,1017,580,482
1952,1017,581,482
1953,1018,581,482
1954,1018,581,482
1954,1018,581,482
1956,1019,582,483
1957,1019,582,483
1958,1020,583,483
1959,1020,583,483
1961,1021,584,484
1962,1021,584,484
1963,1021,585,484
1965,1022,585,484
1967,1023,586,485
1967,1023,586,485
1968,1023,587,485
1968,1024,587,485
1964,1022,585,484
1958,1020,582,483
1953,1019,580,482
1950,1018,579,482
1950,1018,579,482
1950,1018,579,482
1952,1019,580,482
1955,1020,581,483
1956,1020,581,483
1957,1021,582,483
1959,1021,582,484
1960,1022,583,484
1960,1022,583,484
1960,1022,583,484
1961,1022,583,484
1962,1023,583,484
1963,1023,584,484
1965,1024,584,485
1966,1024,585,485
1966,1024,585,485
1968,1025,586,486
1970,1026,586,486
1971,1026,587,486
1972,1026,587,486
1974,1027,588,487
1975,1027,589,487
1976,1028,589,487
1976,1028,589,487
1972,1027,587,487
1967,1025,585,485
1961,1023,582,484
1959,1023,581,484
1959,1023,581,484
1960,1023,582,484
1961,1024,582,485
1964,1024,583,485
1966,1025,584,485
1967,1026,585,486
1968,1026,585,486
1969,1026,586,486
1970,1026,586,486
1970,1027,586,486
1970,1027,586,486
1970,1027,586,487
1971,1027,586,487
1971,1027,586,487
1972,1027,587,487
1974,1028,587,487
1975,1028,588,487
1976,1028,588,488
1978,1029,589,488
1979,1029,589,488
1980,1030,590,489
1981,1030,590,489
1983,1031,591,489
1984,1031,591,489
1984,1031,592,489
1980,1030,590,489
1974,1028,587,487
1967,1026,584,486
1962,1024,582,485
1960,1024,582,485
1960,1023,582,485
1961,1024,582,485
1962,1024,582,485
1963,1024,583,485
1964,1025,583,485
1965,1025,584,485
1966,1025,584,486
1967,1025,584,486
1966,1025,584,486
1967,1025,584,486
1967,1025,585,486
1968,1026,585,486
1969,1026,585,486
1970,1026,586,486
1971,1027,586,487
1971,1027,586,487
1972,1027,587,487
1973,1027,587,487
1973,1027,587,487
1974,1028,588,487
1975,1028,588,487
1976,1028,589,487
1976,1028,589,487
1976,1028,589,487
1975,1027,588,487
1969,1026,586,486
1963,1024,583,485
1957,1022,581,484
1954,1021,580,483
1954,1021,580,483
1955,1021,580,483
1956,1021,580,483
1956,1021,581,483
1958,1022,581,484
1959,1022,582,484
1960,1022,582,484
1960,1022,582,484
1960,1022,582,484
1960,1022,582,484
1960,1022,582,484
1960,1022,582,484
1961,1022,583,484
1961,1022,583,484
1961,1022,583,484
1962,1023,583,484
1963,1023,584,485
1964,1023,584,485
1965,1023,584,485
1966,1024,585,485
1966,1024,585,485
1966,1024,585,485
1967,1024,586,485
1967,1024,586,485
1967,1024,586,485
1965,1023,585,485
1960,1021,583,484
1954,1020,580,483
1949,1018,578,482
1947,1017,577,481
1946,1017,577,481
1948,1017,578,482
1949,1018,578,482
1951,1018,579,482
1952,1019,580,483
1953,1019,580,483
1953,1019,580,483
1954,1019,580,483
1954,1019,580,483
1953,1019,580,483
1954,1019,580,483
1955,1019,581,483
1955,1019,581,483
1956,1019,581,483
1957,1019,582,483
1957,1020,582,483
1957,1019,582,483
1958,1020,583,484
1960,1020,583,484
1960,1020,583,484
1960,1020,584,484
1962,1021,584,484
1963,1021,585,484
1961,1020,584,484
1955,1018,582,483
1949,1017,579,482
1945,1015,577,481
1942,1014,576,480
1941,1014,576,480
1942,1014,576,480
1942,1014,576,480
1943,1014,577,481
1945,1015,578,481
1946,1015,578,481
1947,1015,578,481
1947,1015,579,481
1947,1015,579,481
1947,1015,578,481
1947,1015,579,481
1948,1015,579,481
1948,1015,579,481
1948,1016,579,481
1949,1016,580,481
1950,1016,580,481
1951,1016,580,482
1952,1016,581,482
1953,1017,581,482
1954,1017,582,482
1954,1017,582,482
1956,1018,582,483
1957,1018,583,483
1958,1018,583,483
1959,1019,584,483
1957,1018,583,483
1953,1017,581,482
1946,1015,578,481
1942,1014,576,480
1939,1013,575,480
1939,1013,575,480
1941,1014,576,480
1941,1014,577,481
1943,1014,577,481
1944,1014,578,481
1946,1015,578,481
1948,1016,579,481
1948,1016,579,482
1948,1016,579,481
1949,1016,579,482
1949,1016,579,482
1950,1017,580,482
1951,1017,580,482
1952,1017,581,482
1952,1017,580,482
1954,1018,581,482
1955,1018,581,483
1956,1019,582,483
1956,1019,582,483
1957,1019,582,483
1959,1020,583,483
1961,1021,584,484
1962,1021,584,484
1963,1021,585,484
1963,1021,585,484
1961,1021,584,484
1954,1018,581,482
1948,1017,579,481
1944,1015,577,480
1943,1015,576,480
1944,1015,577,481
1946,1016,577,481
1947,1017,578,481
1948,1017,578,481
1951,1018,579,482
1952,1018,580,482
1954,1019,581,483
1953,1019,580,482
1954,1019,581,483
1955,1019,581,483
1955,1019,581,483
1957,1020,582,483
1957,1020,582,483
1959,1021,583,484
1960,1021,583,484
1961,1021,583,484
1963,1022,584,484
1964,1023,585,485
1965,1023,585,485
1966,1023,586,485
1968,1024,586,485
1969,1024,587,486
1970,1025,587,486
1971,1025,588,486
1971,1025,588,486
1968,1024,586,485
1962,1022,584,484
1956,1020,581,483
1952,1019,579,482
1951,1019,579,482
1951,1019,579,482
1953,1019,580,483
1954,1020,580,483
1956,1020,581,483
1958,1021,582,484
1960,1022,583,484
1962,1023,583,484
1962,1023,583,484
1962,1023,583,484
1962,1023,583,484
1963,1023,583,485
1963,1024,584,485
1964,1024,584,485
1965,1024,585,485
1965,1024,585,485
1966,1024,585,486
1968,1025,586,486
1969,1025,586,486
1970,1025,587,486
1971,1026,587,486
1972,1026,587,486
1973,1027,588,487
1975,1027,589,487
1975,1027,589,487
1974,1027,588,487
1970,1025,586,486
1964,1023,584,485
1959,1022,582,484
1956,1021,581,483
1956,1021,581,483
1956,1021,581,483
1958,1022,582,484
1960,1022,582,484
1962,1023,583,484
1963,1023,584,485
1964,1024,584,485
1965,1024,584,485
1965,1024,584,485
1965,1024,584,485
1965,1024,585,485
1966,1024,585,485
1967,1024,585,486
1968,1025,586,486
1969,1025,586,486
1970,1025,587,486
1971,1025,587,486
1971,1025,587,486
1972,1026,588,486
1973,1026,588,487
1974,1026,589,487
1975,1026,589,487
1974,1026,588,487
1968,1024,586,486
1960,1021,583,484
1955,1019,581,483
1952,1018,580,483
1951,1018,579,482
1951,1018,579,482
1952,1018,580,483
1954,1019,581,483
1954,1019,581,483
1955,1019,582,483
1956,1019,582,483
1956,1019,582,483
1956,1019,582,483
1956,1019,582,483
1956,1019,582,483
1955,1018,582,483
1956,1018,582,483
1956,1019,582,483
1956,1018,583,483
1955,1018,582,483
1956,1018,583,483
1956,1018,583,483
1956,1017,583,483
1956,1017,583,483
1958,1018,584,483
1957,1017,584,483
1955,1016,583,482
1950,1015,581,481
1943,1012,578,480
1943,1009,575,478
1935,1009,573,477
1931,1008,573,477
1929,1007,573,477
1929,1007,573,477
1930,1007,573,477
1933,1008,575,478
1933,1008,575,478
1932,1007,575,477
1933,1008,575,477
1935,1008,576,478
