8670.000000,8989.000000,6554.000000
8670.000000,8989.000000,6552.000000
8668.000000,8989.000000,6552.000000
8668.000000,8989.000000,6552.000000
8668.000000,8987.000000,6551.000000
8668.000000,8988.000000,6550.000000
8668.000000,8989.000000,6550.000000
8668.000000,8989.000000,6551.000000
8669.000000,8990.000000,6551.000000
8668.000000,8989.000000,6552.000000
8671.000000,8990.000000,6553.000000
8670.000000,8990.000000,6553.000000
8671.000000,8991.000000,6554.000000
8671.000000,8991.000000,6554.000000
8671.000000,8992.000000,6555.000000
8671.000000,8993.000000,6554.000000
8669.000000,8991.000000,6552.000000
8669.000000,8988.000000,6550.000000
8669.000000,8986.000000,6549.000000
8667.000000,8986.000000,6549.000000
8667.000000,8985.000000,6547.000000
8667.000000,8985.000000,6547.000000
8666.000000,8982.000000,6545.000000
8667.000000,8983.000000,6546.000000
8667.000000,8983.000000,6546.000000
8667.000000,8982.000000,6546.000000
8667.000000,8983.000000,6546.000000
8667.000000,8984.000000,6546.000000
8667.000000,8984.000000,6546.000000
8667.000000,8984.000000,6549.000000
8668.000000,8984.000000,6549.000000
8667.000000,8984.000000,6546.000000
8666.000000,8983.000000,6545.000000
8666.000000,8981.000000,6545.000000
8664.000000,8976.000000,6542.000000
8664.000000,8976.000000,6542.000000
8664.000000,8976.000000,6542.000000
8664.000000,8974.000000,6540.000000
8662.000000,8972.000000,6539.000000
8663.000000,8971.000000,6539.000000
8663.000000,8974.000000,6540.000000
8663.000000,8974.000000,6540.000000
8663.000000,8973.000000,6538.000000
8664.000000,8975.000000,6540.000000
8665.000000,8977.000000,6541.000000
8664.000000,8977.000000,6541.000000
8664.000000,8979.000000,6542.000000
8666.000000,8979.000000,6542.000000
8665.000000,8975.000000,6541.000000
8663.000000,8969.000000,6539.000000
8661.000000,8967.000000,6537.000000
8656.000000,8960.000000,6534.000000
8656.000000,8960.000000,6533.000000
8656.000000,8957.000000,6533.000000
8656.000000,8958.000000,6533.000000
8655.000000,8957.000000,6533.000000
8659.000000,8960.000000,6534.000000
8657.000000,8960.000000,6533.000000
8657.000000,8960.000000,6533.000000
8659.000000,8964.000000,6533.000000
8660.000000,8966.000000,6535.000000
8661.000000,8967.000000,6534.000000
8664.000000,8973.000000,6539.000000
8664.000000,8973.000000,6539.000000
8664.000000,8973.000000,6539.000000
8664.000000,8976.000000,6540.000000
8663.000000,8971.000000,6539.000000
8660.000000,8965.000000,6534.000000
8655.000000,8959.000000,6534.000000
8655.000000,8959.000000,6532.000000
8655.000000,8959.000000,6532.000000
8655.000000,8957.000000,6531.000000
8656.000000,8959.000000,6534.000000
8656.000000,8958.000000,6532.000000
8659.000000,8962.000000,6534.000000
8659.000000,8962.000000,6534.000000
8659.000000,8965.000000,6534.000000
8658.000000,8966.000000,6535.000000
8661.000000,8969.000000,6536.000000
8663.000000,8972.000000,6539.000000
8663.000000,8977.000000,6541.000000
8665.000000,8977.000000,6541.000000
8665.000000,8975.000000,6542.000000
8665.000000,8976.000000,6541.000000
8664.000000,8974.000000,6540.000000
8664.000000,8974.000000,6539.000000
8664.000000,8974.000000,6537.000000
8664.000000,8972.000000,6537.000000
8663.000000,8971.000000,6537.000000
8663.000000,8972.000000,6538.000000
8664.000000,8973.000000,6537.000000
8665.000000,8974.000000,6537.000000
8665.000000,8974.000000,6537.000000
8665.000000,8977.000000,6538.000000
8665.000000,8975.000000,6540.000000
8666.000000,8979.000000,6541.000000
8666.000000,8979.000000,6542.000000
8666.000000,8981.000000,6544.000000
8666.000000,8981.000000,6544.000000
8667.000000,8981.000000,6542.000000
8667.000000,8983.000000,6542.000000
8666.000000,8979.000000,6541.000000
8666.000000,8978.000000,6540.000000
8666.000000,8978.000000,6539.000000
8665.000000,8978.000000,6539.000000
8665.000000,8978.000000,6539.000000
8666.000000,8980.000000,6541.000000
8666.000000,8980.000000,6540.000000
8666.000000,8980.000000,6542.000000
8666.000000,8980.000000,6541.000000
8666.000000,8982.000000,6541.000000
8667.000000,8983.000000,6543.000000
8667.000000,8983.000000,6544.000000
8667.000000,8985.000000,6544.000000
8667.000000,8983.000000,6544.000000
8667.000000,8983.000000,6544.000000
8666.000000,8982.000000,6542.000000
8666.000000,8981.000000,6542.000000
8666.000000,8980.000000,6540.000000
8666.000000,8979.000000,6542.000000
8666.000000,8981.000000,6542.000000
8667.000000,8981.000000,6542.000000
8666.000000,8982.000000,6542.000000
8667.000000,8982.000000,6542.000000
8667.000000,8983.000000,6543.000000
8667.000000,8986.000000,6543.000000
8667.000000,8986.000000,6545.000000
8668.000000,8986.000000,6545.000000
8668.000000,8987.000000,6544.000000
8667.000000,8985.000000,6544.000000
8667.000000,8986.000000,6542.000000
8667.000000,8983.000000,6541.000000
8667.000000,8983.000000,6541.000000
8666.000000,8983.000000,6539.000000
8667.000000,8984.000000,6540.000000
8667.000000,8984.000000,6539.000000
8667.000000,8985.000000,6541.000000
8667.000000,8983.000000,6541.000000
8667.000000,8984.000000,6542.000000
8667.000000,8985.000000,6542.000000
8667.000000,8985.000000,6543.000000
8667.000000,8985.000000,6543.000000
8667.000000,8986.000000,6543.000000
8667.000000,8984.000000,6542.000000
8667.000000,8983.000000,6541.000000
8667.000000,8981.000000,6541.000000
8667.000000,8982.000000,6540.000000
8665.000000,8982.000000,6540.000000
8665.000000,8981.000000,6539.000000
8666.000000,8982.000000,6540.000000
8667.000000,8983.000000,6539.000000
8667.000000,8982.000000,6540.000000
8667.000000,8982.000000,6540.000000
8667.000000,8984.000000,6540.000000
8667.000000,8984.000000,6541.000000
8667.000000,8985.000000,6542.000000
8668.000000,8986.000000,6545.000000
8668.000000,8988.000000,6543.000000
8668.000000,8988.000000,6543.000000
8668.000000,8987.000000,6543.000000
8667.000000,8985.000000,6541.000000
8667.000000,8983.000000,6541.000000
8667.000000,8983.000000,6539.000000
8667.000000,8983.000000,6540.000000
8667.000000,8983.000000,6540.000000
8667.000000,8983.000000,6540.000000
8667.000000,8984.000000,6539.000000
8667.000000,8984.000000,6540.000000
8668.000000,8986.000000,6541.000000
8668.000000,8986.000000,6542.000000
8667.000000,8986.000000,6542.000000
8668.000000,8987.000000,6542.000000
8668.000000,8987.000000,6544.000000
8668.000000,8989.000000,6545.000000
8668.000000,8988.000000,6543.000000
8668.000000,8988.000000,6542.000000
8668.000000,8986.000000,6542.000000
8668.000000,8987.000000,6542.000000
8667.000000,8986.000000,6540.000000
8668.000000,8986.000000,6541.000000
8668.000000,8988.000000,6543.000000
8668.000000,8988.000000,6543.000000
8668.000000,8988.000000,6542.000000
8668.000000,8989.000000,6544.000000
8669.000000,8990.000000,6545.000000
8669.000000,8990.000000,6545.000000
8669.000000,8990.000000,6544.000000
8670.000000,8991.000000,6544.000000
8672.000000,8992.000000,6546.000000
8671.000000,8991.000000,6544.000000
8670.000000,8991.000000,6544.000000
8669.000000,8990.000000,6542.000000
8669.000000,8990.000000,6542.000000
8669.000000,8988.000000,6543.000000
8669.000000,8989.000000,6542.000000
8668.000000,8988.000000,6542.000000
8669.000000,8989.000000,6543.000000
8669.000000,8990.000000,6544.000000
8670.000000,8990.000000,6544.000000
8671.000000,8990.000000,6543.000000
8672.000000,8991.000000,6545.000000
8675.000000,8994.000000,6547.000000
8677.000000,8996.000000,6547.000000
8677.000000,8996.000000,6547.000000
8677.000000,8996.000000,6547.000000
8678.000000,8995.000000,6547.000000
8674.000000,8993.000000,6545.000000
8674.000000,8993.000000,6546.000000
8673.000000,8992.000000,6545.000000
8673.000000,8992.000000,6545.000000
8672.000000,8991.000000,6545.000000
8673.000000,8991.000000,6545.000000
8675.000000,8992.000000,6545.000000
8675.000000,8993.000000,6545.000000
8675.000000,8993.000000,6546.000000
8675.000000,8993.000000,6546.000000
8678.000000,8996.000000,6548.000000
8681.000000,8996.000000,6549.000000
8681.000000,8999.000000,6549.000000
8684.000000,9002.000000,6552.000000
8684.000000,9003.000000,6552.000000
8685.000000,9003.000000,6552.000000
8684.000000,9002.000000,6552.000000
8681.000000,9000.000000,6550.000000
8679.000000,8998.000000,6549.000000
8679.000000,8997.000000,6548.000000
8677.000000,8997.000000,6546.000000
8678.000000,8995.000000,6546.000000
8678.000000,8994.000000,6546.000000
8677.000000,8994.000000,6546.000000
8679.000000,8996.000000,6548.000000
8679.000000,8997.000000,6547.000000
8680.000000,8997.000000,6547.000000
8682.000000,8998.000000,6548.000000
8681.000000,8999.000000,6548.000000
8682.000000,9001.000000,6549.000000
8685.000000,9003.000000,6551.000000
8685.000000,9003.000000,6553.000000
8687.000000,9005.000000,6553.000000
8688.000000,9008.000000,6554.000000
8687.000000,9006.000000,6553.000000
8688.000000,9008.000000,6552.000000
8686.000000,9005.000000,6551.000000
8686.000000,9005.000000,6551.000000
8684.000000,9002.000000,6552.000000
8683.000000,9001.000000,6549.000000
8683.000000,9000.000000,6549.000000
8682.000000,8998.000000,6549.000000
8682.000000,8999.000000,6550.000000
8684.000000,8999.000000,6550.000000
8684.000000,9000.000000,6548.000000
8684.000000,9000.000000,6549.000000
8685.000000,9002.000000,6549.000000
8686.000000,9002.000000,6550.000000
8686.000000,9002.000000,6550.000000
8687.000000,9005.000000,6550.000000
8688.000000,9008.000000,6553.000000
8689.000000,9009.000000,6553.000000
8688.000000,9007.000000,6552.000000
8686.000000,9005.000000,6551.000000
8686.000000,9005.000000,6551.000000
8687.000000,9004.000000,6551.000000
8686.000000,9003.000000,6550.000000
8683.000000,9000.000000,6549.000000
8682.000000,8998.000000,6548.000000
8683.000000,8997.000000,6547.000000
8683.000000,8997.000000,6547.000000
8684.000000,8999.000000,6547.000000
8683.000000,8997.000000,6547.000000
8685.000000,8999.000000,6547.000000
8685.000000,9000.000000,6549.000000
8685.000000,9002.000000,6550.000000
8686.000000,9002.000000,6550.000000
8687.000000,9004.000000,6550.000000
8688.000000,9004.000000,6551.000000
8690.000000,9007.000000,6551.000000
8690.000000,9004.000000,6551.000000
8689.000000,9004.000000,6550.000000
8687.000000,9004.000000,6550.000000
8687.000000,9002.000000,6551.000000
8684.000000,8999.000000,6548.000000
8682.000000,8997.000000,6547.000000
8682.000000,8997.000000,6547.000000
8683.000000,8997.000000,6547.000000
8683.000000,8996.000000,6548.000000
8683.000000,8998.000000,6547.000000
8686.000000,8999.000000,6548.000000
8683.000000,8997.000000,6546.000000
8683.000000,8997.000000,6547.000000
8685.000000,8998.000000,6547.000000
8686.000000,8999.000000,6547.000000
8687.000000,9000.000000,6548.000000
8687.000000,9002.000000,6549.000000
8689.000000,9003.000000,6550.000000
8689.000000,9003.000000,6550.000000
8689.000000,9004.000000,6551.000000
8687.000000,9003.000000,6548.000000
8686.000000,8999.000000,6547.000000
8684.000000,8998.000000,6547.000000
8684.000000,8997.000000,6547.000000
8680.000000,8997.000000,6547.000000
8681.000000,8995.000000,6545.000000
8679.000000,8994.000000,6544.000000
8677.000000,8993.000000,6542.000000
8678.000000,8993.000000,6544.000000
8678.000000,8993.000000,6545.000000
8678.000000,8993.000000,6545.000000
8681.000000,8994.000000,6545.000000
8681.000000,8996.000000,6545.000000
8683.000000,8998.000000,6547.000000
8684.000000,8999.000000,6548.000000
8684.000000,8999.000000,6548.000000
8686.000000,9000.000000,6548.000000
8686.000000,9001.000000,6547.000000
8686.000000,9003.000000,6550.000000
8685.000000,9001.000000,6548.000000
8684.000000,8997.000000,6546.000000
8684.000000,8997.000000,6546.000000
8681.000000,8996.000000,6545.000000
8680.000000,8994.000000,6543.000000
8678.000000,8993.000000,6543.000000
8677.000000,8992.000000,6542.000000
8677.000000,8992.000000,6542.000000
8677.000000,8992.000000,6542.000000
8678.000000,8993.000000,6543.000000
8680.000000,8993.000000,6543.000000
8680.000000,8993.000000,6544.000000
8680.000000,8994.000000,6543.000000
8680.000000,8994.000000,6545.000000
8682.000000,8996.000000,6545.000000
8684.000000,8997.000000,6546.000000
8684.000000,8998.000000,6545.000000
8682.000000,8996.000000,6544.000000
8682.000000,8994.000000,6543.000000
8679.000000,8994.000000,6543.000000
8678.000000,8993.000000,6543.000000
8676.000000,8991.000000,6542.000000
8675.000000,8990.000000,6541.000000
8674.000000,8989.000000,6541.000000
8674.000000,8989.000000,6540.000000
8672.000000,8988.000000,6540.000000
8672.000000,8989.000000,6540.000000
8672.000000,8987.000000,6538.000000
8673.000000,8990.000000,6541.000000
8675.000000,8990.000000,6540.000000
8675.000000,8990.000000,6540.000000
8675.000000,8991.000000,6541.000000
8679.000000,8993.000000,6543.000000
8680.000000,8994.000000,6543.000000
8680.000000,8993.000000,6542.000000
8680.000000,8992.000000,6542.000000
8676.000000,8992.000000,6542.000000
8675.000000,8991.000000,6542.000000
8671.000000,8986.000000,6539.000000
8669.000000,8986.000000,6539.000000
8668.000000,8983.000000,6538.000000
8668.000000,8983.000000,6538.000000
8668.000000,8984.000000,6538.000000
8668.000000,8983.000000,6538.000000
8668.000000,8982.000000,6537.000000
8668.000000,8983.000000,6537.000000
8668.000000,8984.000000,6538.000000
8668.000000,8984.000000,6538.000000
8668.000000,8983.000000,6539.000000
8668.000000,8983.000000,6539.000000
8669.000000,8985.000000,6539.000000
8670.000000,8987.000000,6539.000000
8670.000000,8988.000000,6541.000000
8671.000000,8988.000000,6541.000000
8670.000000,8987.000000,6539.000000
8668.000000,8986.000000,6539.000000
8667.000000,8983.000000,6536.000000
8667.000000,8982.000000,6535.000000
8667.000000,8981.000000,6535.000000
8667.000000,8981.000000,6535.000000
8667.000000,8981.000000,6534.000000
8667.000000,8979.000000,6532.000000
8666.000000,8977.000000,6533.000000
8666.000000,8977.000000,6533.000000
8666.000000,8977.000000,6533.000000
8667.000000,8981.000000,6533.000000
8666.000000,8981.000000,6534.000000
8667.000000,8980.000000,6535.000000
8667.000000,8982.000000,6536.000000
8667.000000,8982.000000,6535.000000
8667.000000,8979.000000,6535.000000
8667.000000,8982.000000,6536.000000
8667.000000,8983.000000,6534.000000
8666.000000,8979.000000,6533.000000
8666.000000,8978.000000,6530.000000
8666.000000,8978.000000,6528.000000
8664.000000,8975.000000,6528.000000
8663.000000,8973.000000,6527.000000
8663.000000,8973.000000,6527.000000
8663.000000,8973.000000,6527.000000
8663.000000,8972.000000,6526.000000
8663.000000,8972.000000,6526.000000
8664.000000,8971.000000,6527.000000
8664.000000,8972.000000,6528.000000
8665.000000,8975.000000,6529.000000
8666.000000,8977.000000,6530.000000
8666.000000,8978.000000,6530.000000
8665.000000,8978.000000,6530.000000
8665.000000,8977.000000,6530.000000
8663.000000,8974.000000,6528.000000
8660.000000,8967.000000,6525.000000
8656.000000,8962.000000,6522.000000
8656.000000,8962.000000,6520.000000
8654.000000,8958.000000,6520.000000
8654.000000,8956.000000,6519.000000
8654.000000,8955.000000,6519.000000
8655.000000,8955.000000,6519.000000
8652.000000,8954.000000,6519.000000
8652.000000,8954.000000,6519.000000
8653.000000,8956.000000,6520.000000
8653.000000,8956.000000,6520.000000
8654.000000,8958.000000,6519.000000
8654.000000,8959.000000,6520.000000
8654.000000,8962.000000,6521.000000
8658.000000,8962.000000,6521.000000
8657.000000,8963.000000,6522.000000
8654.000000,8959.000000,6518.000000
8650.000000,8953.000000,6518.000000
8650.000000,8948.000000,6517.000000
8650.000000,8943.000000,6515.000000
8646.000000,8943.000000,6515.000000
8644.000000,8939.000000,6513.000000
8641.000000,8940.000000,6511.000000
8640.000000,8939.000000,6512.000000
8640.000000,8938.000000,6510.000000
8640.000000,8938.000000,6511.000000
8641.000000,8939.000000,6511.000000
8641.000000,8940.000000,6510.000000
8643.000000,8942.000000,6511.000000
8644.000000,8944.000000,6512.000000
8644.000000,8944.000000,6514.000000
8645.000000,8946.000000,6514.000000
8650.000000,8951.000000,6515.000000
8649.000000,8953.000000,6515.000000
8649.000000,8950.000000,6515.000000
8645.000000,8946.000000,6513.000000
8645.000000,8946.000000,6510.000000
8641.000000,8938.000000,6510.000000
8638.000000,8936.000000,6509.000000
8637.000000,8935.000000,6506.000000
8636.000000,8932.000000,6507.000000
8636.000000,8934.000000,6506.000000
8636.000000,8934.000000,6506.000000
8636.000000,8933.000000,6506.000000
8637.000000,8933.000000,6507.000000
8639.000000,8936.000000,6507.000000
8640.000000,8936.000000,6506.000000
8640.000000,8937.000000,6508.000000
8640.000000,8937.000000,6508.000000
8644.000000,8942.000000,6511.000000
8645.000000,8943.000000,6511.000000
8645.000000,8945.000000,6512.000000
8642.000000,8942.000000,6510.000000
8642.000000,8942.000000,6508.000000
8639.000000,8937.000000,6508.000000
8636.000000,8933.000000,6507.000000
8635.000000,8931.000000,6503.000000
8633.000000,8931.000000,6502.000000
8635.000000,8931.000000,6505.000000
8635.000000,8931.000000,6505.000000
8634.000000,8932.000000,6503.000000
8634.000000,8933.000000,6504.000000
8635.000000,8933.000000,6503.000000
8636.000000,8935.000000,6506.000000
8636.000000,8934.000000,6505.000000
8637.000000,8934.000000,6505.000000
8639.000000,8938.000000,6507.000000
8642.000000,8941.000000,6509.000000
8644.000000,8944.000000,6511.000000
8646.000000,8948.000000,6513.000000
8646.000000,8943.000000,6511.000000
8643.000000,8943.000000,6511.000000
8639.000000,8938.000000,6508.000000
8637.000000,8936.000000,6505.000000
8637.000000,8934.000000,6504.000000
8637.000000,8932.000000,6503.000000
8635.000000,8932.000000,6502.000000
8635.000000,8931.000000,6502.000000
8636.000000,8930.000000,6503.000000
8636.000000,8933.000000,6503.000000
8638.000000,8936.000000,6503.000000
8638.000000,8936.000000,6503.000000
8637.000000,8936.000000,6503.000000
8640.000000,8939.000000,6506.000000
8642.000000,8942.000000,6507.000000
8642.000000,8943.000000,6509.000000
8644.000000,8944.000000,6509.000000
8644.000000,8944.000000,6511.000000
8646.000000,8950.000000,6511.000000
8644.000000,8950.000000,6511.000000
8644.000000,8948.000000,6509.000000
8643.000000,8945.000000,6509.000000
8640.000000,8940.000000,6506.000000
8640.000000,8940.000000,6506.000000
8638.000000,8936.000000,6505.000000
8639.000000,8938.000000,6507.000000
8639.000000,8935.000000,6505.000000
8638.000000,8936.000000,6506.000000
8638.000000,8936.000000,6504.000000
8638.000000,8936.000000,6504.000000
8639.000000,8938.000000,6506.000000
8641.000000,8938.000000,6506.000000
8642.000000,8940.000000,6508.000000
8642.000000,8944.000000,6509.000000
8642.000000,8944.000000,6510.000000
8646.000000,8947.000000,6510.000000
8645.000000,8945.000000,6509.000000
8645.000000,8945.000000,6510.000000
8643.000000,8944.000000,6509.000000
8639.000000,8938.000000,6504.000000
8639.000000,8938.000000,6504.000000
8638.000000,8936.000000,6506.000000
8636.000000,8933.000000,6503.000000
8636.000000,8932.000000,6502.000000
8635.000000,8933.000000,6503.000000
8635.000000,8933.000000,6503.000000
8635.000000,8933.000000,6503.000000
8636.000000,8935.000000,6504.000000
8637.000000,8936.000000,6503.000000
8638.000000,8938.000000,6504.000000
8638.000000,8939.000000,6505.000000
8638.000000,8940.000000,6506.000000
8641.000000,8940.000000,6506.000000
8643.000000,8944.000000,6509.000000
8645.000000,8948.000000,6510.000000
8646.000000,8947.000000,6512.000000
8646.000000,8945.000000,6509.000000
8644.000000,8945.000000,6506.000000
8640.000000,8940.000000,6506.000000
8637.000000,8937.000000,6506.000000
8635.000000,8934.000000,6503.000000
8635.000000,8932.000000,6502.000000
8635.000000,8932.000000,6503.000000
8635.000000,8933.000000,6503.000000
8635.000000,8934.000000,6503.000000
8637.000000,8934.000000,6505.000000
8636.000000,8936.000000,6503.000000
8636.000000,8935.000000,6504.000000
8636.000000,8935.000000,6507.000000
8638.000000,8939.000000,6507.000000
8638.000000,8940.000000,6505.000000
8641.000000,8943.000000,6506.000000
8644.000000,8948.000000,6509.000000
8646.000000,8950.000000,6510.000000
8646.000000,8950.000000,6510.000000
8644.000000,8950.000000,6510.000000
8642.000000,8944.000000,6508.000000
8639.000000,8941.000000,6506.000000
8639.000000,8938.000000,6505.000000
8639.000000,8936.000000,6503.000000
8636.000000,8936.000000,6503.000000
8636.000000,8936.000000,6503.000000
8634.000000,8934.000000,6501.000000
8635.000000,8936.000000,6502.000000
8636.000000,8936.000000,6502.000000
8636.000000,8936.000000,6503.000000
8636.000000,8935.000000,6503.000000
8638.000000,8937.000000,6506.000000
8639.000000,8939.000000,6505.000000
8641.000000,8941.000000,6505.000000
8639.000000,8943.000000,6506.000000
8639.000000,8943.000000,6506.000000
8643.000000,8946.000000,6506.000000
8643.000000,8945.000000,6506.000000
8641.000000,8943.000000,6504.000000
8638.000000,8940.000000,6505.000000
8638.000000,8939.000000,6505.000000
8639.000000,8939.000000,6505.000000
8636.000000,8936.000000,6502.000000
8635.000000,8934.000000,6500.000000
8635.000000,8934.000000,6500.000000
8635.000000,8934.000000,6501.000000
8635.000000,8934.000000,6501.000000
8637.000000,8934.000000,6501.000000
8636.000000,8934.000000,6503.000000
8638.000000,8936.000000,6503.000000
8638.000000,8936.000000,6503.000000
8638.000000,8939.000000,6504.000000
8639.000000,8939.000000,6507.000000
8642.000000,8943.000000,6507.000000
8642.000000,8941.000000,6504.000000
8639.000000,8941.000000,6504.000000
8636.000000,8936.000000,6502.000000
8636.000000,8936.000000,6500.000000
8634.000000,8934.000000,6500.000000
8634.000000,8934.000000,6500.000000
8633.000000,8932.000000,6498.000000
8634.000000,8932.000000,6499.000000
8634.000000,8931.000000,6497.000000
8634.000000,8931.000000,6497.000000
8634.000000,8932.000000,6497.000000
8634.000000,8931.000000,6496.000000
8635.000000,8934.000000,6500.000000
8637.000000,8936.000000,6501.000000
8638.000000,8938.000000,6501.000000
8638.000000,8938.000000,6501.000000
8638.000000,8938.000000,6503.000000
8639.000000,8941.000000,6501.000000
8637.000000,8937.000000,6499.000000
8634.000000,8935.000000,6499.000000
8634.000000,8930.000000,6496.000000
8634.000000,8930.000000,6496.000000
8631.000000,8926.000000,6493.000000
8628.000000,8924.000000,6489.000000
8625.000000,8922.000000,6486.000000
8627.000000,8923.000000,6487.000000
8627.000000,8923.000000,6485.000000
8628.000000,8924.000000,6485.000000
8628.000000,8924.000000,6486.000000
8629.000000,8927.000000,6491.000000
8632.000000,8929.000000,6493.000000
8632.000000,8930.000000,6494.000000
8632.000000,8930.000000,6494.000000
8633.000000,8931.000000,6493.000000
8636.000000,8934.000000,6497.000000
8634.000000,8931.000000,6496.000000
8629.000000,8927.000000,6489.000000
8629.000000,8922.000000,6486.000000
8624.000000,8922.000000,6486.000000
8621.000000,8918.000000,6480.000000
8623.000000,8917.000000,6483.000000
8622.000000,8916.000000,6482.000000
8623.000000,8916.000000,6481.000000
8623.000000,8916.000000,6477.000000
8620.000000,8916.000000,6477.000000
8623.000000,8918.000000,6482.000000
8622.000000,8920.000000,6478.000000
8626.000000,8920.000000,6484.000000
8626.000000,8923.000000,6483.000000
8626.000000,8923.000000,6486.000000
8628.000000,8925.000000,6486.000000
8628.000000,8924.000000,6486.000000
8626.000000,8922.000000,6484.000000
8621.000000,8917.000000,6481.000000
8621.000000,8917.000000,6479.000000
8620.000000,8913.000000,6479.000000
8618.000000,8912.000000,6478.000000
8618.000000,8912.000000,6477.000000
8618.000000,8913.000000,6475.000000
8617.000000,8911.000000,6474.000000
8617.000000,8911.000000,6474.000000
8618.000000,8913.000000,6476.000000
8620.000000,8914.000000,6476.000000
8621.000000,8916.000000,6476.000000
8623.000000,8918.000000,6480.000000
8623.000000,8920.000000,6479.000000
8623.000000,8920.000000,6479.000000
8623.000000,8920.000000,6481.000000
8624.000000,8919.000000,6481.000000
8621.000000,8914.000000,6477.000000
8619.000000,8910.000000,6479.000000
8619.000000,8908.000000,6474.000000
8617.000000,8908.000000,6474.000000
8614.000000,8908.000000,6472.000000
8616.000000,8908.000000,6473.000000
8616.000000,8908.000000,6476.000000
8617.000000,8909.000000,6475.000000
8617.000000,8909.000000,6474.000000
8618.000000,8912.000000,6474.000000
8619.000000,8912.000000,6475.000000
8621.000000,8914.000000,6477.000000
8620.000000,8915.000000,6477.000000
8622.000000,8917.000000,6476.000000
8622.000000,8917.000000,6476.000000
8623.000000,8919.000000,6477.000000
8623.000000,8919.000000,6478.000000
8617.000000,8914.000000,6472.000000
8616.000000,8912.000000,6472.000000
8616.000000,8908.000000,6471.000000
8614.000000,8908.000000,6471.000000
8613.000000,8907.000000,6469.000000
8615.000000,8907.000000,6471.000000
8615.000000,8908.000000,6472.000000
8614.000000,8909.000000,6472.000000
8614.000000,8909.000000,6473.000000
8616.000000,8910.000000,6473.000000
8615.000000,8911.000000,6472.000000
8616.000000,8912.000000,6472.000000
8617.000000,8915.000000,6471.000000
8617.000000,8917.000000,6473.000000
8619.000000,8917.000000,6476.000000
8623.000000,8920.000000,6476.000000
8623.000000,8923.000000,6475.000000
8622.000000,8922.000000,6473.000000
8620.000000,8919.000000,6474.000000
8620.000000,8919.000000,6471.000000
8616.000000,8915.000000,6471.000000
8619.000000,8915.000000,6472.000000
8618.000000,8913.000000,6471.000000
8619.000000,8912.000000,6475.000000
8618.000000,8913.000000,6471.000000
8618.000000,8913.000000,6471.000000
8618.000000,8914.000000,6473.000000
8618.000000,8916.000000,6471.000000
8621.000000,8917.000000,6474.000000
8622.000000,8919.000000,6472.000000
8622.000000,8922.000000,6474.000000
8625.000000,8922.000000,6474.000000
8626.000000,8924.000000,6478.000000
8628.000000,8927.000000,6479.000000
8632.000000,8931.000000,6486.000000
8632.000000,8932.000000,6483.000000
8632.000000,8929.000000,6480.000000
8628.000000,8929.000000,6480.000000
8626.000000,8925.000000,6477.000000
8624.000000,8920.000000,6473.000000
8624.000000,8920.000000,6475.000000
8626.000000,8921.000000,6475.000000
8626.000000,8921.000000,6479.000000
8628.000000,8923.000000,6479.000000
8629.000000,8924.000000,6478.000000
8626.000000,8923.000000,6475.000000
8631.000000,8929.000000,6480.000000
8633.000000,8929.000000,6483.000000
8633.000000,8929.000000,6483.000000
8634.000000,8931.000000,6487.000000
8636.000000,8934.000000,6488.000000
8639.000000,8937.000000,6494.000000
8640.000000,8940.000000,6493.000000
8640.000000,8941.000000,6494.000000
8639.000000,8941.000000,6494.000000
8638.000000,8940.000000,6492.000000
8638.000000,8939.000000,6491.000000
8635.000000,8935.000000,6489.000000
8633.000000,8934.000000,6488.000000
8633.000000,8934.000000,6488.000000
8634.000000,8934.000000,6488.000000
8636.000000,8936.000000,6487.000000
8635.000000,8936.000000,6488.000000
8634.000000,8936.000000,6487.000000
8634.000000,8937.000000,6488.000000
8635.000000,8937.000000,6488.000000
8638.000000,8940.000000,6490.000000
8639.000000,8941.000000,6492.000000
8640.000000,8943.000000,6493.000000
8641.000000,8942.000000,6494.000000
8641.000000,8942.000000,6496.000000
8641.000000,8945.000000,6496.000000
8645.000000,8948.000000,6497.000000
8642.000000,8946.000000,6495.000000
8641.000000,8943.000000,6495.000000
8638.000000,8941.000000,6491.000000
8638.000000,8941.000000,6491.000000
8637.000000,8937.000000,6490.000000
8637.000000,8937.000000,6491.000000
8636.000000,8937.000000,6488.000000
8636.000000,8936.000000,6489.000000
8636.000000,8937.000000,6489.000000
8637.000000,8937.000000,6489.000000
8637.000000,8938.000000,6488.000000
8638.000000,8939.000000,6490.000000
8640.000000,8942.000000,6493.000000
8639.000000,8943.000000,6493.000000
8639.000000,8943.000000,6493.000000
8639.000000,8941.000000,6493.000000
8638.000000,8941.000000,6492.000000
8636.000000,8939.000000,6489.000000
8634.000000,8936.000000,6487.000000
8630.000000,8932.000000,6483.000000
8630.000000,8932.000000,6482.000000
8630.000000,8932.000000,6482.000000
8627.000000,8928.000000,6479.000000
8625.000000,8926.000000,6476.000000
8627.000000,8928.000000,6479.000000
8626.000000,8926.000000,6478.000000
8626.000000,8926.000000,6478.000000
8628.000000,8928.000000,6480.000000
8628.000000,8928.000000,6478.000000
8631.000000,8930.000000,6484.000000
8632.000000,8933.000000,6487.000000
8632.000000,8936.000000,6489.000000
8635.000000,8936.000000,6489.000000
8633.000000,8934.000000,6488.000000
8628.000000,8929.000000,6484.000000
8627.000000,8926.000000,6481.000000
8621.000000,8919.000000,6475.000000
8621.000000,8919.000000,6476.000000
8620.000000,8918.000000,6476.000000
8616.000000,8914.000000,6470.000000
8619.000000,8914.000000,6473.000000
8617.000000,8913.000000,6472.000000
8617.000000,8914.000000,6473.000000
8618.000000,8914.000000,6473.000000
8618.000000,8913.000000,6473.000000
8615.000000,8914.000000,6470.000000
8615.000000,8914.000000,6470.000000
8616.000000,8916.000000,6469.000000
8616.000000,8916.000000,6472.000000
8618.000000,8918.000000,6472.000000
8622.000000,8921.000000,6473.000000
8622.000000,8921.000000,6476.000000
8619.000000,8916.000000,6474.000000
8617.000000,8913.000000,6473.000000
8617.000000,8913.000000,6473.000000
8614.000000,8910.000000,6472.000000
8611.000000,8907.000000,6470.000000
8611.000000,8908.000000,6467.000000
8612.000000,8906.000000,6469.000000
8612.000000,8903.000000,6467.000000
8610.000000,8903.000000,6467.000000
8610.000000,8905.000000,6466.000000
8611.000000,8907.000000,6466.000000
8611.000000,8907.000000,6468.000000
8612.000000,8907.000000,6467.000000
8612.000000,8907.000000,6469.000000
8614.000000,8910.000000,6469.000000
8614.000000,8910.000000,6467.000000
8614.000000,8912.000000,6468.000000
8614.000000,8910.000000,6471.000000
8611.000000,8905.000000,6467.000000
8611.000000,8905.000000,6466.000000
8609.000000,8902.000000,6466.000000
8607.000000,8897.000000,6464.000000
8607.000000,8895.000000,6464.000000
8606.000000,8895.000000,6463.000000
8608.000000,8898.000000,6464.000000
8608.000000,8898.000000,6464.000000
8606.000000,8897.000000,6465.000000
8607.000000,8897.000000,6464.000000
8608.000000,8901.000000,6465.000000
8609.000000,8903.000000,6463.000000
8609.000000,8905.000000,6464.000000
8609.000000,8905.000000,6464.000000
8611.000000,8906.000000,6465.000000
8613.000000,8909.000000,6468.000000
8614.000000,8911.000000,6468.000000
8614.000000,8912.000000,6469.000000
8613.000000,8912.000000,6462.000000
8608.000000,8909.000000,6462.000000
8609.000000,8906.000000,6464.000000
8610.000000,8903.000000,6466.000000
8609.000000,8901.000000,6466.000000
8609.000000,8903.000000,6463.000000
8608.000000,8903.000000,6463.000000
8609.000000,8902.000000,6464.000000
8609.000000,8902.000000,6464.000000
8609.000000,8905.000000,6465.000000
8609.000000,8904.000000,6464.000000
8609.000000,8904.000000,6464.000000
8609.000000,8908.000000,6464.000000
8609.000000,8910.000000,6462.000000
8610.000000,8912.000000,6462.000000
8614.000000,8914.000000,6463.000000
8619.000000,8919.000000,6469.000000
8619.000000,8919.000000,6469.000000
8621.000000,8919.000000,6471.000000
8619.000000,8917.000000,6469.000000
8617.000000,8915.000000,6468.000000
8617.000000,8915.000000,6469.000000
8617.000000,8912.000000,6467.000000
8615.000000,8912.000000,6467.000000
8612.000000,8912.000000,6467.000000
8615.000000,8912.000000,6468.000000
8616.000000,8913.000000,6467.000000
8618.000000,8914.000000,6468.000000
8618.000000,8914.000000,6467.000000
8617.000000,8915.000000,6467.000000
8621.000000,8918.000000,6468.000000
8621.000000,8920.000000,6470.000000
8624.000000,8923.000000,6471.000000
8626.000000,8925.000000,6473.000000
8626.000000,8925.000000,6475.000000
8628.000000,8926.000000,6475.000000
8628.000000,8928.000000,6475.000000
8629.000000,8928.000000,6477.000000
8630.000000,8927.000000,6477.000000
8628.000000,8924.000000,6475.000000
8628.000000,8924.000000,6475.000000
8622.000000,8922.000000,6472.000000
8624.000000,8924.000000,6472.000000
8624.000000,8923.000000,6470.000000
8626.000000,8926.000000,6474.000000
8626.000000,8927.000000,6475.000000
8627.000000,8927.000000,6475.000000
8629.000000,8927.000000,6478.000000
8630.000000,8930.000000,6477.000000
8634.000000,8934.000000,6482.000000
8634.000000,8934.000000,6481.000000
8633.000000,8934.000000,6484.000000
8636.000000,8938.000000,6484.000000
8640.000000,8942.000000,6488.000000
8639.000000,8943.000000,6490.000000
8639.000000,8942.000000,6488.000000
8639.000000,8941.000000,6486.000000
8637.000000,8941.000000,6486.000000
8636.000000,8937.000000,6486.000000
8632.000000,8934.000000,6480.000000
8631.000000,8934.000000,6480.000000
8629.000000,8933.000000,6477.000000
8629.000000,8933.000000,6480.000000
8632.000000,8933.000000,6480.000000
8631.000000,8932.000000,6478.000000
8632.000000,8933.000000,6479.000000
8633.000000,8932.000000,6479.000000
8634.000000,8935.000000,6484.000000
8634.000000,8935.000000,6484.000000
8636.000000,8937.000000,6483.000000
8635.000000,8937.000000,6483.000000
8638.000000,8940.000000,6486.000000
8642.000000,8944.000000,6489.000000
8642.000000,8944.000000,6490.000000
8642.000000,8944.000000,6490.000000
8640.000000,8944.000000,6488.000000
8639.000000,8941.000000,6488.000000
8638.000000,8939.000000,6485.000000
8635.000000,8936.000000,6482.000000
8635.000000,8936.000000,6478.000000
8630.000000,8931.000000,6478.000000
8632.000000,8929.000000,6478.000000
8628.000000,8929.000000,6476.000000
8629.000000,8927.000000,6475.000000
8628.000000,8926.000000,6475.000000
8628.000000,8926.000000,6475.000000
8627.000000,8927.000000,6474.000000
8630.000000,8928.000000,6476.000000
8633.000000,8929.000000,6479.000000
8631.000000,8930.000000,6478.000000
8631.000000,8932.000000,6478.000000
8633.000000,8932.000000,6478.000000
8634.000000,8933.000000,6480.000000
8633.000000,8933.000000,6481.000000
8629.000000,8929.000000,6476.000000
8627.000000,8926.000000,6474.000000
8627.000000,8920.000000,6469.000000
8622.000000,8920.000000,6469.000000
8620.000000,8917.000000,6467.000000
8617.000000,8914.000000,6466.000000
8618.000000,8913.000000,6468.000000
8618.000000,8913.000000,6464.000000
8615.000000,8913.000000,6464.000000
8614.000000,8913.000000,6464.000000
8615.000000,8914.000000,6465.000000
8615.000000,8912.000000,6465.000000
8615.000000,8913.000000,6463.000000
8615.000000,8913.000000,6467.000000
8619.000000,8916.000000,6467.000000
8619.000000,8916.000000,6467.000000
8620.000000,8919.000000,6469.000000
8620.000000,8919.000000,6468.000000
8618.000000,8917.000000,6467.000000
8618.000000,8917.000000,6464.000000
8613.000000,8912.000000,6464.000000
8610.000000,8909.000000,6463.000000
8610.000000,8904.000000,6464.000000
8609.000000,8900.000000,6464.000000
8609.000000,8899.000000,6463.000000
8609.000000,8899.000000,6463.000000
8607.000000,8898.000000,6462.000000
8607.000000,8894.000000,6463.000000
8608.000000,8897.000000,6465.000000
8607.000000,8894.000000,6463.000000
8607.000000,8898.000000,6464.000000
8608.000000,8898.000000,6464.000000
8609.000000,8898.000000,6465.000000
8609.000000,8902.000000,6463.000000
8608.000000,8905.000000,6462.000000
8608.000000,8903.000000,6463.000000
8608.000000,8903.000000,6463.000000
8609.000000,8904.000000,6463.000000
8608.000000,8899.000000,6464.000000
8604.000000,8893.000000,6463.000000
8603.000000,8886.000000,6462.000000
8605.000000,8887.000000,6462.000000
8605.000000,8887.000000,6462.000000
8603.000000,8882.000000,6462.000000
8602.000000,8882.000000,6462.000000
8603.000000,8884.000000,6462.000000
8602.000000,8885.000000,6461.000000
8602.000000,8883.000000,6463.000000
8602.000000,8883.000000,6463.000000
8603.000000,8883.000000,6463.000000
8603.000000,8882.000000,6461.000000
8604.000000,8885.000000,6462.000000
8605.000000,8889.000000,6463.000000
8605.000000,8890.000000,6460.000000
8603.000000,8890.000000,6460.000000
8606.000000,8890.000000,6463.000000
8603.000000,8891.000000,6461.000000
8602.000000,8887.000000,6462.000000
8602.000000,8883.000000,6462.000000
8602.000000,8883.000000,6461.000000
8602.000000,8881.000000,6461.000000
8603.000000,8880.000000,6461.000000
8602.000000,8876.000000,6461.000000
8601.000000,8876.000000,6460.000000
8601.000000,8876.000000,6460.000000
8601.000000,8877.000000,6460.000000
8602.000000,8877.000000,6461.000000
8601.000000,8880.000000,6460.000000
8602.000000,8879.000000,6461.000000
8601.000000,8879.000000,6462.000000
8601.000000,8879.000000,6461.000000
8603.000000,8882.000000,6461.000000
8603.000000,8884.000000,6462.000000
8604.000000,8884.000000,6462.000000
8603.000000,8888.000000,6462.000000
8602.000000,8885.000000,6462.000000
8602.000000,8885.000000,6462.000000
8601.000000,8883.000000,6461.000000
8602.000000,8879.000000,6462.000000
8601.000000,8876.000000,6461.000000
8602.000000,8879.000000,6460.000000
8602.000000,8876.000000,6460.000000
8600.000000,8876.000000,6460.000000
8601.000000,8876.000000,6460.000000
8602.000000,8879.000000,6459.000000
8601.000000,8878.000000,6461.000000
8601.000000,8880.000000,6461.000000
8601.000000,8880.000000,6461.000000
8602.000000,8881.000000,6461.000000
8603.000000,8883.000000,6461.000000
8601.000000,8884.000000,6462.000000
8604.000000,8887.000000,6461.000000
8604.000000,8889.000000,6461.000000
8604.000000,8889.000000,6461.000000
8603.000000,8888.000000,6461.000000
8602.000000,8888.000000,6461.000000
8602.000000,8883.000000,6463.000000
8601.000000,8882.000000,6461.000000
8601.000000,8880.000000,6460.000000
8601.000000,8880.000000,6460.000000
8603.000000,8881.000000,6461.000000
8601.000000,8878.000000,6459.000000
8601.000000,8880.000000,6459.000000
8603.000000,8881.000000,6461.000000
8603.000000,8881.000000,6461.000000
8601.000000,8881.000000,6461.000000
8602.000000,8883.000000,6461.000000
8602.000000,8881.000000,6461.000000
8603.000000,8885.000000,6461.000000
8603.000000,8884.000000,6463.000000
8603.000000,8884.000000,6462.000000
8603.000000,8882.000000,6462.000000
8602.000000,8882.000000,6461.000000
8602.000000,8880.000000,6460.000000
8602.000000,8877.000000,6458.000000
8602.000000,8877.000000,6457.000000
8600.000000,8876.000000,6457.000000
8601.000000,8877.000000,6459.000000
8602.000000,8876.000000,6459.000000
8602.000000,8877.000000,6459.000000
8600.000000,8877.000000,6458.000000
8600.000000,8877.000000,6458.000000
8604.000000,8878.000000,6459.000000
8603.000000,8880.000000,6460.000000
8603.000000,8882.000000,6461.000000
8602.000000,8883.000000,6461.000000
8602.000000,8881.000000,6461.000000
8602.000000,8881.000000,6461.000000
8602.000000,8878.000000,6460.000000
8602.000000,8872.000000,6458.000000
8602.000000,8872.000000,6457.000000
8601.000000,8868.000000,6457.000000
8601.000000,8865.000000,6456.000000
8601.000000,8865.000000,6456.000000
8601.000000,8869.000000,6456.000000
8601.000000,8868.000000,6456.000000
8601.000000,8869.000000,6456.000000
8602.000000,8868.000000,6457.000000
8602.000000,8868.000000,6456.000000
8603.000000,8872.000000,6456.000000
8603.000000,8873.000000,6457.000000
8604.000000,8875.000000,6459.000000
8602.000000,8876.000000,6458.000000
8603.000000,8874.000000,6458.000000
8603.000000,8874.000000,6458.000000
8603.000000,8867.000000,6457.000000
8602.000000,8860.000000,6455.000000
8601.000000,8859.000000,6456.000000
8598.000000,8857.000000,6456.000000
8598.000000,8855.000000,6456.000000
8597.000000,8855.000000,6456.000000
8598.000000,8855.000000,6456.000000
8600.000000,8856.000000,6455.000000
8599.000000,8856.000000,6456.000000
8598.000000,8858.000000,6456.000000
8598.000000,8858.000000,6456.000000
8600.000000,8859.000000,6456.000000
8599.000000,8861.000000,6456.000000
8602.000000,8861.000000,6455.000000
8601.000000,8860.000000,6456.000000
8601.000000,8867.000000,6455.000000
8602.000000,8867.000000,6457.000000
8601.000000,8864.000000,6457.000000
8599.000000,8860.000000,6456.000000
8599.000000,8857.000000,6456.000000
8598.000000,8853.000000,6456.000000
8598.000000,8853.000000,6457.000000
8596.000000,8851.000000,6457.000000
8598.000000,8851.000000,6456.000000
8596.000000,8850.000000,6455.000000
8598.000000,8850.000000,6456.000000
8598.000000,8851.000000,6456.000000
8598.000000,8851.000000,6456.000000
8596.000000,8851.000000,6455.000000
8599.000000,8854.000000,6455.000000
8600.000000,8858.000000,6456.000000
8600.000000,8860.000000,6456.000000
8600.000000,8858.000000,6456.000000
8599.000000,8858.000000,6456.000000
8599.000000,8858.000000,6455.000000
8598.000000,8859.000000,6456.000000
8597.000000,8852.000000,6457.000000
8596.000000,8849.000000,6455.000000
8596.000000,8847.000000,6456.000000
8594.000000,8847.000000,6456.000000
8594.000000,8844.000000,6456.000000
8593.000000,8844.000000,6454.000000
8593.000000,8843.000000,6455.000000
8592.000000,8844.000000,6455.000000
8592.000000,8844.000000,6456.000000
8594.000000,8846.000000,6456.000000
8596.000000,8847.000000,6456.000000
8598.000000,8852.000000,6456.000000
8597.000000,8853.000000,6457.000000
8598.000000,8855.000000,6455.000000
8598.000000,8855.000000,6455.000000
8600.000000,8860.000000,6457.000000
8599.000000,8856.000000,6456.000000
8598.000000,8851.000000,6456.000000
8596.000000,8848.000000,6456.000000
8596.000000,8845.000000,6455.000000
8593.000000,8845.000000,6455.000000
8589.000000,8840.000000,6454.000000
8586.000000,8838.000000,6453.000000
8586.000000,8837.000000,6453.000000
8590.000000,8841.000000,6453.000000
8590.000000,8841.000000,6454.000000
8588.000000,8840.000000,6454.000000
8591.000000,8841.000000,6454.000000
8591.000000,8842.000000,6454.000000
8594.000000,8845.000000,6456.000000
8594.000000,8847.000000,6456.000000
8595.000000,8847.000000,6456.000000
8598.000000,8848.000000,6456.000000
8595.000000,8850.000000,6456.000000
8596.000000,8848.000000,6456.000000
8590.000000,8843.000000,6453.000000
8590.000000,8843.000000,6453.000000
8589.000000,8840.000000,6453.000000
8588.000000,8838.000000,6452.000000
8588.000000,8836.000000,6452.000000
8589.000000,8839.000000,6453.000000
8587.000000,8837.000000,6452.000000
8587.000000,8837.000000,6452.000000
8591.000000,8840.000000,6453.000000
8588.000000,8839.000000,6452.000000
8592.000000,8843.000000,6454.000000
8591.000000,8844.000000,6454.000000
8591.000000,8846.000000,6454.000000
8593.000000,8846.000000,6454.000000
8594.000000,8848.000000,6455.000000
8595.000000,8848.000000,6455.000000
8591.000000,8841.000000,6453.000000
8592.000000,8842.000000,6453.000000
8592.000000,8842.000000,6453.000000
8589.000000,8841.000000,6453.000000
8589.000000,8838.000000,6453.000000
8589.000000,8838.000000,6452.000000
8588.000000,8840.000000,6452.000000
8589.000000,8840.000000,6453.000000
8589.000000,8840.000000,6454.000000
8592.000000,8842.000000,6454.000000
8593.000000,8844.000000,6454.000000
8595.000000,8848.000000,6453.000000
8598.000000,8848.000000,6455.000000
8600.000000,8854.000000,6455.000000
8600.000000,8854.000000,6455.000000
8600.000000,8857.000000,6456.000000
8597.000000,8856.000000,6456.000000
8598.000000,8854.000000,6455.000000
8597.000000,8848.000000,6456.000000
8597.000000,8844.000000,6454.000000
8592.000000,8844.000000,6454.000000
8593.000000,8844.000000,6454.000000
8597.000000,8847.000000,6454.000000
8596.000000,8846.000000,6454.000000
8596.000000,8847.000000,6454.000000
8597.000000,8847.000000,6455.000000
8598.000000,8851.000000,6455.000000
8600.000000,8853.000000,6455.000000
8600.000000,8857.000000,6455.000000
8600.000000,8861.000000,6455.000000
8600.000000,8864.000000,6455.000000
8601.000000,8864.000000,6455.000000
8603.000000,8867.000000,6455.000000
8602.000000,8871.000000,6455.000000
8603.000000,8873.000000,6454.000000
8603.000000,8868.000000,6455.000000
8603.000000,8868.000000,6454.000000
8603.000000,8863.000000,6454.000000
8601.000000,8862.000000,6455.000000
8602.000000,8865.000000,6455.000000
8602.000000,8865.000000,6455.000000
8602.000000,8867.000000,6455.000000
8602.000000,8867.000000,6455.000000
8603.000000,8865.000000,6455.000000
8604.000000,8873.000000,6455.000000
8604.000000,8875.000000,6455.000000
8604.000000,8881.000000,6454.000000
8604.000000,8884.000000,6455.000000
8604.000000,8884.000000,6455.000000
8604.000000,8883.000000,6456.000000
8604.000000,8887.000000,6456.000000
8605.000000,8888.000000,6457.000000
8605.000000,8888.000000,6455.000000
8605.000000,8888.000000,6456.000000
8604.000000,8884.000000,6456.000000
8605.000000,8882.000000,6456.000000
8604.000000,8884.000000,6455.000000
8603.000000,8883.000000,6455.000000
8604.000000,8883.000000,6455.000000
8604.000000,8883.000000,6455.000000
8605.000000,8886.000000,6455.000000
8605.000000,8886.000000,6455.000000
8604.000000,8886.000000,6456.000000
8605.000000,8888.000000,6455.000000
8604.000000,8895.000000,6455.000000
8604.000000,8895.000000,6455.000000
8606.000000,8890.000000,6456.000000
8605.000000,8893.000000,6456.000000
8605.000000,8897.000000,6456.000000
8605.000000,8894.000000,6458.000000
8605.000000,8888.000000,6458.000000
8606.000000,8888.000000,6458.000000
8605.000000,8890.000000,6455.000000
8604.000000,8884.000000,6456.000000
8604.000000,8886.000000,6455.000000
8604.000000,8888.000000,6454.000000
8604.000000,8888.000000,6455.000000
8604.000000,8884.000000,6455.000000
8604.000000,8886.000000,6455.000000
8604.000000,8887.000000,6455.000000
8605.000000,8884.000000,6456.000000
8605.000000,8885.000000,6457.000000
8605.000000,8885.000000,6457.000000
8605.000000,8890.000000,6455.000000
8604.000000,8890.000000,6455.000000
8607.000000,8891.000000,6456.000000
8605.000000,8894.000000,6455.000000
8605.000000,8894.000000,6457.000000
8605.000000,8885.000000,6457.000000
8604.000000,8885.000000,6456.000000
8604.000000,8883.000000,6455.000000
8604.000000,8878.000000,6456.000000
8604.000000,8877.000000,6456.000000
8604.000000,8877.000000,6456.000000
8604.000000,8875.000000,6455.000000
8604.000000,8875.000000,6454.000000
8603.000000,8871.000000,6454.000000
8604.000000,8870.000000,6454.000000
8604.000000,8871.000000,6455.000000
8603.000000,8871.000000,6455.000000
8604.000000,8874.000000,6454.000000
8604.000000,8873.000000,6455.000000
8604.000000,8879.000000,6454.000000
8605.000000,8880.000000,6454.000000
8605.000000,8880.000000,6455.000000
8603.000000,8880.000000,6455.000000
8604.000000,8879.000000,6455.000000
8604.000000,8872.000000,6454.000000
8602.000000,8863.000000,6455.000000
8601.000000,8860.000000,6455.000000
8601.000000,8860.000000,6455.000000
8601.000000,8855.000000,6454.000000
8600.000000,8853.000000,6455.000000
8601.000000,8852.000000,6454.000000
8599.000000,8848.000000,6455.000000
8599.000000,8852.000000,6455.000000
8600.000000,8852.000000,6455.000000
8600.000000,8849.000000,6455.000000
8599.000000,8850.000000,6455.000000
8598.000000,8850.000000,6455.000000
8601.000000,8852.000000,6455.000000
8601.000000,8853.000000,6454.000000
8601.000000,8853.000000,6454.000000
8601.000000,8850.000000,6455.000000
8594.000000,8844.000000,6454.000000
8589.000000,8838.000000,6452.000000
8589.000000,8835.000000,6450.000000
8588.000000,8835.000000,6450.000000
8588.000000,8832.000000,6450.000000
8587.000000,8832.000000,6449.000000
8589.000000,8833.000000,6450.000000
8587.000000,8832.000000,6450.000000
8587.000000,8832.000000,6450.000000
8589.000000,8834.000000,6450.000000
8588.000000,8834.000000,6450.000000
8587.000000,8834.000000,6450.000000
8589.000000,8837.000000,6450.000000
8589.000000,8837.000000,6451.000000
8589.000000,8837.000000,6452.000000
8593.000000,8842.000000,6452.000000
8588.000000,8838.000000,6452.000000
8588.000000,8837.000000,6450.000000
8587.000000,8833.000000,6450.000000
8585.000000,8828.000000,6447.000000
8585.000000,8828.000000,6447.000000
8580.000000,8823.000000,6447.000000
8580.000000,8821.000000,6446.000000
8581.000000,8820.000000,6447.000000
8581.000000,8822.000000,6447.000000
8581.000000,8821.000000,6446.000000
8582.000000,8821.000000,6446.000000
8582.000000,8823.000000,6447.000000
8584.000000,8824.000000,6448.000000
8584.000000,8827.000000,6448.000000
8587.000000,8832.000000,6448.000000
8587.000000,8832.000000,6449.000000
8588.000000,8831.000000,6449.000000
8587.000000,8832.000000,6450.000000
8589.000000,8832.000000,6450.000000
8586.000000,8830.000000,6448.000000
8582.000000,8825.000000,6448.000000
8582.000000,8825.000000,6448.000000
8580.000000,8823.000000,6447.000000
8579.000000,8818.000000,6446.000000
8576.000000,8815.000000,6444.000000
8580.000000,8817.000000,6445.000000
8580.000000,8819.000000,6446.000000
8581.000000,8819.000000,6446.000000
8580.000000,8817.000000,6446.000000
8584.000000,8823.000000,6447.000000
8586.000000,8826.000000,6448.000000
8586.000000,8827.000000,6448.000000
8586.000000,8829.000000,6448.000000
8588.000000,8829.000000,6448.000000
8589.000000,8831.000000,6449.000000
8590.000000,8834.000000,6449.000000
8589.000000,8833.000000,6449.000000
8589.000000,8830.000000,6448.000000
8588.000000,8830.000000,6448.000000
8588.000000,8828.000000,6448.000000
8589.000000,8827.000000,6449.000000
8589.000000,8826.000000,6449.000000
8586.000000,8824.000000,6447.000000
8586.000000,8824.000000,6449.000000
8591.000000,8829.000000,6449.000000
8591.000000,8828.000000,6450.000000
8593.000000,8832.000000,6450.000000
8592.000000,8832.000000,6450.000000
8591.000000,8834.000000,6450.000000
8591.000000,8834.000000,6450.000000
8594.000000,8838.000000,6450.000000
8595.000000,8840.000000,6452.000000
8595.000000,8843.000000,6452.000000
8595.000000,8843.000000,6452.000000
8593.000000,8839.000000,6451.000000
8593.000000,8839.000000,6451.000000
8589.000000,8836.000000,6449.000000
8594.000000,8836.000000,6450.000000
8590.000000,8835.000000,6450.000000
8590.000000,8834.000000,6450.000000
8590.000000,8836.000000,6450.000000
8593.000000,8836.000000,6450.000000
8592.000000,8836.000000,6451.000000
8595.000000,8838.000000,6451.000000
8595.000000,8839.000000,6451.000000
8596.000000,8839.000000,6452.000000
8596.000000,8839.000000,6453.000000
8599.000000,8844.000000,6453.000000
8602.000000,8846.000000,6453.000000
8604.000000,8852.000000,6454.000000
8602.000000,8853.000000,6453.000000
8602.000000,8853.000000,6453.000000
8602.000000,8853.000000,6453.000000
8600.000000,8847.000000,6453.000000
8597.000000,8844.000000,6453.000000
8597.000000,8839.000000,6452.000000
8598.000000,8839.000000,6452.000000
8598.000000,8841.000000,6452.000000
8596.000000,8841.000000,6452.000000
8594.000000,8839.000000,6452.000000
8595.000000,8841.000000,6452.000000
8595.000000,8842.000000,6452.000000
8595.000000,8844.000000,6452.000000
8595.000000,8844.000000,6452.000000
8598.000000,8845.000000,6452.000000
8601.000000,8845.000000,6454.000000
8602.000000,8851.000000,6454.000000
8602.000000,8855.000000,6454.000000
8602.000000,8855.000000,6454.000000
8603.000000,8855.000000,6453.000000
8600.000000,8846.000000,6453.000000
8600.000000,8843.000000,6453.000000
8596.000000,8842.000000,6451.000000
8595.000000,8840.000000,6451.000000
8595.000000,8840.000000,6450.000000
8593.000000,8839.000000,6450.000000
8593.000000,8838.000000,6450.000000
8594.000000,8839.000000,6451.000000
8595.000000,8839.000000,6451.000000
8595.000000,8840.000000,6451.000000
8595.000000,8840.000000,6451.000000
8594.000000,8841.000000,6451.000000
8597.000000,8841.000000,6452.000000
8598.000000,8845.000000,6453.000000
8601.000000,8850.000000,6453.000000
8601.000000,8847.000000,6451.000000
8597.000000,8847.000000,6451.000000
8595.000000,8839.000000,6451.000000
8592.000000,8837.000000,6450.000000
8593.000000,8834.000000,6450.000000
8592.000000,8832.000000,6449.000000
8592.000000,8831.000000,6449.000000
8591.000000,8831.000000,6449.000000
8590.000000,8828.000000,6449.000000
8591.000000,8831.000000,6449.000000
8590.000000,8831.000000,6448.000000
8590.000000,8830.000000,6449.000000
8590.000000,8830.000000,6448.000000
8589.000000,8832.000000,6448.000000
8591.000000,8833.000000,6449.000000
8590.000000,8835.000000,6449.000000
8593.000000,8837.000000,6450.000000
8590.000000,8836.000000,6449.000000
8590.000000,8836.000000,6449.000000
8593.000000,8835.000000,6449.000000
8592.000000,8830.000000,6449.000000
8585.000000,8824.000000,6446.000000
8579.000000,8818.000000,6444.000000
8579.000000,8815.000000,6445.000000
8580.000000,8815.000000,6445.000000
8579.000000,8816.000000,6443.000000
8582.000000,8817.000000,6444.000000
8578.000000,8815.000000,6443.000000
8579.000000,8816.000000,6443.000000
8579.000000,8816.000000,6443.000000
8580.000000,8815.000000,6443.000000
8581.000000,8817.000000,6444.000000
8583.000000,8821.000000,6445.000000
8589.000000,8827.000000,6447.000000
8589.000000,8829.000000,6448.000000
8589.000000,8829.000000,6448.000000
8586.000000,8825.000000,6447.000000
8583.000000,8822.000000,6446.000000
8580.000000,8817.000000,6444.000000
8574.000000,8810.000000,6440.000000
8574.000000,8810.000000,6440.000000
8575.000000,8810.000000,6440.000000
8573.000000,8809.000000,6439.000000
8572.000000,8809.000000,6439.000000
8577.000000,8811.000000,6441.000000
8575.000000,8810.000000,6441.000000
8575.000000,8810.000000,6441.000000
8578.000000,8814.000000,6441.000000
8580.000000,8817.000000,6443.000000
8583.000000,8819.000000,6444.000000
8584.000000,8822.000000,6445.000000
8584.000000,8826.000000,6447.000000
8588.000000,8826.000000,6447.000000
8591.000000,8831.000000,6449.000000
8586.000000,8827.000000,6447.000000
8585.000000,8825.000000,6447.000000
8581.000000,8820.000000,6445.000000
8581.000000,8820.000000,6441.000000
8575.000000,8815.000000,6441.000000
8579.000000,8814.000000,6444.000000
8575.000000,8810.000000,6442.000000
8576.000000,8812.000000,6441.000000
8578.000000,8815.000000,6442.000000
8578.000000,8815.000000,6442.000000
8577.000000,8813.000000,6442.000000
8582.000000,8817.000000,6444.000000
8583.000000,8818.000000,6444.000000
8583.000000,8820.000000,6446.000000
8587.000000,8822.000000,6447.000000
8587.000000,8822.000000,6447.000000
8587.000000,8826.000000,6447.000000
8589.000000,8828.000000,6449.000000
8587.000000,8827.000000,6447.000000
8586.000000,8823.000000,6447.000000
8586.000000,8822.000000,6446.000000
8585.000000,8822.000000,6446.000000
8579.000000,8817.000000,6443.000000
8576.000000,8816.000000,6441.000000
8578.000000,8817.000000,6443.000000
8582.000000,8817.000000,6443.000000
8582.000000,8817.000000,6443.000000
8580.000000,8818.000000,6443.000000
8581.000000,8820.000000,6442.000000
8583.000000,8823.000000,6445.000000
8585.000000,8826.000000,6447.000000
8585.000000,8827.000000,6447.000000
8587.000000,8827.000000,6447.000000
8588.000000,8831.000000,6448.000000
8590.000000,8834.000000,6448.000000
8594.000000,8836.000000,6450.000000
8592.000000,8836.000000,6450.000000
8592.000000,8836.000000,6449.000000
8591.000000,8835.000000,6449.000000
8591.000000,8832.000000,6448.000000
8588.000000,8830.000000,6447.000000
8589.000000,8829.000000,6448.000000
8585.000000,8826.000000,6447.000000
8585.000000,8826.000000,6447.000000
8590.000000,8832.000000,6448.000000
8587.000000,8828.000000,6447.000000
8588.000000,8829.000000,6447.000000
8591.000000,8832.000000,6449.000000
8591.000000,8836.000000,6449.000000
8592.000000,8836.000000,6449.000000
8590.000000,8831.000000,6449.000000
8592.000000,8837.000000,6449.000000
8590.000000,8839.000000,6449.000000
8593.000000,8840.000000,6449.000000
8593.000000,8840.000000,6449.000000
8592.000000,8840.000000,6449.000000
8592.000000,8838.000000,6449.000000
8591.000000,8835.000000,6448.000000
8591.000000,8833.000000,6448.000000
8591.000000,8831.000000,6448.000000
8589.000000,8831.000000,6447.000000
8589.000000,8830.000000,6447.000000
8588.000000,8830.000000,6448.000000
8587.000000,8827.000000,6447.000000
8590.000000,8831.000000,6447.000000
8590.000000,8831.000000,6448.000000
8590.000000,8832.000000,6448.000000
8590.000000,8832.000000,6448.000000
8591.000000,8835.000000,6449.000000
8593.000000,8836.000000,6450.000000
8590.000000,8836.000000,6448.000000
8590.000000,8836.000000,6450.000000
8593.000000,8839.000000,6450.000000
8593.000000,8838.000000,6450.000000
8591.000000,8834.000000,6448.000000
8587.000000,8828.000000,6447.000000
8586.000000,8824.000000,6446.000000
8586.000000,8824.000000,6446.000000
8581.000000,8820.000000,6443.000000
8580.000000,8820.000000,6443.000000
8583.000000,8823.000000,6443.000000
8581.000000,8818.000000,6443.000000
8581.000000,8822.000000,6443.000000
8583.000000,8822.000000,6443.000000
8582.000000,8820.000000,6444.000000
8587.000000,8824.000000,6446.000000
8586.000000,8826.000000,6446.000000
8589.000000,8828.000000,6448.000000
8589.000000,8828.000000,6448.000000
8591.000000,8832.000000,6448.000000
8590.000000,8832.000000,6448.000000
8590.000000,8831.000000,6447.000000
8584.000000,8824.000000,6445.000000
8580.000000,8818.000000,6443.000000
8580.000000,8818.000000,6443.000000
8574.000000,8811.000000,6437.000000
8575.000000,8807.000000,6438.000000
8573.000000,8807.000000,6435.000000
8573.000000,8806.000000,6435.000000
8573.000000,8808.000000,6437.000000
8574.000000,8808.000000,6437.000000
8572.000000,8807.000000,6435.000000
8572.000000,8807.000000,6434.000000
8575.000000,8811.000000,6439.000000
8575.000000,8811.000000,6439.000000
8575.000000,8811.000000,6441.000000
8578.000000,8812.000000,6441.000000
8578.000000,8815.000000,6439.000000
8577.000000,8816.000000,6440.000000
8572.000000,8811.000000,6436.000000
8572.000000,8805.000000,6433.000000
8569.000000,8805.000000,6430.000000
8566.000000,8800.000000,6430.000000
8562.000000,8793.000000,6427.000000
8562.000000,8792.000000,6425.000000
8563.000000,8793.000000,6426.000000
8563.000000,8793.000000,6425.000000
8562.000000,8794.000000,6425.000000
8564.000000,8795.000000,6427.000000
8563.000000,8795.000000,6427.000000
8564.000000,8798.000000,6429.000000
8569.000000,8802.000000,6433.000000
8569.000000,8802.000000,6433.000000
8569.000000,8803.000000,6432.000000
8573.000000,8809.000000,6436.000000
8572.000000,8811.000000,6435.000000
8575.000000,8812.000000,6437.000000
8575.000000,8808.000000,6435.000000
8571.000000,8808.000000,6435.000000
8568.000000,8802.000000,6433.000000
8563.000000,8799.000000,6427.000000
8564.000000,8795.000000,6427.000000
8562.000000,8794.000000,6426.000000
8562.000000,8794.000000,6425.000000
8561.000000,8794.000000,6425.000000
8561.000000,8794.000000,6424.000000
8564.000000,8798.000000,6427.000000
8566.000000,8799.000000,6429.000000
8566.000000,8802.000000,6429.000000
8566.000000,8802.000000,6431.000000
8568.000000,8805.000000,6431.000000
8572.000000,8807.000000,6434.000000
8574.000000,8809.000000,6437.000000
8576.000000,8814.000000,6437.000000
8575.000000,8815.000000,6437.000000
8575.000000,8815.000000,6437.000000
8572.000000,8810.000000,6435.000000
8569.000000,8805.000000,6433.000000
8567.000000,8804.000000,6430.000000
8565.000000,8802.000000,6428.000000
8565.000000,8800.000000,6428.000000
8565.000000,8800.000000,6428.000000
8566.000000,8800.000000,6428.000000
8565.000000,8800.000000,6428.000000
8566.000000,8802.000000,6429.000000
8567.000000,8804.000000,6431.000000
8567.000000,8804.000000,6435.000000
8572.000000,8808.000000,6435.000000
8571.000000,8810.000000,6434.000000
8573.000000,8813.000000,6435.000000
8579.000000,8818.000000,6440.000000
8579.000000,8818.000000,6440.000000
8579.000000,8818.000000,6437.000000
8575.000000,8816.000000,6437.000000
8572.000000,8811.000000,6434.000000
8570.000000,8806.000000,6435.000000
8567.000000,8806.000000,6429.000000
8567.000000,8806.000000,6429.000000
8567.000000,8804.000000,6429.000000
8567.000000,8803.000000,6431.000000
8569.000000,8806.000000,6432.000000
8569.000000,8804.000000,6433.000000
8570.000000,8808.000000,6432.000000
8570.000000,8808.000000,6432.000000
8571.000000,8809.000000,6432.000000
8575.000000,8812.000000,6437.000000
8577.000000,8815.000000,6438.000000
8579.000000,8819.000000,6440.000000
8579.000000,8821.000000,6441.000000
8580.000000,8821.000000,6441.000000
8580.000000,8820.000000,6440.000000
8577.000000,8815.000000,6439.000000
8573.000000,8811.000000,6438.000000
8571.000000,8809.000000,6434.000000
8571.000000,8809.000000,6432.000000
8570.000000,8809.000000,6432.000000
8571.000000,8807.000000,6434.000000
8571.000000,8810.000000,6433.000000
8571.000000,8810.000000,6435.000000
8573.000000,8811.000000,6436.000000
8573.000000,8811.000000,6437.000000
8577.000000,8812.000000,6437.000000
8576.000000,8815.000000,6438.000000
8576.000000,8816.000000,6439.000000
8580.000000,8818.000000,6441.000000
8578.000000,8817.000000,6440.000000
8578.000000,8817.000000,6440.000000
8576.000000,8815.000000,6439.000000
8570.000000,8808.000000,6435.000000
8566.000000,8807.000000,6431.000000
8565.000000,8804.000000,6430.000000
8565.000000,8802.000000,6429.000000
8564.000000,8802.000000,6429.000000
8564.000000,8801.000000,6430.000000
8565.000000,8802.000000,6430.000000
8565.000000,8804.000000,6431.000000
8565.000000,8804.000000,6431.000000
8565.000000,8804.000000,6431.000000
8568.000000,8807.000000,6431.000000
8569.000000,8808.000000,6433.000000
8572.000000,8813.000000,6435.000000
8573.000000,8814.000000,6436.000000
8573.000000,8812.000000,6437.000000
8572.000000,8812.000000,6437.000000
8568.000000,8809.000000,6433.000000
8563.000000,8802.000000,6429.000000
8558.000000,8795.000000,6425.000000
8556.000000,8790.000000,6421.000000
8556.000000,8790.000000,6417.000000
8554.000000,8787.000000,6417.000000
8553.000000,8786.000000,6419.000000
8554.000000,8787.000000,6417.000000
8554.000000,8784.000000,6418.000000
8555.000000,8786.000000,6418.000000
8555.000000,8786.000000,6418.000000
8556.000000,8790.000000,6419.000000
8558.000000,8790.000000,6422.000000
8559.000000,8795.000000,6424.000000
8564.000000,8798.000000,6426.000000
8564.000000,8801.000000,6427.000000
8564.000000,8801.000000,6427.000000
8562.000000,8799.000000,6427.000000
8560.000000,8795.000000,6425.000000
8557.000000,8786.000000,6418.000000
8553.000000,8780.000000,6415.000000
8553.000000,8780.000000,6412.000000
8551.000000,8774.000000,6412.000000
8549.000000,8771.000000,6410.000000
8550.000000,8772.000000,6410.000000
8549.000000,8769.000000,6411.000000
8551.000000,8773.000000,6411.000000
8551.000000,8773.000000,6412.000000
8552.000000,8774.000000,6412.000000
8550.000000,8776.000000,6412.000000
8552.000000,8775.000000,6413.000000
8552.000000,8779.000000,6415.000000
8555.000000,8784.000000,6418.000000
8555.000000,8784.000000,6418.000000
8557.000000,8789.000000,6419.000000
8556.000000,8787.000000,6419.000000
8555.000000,8781.000000,6417.000000
8551.000000,8775.000000,6412.000000
8551.000000,8769.000000,6409.000000
8548.000000,8769.000000,6409.000000
8547.000000,8767.000000,6406.000000
8546.000000,8767.000000,6406.000000
8547.000000,8768.000000,6407.000000
8547.000000,8767.000000,6408.000000
8549.000000,8767.000000,6408.000000
8547.000000,8770.000000,6408.000000
8548.000000,8772.000000,6409.000000
8549.000000,8773.000000,6410.000000
8551.000000,8775.000000,6412.000000
8551.000000,8778.000000,6415.000000
8551.000000,8778.000000,6415.000000
8553.000000,8780.000000,6416.000000
8550.000000,8777.000000,6412.000000
8549.000000,8775.000000,6409.000000
8546.000000,8766.000000,6407.000000
8546.000000,8766.000000,6403.000000
8543.000000,8762.000000,6403.000000
8543.000000,8762.000000,6403.000000
8546.000000,8762.000000,6402.000000
8544.000000,8762.000000,6400.000000
8543.000000,8762.000000,6400.000000
8543.000000,8762.000000,6400.000000
8544.000000,8764.000000,6403.000000
8545.000000,8765.000000,6403.000000
8547.000000,8769.000000,6406.000000
8545.000000,8769.000000,6407.000000
8545.000000,8772.000000,6408.000000
8548.000000,8772.000000,6408.000000
8550.000000,8775.000000,6412.000000
8549.000000,8775.000000,6412.000000
8547.000000,8771.000000,6407.000000
8545.000000,8765.000000,6402.000000
8545.000000,8765.000000,6400.000000
8543.000000,8760.000000,6400.000000
8542.000000,8754.000000,6396.000000
8540.000000,8751.000000,6395.000000
8542.000000,8752.000000,6394.000000
8542.000000,8757.000000,6398.000000
8542.000000,8757.000000,6398.000000
8542.000000,8757.000000,6398.000000
8541.000000,8756.000000,6396.000000
8544.000000,8758.000000,6399.000000
8546.000000,8764.000000,6403.000000
8546.000000,8766.000000,6407.000000
8547.000000,8766.000000,6407.000000
8548.000000,8768.000000,6410.000000
8548.000000,8773.000000,6411.000000
8549.000000,8773.000000,6409.000000
8549.000000,8770.000000,6409.000000
8549.000000,8763.000000,6404.000000
8544.000000,8763.000000,6404.000000
8543.000000,8761.000000,6401.000000
8544.000000,8762.000000,6400.000000
8542.000000,8756.000000,6398.000000
8542.000000,8758.000000,6398.000000
8542.000000,8758.000000,6398.000000
8541.000000,8759.000000,6398.000000
8543.000000,8760.000000,6401.000000
8545.000000,8764.000000,6403.000000
8545.000000,8767.000000,6406.000000
8545.000000,8767.000000,6406.000000
8546.000000,8767.000000,6406.000000
8548.000000,8773.000000,6409.000000
8548.000000,8773.000000,6411.000000
8549.000000,8774.000000,6410.000000
8548.000000,8772.000000,6408.000000
8548.000000,8772.000000,6405.000000
8545.000000,8766.000000,6405.000000
8543.000000,8763.000000,6401.000000
8543.000000,8760.000000,6398.000000
8543.000000,8757.000000,6399.000000
8542.000000,8756.000000,6398.000000
8542.000000,8756.000000,6398.000000
8543.000000,8758.000000,6399.000000
8546.000000,8763.000000,6401.000000
8545.000000,8765.000000,6400.000000
8546.000000,8766.000000,6404.000000
8546.000000,8768.000000,6404.000000
8546.000000,8768.000000,6404.000000
8548.000000,8771.000000,6408.000000
8549.000000,8774.000000,6410.000000
8551.000000,8777.000000,6413.000000
8550.000000,8777.000000,6412.000000
8550.000000,8777.000000,6411.000000
8550.000000,8773.000000,6411.000000
8547.000000,8770.000000,6409.000000
8545.000000,8767.000000,6405.000000
8545.000000,8766.000000,6402.000000
8545.000000,8763.000000,6401.000000
8545.000000,8763.000000,6401.000000
8543.000000,8760.000000,6399.000000
8543.000000,8761.000000,6399.000000
8545.000000,8763.000000,6402.000000
8545.000000,8763.000000,6402.000000
8545.000000,8766.000000,6403.000000
8546.000000,8766.000000,6403.000000
8548.000000,8768.000000,6405.000000
8546.000000,8769.000000,6407.000000
8548.000000,8773.000000,6409.000000
8550.000000,8776.000000,6412.000000
8550.000000,8778.000000,6412.000000
8549.000000,8778.000000,6412.000000
8550.000000,8773.000000,6410.000000
8547.000000,8767.000000,6407.000000
8544.000000,8763.000000,6403.000000
8544.000000,8761.000000,6400.000000
8546.000000,8761.000000,6399.000000
8543.000000,8758.000000,6399.000000
8542.000000,8756.000000,6396.000000
8543.000000,8759.000000,6397.000000
8543.000000,8758.000000,6398.000000
8543.000000,8758.000000,6400.000000
8544.000000,8763.000000,6400.000000
8544.000000,8763.000000,6401.000000
8545.000000,8765.000000,6404.000000
8546.000000,8767.000000,6406.000000
8546.000000,8769.000000,6406.000000
8546.000000,8769.000000,6406.000000
8548.000000,8773.000000,6408.000000
8547.000000,8772.000000,6408.000000
8546.000000,8768.000000,6406.000000
8546.000000,8767.000000,6403.000000
8543.000000,8760.000000,6399.000000
8543.000000,8760.000000,6399.000000
8543.000000,8762.000000,6398.000000
8542.000000,8757.000000,6399.000000
8541.000000,8756.000000,6396.000000
8542.000000,8758.000000,6398.000000
8542.000000,8759.000000,6398.000000
8541.000000,8759.000000,6398.000000
8543.000000,8759.000000,6399.000000
8542.000000,8760.000000,6398.000000
8544.000000,8764.000000,6402.000000
8545.000000,8767.000000,6403.000000
8545.000000,8767.000000,6403.000000
8546.000000,8767.000000,6403.000000
8543.000000,8762.000000,6400.000000
8537.000000,8755.000000,6395.000000
8536.000000,8745.000000,6390.000000
8533.000000,8741.000000,6389.000000
8533.000000,8741.000000,6389.000000
8534.000000,8742.000000,6389.000000
8534.000000,8744.000000,6386.000000
8534.000000,8742.000000,6389.000000
8534.000000,8740.000000,6387.000000
8534.000000,8743.000000,6390.000000
8534.000000,8743.000000,6390.000000
8536.000000,8744.000000,6390.000000
8538.000000,8749.000000,6392.000000
8540.000000,8757.000000,6395.000000
8543.000000,8757.000000,6398.000000
8543.000000,8757.000000,6395.000000
8539.000000,8754.000000,6395.000000
8533.000000,8744.000000,6389.000000
8533.000000,8741.000000,6386.000000
8532.000000,8741.000000,6385.000000
8532.000000,8740.000000,6386.000000
8530.000000,8740.000000,6387.000000
8530.000000,8738.000000,6387.000000
8530.000000,8738.000000,6387.000000
8531.000000,8739.000000,6386.000000
8531.000000,8740.000000,6386.000000
8531.000000,8740.000000,6386.000000
8531.000000,8740.000000,6386.000000
8533.000000,8742.000000,6387.000000
8533.000000,8744.000000,6390.000000
8535.000000,8747.000000,6390.000000
8534.000000,8745.000000,6390.000000
8534.000000,8745.000000,6390.000000
8531.000000,8741.000000,6389.000000
8531.000000,8741.000000,6386.000000
8528.000000,8738.000000,6387.000000
8529.000000,8739.000000,6386.000000
8529.000000,8739.000000,6387.000000
8528.000000,8739.000000,6387.000000
8528.000000,8737.000000,6387.000000
8527.000000,8737.000000,6387.000000
8529.000000,8738.000000,6387.000000
8528.000000,8739.000000,6387.000000
8528.000000,8739.000000,6387.000000
8530.000000,8739.000000,6387.000000
8529.000000,8740.000000,6386.000000
8531.000000,8742.000000,6386.000000
8533.000000,8743.000000,6385.000000
8529.000000,8740.000000,6386.000000
8529.000000,8740.000000,6387.000000
8529.000000,8739.000000,6387.000000
8529.000000,8739.000000,6386.000000
8526.000000,8737.000000,6387.000000
8526.000000,8736.000000,6387.000000
8528.000000,8738.000000,6387.000000
8528.000000,8738.000000,6387.000000
8527.000000,8739.000000,6386.000000
8527.000000,8740.000000,6386.000000
8527.000000,8737.000000,6387.000000
8529.000000,8738.000000,6387.000000
8529.000000,8738.000000,6387.000000
8528.000000,8738.000000,6387.000000
8529.000000,8739.000000,6386.000000
8529.000000,8740.000000,6386.000000
8531.000000,8742.000000,6386.000000
8530.000000,8741.000000,6386.000000
8530.000000,8741.000000,6386.000000
8528.000000,8739.000000,6386.000000
8527.000000,8737.000000,6387.000000
8525.000000,8741.000000,6385.000000
8525.000000,8738.000000,6386.000000
8525.000000,8741.000000,6385.000000
8525.000000,8741.000000,6385.000000
8526.000000,8739.000000,6386.000000
8528.000000,8738.000000,6387.000000
8528.000000,8740.000000,6386.000000
8527.000000,8738.000000,6387.000000
8527.000000,8738.000000,6386.000000
8529.000000,8740.000000,6386.000000
8529.000000,8740.000000,6386.000000
8531.000000,8743.000000,6385.000000
8529.000000,8739.000000,6387.000000
8528.000000,8739.000000,6386.000000
8528.000000,8739.000000,6386.000000
8527.000000,8738.000000,6387.000000
8525.000000,8737.000000,6387.000000
8524.000000,8736.000000,6388.000000
8520.000000,8738.000000,6387.000000
8520.000000,8739.000000,6386.000000
8521.000000,8739.000000,6386.000000
8520.000000,8737.000000,6387.000000
8522.000000,8738.000000,6387.000000
8524.000000,8738.000000,6386.000000
8525.000000,8737.000000,6387.000000
8525.000000,8737.000000,6387.000000
8527.000000,8739.000000,6387.000000
8529.000000,8739.000000,6386.000000
8529.000000,8740.000000,6385.000000
8529.000000,8739.000000,6386.000000
8528.000000,8739.000000,6386.000000
8528.000000,8739.000000,6387.000000
8526.000000,8738.000000,6387.000000
8521.000000,8738.000000,6387.000000
8519.000000,8735.000000,6387.000000
8518.000000,8733.000000,6389.000000
8519.000000,8731.000000,6390.000000
8519.000000,8731.000000,6390.000000
8517.000000,8732.000000,6389.000000
8518.000000,8733.000000,6389.000000
8518.000000,8733.000000,6388.000000
8519.000000,8732.000000,6388.000000
8519.000000,8732.000000,6388.000000
8519.000000,8732.000000,6388.000000
8519.000000,8734.000000,6388.000000
8522.000000,8736.000000,6388.000000
8521.000000,8735.000000,6388.000000
8521.000000,8736.000000,6388.000000
8520.000000,8736.000000,6389.000000
8519.000000,8732.000000,6389.000000
8514.000000,8729.000000,6389.000000
8511.000000,8726.000000,6388.000000
8509.000000,8723.000000,6387.000000
8509.000000,8723.000000,6388.000000
8510.000000,8723.000000,6388.000000
8512.000000,8725.000000,6389.000000
8510.000000,8725.000000,6387.000000
8509.000000,8725.000000,6386.000000
8514.000000,8729.000000,6388.000000
8514.000000,8729.000000,6387.000000
8513.000000,8727.000000,6387.000000
8515.000000,8731.000000,6388.000000
8517.000000,8732.000000,6389.000000
8518.000000,8733.000000,6388.000000
8517.000000,8732.000000,6389.000000
8517.000000,8732.000000,6389.000000
8514.000000,8729.000000,6388.000000
8507.000000,8719.000000,6384.000000
8506.000000,8716.000000,6384.000000
8502.000000,8712.000000,6380.000000
8502.000000,8714.000000,6381.000000
8503.000000,8714.000000,6381.000000
8501.000000,8713.000000,6381.000000
8503.000000,8715.000000,6379.000000
8502.000000,8714.000000,6380.000000
8506.000000,8719.000000,6383.000000
8506.000000,8719.000000,6387.000000
8512.000000,8728.000000,6387.000000
8514.000000,8729.000000,6387.000000
8518.000000,8732.000000,6389.000000
8518.000000,8734.000000,6387.000000
8517.000000,8732.000000,6389.000000
8517.000000,8732.000000,6389.000000
8516.000000,8729.000000,6388.000000
8512.000000,8724.000000,6385.000000
8510.000000,8719.000000,6384.000000
8505.000000,8716.000000,6383.000000
8505.000000,8714.000000,6380.000000
8504.000000,8714.000000,6380.000000
8508.000000,8717.000000,6386.000000
8508.000000,8719.000000,6384.000000
8511.000000,8723.000000,6385.000000
8512.000000,8724.000000,6386.000000
8512.000000,8727.000000,6386.000000
8514.000000,8727.000000,6386.000000
8516.000000,8729.000000,6385.000000
8519.000000,8734.000000,6388.000000
8520.000000,8734.000000,6387.000000
8520.000000,8734.000000,6387.000000
8518.000000,8734.000000,6386.000000
8515.000000,8730.000000,6386.000000
8512.000000,8726.000000,6383.000000
8508.000000,8721.000000,6384.000000
8507.000000,8717.000000,6383.000000
8507.000000,8717.000000,6384.000000
8508.000000,8722.000000,6384.000000
8507.000000,8722.000000,6382.000000
8512.000000,8727.000000,6385.000000
8514.000000,8730.000000,6387.000000
8517.000000,8732.000000,6387.000000
8517.000000,8732.000000,6387.000000
8517.000000,8734.000000,6387.000000
8519.000000,8734.000000,6387.000000
8523.000000,8738.000000,6386.000000
8524.000000,8738.000000,6387.000000
8524.000000,8741.000000,6385.000000
8524.000000,8741.000000,6385.000000
8522.000000,8738.000000,6387.000000
8520.000000,8736.000000,6387.000000
8517.000000,8735.000000,6387.000000
8515.000000,8732.000000,6385.000000
8515.000000,8731.000000,6386.000000
8515.000000,8731.000000,6386.000000
8516.000000,8731.000000,6385.000000
8519.000000,8733.000000,6388.000000
8520.000000,8735.000000,6387.000000
8519.000000,8737.000000,6386.000000
8519.000000,8737.000000,6386.000000
8521.000000,8738.000000,6386.000000
8524.000000,8738.000000,6387.000000
8524.000000,8740.000000,6385.000000
8527.000000,8740.000000,6385.000000
8528.000000,8741.000000,6385.000000
8528.000000,8741.000000,6385.000000
8526.000000,8741.000000,6386.000000
8525.000000,8739.000000,6386.000000
8521.000000,8736.000000,6387.000000
8519.000000,8734.000000,6387.000000
8519.000000,8732.000000,6387.000000
8518.000000,8732.000000,6387.000000
8520.000000,8733.000000,6387.000000
8519.000000,8735.000000,6386.000000
8520.000000,8733.000000,6386.000000
8520.000000,8735.000000,6387.000000
8520.000000,8735.000000,6387.000000
8522.000000,8737.000000,6387.000000
8523.000000,8738.000000,6386.000000
8524.000000,8738.000000,6387.000000
8524.000000,8739.000000,6386.000000
8524.000000,8741.000000,6386.000000
8524.000000,8741.000000,6386.000000
8521.000000,8739.000000,6386.000000
8519.000000,8734.000000,6386.000000
8516.000000,8729.000000,6387.000000
8516.000000,8726.000000,6386.000000
8516.000000,8726.000000,6384.000000
8512.000000,8724.000000,6384.000000
8513.000000,8725.000000,6383.000000
8515.000000,8725.000000,6384.000000
8515.000000,8726.000000,6384.000000
8515.000000,8728.000000,6384.000000
8515.000000,8728.000000,6384.000000
8519.000000,8731.000000,6385.000000
8521.000000,8734.000000,6387.000000
8521.000000,8736.000000,6388.000000
8519.000000,8734.000000,6385.000000
8519.000000,8733.000000,6386.000000
8518.000000,8733.000000,6386.000000
8513.000000,8725.000000,6383.000000
8502.000000,8714.000000,6375.000000
8503.000000,8710.000000,6375.000000
8501.000000,8708.000000,6374.000000
8501.000000,8710.000000,6376.000000
8502.000000,8710.000000,6376.000000
8500.000000,8711.000000,6372.000000
8505.000000,8715.000000,6375.000000
8509.000000,8719.000000,6381.000000
8508.000000,8720.000000,6380.000000
8508.000000,8720.000000,6381.000000
8510.000000,8723.000000,6381.000000
8514.000000,8727.000000,6383.000000
8520.000000,8730.000000,6385.000000
8513.000000,8724.000000,6382.000000
8503.000000,8714.000000,6375.000000
8503.000000,8714.000000,6375.000000
8501.000000,8708.000000,6370.000000
8500.000000,8704.000000,6369.000000
8500.000000,8702.000000,6370.000000
8501.000000,8705.000000,6369.000000
8501.000000,8703.000000,6369.000000
8499.000000,8703.000000,6369.000000
8501.000000,8707.000000,6372.000000
8502.000000,8710.000000,6374.000000
8507.000000,8716.000000,6379.000000
8512.000000,8723.000000,6383.000000
8512.000000,8723.000000,6384.000000
8513.000000,8726.000000,6384.000000
8517.000000,8728.000000,6385.000000
8519.000000,8730.000000,6385.000000
8516.000000,8728.000000,6384.000000
8516.000000,8718.000000,6380.000000
8509.000000,8718.000000,6380.000000
8504.000000,8711.000000,6376.000000
8505.000000,8712.000000,6376.000000
8505.000000,8711.000000,6375.000000
8505.000000,8711.000000,6376.000000
8505.000000,8711.000000,6376.000000
8506.000000,8715.000000,6376.000000
8510.000000,8720.000000,6380.000000
8510.000000,8721.000000,6379.000000
8513.000000,8725.000000,6381.000000
8516.000000,8729.000000,6384.000000
8516.000000,8729.000000,6384.000000
8518.000000,8732.000000,6384.000000
8520.000000,8735.000000,6386.000000
8520.000000,8735.000000,6387.000000
8516.000000,8730.000000,6383.000000
8516.000000,8724.000000,6381.000000
8512.000000,8724.000000,6381.000000
8511.000000,8721.000000,6381.000000
8510.000000,8721.000000,6381.000000
8510.000000,8721.000000,6381.000000
8515.000000,8726.000000,6384.000000
8515.000000,8726.000000,6381.000000
8514.000000,8725.000000,6381.000000
8517.000000,8729.000000,6384.000000
8518.000000,8733.000000,6383.000000
8519.000000,8736.000000,6385.000000
8521.000000,8739.000000,6386.000000
8521.000000,8739.000000,6385.000000
8523.000000,8739.000000,6385.000000
8522.000000,8738.000000,6386.000000
8519.000000,8737.000000,6385.000000
8517.000000,8733.000000,6385.000000
8513.000000,8725.000000,6382.000000
8513.000000,8725.000000,6382.000000
8512.000000,8727.000000,6382.000000
8512.000000,8727.000000,6384.000000
8514.000000,8728.000000,6381.000000
8517.000000,8731.000000,6382.000000
8517.000000,8731.000000,6382.000000
8517.000000,8731.000000,6382.000000
8518.000000,8735.000000,6384.000000
8521.000000,8737.000000,6384.000000
8522.000000,8739.000000,6386.000000
8522.000000,8740.000000,6385.000000
8523.000000,8740.000000,6384.000000
8524.000000,8741.000000,6384.000000
8522.000000,8740.000000,6385.000000
8520.000000,8738.000000,6385.000000
8518.000000,8734.000000,6386.000000
8518.000000,8733.000000,6384.000000
8516.000000,8733.000000,6384.000000
8516.000000,8730.000000,6384.000000
8515.000000,8729.000000,6381.000000
8517.000000,8732.000000,6385.000000
8516.000000,8729.000000,6381.000000
8516.000000,8729.000000,6385.000000
8518.000000,8734.000000,6385.000000
8522.000000,8737.000000,6385.000000
8523.000000,8739.000000,6386.000000
8523.000000,8742.000000,6385.000000
8523.000000,8740.000000,6384.000000
8523.000000,8740.000000,6384.000000
8519.000000,8736.000000,6384.000000
8519.000000,8733.000000,6385.000000
8512.000000,8725.000000,6381.000000
8513.000000,8724.000000,6383.000000
8513.000000,8725.000000,6380.000000
8512.000000,8725.000000,6380.000000
8512.000000,8725.000000,6382.000000
8515.000000,8729.000000,6384.000000
8516.000000,8729.000000,6383.000000
8519.000000,8732.000000,6385.000000
8519.000000,8732.000000,6386.000000
8520.000000,8733.000000,6386.000000
8522.000000,8738.000000,6385.000000
8520.000000,8736.000000,6384.000000
8519.000000,8735.000000,6384.000000
8517.000000,8732.000000,6385.000000
8517.000000,8732.000000,6385.000000
8511.000000,8725.000000,6381.000000
8505.000000,8717.000000,6375.000000
8504.000000,8714.000000,6376.000000
8506.000000,8716.000000,6377.000000
8505.000000,8718.000000,6377.000000
8505.000000,8718.000000,6377.000000
8510.000000,8723.000000,6379.000000
8512.000000,8725.000000,6381.000000
8517.000000,8728.000000,6384.000000
8516.000000,8731.000000,6381.000000
8516.000000,8733.000000,6383.000000
8518.000000,8733.000000,6383.000000
8518.000000,8734.000000,6383.000000
8519.000000,8733.000000,6385.000000
8515.000000,8730.000000,6382.000000
8515.000000,8724.000000,6381.000000
8512.000000,8724.000000,6379.000000
8508.000000,8720.000000,6379.000000
8508.000000,8719.000000,6376.000000
8510.000000,8720.000000,6377.000000
8513.000000,8726.000000,6381.000000
8513.000000,8726.000000,6383.000000
8515.000000,8726.000000,6383.000000
8514.000000,8729.000000,6381.000000
8519.000000,8733.000000,6385.000000
8518.000000,8733.000000,6384.000000
8522.000000,8737.000000,6384.000000
8522.000000,8737.000000,6385.000000
8523.000000,8736.000000,6385.000000
8521.000000,8736.000000,6385.000000
8517.000000,8730.000000,6381.000000
8517.000000,8730.000000,6383.000000
8514.000000,8728.000000,6382.000000
8514.000000,8728.000000,6382.000000
8515.000000,8728.000000,6382.000000
8517.000000,8731.000000,6384.000000
8519.000000,8736.000000,6384.000000
8522.000000,8738.000000,6384.000000
8522.000000,8739.000000,6385.000000
8523.000000,8739.000000,6385.000000
8524.000000,8741.000000,6385.000000
8524.000000,8744.000000,6384.000000
8527.000000,8744.000000,6384.000000
8526.000000,8743.000000,6384.000000
8526.000000,8743.000000,6384.000000
8524.000000,8743.000000,6384.000000
8523.000000,8743.000000,6384.000000
8523.000000,8741.000000,6385.000000
8520.000000,8740.000000,6384.000000
8522.000000,8742.000000,6384.000000
8522.000000,8742.000000,6384.000000
8523.000000,8743.000000,6384.000000
8523.000000,8742.000000,6385.000000
8525.000000,8742.000000,6385.000000
8527.000000,8745.000000,6383.000000
8527.000000,8745.000000,6383.000000
8529.000000,8745.000000,6383.000000
8531.000000,8747.000000,6382.000000
8527.000000,8745.000000,6383.000000
8532.000000,8747.000000,6382.000000
8529.000000,8745.000000,6383.000000
8529.000000,8746.000000,6382.000000
8529.000000,8746.000000,6382.000000
8526.000000,8745.000000,6383.000000
8526.000000,8744.000000,6383.000000
8527.000000,8745.000000,6383.000000
8527.000000,8746.000000,6382.000000
8528.000000,8746.000000,6382.000000
8529.000000,8748.000000,6382.000000
8528.000000,8746.000000,6383.000000
8529.000000,8747.000000,6383.000000
8530.000000,8747.000000,6382.000000
8530.000000,8747.000000,6382.000000
8532.000000,8747.000000,6382.000000
8532.000000,8749.000000,6381.000000
8528.000000,8746.000000,6383.000000
8531.000000,8746.000000,6383.000000
8529.000000,8745.000000,6383.000000
8529.000000,8745.000000,6383.000000
8530.000000,8748.000000,6382.000000
8527.000000,8747.000000,6383.000000
8527.000000,8746.000000,6383.000000
8527.000000,8745.000000,6383.000000
8527.000000,8745.000000,6383.000000
8527.000000,8745.000000,6383.000000
8526.000000,8744.000000,6384.000000
8528.000000,8745.000000,6383.000000
8527.000000,8745.000000,6383.000000
8527.000000,8747.000000,6383.000000
8527.000000,8747.000000,6382.000000
8529.000000,8747.000000,6382.000000
8528.000000,8748.000000,6381.000000
8530.000000,8749.000000,6382.000000
8528.000000,8746.000000,6383.000000
8526.000000,8746.000000,6382.000000
8526.000000,8746.000000,6383.000000
8524.000000,8744.000000,6383.000000
8522.000000,8739.000000,6385.000000
8519.000000,8737.000000,6385.000000
8520.000000,8738.000000,6385.000000
8519.000000,8738.000000,6385.000000
8519.000000,8738.000000,6385.000000
8517.000000,8736.000000,6384.000000
8520.000000,8740.000000,6384.000000
8521.000000,8739.000000,6384.000000
8522.000000,8739.000000,6385.000000
8522.000000,8740.000000,6385.000000
8522.000000,8740.000000,6385.000000
8523.000000,8742.000000,6385.000000
8519.000000,8739.000000,6385.000000
8516.000000,8732.000000,6383.000000
8512.000000,8726.000000,6382.000000
8512.000000,8726.000000,6377.000000
8504.000000,8718.000000,6377.000000
8501.000000,8713.000000,6371.000000
8501.000000,8713.000000,6375.000000
8499.000000,8709.000000,6369.000000
8499.000000,8712.000000,6370.000000
8500.000000,8712.000000,6373.000000
8500.000000,8711.000000,6373.000000
8498.000000,8709.000000,6370.000000
8500.000000,8713.000000,6372.000000
8503.000000,8717.000000,6375.000000
8503.000000,8717.000000,6376.000000
8505.000000,8719.000000,6376.000000
8503.000000,8714.000000,6374.000000
8496.000000,8703.000000,6369.000000
8497.000000,8700.000000,6362.000000
8498.000000,8694.000000,6358.000000
8498.000000,8694.000000,6358.000000
8495.000000,8690.000000,6358.000000
8495.000000,8691.000000,6358.000000
8497.000000,8691.000000,6358.000000
8496.000000,8691.000000,6358.000000
8496.000000,8691.000000,6359.000000
8496.000000,8691.000000,6359.000000
8496.000000,8695.000000,6358.000000
8495.000000,8696.000000,6359.000000
8497.000000,8698.000000,6362.000000
8494.000000,8699.000000,6365.000000
8494.000000,8698.000000,6362.000000
8493.000000,8698.000000,6362.000000
8494.000000,8694.000000,6360.000000
8492.000000,8690.000000,6357.000000
8495.000000,8688.000000,6356.000000
8492.000000,8684.000000,6353.000000
8492.000000,8684.000000,6354.000000
8494.000000,8686.000000,6354.000000
8495.000000,8686.000000,6353.000000
8496.000000,8688.000000,6355.000000
8495.000000,8687.000000,6355.000000
8495.000000,8690.000000,6355.000000
8495.000000,8690.000000,6355.000000
8495.000000,8690.000000,6356.000000
8497.000000,8694.000000,6358.000000
8494.000000,8693.000000,6357.000000
8494.000000,8688.000000,6356.000000
8494.000000,8686.000000,6355.000000
8495.000000,8686.000000,6355.000000
8497.000000,8684.000000,6355.000000
8494.000000,8683.000000,6352.000000
8494.000000,8682.000000,6354.000000
8494.000000,8684.000000,6352.000000
8494.000000,8684.000000,6353.000000
8497.000000,8687.000000,6353.000000
8495.000000,8688.000000,6353.000000
8497.000000,8691.000000,6356.000000
8496.000000,8693.000000,6355.000000
8496.000000,8694.000000,6358.000000
8496.000000,8694.000000,6358.000000
8495.000000,8693.000000,6359.000000
8496.000000,8691.000000,6357.000000
8495.000000,8689.000000,6353.000000
8492.000000,8684.000000,6352.000000
8492.000000,8684.000000,6351.000000
8490.000000,8680.000000,6351.000000
8491.000000,8679.000000,6350.000000
8492.000000,8680.000000,6352.000000
8495.000000,8684.000000,6352.000000
8496.000000,8685.000000,6354.000000
8496.000000,8685.000000,6354.000000
8497.000000,8688.000000,6352.000000
8495.000000,8688.000000,6355.000000
8497.000000,8691.000000,6356.000000
8500.000000,8695.000000,6358.000000
8500.000000,8696.000000,6358.000000
8498.000000,8696.000000,6358.000000
8496.000000,8690.000000,6357.000000
8496.000000,8686.000000,6354.000000
8495.000000,8682.000000,6352.000000
8490.000000,8677.000000,6351.000000
8490.000000,8677.000000,6349.000000
8491.000000,8678.000000,6349.000000
8493.000000,8679.000000,6351.000000
8493.000000,8679.000000,6351.000000
8497.000000,8682.000000,6352.000000
8497.000000,8686.000000,6353.000000
8497.000000,8686.000000,6353.000000
8498.000000,8689.000000,6353.000000
8498.000000,8690.000000,6356.000000
8496.000000,8691.000000,6356.000000
8497.000000,8690.000000,6355.000000
8498.000000,8688.000000,6353.000000
8498.000000,8688.000000,6353.000000
8493.000000,8682.000000,6353.000000
8483.000000,8670.000000,6346.000000
8481.000000,8666.000000,6344.000000
8481.000000,8665.000000,6344.000000
8481.000000,8670.000000,6346.000000
8483.000000,8670.000000,6346.000000
8486.000000,8672.000000,6347.000000
8489.000000,8678.000000,6348.000000
8494.000000,8681.000000,6351.000000
8494.000000,8683.000000,6349.000000
8495.000000,8683.000000,6353.000000
8497.000000,8687.000000,6353.000000
8497.000000,8687.000000,6354.000000
8494.000000,8684.000000,6351.000000
8488.000000,8675.000000,6347.000000
8488.000000,8666.000000,6344.000000
8480.000000,8666.000000,6344.000000
8472.000000,8655.000000,6339.000000
8473.000000,8656.000000,6340.000000
8473.000000,8656.000000,6341.000000
8476.000000,8661.000000,6341.000000
8476.000000,8661.000000,6343.000000
8481.000000,8667.000000,6343.000000
8487.000000,8673.000000,6346.000000
8495.000000,8681.000000,6350.000000
8495.000000,8682.000000,6350.000000
8495.000000,8685.000000,6351.000000
8495.000000,8685.000000,6351.000000
8495.000000,8682.000000,6349.000000
8484.000000,8671.000000,6346.000000
8475.000000,8659.000000,6340.000000
8472.000000,8653.000000,6338.000000
8472.000000,8654.000000,6338.000000
8474.000000,8654.000000,6338.000000
8470.000000,8652.000000,6339.000000
8475.000000,8654.000000,6339.000000
8474.000000,8654.000000,6338.000000
8476.000000,8657.000000,6342.000000
8476.000000,8657.000000,6342.000000
8477.000000,8661.000000,6342.000000
8480.000000,8664.000000,6343.000000
8491.000000,8676.000000,6348.000000
8489.000000,8676.000000,6349.000000
8479.000000,8664.000000,6343.000000
8479.000000,8664.000000,6343.000000
8474.000000,8655.000000,6340.000000
8468.000000,8649.000000,6338.000000
8468.000000,8646.000000,6337.000000
8466.000000,8646.000000,6337.000000
8466.000000,8647.000000,6337.000000
8468.000000,8647.000000,6337.000000
8469.000000,8648.000000,6337.000000
8471.000000,8651.000000,6339.000000
8471.000000,8651.000000,6338.000000
8471.000000,8652.000000,6339.000000
8471.000000,8657.000000,6340.000000
8474.000000,8657.000000,6340.000000
8478.000000,8663.000000,6342.000000
8473.000000,8656.000000,6340.000000
8471.000000,8653.000000,6338.000000
8471.000000,8645.000000,6337.000000
8465.000000,8645.000000,6336.000000
8468.000000,8643.000000,6336.000000
8468.000000,8642.000000,6335.000000
8468.000000,8642.000000,6335.000000
8466.000000,8642.000000,6334.000000
8466.000000,8642.000000,6337.000000
8468.000000,8645.000000,6337.000000
8467.000000,8648.000000,6337.000000
8468.000000,8647.000000,6337.000000
8470.000000,8652.000000,6338.000000
8471.000000,8655.000000,6337.000000
8471.000000,8655.000000,6338.000000
8474.000000,8656.000000,6338.000000
8470.000000,8653.000000,6337.000000
8468.000000,8649.000000,6336.000000
8466.000000,8646.000000,6335.000000
8466.000000,8644.000000,6333.000000
8466.000000,8644.000000,6333.000000
8468.000000,8642.000000,6333.000000
8467.000000,8643.000000,6333.000000
8466.000000,8644.000000,6334.000000
8466.000000,8646.000000,6334.000000
8466.000000,8649.000000,6336.000000
8467.000000,8649.000000,6336.000000
8472.000000,8653.000000,6337.000000
8472.000000,8655.000000,6339.000000
8473.000000,8657.000000,6338.000000
8472.000000,8653.000000,6337.000000
8472.000000,8653.000000,6336.000000
8466.000000,8646.000000,6336.000000
8466.000000,8643.000000,6334.000000
8464.000000,8642.000000,6332.000000
8467.000000,8642.000000,6334.000000
8465.000000,8642.000000,6335.000000
8465.000000,8642.000000,6335.000000
8467.000000,8645.000000,6335.000000
8466.000000,8645.000000,6336.000000
8468.000000,8646.000000,6337.000000
8471.000000,8654.000000,6338.000000
8471.000000,8656.000000,6337.000000
8472.000000,8656.000000,6337.000000
8473.000000,8657.000000,6339.000000
8470.000000,8654.000000,6337.000000
8465.000000,8647.000000,6336.000000
8465.000000,8644.000000,6336.000000
8465.000000,8644.000000,6334.000000
8464.000000,8641.000000,6334.000000
8466.000000,8643.000000,6333.000000
8467.000000,8645.000000,6335.000000
8467.000000,8646.000000,6336.000000
8467.000000,8653.000000,6338.000000
8472.000000,8653.000000,6337.000000
8473.000000,8656.000000,6337.000000
8475.000000,8657.000000,6339.000000
8476.000000,8664.000000,6341.000000
8475.000000,8659.000000,6339.000000
8475.000000,8659.000000,6338.000000
8471.000000,8652.000000,6338.000000
8469.000000,8648.000000,6336.000000
8467.000000,8646.000000,6334.000000
8466.000000,8645.000000,6334.000000
8467.000000,8646.000000,6334.000000
8467.000000,8646.000000,6334.000000
8468.000000,8649.000000,6336.000000
8472.000000,8653.000000,6337.000000
8476.000000,8656.000000,6336.000000
8474.000000,8657.000000,6337.000000
8474.000000,8666.000000,6340.000000
8480.000000,8666.000000,6340.000000
8483.000000,8670.000000,6341.000000
8479.000000,8666.000000,6340.000000
8474.000000,8658.000000,6337.000000
8472.000000,8654.000000,6337.000000
8472.000000,8649.000000,6335.000000
8470.000000,8649.000000,6335.000000
8469.000000,8650.000000,6336.000000
8470.000000,8649.000000,6336.000000
8470.000000,8651.000000,6336.000000
8473.000000,8655.000000,6337.000000
8473.000000,8655.000000,6337.000000
8474.000000,8658.000000,6337.000000
8479.000000,8665.000000,6340.000000
8487.000000,8673.000000,6342.000000
8487.000000,8675.000000,6343.000000
8482.000000,8670.000000,6342.000000
8482.000000,8670.000000,6342.000000
8477.000000,8661.000000,6339.000000
8473.000000,8655.000000,6337.000000
8470.000000,8653.000000,6335.000000
8468.000000,8651.000000,6335.000000
8468.000000,8657.000000,6335.000000
8473.000000,8657.000000,6335.000000
8473.000000,8655.000000,6336.000000
8473.000000,8657.000000,6335.000000
8478.000000,8664.000000,6338.000000
8482.000000,8669.000000,6340.000000
8482.000000,8669.000000,6341.000000
8485.000000,8673.000000,6341.000000
8485.000000,8674.000000,6343.000000
8481.000000,8667.000000,6339.000000
8474.000000,8658.000000,6337.000000
8474.000000,8654.000000,6336.000000
8473.000000,8654.000000,6336.000000
8472.000000,8655.000000,6335.000000
8473.000000,8656.000000,6336.000000
8472.000000,8657.000000,6336.000000
8473.000000,8658.000000,6336.000000
8473.000000,8658.000000,6338.000000
8475.000000,8662.000000,6338.000000
8479.000000,8667.000000,6339.000000
8486.000000,8675.000000,6341.000000
8491.000000,8680.000000,6344.000000
8490.000000,8679.000000,6343.000000
8490.000000,8679.000000,6343.000000
8483.000000,8671.000000,6340.000000
8477.000000,8663.000000,6338.000000
8472.000000,8658.000000,6335.000000
8470.000000,8656.000000,6334.000000
8470.000000,8656.000000,6335.000000
8471.000000,8656.000000,6335.000000
8474.000000,8658.000000,6336.000000
8474.000000,8661.000000,6338.000000
8478.000000,8669.000000,6339.000000
8484.000000,8674.000000,6340.000000
8484.000000,8674.000000,6343.000000
8487.000000,8676.000000,6343.000000
8492.000000,8683.000000,6344.000000
8491.000000,8681.000000,6343.000000
8488.000000,8676.000000,6342.000000
8482.000000,8669.000000,6340.000000
8482.000000,8669.000000,6339.000000
8477.000000,8665.000000,6339.000000
8475.000000,8662.000000,6337.000000
8475.000000,8661.000000,6336.000000
8480.000000,8667.000000,6339.000000
8483.000000,8672.000000,6340.000000
8483.000000,8672.000000,6340.000000
8491.000000,8681.000000,6343.000000
8495.000000,8685.000000,6345.000000
8496.000000,8687.000000,6346.000000
8496.000000,8687.000000,6345.000000
8496.000000,8684.000000,6344.000000
8494.000000,8684.000000,6344.000000
8488.000000,8679.000000,6342.000000
8483.000000,8673.000000,6340.000000
8480.000000,8669.000000,6338.000000
8480.000000,8669.000000,6339.000000
8480.000000,8669.000000,6341.000000
8482.000000,8669.000000,6341.000000
8485.000000,8672.000000,6340.000000
8489.000000,8679.000000,6341.000000
8492.000000,8683.000000,6344.000000
8492.000000,8685.000000,6345.000000
8494.000000,8685.000000,6345.000000
8494.000000,8686.000000,6344.000000
8494.000000,8685.000000,6345.000000
8491.000000,8683.000000,6344.000000
8485.000000,8674.000000,6342.000000
8485.000000,8674.000000,6340.000000
8481.000000,8669.000000,6340.000000
8481.000000,8670.000000,6338.000000
8484.000000,8674.000000,6341.000000
8487.000000,8676.000000,6341.000000
8491.000000,8680.000000,6342.000000
8491.000000,8680.000000,6342.000000
8491.000000,8681.000000,6343.000000
8495.000000,8687.000000,6345.000000
8493.000000,8685.000000,6344.000000
8491.000000,8682.000000,6341.000000
8491.000000,8673.000000,6341.000000
8483.000000,8673.000000,6341.000000
8475.000000,8664.000000,6338.000000
8475.000000,8663.000000,6337.000000
8475.000000,8664.000000,6337.000000
8481.000000,8671.000000,6340.000000
8481.000000,8671.000000,6341.000000
8486.000000,8673.000000,6341.000000
8486.000000,8675.000000,6343.000000
8489.000000,8678.000000,6343.000000
8492.000000,8682.000000,6344.000000
8490.000000,8679.000000,6343.000000
8490.000000,8679.000000,6343.000000
8485.000000,8675.000000,6340.000000
8475.000000,8663.000000,6336.000000
8473.000000,8659.000000,6335.000000
8474.000000,8659.000000,6336.000000
8474.000000,8657.000000,6335.000000
8470.000000,8657.000000,6335.000000
8473.000000,8661.000000,6336.000000
8474.000000,8662.000000,6337.000000
8479.000000,8668.000000,6338.000000
8487.000000,8676.000000,6341.000000
8487.000000,8680.000000,6343.000000
8491.000000,8680.000000,6343.000000
8482.000000,8672.000000,6340.000000
8477.000000,8661.000000,6337.000000
8474.000000,8657.000000,6335.000000
8474.000000,8654.000000,6335.000000
8472.000000,8654.000000,6335.000000
8471.000000,8655.000000,6335.000000
8471.000000,8655.000000,6334.000000
8474.000000,8658.000000,6335.000000
8476.000000,8660.000000,6336.000000
8476.000000,8660.000000,6336.000000
8474.000000,8660.000000,6336.000000
8481.000000,8669.000000,6338.000000
8479.000000,8668.000000,6339.000000
8477.000000,8662.000000,6336.000000
8473.000000,8654.000000,6335.000000
8473.000000,8654.000000,6333.000000
8465.000000,8648.000000,6333.000000
8466.000000,8649.000000,6332.000000
8466.000000,8648.000000,6333.000000
8470.000000,8652.000000,6335.000000
8467.000000,8651.000000,6333.000000
8467.000000,8651.000000,6333.000000
8468.000000,8654.000000,6334.000000
8472.000000,8656.000000,6335.000000
8474.000000,8660.000000,6334.000000
8474.000000,8662.000000,6335.000000
8474.000000,8656.000000,6335.000000
8472.000000,8656.000000,6335.000000
8468.000000,8650.000000,6333.000000
8465.000000,8644.000000,6331.000000
8464.000000,8643.000000,6330.000000
8466.000000,8643.000000,6330.000000
8466.000000,8643.000000,6329.000000
8467.000000,8644.000000,6329.000000
8464.000000,8644.000000,6330.000000
8465.000000,8646.000000,6331.000000
8465.000000,8648.000000,6332.000000
8466.000000,8649.000000,6332.000000
8466.000000,8649.000000,6332.000000
8466.000000,8648.000000,6332.000000
8464.000000,8644.000000,6329.000000
8466.000000,8641.000000,6328.000000
8467.000000,8640.000000,6325.000000
8467.000000,8640.000000,6325.000000
8467.000000,8640.000000,6325.000000
8466.000000,8640.000000,6324.000000
8467.000000,8640.000000,6325.000000
8468.000000,8641.000000,6326.000000
8466.000000,8641.000000,6328.000000
8466.000000,8641.000000,6328.000000
8466.000000,8643.000000,6328.000000
8465.000000,8642.000000,6327.000000
8465.000000,8640.000000,6326.000000
8465.000000,8640.000000,6323.000000
8465.000000,8633.000000,6319.000000
8462.000000,8633.000000,6315.000000
8457.000000,8626.000000,6315.000000
8458.000000,8625.000000,6316.000000
8459.000000,8626.000000,6316.000000
8461.000000,8630.000000,6316.000000
8461.000000,8630.000000,6319.000000
8464.000000,8635.000000,6319.000000
8465.000000,8637.000000,6321.000000
8467.000000,8638.000000,6322.000000
8467.000000,8637.000000,6321.000000
8462.000000,8633.000000,6320.000000
8462.000000,8633.000000,6320.000000
8454.000000,8620.000000,6315.000000
8447.000000,8612.000000,6313.000000
8446.000000,8610.000000,6309.000000
8447.000000,8613.000000,6311.000000
8447.000000,8616.000000,6312.000000
8451.000000,8616.000000,6312.000000
8453.000000,8618.000000,6316.000000
8456.000000,8625.000000,6316.000000
8459.000000,8630.000000,6317.000000
8461.000000,8634.000000,6318.000000
8461.000000,8631.000000,6317.000000
8460.000000,8631.000000,6317.000000
8450.000000,8619.000000,6312.000000
8446.000000,8612.000000,6311.000000
8444.000000,8610.000000,6309.000000
8444.000000,8607.000000,6310.000000
8444.000000,8607.000000,6312.000000
8449.000000,8614.000000,6312.000000
8451.000000,8617.000000,6313.000000
8452.000000,8620.000000,6313.000000
8459.000000,8630.000000,6317.000000
8461.000000,8632.000000,6318.000000
8461.000000,8632.000000,6318.000000
8456.000000,8628.000000,6315.000000
8451.000000,8621.000000,6313.000000
8444.000000,8611.000000,6310.000000
8445.000000,8611.000000,6309.000000
8445.000000,8610.000000,6309.000000
8444.000000,8610.000000,6309.000000
8444.000000,8611.000000,6309.000000
8449.000000,8617.000000,6311.000000
8454.000000,8624.000000,6313.000000
8458.000000,8630.000000,6315.000000
8458.000000,8630.000000,6318.000000
8462.000000,8635.000000,6318.000000
8460.000000,8633.000000,6316.000000
8455.000000,8626.000000,6312.000000
8449.000000,8618.000000,6310.000000
8449.000000,8615.000000,6310.000000
8449.000000,8615.000000,6310.000000
8447.000000,8616.000000,6309.000000
8452.000000,8620.000000,6313.000000
8458.000000,8628.000000,6315.000000
8459.000000,8631.000000,6316.000000
8459.000000,8631.000000,6316.000000
8461.000000,8635.000000,6316.000000
8462.000000,8637.000000,6318.000000
8462.000000,8635.000000,6319.000000
8457.000000,8628.000000,6315.000000
8453.000000,8623.000000,6313.000000
8453.000000,8623.000000,6313.000000
8446.000000,8615.000000,6309.000000
8454.000000,8621.000000,6312.000000
8451.000000,8621.000000,6313.000000
8455.000000,8627.000000,6314.000000
8455.000000,8632.000000,6317.000000
8460.000000,8632.000000,6317.000000
8462.000000,8637.000000,6318.000000
8464.000000,8639.000000,6320.000000
8463.000000,8639.000000,6318.000000
8461.000000,8632.000000,6317.000000
8461.000000,8632.000000,6314.000000
8453.000000,8623.000000,6314.000000
8450.000000,8619.000000,6312.000000
8450.000000,8618.000000,6313.000000
8453.000000,8624.000000,6312.000000
8454.000000,8625.000000,6314.000000
8454.000000,8625.000000,6314.000000
8458.000000,8631.000000,6314.000000
8460.000000,8630.000000,6315.000000
8464.000000,8638.000000,6317.000000
8461.000000,8631.000000,6316.000000
8455.000000,8625.000000,6313.000000
8455.000000,8625.000000,6313.000000
8446.000000,8614.000000,6309.000000
8445.000000,8608.000000,6309.000000
8444.000000,8609.000000,6308.000000
8445.000000,8614.000000,6309.000000
8445.000000,8614.000000,6310.000000
8445.000000,8614.000000,6310.000000
8450.000000,8620.000000,6313.000000
8453.000000,8623.000000,6313.000000
8456.000000,8626.000000,6315.000000
8456.000000,8627.000000,6314.000000
8455.000000,8627.000000,6308.000000
8445.000000,8614.000000,6308.000000
8442.000000,8607.000000,6307.000000
8442.000000,8604.000000,6302.000000
8443.000000,8605.000000,6303.000000
8443.000000,8605.000000,6304.000000
8443.000000,8605.000000,6304.000000
8441.000000,8605.000000,6303.000000
8443.000000,8605.000000,6305.000000
8442.000000,8606.000000,6306.000000
8443.000000,8608.000000,6306.000000
8443.000000,8608.000000,6306.000000
8444.000000,8606.000000,6306.000000
8444.000000,8605.000000,6305.000000
8446.000000,8604.000000,6301.000000
8447.000000,8604.000000,6297.000000
8449.000000,8604.000000,6300.000000
8449.000000,8604.000000,6300.000000
8447.000000,8604.000000,6298.000000
8449.000000,8604.000000,6299.000000
8449.000000,8604.000000,6299.000000
8446.000000,8604.000000,6299.000000
8446.000000,8604.000000,6300.000000
8445.000000,8604.000000,6300.000000
8445.000000,8604.000000,6302.000000
8444.000000,8604.000000,6303.000000
8448.000000,8604.000000,6299.000000
8446.000000,8599.000000,6296.000000
8446.000000,8599.000000,6295.000000
8444.000000,8596.000000,6295.000000
8442.000000,8593.000000,6292.000000
8446.000000,8598.000000,6294.000000
8448.000000,8600.000000,6297.000000
8449.000000,8603.000000,6299.000000
8449.000000,8603.000000,6299.000000
8449.000000,8603.000000,6298.000000
8449.000000,8604.000000,6298.000000
8446.000000,8604.000000,6298.000000
8446.000000,8604.000000,6299.000000
8446.000000,8604.000000,6298.000000
8448.000000,8604.000000,6298.000000
8447.000000,8599.000000,6297.000000
8445.000000,8598.000000,6293.000000
8446.000000,8598.000000,6294.000000
8447.000000,8600.000000,6295.000000
8447.000000,8604.000000,6298.000000
8449.000000,8604.000000,6298.000000
8448.000000,8604.000000,6299.000000
8447.000000,8604.000000,6299.000000
8447.000000,8604.000000,6302.000000
8447.000000,8604.000000,6301.000000
8445.000000,8604.000000,6298.000000
8446.000000,8604.000000,6298.000000
8448.000000,8604.000000,6298.000000
8448.000000,8601.000000,6298.000000
8447.000000,8600.000000,6296.000000
8447.000000,8600.000000,6298.000000
8449.000000,8602.000000,6298.000000
8448.000000,8603.000000,6298.000000
8448.000000,8604.000000,6297.000000
8447.000000,8604.000000,6299.000000
8445.000000,8604.000000,6299.000000
8446.000000,8604.000000,6300.000000
8446.000000,8604.000000,6298.000000
8446.000000,8604.000000,6298.000000
8449.000000,8604.000000,6299.000000
8448.000000,8603.000000,6297.000000
8447.000000,8600.000000,6295.000000
8448.000000,8602.000000,6296.000000
8448.000000,8602.000000,6296.000000
8451.000000,8603.000000,6299.000000
8447.000000,8604.000000,6297.000000
8448.000000,8604.000000,6298.000000
8445.000000,8604.000000,6300.000000
8445.000000,8605.000000,6301.000000
8446.000000,8605.000000,6301.000000
8444.000000,8604.000000,6299.000000
8447.000000,8604.000000,6297.000000
8450.000000,8604.000000,6298.000000
8448.000000,8603.000000,6296.000000
8448.000000,8603.000000,6297.000000
8450.000000,8603.000000,6297.000000
8448.000000,8604.000000,6298.000000
8447.000000,8604.000000,6298.000000
8446.000000,8605.000000,6300.000000
8446.000000,8604.000000,6301.000000
8444.000000,8604.000000,6301.000000
8442.000000,8605.000000,6304.000000
8442.000000,8605.000000,6304.000000
8444.000000,8605.000000,6303.000000
8444.000000,8604.000000,6301.000000
8444.000000,8604.000000,6296.000000
8446.000000,8604.000000,6296.000000
8449.000000,8604.000000,6299.000000
8446.000000,8604.000000,6298.000000
8446.000000,8604.000000,6299.000000
8444.000000,8604.000000,6300.000000
8444.000000,8604.000000,6300.000000
8442.000000,8605.000000,6302.000000
8442.000000,8606.000000,6303.000000
8443.000000,8607.000000,6305.000000
8443.000000,8608.000000,6306.000000
8443.000000,8605.000000,6303.000000
8441.000000,8605.000000,6303.000000
8444.000000,8604.000000,6302.000000
8443.000000,8604.000000,6300.000000
8444.000000,8604.000000,6299.000000
8444.000000,8604.000000,6299.000000
8444.000000,8604.000000,6301.000000
8445.000000,8604.000000,6301.000000
8443.000000,8605.000000,6303.000000
8441.000000,8605.000000,6303.000000
8445.000000,8610.000000,6306.000000
8445.000000,8611.000000,6309.000000
8445.000000,8611.000000,6310.000000
8447.000000,8618.000000,6310.000000
8446.000000,8614.000000,6310.000000
8443.000000,8608.000000,6306.000000
8441.000000,8605.000000,6304.000000
8444.000000,8605.000000,6302.000000
8444.000000,8605.000000,6302.000000
8444.000000,8604.000000,6302.000000
8443.000000,8605.000000,6302.000000
8441.000000,8605.000000,6302.000000
8440.000000,8605.000000,6303.000000
8440.000000,8606.000000,6304.000000
8441.000000,8606.000000,6304.000000
8445.000000,8611.000000,6308.000000
8447.000000,8616.000000,6310.000000
8453.000000,8623.000000,6312.000000
8453.000000,8631.000000,6314.000000
8458.000000,8631.000000,6313.000000
8456.000000,8629.000000,6313.000000
8447.000000,8618.000000,6310.000000
8441.000000,8610.000000,6307.000000
8440.000000,8606.000000,6305.000000
8440.000000,8605.000000,6304.000000
8440.000000,8605.000000,6304.000000
8441.000000,8607.000000,6305.000000
8441.000000,8608.000000,6306.000000
8442.000000,8610.000000,6306.000000
8444.000000,8612.000000,6307.000000
8444.000000,8612.000000,6308.000000
8446.000000,8617.000000,6308.000000
8449.000000,8620.000000,6310.000000
8452.000000,8625.000000,6312.000000
8448.000000,8619.000000,6311.000000
8442.000000,8609.000000,6307.000000
8442.000000,8609.000000,6307.000000
8441.000000,8605.000000,6303.000000
8441.000000,8605.000000,6302.000000
8442.000000,8605.000000,6303.000000
8442.000000,8605.000000,6304.000000
8442.000000,8605.000000,6304.000000
8440.000000,8605.000000,6304.000000
8441.000000,8606.000000,6305.000000
8442.000000,8609.000000,6308.000000
8444.000000,8614.000000,6310.000000
8450.000000,8620.000000,6312.000000
8450.000000,8620.000000,6312.000000
8450.000000,8621.000000,6312.000000
8449.000000,8619.000000,6312.000000
8442.000000,8610.000000,6308.000000
8442.000000,8606.000000,6305.000000
8441.000000,8604.000000,6303.000000
8441.000000,8604.000000,6303.000000
8442.000000,8605.000000,6303.000000
8441.000000,8605.000000,6302.000000
8440.000000,8605.000000,6304.000000
8441.000000,8607.000000,6307.000000
8441.000000,8610.000000,6307.000000
8442.000000,8610.000000,6307.000000
8445.000000,8618.000000,6309.000000
8452.000000,8624.000000,6313.000000
8458.000000,8632.000000,6315.000000
8458.000000,8632.000000,6316.000000
8458.000000,8629.000000,6314.000000
8456.000000,8629.000000,6314.000000
8444.000000,8615.000000,6311.000000
8441.000000,8609.000000,6307.000000
8440.000000,8606.000000,6305.000000
8440.000000,8608.000000,6307.000000
8440.000000,8608.000000,6306.000000
8442.000000,8609.000000,6306.000000
8443.000000,8610.000000,6308.000000
8442.000000,8611.000000,6309.000000
8446.000000,8616.000000,6311.000000
8446.000000,8616.000000,6313.000000
8450.000000,8621.000000,6313.000000
8457.000000,8630.000000,6314.000000
8459.000000,8634.000000,6317.000000
8459.000000,8633.000000,6316.000000
8451.000000,8621.000000,6312.000000
8451.000000,8621.000000,6312.000000
8447.000000,8614.000000,6310.000000
8444.000000,8610.000000,6308.000000
8443.000000,8607.000000,6308.000000
8442.000000,8608.000000,6308.000000
8442.000000,8610.000000,6308.000000
8442.000000,8610.000000,6308.000000
8449.000000,8617.000000,6311.000000
8449.000000,8619.000000,6312.000000
8456.000000,8628.000000,6314.000000
8462.000000,8633.000000,6318.000000
8462.000000,8634.000000,6318.000000
8460.000000,8634.000000,6318.000000
8456.000000,8631.000000,6316.000000
8450.000000,8623.000000,6312.000000
8446.000000,8615.000000,6311.000000
8441.000000,8608.000000,6307.000000
8441.000000,8608.000000,6308.000000
8442.000000,8609.000000,6308.000000
8444.000000,8612.000000,6310.000000
8444.000000,8614.000000,6310.000000
8450.000000,8622.000000,6311.000000
8452.000000,8625.000000,6313.000000
8452.000000,8625.000000,6313.000000
8456.000000,8630.000000,6315.000000
8460.000000,8636.000000,6317.000000
8462.000000,8639.000000,6320.000000
8462.000000,8639.000000,6320.000000
8462.000000,8634.000000,6318.000000
8460.000000,8634.000000,6318.000000
8451.000000,8625.000000,6313.000000
8449.000000,8622.000000,6312.000000
8446.000000,8616.000000,6311.000000
8446.000000,8614.000000,6311.000000
8446.000000,8614.000000,6312.000000
8448.000000,8618.000000,6312.000000
8449.000000,8621.000000,6312.000000
8451.000000,8626.000000,6314.000000
8454.000000,8630.000000,6314.000000
8454.000000,8637.000000,6318.000000
8460.000000,8637.000000,6321.000000
8462.000000,8640.000000,6321.000000
8461.000000,8640.000000,6320.000000
8459.000000,8641.000000,6322.000000
8460.000000,8640.000000,6321.000000
8460.000000,8640.000000,6319.000000
8459.000000,8639.000000,6319.000000
8457.000000,8636.000000,6316.000000
8454.000000,8630.000000,6314.000000
8454.000000,8630.000000,6315.000000
8456.000000,8634.000000,6315.000000
8456.000000,8634.000000,6315.000000
8459.000000,8635.000000,6317.000000
8459.000000,8638.000000,6317.000000
8460.000000,8640.000000,6319.000000
8461.000000,8641.000000,6320.000000
8461.000000,8642.000000,6323.000000
8460.000000,8642.000000,6323.000000
8457.000000,8642.000000,6325.000000
8459.000000,8643.000000,6324.000000
8458.000000,8641.000000,6322.000000
8459.000000,8640.000000,6319.000000
8459.000000,8640.000000,6317.000000
8459.000000,8638.000000,6317.000000
8457.000000,8636.000000,6316.000000
8457.000000,8636.000000,6317.000000
8457.000000,8637.000000,6317.000000
8459.000000,8639.000000,6318.000000
8459.000000,8639.000000,6320.000000
8459.000000,8641.000000,6320.000000
8458.000000,8641.000000,6320.000000
8457.000000,8641.000000,6321.000000
8458.000000,8643.000000,6321.000000
8455.000000,8642.000000,6321.000000
8455.000000,8642.000000,6321.000000
8455.000000,8642.000000,6322.000000
8458.000000,8641.000000,6320.000000
8458.000000,8638.000000,6317.000000
8455.000000,8633.000000,6314.000000
8455.000000,8633.000000,6312.000000
8454.000000,8633.000000,6312.000000
8455.000000,8632.000000,6313.000000
8454.000000,8632.000000,6313.000000
8460.000000,8639.000000,6319.000000
8460.000000,8640.000000,6317.000000
8460.000000,8640.000000,6318.000000
8460.000000,8640.000000,6318.000000
8459.000000,8641.000000,6322.000000
8459.000000,8642.000000,6321.000000
8458.000000,8641.000000,6320.000000
8458.000000,8640.000000,6316.000000
8458.000000,8640.000000,6316.000000
8456.000000,8633.000000,6314.000000
8449.000000,8625.000000,6312.000000
8447.000000,8625.000000,6312.000000
8450.000000,8628.000000,6312.000000
8450.000000,8628.000000,6311.000000
8446.000000,8625.000000,6311.000000
8453.000000,8631.000000,6314.000000
8454.000000,8633.000000,6313.000000
8455.000000,8636.000000,6315.000000
8458.000000,8640.000000,6316.000000
8458.000000,8640.000000,6316.000000
8458.000000,8641.000000,6319.000000
8458.000000,8640.000000,6318.000000
8453.000000,8633.000000,6316.000000
8445.000000,8622.000000,6313.000000
8445.000000,8615.000000,6309.000000
8440.000000,8615.000000,6309.000000
8441.000000,8614.000000,6308.000000
8441.000000,8614.000000,6307.000000
8441.000000,8614.000000,6308.000000
8441.000000,8615.000000,6308.000000
8441.000000,8615.000000,6309.000000
8444.000000,8618.000000,6309.000000
8447.000000,8625.000000,6310.000000
8452.000000,8630.000000,6313.000000
8456.000000,8635.000000,6314.000000
8456.000000,8637.000000,6315.000000
8456.000000,8637.000000,6315.000000
8452.000000,8632.000000,6312.000000
8445.000000,8622.000000,6309.000000
8439.000000,8612.000000,6306.000000
8435.000000,8607.000000,6303.000000
8435.000000,8607.000000,6304.000000
8436.000000,8607.000000,6304.000000
8437.000000,8609.000000,6304.000000
8435.000000,8609.000000,6304.000000
8437.000000,8611.000000,6305.000000
8440.000000,8616.000000,6308.000000
8440.000000,8624.000000,6310.000000
8446.000000,8624.000000,6310.000000
8449.000000,8626.000000,6311.000000
8453.000000,8633.000000,6314.000000
8453.000000,8635.000000,6313.000000
8453.000000,8629.000000,6313.000000
8449.000000,8629.000000,6308.000000
8442.000000,8618.000000,6308.000000
8437.000000,8608.000000,6306.000000
8435.000000,8606.000000,6303.000000
8436.000000,8605.000000,6303.000000
8436.000000,8605.000000,6305.000000
8437.000000,8606.000000,6305.000000
8437.000000,8607.000000,6305.000000
8436.000000,8609.000000,6304.000000
8438.000000,8613.000000,6309.000000
8442.000000,8618.000000,6309.000000
8442.000000,8618.000000,6308.000000
8443.000000,8620.000000,6308.000000
8452.000000,8632.000000,6312.000000
8451.000000,8634.000000,6314.000000
8449.000000,8628.000000,6312.000000
8442.000000,8621.000000,6307.000000
8442.000000,8621.000000,6307.000000
8435.000000,8610.000000,6304.000000
8435.000000,8607.000000,6303.000000
8434.000000,8607.000000,6303.000000
8435.000000,8609.000000,6305.000000
8435.000000,8608.000000,6305.000000
8435.000000,8608.000000,6305.000000
8438.000000,8612.000000,6306.000000
8439.000000,8614.000000,6306.000000
8442.000000,8622.000000,6308.000000
8448.000000,8625.000000,6312.000000
8448.000000,8625.000000,6312.000000
8452.000000,8633.000000,6312.000000
8454.000000,8638.000000,6313.000000
8452.000000,8633.000000,6313.000000
8445.000000,8624.000000,6310.000000
8438.000000,8613.000000,6306.000000
8438.000000,8613.000000,6306.000000
8436.000000,8610.000000,6305.000000
8433.000000,8607.000000,6302.000000
8435.000000,8607.000000,6303.000000
8434.000000,8608.000000,6303.000000
8434.000000,8615.000000,6308.000000
8439.000000,8615.000000,6308.000000
8436.000000,8610.000000,6305.000000
8440.000000,8616.000000,6309.000000
8445.000000,8623.000000,6310.000000
8450.000000,8630.000000,6312.000000
8450.000000,8630.000000,6313.000000
8451.000000,8632.000000,6313.000000
8456.000000,8640.000000,6315.000000
8457.000000,8641.000000,6316.000000
8454.000000,8637.000000,6315.000000
8454.000000,8626.000000,6312.000000
8448.000000,8626.000000,6309.000000
8440.000000,8615.000000,6309.000000
8435.000000,8608.000000,6306.000000
8435.000000,8607.000000,6305.000000
8437.000000,8610.000000,6306.000000
8437.000000,8610.000000,6307.000000
8439.000000,8613.000000,6307.000000
8442.000000,8614.000000,6310.000000
8443.000000,8620.000000,6309.000000
8449.000000,8625.000000,6310.000000
8450.000000,8629.000000,6312.000000
8450.000000,8629.000000,6312.000000
8453.000000,8636.000000,6314.000000
8455.000000,8639.000000,6315.000000
8457.000000,8642.000000,6318.000000
8455.000000,8642.000000,6320.000000
8455.000000,8642.000000,6321.000000
8456.000000,8642.000000,6321.000000
8457.000000,8641.000000,6317.000000
8451.000000,8634.000000,6315.000000
8450.000000,8630.000000,6313.000000
8447.000000,8628.000000,6310.000000
8447.000000,8628.000000,6310.000000
8449.000000,8628.000000,6310.000000
8448.000000,8626.000000,6312.000000
8451.000000,8631.000000,6312.000000
8452.000000,8633.000000,6313.000000
8452.000000,8631.000000,6314.000000
8452.000000,8631.000000,6314.000000
8455.000000,8637.000000,6314.000000
8457.000000,8640.000000,6317.000000
8458.000000,8641.000000,6320.000000
8458.000000,8642.000000,6321.000000
8456.000000,8641.000000,6320.000000
8456.000000,8641.000000,6320.000000
8457.000000,8641.000000,6318.000000
8454.000000,8633.000000,6314.000000
8447.000000,8625.000000,6311.000000
8444.000000,8621.000000,6310.000000
8444.000000,8619.000000,6309.000000
8442.000000,8619.000000,6309.000000
8441.000000,8616.000000,6309.000000
8445.000000,8620.000000,6310.000000
8448.000000,8628.000000,6310.000000
8450.000000,8629.000000,6312.000000
8450.000000,8629.000000,6313.000000
8452.000000,8634.000000,6313.000000
8457.000000,8640.000000,6316.000000
8458.000000,8641.000000,6316.000000
8458.000000,8642.000000,6318.000000
8458.000000,8642.000000,6321.000000
8456.000000,8642.000000,6321.000000
8458.000000,8641.000000,6318.000000
8452.000000,8634.000000,6314.000000
8447.000000,8626.000000,6311.000000
8443.000000,8619.000000,6309.000000
8443.000000,8619.000000,6308.000000
8440.000000,8616.000000,6308.000000
8439.000000,8614.000000,6306.000000
8442.000000,8617.000000,6308.000000
8440.000000,8615.000000,6309.000000
8445.000000,8620.000000,6310.000000
8445.000000,8620.000000,6310.000000
8447.000000,8624.000000,6311.000000
8448.000000,8626.000000,6312.000000
8453.000000,8634.000000,6314.000000
8454.000000,8634.000000,6315.000000
8454.000000,8640.000000,6315.000000
8456.000000,8640.000000,6315.000000
8455.000000,8638.000000,6315.000000
8447.000000,8625.000000,6312.000000
8438.000000,8612.000000,6308.000000
8437.000000,8608.000000,6306.000000
8437.000000,8608.000000,6303.000000
8435.000000,8605.000000,6303.000000
8437.000000,8606.000000,6304.000000
8437.000000,8605.000000,6304.000000
8438.000000,8608.000000,6307.000000
8437.000000,8609.000000,6307.000000
8437.000000,8609.000000,6310.000000
8441.000000,8614.000000,6310.000000
8443.000000,8618.000000,6311.000000
8446.000000,8622.000000,6311.000000
8454.000000,8633.000000,6314.000000
8455.000000,8637.000000,6315.000000
8455.000000,8637.000000,6315.000000
8456.000000,8640.000000,6317.000000
8452.000000,8633.000000,6314.000000
8443.000000,8619.000000,6309.000000
8436.000000,8610.000000,6305.000000
8436.000000,8606.000000,6304.000000
8436.000000,8606.000000,6304.000000
8437.000000,8607.000000,6304.000000
8436.000000,8606.000000,6302.000000
8434.000000,8606.000000,6303.000000
8434.000000,8607.000000,6304.000000
8438.000000,8607.000000,6305.000000
8437.000000,8608.000000,6305.000000
8437.000000,8610.000000,6306.000000
8440.000000,8615.000000,6308.000000
8449.000000,8624.000000,6313.000000
8449.000000,8628.000000,6313.000000
8450.000000,8628.000000,6313.000000
8454.000000,8634.000000,6314.000000
8449.000000,8628.000000,6312.000000
8442.000000,8618.000000,6308.000000
8437.000000,8609.000000,6306.000000
8437.000000,8609.000000,6303.000000
8435.000000,8604.000000,6303.000000
8437.000000,8606.000000,6303.000000
8436.000000,8606.000000,6303.000000
8436.000000,8607.000000,6303.000000
8436.000000,8609.000000,6303.000000
8436.000000,8609.000000,6303.000000
8435.000000,8609.000000,6304.000000
8441.000000,8614.000000,6307.000000
8444.000000,8620.000000,6310.000000
8450.000000,8628.000000,6310.000000
8450.000000,8633.000000,6314.000000
8454.000000,8633.000000,6314.000000
8447.000000,8625.000000,6310.000000
8436.000000,8610.000000,6306.000000
8437.000000,8606.000000,6302.000000
8437.000000,8605.000000,6300.000000
8437.000000,8605.000000,6301.000000
8438.000000,8605.000000,6301.000000
8437.000000,8605.000000,6299.000000
8439.000000,8605.000000,6301.000000
8438.000000,8605.000000,6301.000000
8436.000000,8605.000000,6301.000000
8436.000000,8605.000000,6301.000000
8437.000000,8606.000000,6303.000000
8437.000000,8608.000000,6305.000000
8439.000000,8612.000000,6305.000000
8439.000000,8614.000000,6305.000000
8439.000000,8610.000000,6305.000000
8437.000000,8610.000000,6305.000000
8437.000000,8605.000000,6301.000000
8437.000000,8604.000000,6297.000000
8441.000000,8604.000000,6296.000000
8442.000000,8604.000000,6294.000000
8442.000000,8604.000000,6295.000000
8444.000000,8604.000000,6295.000000
8443.000000,8604.000000,6295.000000
