7918.000000,9042.000000,6948.000000,1.000000,202.907227
7915.000000,9037.000000,6945.000000,1.000000,202.907227
7911.000000,9030.000000,6944.000000,1.000000,202.907227
7911.000000,9031.000000,6944.000000,1.000000,202.907227
7907.000000,9026.000000,6943.000000,0.000000,41.049805
7909.000000,9029.000000,6944.000000,0.000000,41.049805
7909.000000,9029.000000,6945.000000,0.000000,41.049805
7907.000000,9027.000000,6943.000000,0.000000,41.049805
7907.000000,9026.000000,6941.000000,0.000000,41.049805
7906.000000,9026.000000,6946.000000,0.000000,41.049805
7915.000000,9037.000000,6946.000000,0.000000,41.049805
7905.000000,9027.000000,6941.000000,0.000000,41.049805
7914.000000,9040.000000,6946.000000,0.000000,41.049805
7899.000000,9024.000000,6938.000000,0.000000,41.049805
7897.000000,9021.000000,6938.000000,0.000000,41.049805
7893.000000,9014.000000,6937.000000,0.000000,41.049805
7892.000000,9010.000000,6934.000000,0.000000,41.049805
7890.000000,9008.000000,6933.000000,0.000000,41.049805
7890.000000,9005.000000,6932.000000,0.000000,41.049805
7888.000000,9005.000000,6932.000000,0.000000,41.049805
7889.000000,9006.000000,6932.000000,0.000000,41.049805
7889.000000,9005.000000,6931.000000,0.000000,41.049805
7887.000000,9004.000000,6929.000000,0.000000,41.049805
7888.000000,9003.000000,6931.000000,0.000000,41.049805
7887.000000,9006.000000,6930.000000,0.000000,41.049805
7890.000000,9011.000000,6933.000000,0.000000,41.049805
7891.000000,9012.000000,6933.000000,0.000000,41.049805
7891.000000,9013.000000,6934.000000,0.000000,41.049805
7890.000000,9013.000000,6934.000000,0.000000,41.049805
7892.000000,9016.000000,6936.000000,0.000000,41.049805
7891.000000,9012.000000,6933.000000,0.000000,41.049805
7888.000000,9006.000000,6930.000000,0.000000,41.049805
7886.000000,9003.000000,6929.000000,0.000000,41.049805
7883.000000,8999.000000,6927.000000,0.000000,41.049805
7881.000000,8996.000000,6926.000000,0.000000,41.049805
7882.000000,8999.000000,6926.000000,0.000000,41.049805
7882.000000,8995.000000,6925.000000,0.000000,41.049805
7882.000000,8995.000000,6925.000000,0.000000,41.049805
7881.000000,8994.000000,6924.000000,0.000000,41.049805
7880.000000,8997.000000,6926.000000,0.000000,41.049805
7882.000000,9000.000000,6926.000000,0.000000,41.049805
7886.000000,9004.000000,6928.000000,0.000000,41.049805
7887.000000,9003.000000,6928.000000,0.000000,41.049805
7887.000000,9007.000000,6930.000000,0.000000,41.049805
7888.000000,9008.000000,6930.000000,0.000000,41.049805
7888.000000,9003.000000,6928.000000,0.000000,41.049805
7884.000000,9003.000000,6928.000000,0.000000,41.049805
7882.000000,9000.000000,6926.000000,0.000000,41.049805
7881.000000,8995.000000,6925.000000,0.000000,41.049805
7878.000000,8993.000000,6921.000000,0.000000,41.049805
7879.000000,8993.000000,6921.000000,0.000000,41.049805
7879.000000,8995.000000,6923.000000,0.000000,41.049805
7878.000000,8993.000000,6920.000000,0.000000,41.049805
7878.000000,8993.000000,6921.000000,0.000000,41.049805
7878.000000,8993.000000,6923.000000,0.000000,41.049805
7880.000000,8995.000000,6923.000000,0.000000,41.049805
7883.000000,8998.000000,6924.000000,0.000000,41.049805
7884.000000,9001.000000,6925.000000,0.000000,41.049805
7885.000000,9003.000000,6926.000000,0.000000,41.049805
7885.000000,9003.000000,6926.000000,0.000000,41.049805
7885.000000,9007.000000,6927.000000,0.000000,41.049805
7885.000000,9004.000000,6926.000000,0.000000,41.049805
7879.000000,8998.000000,6922.000000,0.000000,41.049805
7879.000000,8998.000000,6920.000000,0.000000,41.049805
7878.000000,8993.000000,6920.000000,0.000000,41.049805
7879.000000,8995.000000,6923.000000,0.000000,41.049805
7877.000000,8995.000000,6923.000000,0.000000,41.049805
7877.000000,8996.000000,6922.000000,0.000000,41.049805
7880.000000,8997.000000,6924.000000,0.000000,41.049805
7879.000000,8994.000000,6922.000000,0.000000,41.049805
7880.000000,8997.000000,6923.000000,0.000000,41.049805
7881.000000,8999.000000,6925.000000,0.000000,41.049805
7881.000000,8999.000000,6925.000000,0.000000,41.049805
7882.000000,9000.000000,6925.000000,0.000000,41.049805
7884.000000,9006.000000,6927.000000,0.000000,41.049805
7887.000000,9009.000000,6929.000000,0.000000,41.049805
7887.000000,9008.000000,6929.000000,0.000000,41.049805
7883.000000,9004.000000,6926.000000,0.000000,41.049805
7883.000000,9000.000000,6924.000000,0.000000,41.049805
7881.000000,9000.000000,6923.000000,0.000000,41.049805
7881.000000,8999.000000,6923.000000,0.000000,41.049805
7882.000000,8999.000000,6923.000000,0.000000,41.049805
7883.000000,9001.000000,6924.000000,0.000000,41.049805
7881.000000,9001.000000,6923.000000,0.000000,41.049805
7882.000000,9001.000000,6924.000000,0.000000,41.049805
7884.000000,9004.000000,6925.000000,0.000000,41.049805
7888.000000,9008.000000,6926.000000,0.000000,41.049805
7889.000000,9011.000000,6928.000000,0.000000,41.049805
7892.000000,9016.000000,6930.000000,0.000000,41.049805
7892.000000,9018.000000,6930.000000,0.000000,41.049805
7892.000000,9018.000000,6930.000000,0.000000,41.049805
7894.000000,9020.000000,6932.000000,0.000000,41.049805
7890.000000,9018.000000,6929.000000,0.000000,41.049805
7889.000000,9012.000000,6927.000000,0.000000,41.049805
7888.000000,9011.000000,6928.000000,0.000000,41.049805
7891.000000,9013.000000,6927.000000,0.000000,41.049805
7888.000000,9011.000000,6926.000000,0.000000,41.049805
7888.000000,9009.000000,6925.000000,0.000000,41.049805
7888.000000,9011.000000,6927.000000,0.000000,41.049805
7890.000000,9011.000000,6928.000000,0.000000,41.049805
7891.000000,9014.000000,6928.000000,0.000000,41.049805
7889.000000,9012.000000,6926.000000,0.000000,41.049805
7889.000000,9014.000000,6928.000000,0.000000,41.049805
7890.000000,9016.000000,6929.000000,0.000000,41.049805
7892.000000,9021.000000,6929.000000,0.000000,41.049805
7895.000000,9023.000000,6931.000000,0.000000,41.049805
7896.000000,9025.000000,6930.000000,0.000000,41.049805
7894.000000,9024.000000,6930.000000,0.000000,41.049805
7894.000000,9024.000000,6930.000000,0.000000,41.049805
7894.000000,9021.000000,6930.000000,0.000000,41.049805
7893.000000,9019.000000,6929.000000,0.000000,41.049805
7890.000000,9016.000000,6927.000000,0.000000,41.049805
7889.000000,9013.000000,6926.000000,0.000000,41.049805
7892.000000,9017.000000,6928.000000,0.000000,41.049805
7890.000000,9014.000000,6928.000000,0.000000,41.049805
7889.000000,9013.000000,6927.000000,0.000000,41.049805
7890.000000,9015.000000,6928.000000,0.000000,41.049805
7890.000000,9019.000000,6928.000000,0.000000,41.049805
7894.000000,9019.000000,6928.000000,0.000000,41.049805
7913.000000,9037.000000,6936.000000,0.000000,41.049805
7905.000000,9031.000000,6934.000000,0.000000,41.049805
7912.000000,9039.000000,6935.000000,0.000000,41.049805
7919.000000,9046.000000,6938.000000,0.000000,41.049805
7920.000000,9048.000000,6938.000000,0.000000,41.049805
7918.000000,9046.000000,6938.000000,1.000000,52.737305
7916.000000,9043.000000,6937.000000,1.000000,52.737305
7915.000000,9039.000000,6937.000000,1.000000,52.737305
7912.000000,9037.000000,6935.000000,1.000000,52.737305
7910.000000,9036.000000,6933.000000,1.000000,52.737305
7894.000000,9022.000000,6927.000000,1.000000,52.737305
7894.000000,9022.000000,6929.000000,1.000000,52.737305
7894.000000,9023.000000,6929.000000,1.000000,52.737305
7896.000000,9023.000000,6929.000000,1.000000,52.737305
7895.000000,9023.000000,6929.000000,1.000000,52.737305
7894.000000,9022.000000,6928.000000,1.000000,52.737305
7894.000000,9023.000000,6929.000000,1.000000,52.737305
7900.000000,9029.000000,6929.000000,1.000000,52.737305
7898.000000,9028.000000,6929.000000,1.000000,52.737305
7898.000000,9028.000000,6928.000000,1.000000,52.737305
7898.000000,9030.000000,6929.000000,1.000000,52.737305
7900.000000,9030.000000,6930.000000,1.000000,52.737305
7897.000000,9025.000000,6930.000000,1.000000,52.737305
7897.000000,9025.000000,6927.000000,1.000000,52.737305
7894.000000,9021.000000,6927.000000,1.000000,52.737305
7893.000000,9019.000000,6927.000000,1.000000,52.737305
7891.000000,9017.000000,6925.000000,1.000000,52.737305
7890.000000,9015.000000,6925.000000,1.000000,52.737305
7889.000000,9016.000000,6925.000000,1.000000,52.737305
7892.000000,9018.000000,6925.000000,1.000000,52.737305
7890.000000,9019.000000,6925.000000,1.000000,52.737305
7890.000000,9019.000000,6925.000000,1.000000,52.737305
7892.000000,9019.000000,6925.000000,1.000000,52.737305
7892.000000,9020.000000,6926.000000,1.000000,52.737305
7895.000000,9024.000000,6927.000000,1.000000,52.737305
7895.000000,9024.000000,6928.000000,1.000000,52.737305
7896.000000,9026.000000,6928.000000,1.000000,52.737305
7895.000000,9027.000000,6928.000000,1.000000,52.737305
7893.000000,9022.000000,6927.000000,1.000000,52.737305
7888.000000,9015.000000,6924.000000,1.000000,52.737305
7888.000000,9012.000000,6923.000000,1.000000,52.737305
7886.000000,9012.000000,6923.000000,1.000000,52.737305
7888.000000,9010.000000,6920.000000,1.000000,52.737305
7887.000000,9009.000000,6921.000000,1.000000,52.737305
7884.000000,9010.000000,6922.000000,1.000000,52.737305
7885.000000,9009.000000,6921.000000,1.000000,52.737305
7886.000000,9010.000000,6923.000000,1.000000,52.737305
7887.000000,9012.000000,6921.000000,1.000000,52.737305
7888.000000,9013.000000,6922.000000,1.000000,52.737305
7888.000000,9014.000000,6923.000000,1.000000,52.737305
7889.000000,9014.000000,6925.000000,1.000000,52.737305
7889.000000,9016.000000,6925.000000,1.000000,52.737305
7890.000000,9018.000000,6924.000000,1.000000,52.737305
7892.000000,9019.000000,6925.000000,1.000000,52.737305
7888.000000,9015.000000,6925.000000,1.000000,52.737305
7883.000000,9008.000000,6920.000000,1.000000,52.737305
7884.000000,9007.000000,6920.000000,1.000000,52.737305
7880.000000,9004.000000,6916.000000,1.000000,52.737305
7880.000000,9004.000000,6917.000000,1.000000,52.737305
7881.000000,9004.000000,6917.000000,1.000000,52.737305
7880.000000,9003.000000,6917.000000,1.000000,52.737305
7882.000000,9005.000000,6917.000000,1.000000,52.737305
7879.000000,9004.000000,6917.000000,1.000000,52.737305
7880.000000,9005.000000,6917.000000,1.000000,52.737305
7881.000000,9006.000000,6919.000000,1.000000,52.737305
7882.000000,9009.000000,6919.000000,1.000000,52.737305
7882.000000,9011.000000,6920.000000,1.000000,52.737305
7885.000000,9011.000000,6919.000000,1.000000,52.737305
7882.000000,9011.000000,6919.000000,1.000000,52.737305
7879.000000,9009.000000,6918.000000,1.000000,52.737305
7879.000000,9006.000000,6916.000000,1.000000,52.737305
7877.000000,9001.000000,6915.000000,1.000000,52.737305
7876.000000,8996.000000,6913.000000,1.000000,52.737305
7874.000000,8993.000000,6911.000000,1.000000,52.737305
7875.000000,8994.000000,6913.000000,1.000000,52.737305
7875.000000,8995.000000,6913.000000,1.000000,52.737305
7874.000000,8995.000000,6913.000000,1.000000,52.737305
7872.000000,8994.000000,6912.000000,1.000000,52.737305
7873.000000,8993.000000,6911.000000,1.000000,52.737305
7875.000000,8995.000000,6913.000000,1.000000,52.737305
7877.000000,8998.000000,6913.000000,1.000000,52.737305
7876.000000,8998.000000,6914.000000,1.000000,52.737305
7878.000000,9001.000000,6913.000000,1.000000,52.737305
7878.000000,9001.000000,6915.000000,1.000000,52.737305
7878.000000,9001.000000,6915.000000,1.000000,52.737305
7876.000000,8998.000000,6913.000000,1.000000,52.737305
7872.000000,8992.000000,6910.000000,1.000000,52.737305
7870.000000,8987.000000,6909.000000,1.000000,52.737305
7870.000000,8987.000000,6909.000000,1.000000,52.737305
7868.000000,8986.000000,6908.000000,1.000000,52.737305
7867.000000,8986.000000,6906.000000,1.000000,52.737305
7867.000000,8986.000000,6906.000000,1.000000,52.737305
7868.000000,8986.000000,6906.000000,1.000000,52.737305
7868.000000,8986.000000,6908.000000,1.000000,52.737305
7869.000000,8987.000000,6907.000000,1.000000,52.737305
7869.000000,8987.000000,6906.000000,1.000000,52.737305
7869.000000,8989.000000,6907.000000,1.000000,52.737305
7871.000000,8990.000000,6908.000000,1.000000,52.737305
7870.000000,8991.000000,6908.000000,1.000000,52.737305
7871.000000,8990.000000,6909.000000,1.000000,52.737305
7871.000000,8986.000000,6906.000000,1.000000,52.737305
7868.000000,8986.000000,6906.000000,1.000000,52.737305
7864.000000,8979.000000,6903.000000,1.000000,52.737305
7862.000000,8978.000000,6903.000000,1.000000,52.737305
7862.000000,8976.000000,6902.000000,1.000000,52.737305
7861.000000,8976.000000,6901.000000,1.000000,52.737305
7860.000000,8975.000000,6900.000000,1.000000,52.737305
7860.000000,8972.000000,6899.000000,1.000000,52.737305
7861.000000,8977.000000,6900.000000,1.000000,52.737305
7861.000000,8977.000000,6901.000000,1.000000,52.737305
7860.000000,8977.000000,6901.000000,1.000000,52.737305
7862.000000,8978.000000,6900.000000,1.000000,52.737305
7864.000000,8977.000000,6900.000000,1.000000,52.737305
7865.000000,8983.000000,6904.000000,1.000000,52.737305
7863.000000,8983.000000,6903.000000,1.000000,52.737305
7866.000000,8986.000000,6905.000000,1.000000,52.737305
7882.000000,8999.000000,6916.000000,1.000000,52.737305
7880.000000,8994.000000,6915.000000,1.000000,52.737305
7880.000000,8990.000000,6911.000000,1.000000,52.737305
7873.000000,8990.000000,6911.000000,1.000000,52.737305
7876.000000,8993.000000,6913.000000,1.000000,52.737305
7878.000000,8993.000000,6912.000000,1.000000,52.737305
7878.000000,8993.000000,6914.000000,1.000000,52.737305
7879.000000,8994.000000,6914.000000,1.000000,52.737305
7883.000000,8995.000000,6914.000000,1.000000,52.737305
7882.000000,8996.000000,6916.000000,0.000000,72.170898
7879.000000,8995.000000,6913.000000,0.000000,72.170898
7864.000000,8979.000000,6900.000000,0.000000,72.170898
7864.000000,8981.000000,6902.000000,0.000000,72.170898
7866.000000,8985.000000,6903.000000,0.000000,72.170898
7866.000000,8982.000000,6903.000000,0.000000,72.170898
7866.000000,8982.000000,6899.000000,0.000000,72.170898
7859.000000,8977.000000,6899.000000,0.000000,72.170898
7860.000000,8977.000000,6897.000000,0.000000,72.170898
7856.000000,8972.000000,6894.000000,0.000000,72.170898
7858.000000,8972.000000,6895.000000,0.000000,72.170898
7856.000000,8973.000000,6895.000000,0.000000,72.170898
7857.000000,8971.000000,6895.000000,0.000000,72.170898
7856.000000,8972.000000,6895.000000,0.000000,72.170898
7857.000000,8973.000000,6895.000000,0.000000,72.170898
7857.000000,8973.000000,6895.000000,0.000000,72.170898
7858.000000,8973.000000,6895.000000,0.000000,72.170898
7860.000000,8975.000000,6897.000000,0.000000,72.170898
7859.000000,8978.000000,6897.000000,0.000000,72.170898
7861.000000,8977.000000,6898.000000,0.000000,72.170898
7859.000000,8978.000000,6899.000000,0.000000,72.170898
7858.000000,8975.000000,6896.000000,0.000000,72.170898
7856.000000,8971.000000,6894.000000,0.000000,72.170898
7853.000000,8969.000000,6892.000000,0.000000,72.170898
7853.000000,8969.000000,6894.000000,0.000000,72.170898
7854.000000,8969.000000,6894.000000,0.000000,72.170898
7853.000000,8969.000000,6892.000000,0.000000,72.170898
7852.000000,8969.000000,6891.000000,0.000000,72.170898
7852.000000,8969.000000,6892.000000,0.000000,72.170898
7853.000000,8970.000000,6892.000000,0.000000,72.170898
7855.000000,8973.000000,6894.000000,0.000000,72.170898
7857.000000,8974.000000,6895.000000,0.000000,72.170898
7859.000000,8975.000000,6894.000000,0.000000,72.170898
7859.000000,8978.000000,6897.000000,0.000000,72.170898
7859.000000,8978.000000,6895.000000,0.000000,72.170898
7861.000000,8978.000000,6895.000000,0.000000,72.170898
7857.000000,8974.000000,6894.000000,0.000000,72.170898
7853.000000,8969.000000,6890.000000,0.000000,72.170898
7853.000000,8970.000000,6890.000000,0.000000,72.170898
7851.000000,8968.000000,6889.000000,0.000000,72.170898
7851.000000,8967.000000,6889.000000,0.000000,72.170898
7852.000000,8969.000000,6890.000000,0.000000,72.170898
7854.000000,8971.000000,6891.000000,0.000000,72.170898
7854.000000,8971.000000,6890.000000,0.000000,72.170898
7854.000000,8971.000000,6890.000000,0.000000,72.170898
7857.000000,8975.000000,6892.000000,0.000000,72.170898
7857.000000,8974.000000,6894.000000,0.000000,72.170898
7858.000000,8977.000000,6893.000000,0.000000,72.170898
7858.000000,8978.000000,6895.000000,0.000000,72.170898
7860.000000,8979.000000,6896.000000,0.000000,72.170898
7859.000000,8979.000000,6896.000000,0.000000,72.170898
7854.000000,8973.000000,6892.000000,0.000000,72.170898
7854.000000,8971.000000,6891.000000,0.000000,72.170898
7854.000000,8971.000000,6891.000000,0.000000,72.170898
7854.000000,8971.000000,6891.000000,0.000000,72.170898
7853.000000,8969.000000,6890.000000,0.000000,72.170898
7853.000000,8969.000000,6890.000000,0.000000,72.170898
7854.000000,8971.000000,6890.000000,0.000000,72.170898
7853.000000,8970.000000,6891.000000,0.000000,72.170898
7854.000000,8971.000000,6892.000000,0.000000,72.170898
7856.000000,8973.000000,6892.000000,0.000000,72.170898
7856.000000,8974.000000,6891.000000,0.000000,72.170898
7856.000000,8974.000000,6891.000000,0.000000,72.170898
7860.000000,8976.000000,6895.000000,0.000000,72.170898
7859.000000,8979.000000,6895.000000,0.000000,72.170898
7860.000000,8980.000000,6895.000000,0.000000,72.170898
7858.000000,8977.000000,6893.000000,0.000000,72.170898
7855.000000,8973.000000,6891.000000,0.000000,72.170898
7852.000000,8970.000000,6890.000000,0.000000,72.170898
7852.000000,8969.000000,6888.000000,0.000000,72.170898
7852.000000,8967.000000,6887.000000,0.000000,72.170898
7851.000000,8967.000000,6889.000000,0.000000,72.170898
7853.000000,8968.000000,6889.000000,0.000000,72.170898
7850.000000,8968.000000,6888.000000,0.000000,72.170898
7852.000000,8969.000000,6891.000000,0.000000,72.170898
7852.000000,8969.000000,6890.000000,0.000000,72.170898
7852.000000,8969.000000,6889.000000,0.000000,72.170898
7854.000000,8973.000000,6891.000000,0.000000,72.170898
7856.000000,8974.000000,6892.000000,0.000000,72.170898
7856.000000,8975.000000,6892.000000,0.000000,72.170898
7856.000000,8975.000000,6894.000000,0.000000,72.170898
7857.000000,8976.000000,6894.000000,0.000000,72.170898
7858.000000,8976.000000,6893.000000,0.000000,72.170898
7853.000000,8971.000000,6890.000000,0.000000,72.170898
7852.000000,8970.000000,6888.000000,0.000000,72.170898
7850.000000,8968.000000,6888.000000,0.000000,72.170898
7848.000000,8966.000000,6885.000000,0.000000,72.170898
7848.000000,8968.000000,6887.000000,0.000000,72.170898
7848.000000,8966.000000,6886.000000,0.000000,72.170898
7847.000000,8966.000000,6885.000000,0.000000,72.170898
7847.000000,8965.000000,6885.000000,0.000000,72.170898
7847.000000,8966.000000,6885.000000,0.000000,72.170898
7847.000000,8967.000000,6887.000000,0.000000,72.170898
7849.000000,8969.000000,6888.000000,0.000000,72.170898
7850.000000,8970.000000,6888.000000,0.000000,72.170898
7852.000000,8972.000000,6889.000000,0.000000,72.170898
7854.000000,8974.000000,6889.000000,0.000000,72.170898
7856.000000,8976.000000,6891.000000,0.000000,72.170898
7856.000000,8974.000000,6889.000000,0.000000,72.170898
7853.000000,8974.000000,6886.000000,0.000000,72.170898
7851.000000,8969.000000,6886.000000,0.000000,72.170898
7847.000000,8967.000000,6883.000000,0.000000,72.170898
7845.000000,8964.000000,6883.000000,0.000000,72.170898
7845.000000,8963.000000,6884.000000,0.000000,72.170898
7846.000000,8964.000000,6882.000000,0.000000,72.170898
7846.000000,8965.000000,6883.000000,0.000000,72.170898
7846.000000,8965.000000,6883.000000,0.000000,72.170898
7852.000000,8970.000000,6889.000000,0.000000,72.170898
7852.000000,8981.000000,6899.000000,0.000000,72.170898
7865.000000,8981.000000,6899.000000,0.000000,72.170898
7864.000000,8981.000000,6899.000000,0.000000,72.170898
7869.000000,8986.000000,6903.000000,0.000000,72.170898
7871.000000,8988.000000,6904.000000,0.000000,72.170898
7873.000000,8991.000000,6905.000000,0.000000,72.170898
7874.000000,8994.000000,6906.000000,0.000000,72.170898
7872.000000,8989.000000,6905.000000,0.000000,72.170898
7869.000000,8987.000000,6903.000000,0.000000,72.170898
7869.000000,8978.000000,6897.000000,0.000000,72.170898
7862.000000,8978.000000,6897.000000,0.000000,72.170898
7862.000000,8977.000000,6897.000000,0.000000,72.170898
7867.000000,8983.000000,6902.000000,1.000000,32.584961
7857.000000,8974.000000,6892.000000,1.000000,32.584961
7857.000000,8983.000000,6901.000000,1.000000,32.584961
7868.000000,8983.000000,6901.000000,1.000000,32.584961
7871.000000,8986.000000,6903.000000,1.000000,32.584961
7869.000000,8986.000000,6902.000000,1.000000,32.584961
7861.000000,8980.000000,6895.000000,1.000000,32.584961
7855.000000,8973.000000,6891.000000,1.000000,32.584961
7855.000000,8975.000000,6892.000000,1.000000,32.584961
7855.000000,8974.000000,6890.000000,1.000000,32.584961
7853.000000,8972.000000,6889.000000,1.000000,32.584961
7853.000000,8970.000000,6887.000000,1.000000,32.584961
7851.000000,8970.000000,6884.000000,1.000000,32.584961
7849.000000,8967.000000,6884.000000,1.000000,32.584961
7849.000000,8968.000000,6885.000000,1.000000,32.584961
7849.000000,8966.000000,6884.000000,1.000000,32.584961
7849.000000,8968.000000,6885.000000,1.000000,32.584961
7849.000000,8967.000000,6884.000000,1.000000,32.584961
7848.000000,8967.000000,6884.000000,1.000000,32.584961
7850.000000,8969.000000,6886.000000,1.000000,32.584961
7851.000000,8970.000000,6884.000000,1.000000,32.584961
7851.000000,8972.000000,6887.000000,1.000000,32.584961
7853.000000,8972.000000,6887.000000,1.000000,32.584961
7852.000000,8973.000000,6888.000000,1.000000,32.584961
7855.000000,8975.000000,6889.000000,1.000000,32.584961
7857.000000,8978.000000,6890.000000,1.000000,32.584961
7855.000000,8976.000000,6890.000000,1.000000,32.584961
7853.000000,8973.000000,6887.000000,1.000000,32.584961
7851.000000,8971.000000,6885.000000,1.000000,32.584961
7850.000000,8969.000000,6886.000000,1.000000,32.584961
7850.000000,8967.000000,6885.000000,1.000000,32.584961
7849.000000,8967.000000,6885.000000,1.000000,32.584961
7850.000000,8969.000000,6883.000000,1.000000,32.584961
7849.000000,8968.000000,6884.000000,1.000000,32.584961
7848.000000,8967.000000,6883.000000,1.000000,32.584961
7848.000000,8968.000000,6883.000000,1.000000,32.584961
7848.000000,8970.000000,6884.000000,1.000000,32.584961
7850.000000,8971.000000,6885.000000,1.000000,32.584961
7851.000000,8973.000000,6886.000000,1.000000,32.584961
7854.000000,8974.000000,6887.000000,1.000000,32.584961
7854.000000,8974.000000,6888.000000,1.000000,32.584961
7855.000000,8978.000000,6888.000000,1.000000,32.584961
7855.000000,8978.000000,6890.000000,1.000000,32.584961
7856.000000,8980.000000,6890.000000,1.000000,32.584961
7855.000000,8978.000000,6889.000000,1.000000,32.584961
7852.000000,8974.000000,6886.000000,1.000000,32.584961
7849.000000,8971.000000,6883.000000,1.000000,32.584961
7848.000000,8970.000000,6883.000000,1.000000,32.584961
7846.000000,8968.000000,6882.000000,1.000000,32.584961
7846.000000,8970.000000,6883.000000,1.000000,32.584961
7849.000000,8970.000000,6883.000000,1.000000,32.584961
7848.000000,8969.000000,6883.000000,1.000000,32.584961
7849.000000,8969.000000,6883.000000,1.000000,32.584961
7848.000000,8971.000000,6884.000000,1.000000,32.584961
7849.000000,8974.000000,6885.000000,1.000000,32.584961
7850.000000,8974.000000,6886.000000,1.000000,32.584961
7853.000000,8976.000000,6887.000000,1.000000,32.584961
7854.000000,8978.000000,6888.000000,1.000000,32.584961
7854.000000,8980.000000,6890.000000,1.000000,32.584961
7855.000000,8980.000000,6889.000000,1.000000,32.584961
7855.000000,8981.000000,6889.000000,1.000000,32.584961
7854.000000,8980.000000,6889.000000,1.000000,32.584961
7852.000000,8975.000000,6886.000000,1.000000,32.584961
7849.000000,8973.000000,6886.000000,1.000000,32.584961
7845.000000,8971.000000,6882.000000,1.000000,32.584961
7847.000000,8973.000000,6885.000000,1.000000,32.584961
7847.000000,8973.000000,6885.000000,1.000000,32.584961
7847.000000,8971.000000,6884.000000,1.000000,32.584961
7847.000000,8971.000000,6884.000000,1.000000,32.584961
7849.000000,8973.000000,6884.000000,1.000000,32.584961
7846.000000,8973.000000,6883.000000,1.000000,32.584961
7848.000000,8973.000000,6884.000000,1.000000,32.584961
7847.000000,8973.000000,6885.000000,1.000000,32.584961
7848.000000,8974.000000,6886.000000,1.000000,32.584961
7850.000000,8976.000000,6885.000000,1.000000,32.584961
7851.000000,8978.000000,6886.000000,1.000000,32.584961
7851.000000,8977.000000,6887.000000,1.000000,32.584961
7851.000000,8975.000000,6886.000000,1.000000,32.584961
7849.000000,8975.000000,6884.000000,1.000000,32.584961
7846.000000,8972.000000,6884.000000,1.000000,32.584961
7843.000000,8970.000000,6882.000000,1.000000,32.584961
7843.000000,8968.000000,6881.000000,1.000000,32.584961
7842.000000,8968.000000,6880.000000,1.000000,32.584961
7842.000000,8968.000000,6881.000000,1.000000,32.584961
7840.000000,8967.000000,6880.000000,1.000000,32.584961
7841.000000,8967.000000,6881.000000,1.000000,32.584961
7841.000000,8966.000000,6880.000000,1.000000,32.584961
7841.000000,8966.000000,6880.000000,1.000000,32.584961
7840.000000,8968.000000,6880.000000,1.000000,32.584961
7843.000000,8970.000000,6881.000000,1.000000,32.584961
7843.000000,8970.000000,6882.000000,1.000000,32.584961
7845.000000,8973.000000,6884.000000,1.000000,32.584961
7845.000000,8972.000000,6883.000000,1.000000,32.584961
7843.000000,8969.000000,6881.000000,1.000000,32.584961
7839.000000,8967.000000,6879.000000,1.000000,32.584961
7837.000000,8964.000000,6879.000000,1.000000,32.584961
7837.000000,8964.000000,6877.000000,1.000000,32.584961
7835.000000,8963.000000,6877.000000,1.000000,32.584961
7834.000000,8962.000000,6876.000000,1.000000,32.584961
7833.000000,8962.000000,6875.000000,1.000000,32.584961
7831.000000,8957.000000,6873.000000,1.000000,32.584961
7832.000000,8957.000000,6874.000000,1.000000,32.584961
7833.000000,8960.000000,6874.000000,1.000000,32.584961
7831.000000,8958.000000,6875.000000,1.000000,32.584961
7832.000000,8957.000000,6875.000000,1.000000,32.584961
7832.000000,8961.000000,6876.000000,1.000000,32.584961
7833.000000,8961.000000,6875.000000,1.000000,32.584961
7832.000000,8961.000000,6875.000000,1.000000,32.584961
7835.000000,8962.000000,6877.000000,1.000000,32.584961
7832.000000,8960.000000,6875.000000,1.000000,32.584961
7827.000000,8953.000000,6870.000000,1.000000,32.584961
7829.000000,8953.000000,6871.000000,1.000000,32.584961
7842.000000,8963.000000,6883.000000,1.000000,32.584961
7842.000000,8963.000000,6883.000000,1.000000,32.584961
7842.000000,8958.000000,6880.000000,1.000000,32.584961
7838.000000,8958.000000,6880.000000,1.000000,32.584961
7839.000000,8961.000000,6882.000000,1.000000,32.584961
7839.000000,8959.000000,6880.000000,1.000000,32.584961
7840.000000,8960.000000,6882.000000,1.000000,32.584961
7841.000000,8960.000000,6884.000000,1.000000,32.584961
7841.000000,8961.000000,6882.000000,0.000000,31.786133
7839.000000,8960.000000,6881.000000,0.000000,31.786133
7832.000000,8952.000000,6874.000000,0.000000,31.786133
7822.000000,8944.000000,6865.000000,0.000000,31.786133
7824.000000,8944.000000,6864.000000,0.000000,31.786133
7820.000000,8943.000000,6863.000000,0.000000,31.786133
7815.000000,8934.000000,6857.000000,0.000000,31.786133
7814.000000,8931.000000,6856.000000,0.000000,31.786133
7814.000000,8931.000000,6853.000000,0.000000,31.786133
7810.000000,8926.000000,6853.000000,0.000000,31.786133
7812.000000,8924.000000,6853.000000,0.000000,31.786133
7810.000000,8925.000000,6852.000000,0.000000,31.786133
7811.000000,8920.000000,6850.000000,0.000000,31.786133
7811.000000,8921.000000,6850.000000,0.000000,31.786133
7810.000000,8921.000000,6851.000000,0.000000,31.786133
7810.000000,8919.000000,6851.000000,0.000000,31.786133
7810.000000,8924.000000,6852.000000,0.000000,31.786133
7810.000000,8924.000000,6852.000000,0.000000,31.786133
7810.000000,8924.000000,6852.000000,0.000000,31.786133
7812.000000,8925.000000,6851.000000,0.000000,31.786133
7813.000000,8927.000000,6853.000000,0.000000,31.786133
7812.000000,8928.000000,6853.000000,0.000000,31.786133
7812.000000,8928.000000,6853.000000,0.000000,31.786133
7810.000000,8919.000000,6851.000000,0.000000,31.786133
7811.000000,8914.000000,6850.000000,0.000000,31.786133
7811.000000,8912.000000,6851.000000,0.000000,31.786133
7809.000000,8912.000000,6853.000000,0.000000,31.786133
7805.000000,8913.000000,6853.000000,0.000000,31.786133
7809.000000,8911.000000,6851.000000,0.000000,31.786133
7804.000000,8911.000000,6853.000000,0.000000,31.786133
7806.000000,8910.000000,6853.000000,0.000000,31.786133
7807.000000,8910.000000,6852.000000,0.000000,31.786133
7804.000000,8912.000000,6853.000000,0.000000,31.786133
7809.000000,8915.000000,6851.000000,0.000000,31.786133
7810.000000,8917.000000,6851.000000,0.000000,31.786133
7810.000000,8917.000000,6852.000000,0.000000,31.786133
7809.000000,8917.000000,6852.000000,0.000000,31.786133
7810.000000,8919.000000,6851.000000,0.000000,31.786133
7810.000000,8919.000000,6851.000000,0.000000,31.786133
7808.000000,8917.000000,6852.000000,0.000000,31.786133
7805.000000,8911.000000,6853.000000,0.000000,31.786133
7802.000000,8908.000000,6854.000000,0.000000,31.786133
7803.000000,8906.000000,6854.000000,0.000000,31.786133
7803.000000,8906.000000,6854.000000,0.000000,31.786133
7802.000000,8905.000000,6854.000000,0.000000,31.786133
7803.000000,8905.000000,6854.000000,0.000000,31.786133
7802.000000,8905.000000,6854.000000,0.000000,31.786133
7804.000000,8906.000000,6854.000000,0.000000,31.786133
7802.000000,8905.000000,6854.000000,0.000000,31.786133
7803.000000,8909.000000,6854.000000,0.000000,31.786133
7804.000000,8912.000000,6854.000000,0.000000,31.786133
7804.000000,8911.000000,6852.000000,0.000000,31.786133
7808.000000,8911.000000,6851.000000,0.000000,31.786133
7810.000000,8913.000000,6851.000000,0.000000,31.786133
7809.000000,8915.000000,6852.000000,0.000000,31.786133
7807.000000,8914.000000,6852.000000,0.000000,31.786133
7807.000000,8908.000000,6852.000000,0.000000,31.786133
7803.000000,8904.000000,6854.000000,0.000000,31.786133
7804.000000,8902.000000,6854.000000,0.000000,31.786133
7804.000000,8902.000000,6853.000000,0.000000,31.786133
7802.000000,8903.000000,6854.000000,0.000000,31.786133
7802.000000,8902.000000,6854.000000,0.000000,31.786133
7803.000000,8902.000000,6854.000000,0.000000,31.786133
7802.000000,8903.000000,6855.000000,0.000000,31.786133
7802.000000,8904.000000,6855.000000,0.000000,31.786133
7802.000000,8905.000000,6854.000000,0.000000,31.786133
7804.000000,8906.000000,6854.000000,0.000000,31.786133
7805.000000,8911.000000,6853.000000,0.000000,31.786133
7806.000000,8912.000000,6853.000000,0.000000,31.786133
7809.000000,8914.000000,6851.000000,0.000000,31.786133
7809.000000,8918.000000,6852.000000,0.000000,31.786133
7806.000000,8918.000000,6852.000000,0.000000,31.786133
7804.000000,8914.000000,6853.000000,0.000000,31.786133
7804.000000,8910.000000,6853.000000,0.000000,31.786133
7804.000000,8904.000000,6854.000000,0.000000,31.786133
7803.000000,8902.000000,6854.000000,0.000000,31.786133
7803.000000,8904.000000,6854.000000,0.000000,31.786133
7802.000000,8902.000000,6854.000000,0.000000,31.786133
7803.000000,8905.000000,6854.000000,0.000000,31.786133
7803.000000,8905.000000,6854.000000,0.000000,31.786133
7803.000000,8904.000000,6854.000000,0.000000,31.786133
7803.000000,8904.000000,6854.000000,0.000000,31.786133
7804.000000,8907.000000,6853.000000,0.000000,31.786133
7803.000000,8908.000000,6854.000000,0.000000,31.786133
7807.000000,8911.000000,6851.000000,0.000000,31.786133
7806.000000,8914.000000,6852.000000,0.000000,31.786133
7807.000000,8913.000000,6852.000000,0.000000,31.786133
7807.000000,8915.000000,6853.000000,0.000000,31.786133
7806.000000,8915.000000,6853.000000,0.000000,31.786133
7807.000000,8912.000000,6852.000000,0.000000,31.786133
7804.000000,8907.000000,6853.000000,0.000000,31.786133
7802.000000,8903.000000,6854.000000,0.000000,31.786133
7803.000000,8898.000000,6854.000000,0.000000,31.786133
7802.000000,8900.000000,6853.000000,0.000000,31.786133
7804.000000,8900.000000,6853.000000,0.000000,31.786133
7803.000000,8898.000000,6854.000000,0.000000,31.786133
7803.000000,8901.000000,6855.000000,0.000000,31.786133
7803.000000,8901.000000,6854.000000,0.000000,31.786133
7803.000000,8901.000000,6854.000000,0.000000,31.786133
7803.000000,8903.000000,6854.000000,0.000000,31.786133
7803.000000,8904.000000,6854.000000,0.000000,31.786133
7806.000000,8908.000000,6852.000000,0.000000,31.786133
7804.000000,8912.000000,6853.000000,0.000000,31.786133
7812.000000,8912.000000,6849.000000,0.000000,31.786133
7810.000000,8913.000000,6851.000000,0.000000,31.786133
7805.000000,8910.000000,6853.000000,0.000000,31.786133
7805.000000,8905.000000,6853.000000,0.000000,31.786133
7804.000000,8905.000000,6853.000000,0.000000,31.786133
7803.000000,8901.000000,6853.000000,0.000000,31.786133
7810.000000,8914.000000,6851.000000,0.000000,31.786133
7812.000000,8918.000000,6850.000000,0.000000,31.786133
7810.000000,8916.000000,6852.000000,0.000000,31.786133
7813.000000,8917.000000,6851.000000,0.000000,31.786133
7811.000000,8920.000000,6851.000000,0.000000,31.786133
7812.000000,8923.000000,6852.000000,0.000000,31.786133
7812.000000,8924.000000,6852.000000,0.000000,31.786133
7812.000000,8924.000000,6851.000000,0.000000,31.786133
7814.000000,8924.000000,6851.000000,0.000000,31.786133
7814.000000,8929.000000,6854.000000,0.000000,31.786133
7815.000000,8927.000000,6854.000000,0.000000,31.786133
7817.000000,8931.000000,6856.000000,1.000000,61.878906
7817.000000,8931.000000,6855.000000,1.000000,61.878906
7809.000000,8922.000000,6855.000000,1.000000,61.878906
7813.000000,8925.000000,6853.000000,1.000000,61.878906
7812.000000,8922.000000,6850.000000,1.000000,61.878906
7812.000000,8920.000000,6850.000000,1.000000,61.878906
7806.000000,8909.000000,6852.000000,1.000000,61.878906
7803.000000,8902.000000,6853.000000,1.000000,61.878906
7803.000000,8901.000000,6853.000000,1.000000,61.878906
7803.000000,8901.000000,6854.000000,1.000000,61.878906
7803.000000,8902.000000,6854.000000,1.000000,61.878906
7804.000000,8904.000000,6853.000000,1.000000,61.878906
7803.000000,8904.000000,6853.000000,1.000000,61.878906
7805.000000,8907.000000,6853.000000,1.000000,61.878906
7804.000000,8909.000000,6854.000000,1.000000,61.878906
7805.000000,8910.000000,6853.000000,1.000000,61.878906
7803.000000,8913.000000,6854.000000,1.000000,61.878906
7804.000000,8909.000000,6854.000000,1.000000,61.878906
7803.000000,8906.000000,6854.000000,1.000000,61.878906
7803.000000,8906.000000,6853.000000,1.000000,61.878906
7802.000000,8899.000000,6853.000000,1.000000,61.878906
7803.000000,8898.000000,6853.000000,1.000000,61.878906
7803.000000,8898.000000,6853.000000,1.000000,61.878906
7803.000000,8898.000000,6853.000000,1.000000,61.878906
7803.000000,8900.000000,6853.000000,1.000000,61.878906
7804.000000,8898.000000,6853.000000,1.000000,61.878906
7804.000000,8901.000000,6854.000000,1.000000,61.878906
7803.000000,8901.000000,6852.000000,1.000000,61.878906
7804.000000,8902.000000,6852.000000,1.000000,61.878906
7804.000000,8904.000000,6853.000000,1.000000,61.878906
7804.000000,8906.000000,6853.000000,1.000000,61.878906
7806.000000,8909.000000,6852.000000,1.000000,61.878906
7805.000000,8912.000000,6852.000000,1.000000,61.878906
7805.000000,8909.000000,6853.000000,1.000000,61.878906
7803.000000,8903.000000,6854.000000,1.000000,61.878906
7803.000000,8896.000000,6854.000000,1.000000,61.878906
7803.000000,8896.000000,6853.000000,1.000000,61.878906
7803.000000,8896.000000,6853.000000,1.000000,61.878906
7803.000000,8895.000000,6854.000000,1.000000,61.878906
7802.000000,8895.000000,6852.000000,1.000000,61.878906
7801.000000,8894.000000,6852.000000,1.000000,61.878906
7801.000000,8894.000000,6852.000000,1.000000,61.878906
7802.000000,8898.000000,6854.000000,1.000000,61.878906
7803.000000,8899.000000,6853.000000,1.000000,61.878906
7805.000000,8902.000000,6853.000000,1.000000,61.878906
7805.000000,8902.000000,6854.000000,1.000000,61.878906
7804.000000,8904.000000,6854.000000,1.000000,61.878906
7805.000000,8906.000000,6852.000000,1.000000,61.878906
7806.000000,8910.000000,6852.000000,1.000000,61.878906
7807.000000,8908.000000,6852.000000,1.000000,61.878906
7805.000000,8903.000000,6852.000000,1.000000,61.878906
7804.000000,8895.000000,6851.000000,1.000000,61.878906
7803.000000,8894.000000,6853.000000,1.000000,61.878906
7800.000000,8890.000000,6849.000000,1.000000,61.878906
7800.000000,8891.000000,6850.000000,1.000000,61.878906
7801.000000,8891.000000,6851.000000,1.000000,61.878906
7802.000000,8892.000000,6851.000000,1.000000,61.878906
7800.000000,8889.000000,6850.000000,1.000000,61.878906
7802.000000,8892.000000,6850.000000,1.000000,61.878906
7802.000000,8892.000000,6851.000000,1.000000,61.878906
7803.000000,8894.000000,6853.000000,1.000000,61.878906
7802.000000,8894.000000,6851.000000,1.000000,61.878906
7805.000000,8899.000000,6853.000000,1.000000,61.878906
7805.000000,8901.000000,6852.000000,1.000000,61.878906
7805.000000,8905.000000,6852.000000,1.000000,61.878906
7805.000000,8905.000000,6852.000000,1.000000,61.878906
7805.000000,8903.000000,6853.000000,1.000000,61.878906
7804.000000,8899.000000,6852.000000,1.000000,61.878906
7802.000000,8893.000000,6852.000000,1.000000,61.878906
7801.000000,8890.000000,6849.000000,1.000000,61.878906
7800.000000,8890.000000,6848.000000,1.000000,61.878906
7799.000000,8887.000000,6848.000000,1.000000,61.878906
7801.000000,8887.000000,6848.000000,1.000000,61.878906
7801.000000,8887.000000,6849.000000,1.000000,61.878906
7800.000000,8890.000000,6849.000000,1.000000,61.878906
7801.000000,8891.000000,6851.000000,1.000000,61.878906
7801.000000,8892.000000,6850.000000,1.000000,61.878906
7801.000000,8893.000000,6850.000000,1.000000,61.878906
7803.000000,8896.000000,6849.000000,1.000000,61.878906
7803.000000,8896.000000,6851.000000,1.000000,61.878906
7805.000000,8899.000000,6852.000000,1.000000,61.878906
7804.000000,8900.000000,6852.000000,1.000000,61.878906
7804.000000,8897.000000,6850.000000,1.000000,61.878906
7804.000000,8897.000000,6849.000000,1.000000,61.878906
7800.000000,8890.000000,6849.000000,1.000000,61.878906
7797.000000,8886.000000,6845.000000,1.000000,61.878906
7795.000000,8883.000000,6840.000000,1.000000,61.878906
7796.000000,8885.000000,6844.000000,1.000000,61.878906
7794.000000,8882.000000,6840.000000,1.000000,61.878906
7793.000000,8884.000000,6843.000000,1.000000,61.878906
7794.000000,8886.000000,6845.000000,1.000000,61.878906
7794.000000,8887.000000,6845.000000,1.000000,61.878906
7796.000000,8887.000000,6845.000000,1.000000,61.878906
7799.000000,8889.000000,6846.000000,1.000000,61.878906
7800.000000,8892.000000,6848.000000,1.000000,61.878906
7799.000000,8892.000000,6844.000000,1.000000,61.878906
7802.000000,8895.000000,6848.000000,1.000000,61.878906
7801.000000,8897.000000,6851.000000,1.000000,61.878906
7799.000000,8890.000000,6847.000000,1.000000,61.878906
7795.000000,8885.000000,6843.000000,1.000000,61.878906
7795.000000,8884.000000,6841.000000,1.000000,61.878906
7794.000000,8884.000000,6841.000000,1.000000,61.878906
7794.000000,8884.000000,6840.000000,1.000000,61.878906
7793.000000,8884.000000,6840.000000,1.000000,61.878906
7792.000000,8883.000000,6841.000000,1.000000,61.878906
7793.000000,8883.000000,6840.000000,1.000000,61.878906
7795.000000,8884.000000,6842.000000,1.000000,61.878906
7793.000000,8882.000000,6840.000000,1.000000,61.878906
7797.000000,8891.000000,6846.000000,1.000000,61.878906
7797.000000,8890.000000,6845.000000,1.000000,61.878906
7797.000000,8890.000000,6845.000000,1.000000,61.878906
7799.000000,8891.000000,6847.000000,1.000000,61.878906
7801.000000,8894.000000,6848.000000,1.000000,61.878906
7804.000000,8900.000000,6850.000000,1.000000,61.878906
7806.000000,8906.000000,6852.000000,1.000000,61.878906
7804.000000,8902.000000,6850.000000,1.000000,61.878906
7798.000000,8891.000000,6845.000000,1.000000,61.878906
7806.000000,8904.000000,6852.000000,1.000000,61.878906
7807.000000,8905.000000,6852.000000,1.000000,61.878906
7807.000000,8905.000000,6852.000000,1.000000,61.878906
7806.000000,8904.000000,6852.000000,0.000000,48.049805
7807.000000,8908.000000,6852.000000,0.000000,48.049805
7809.000000,8909.000000,6850.000000,0.000000,48.049805
7801.000000,8893.000000,6845.000000,0.000000,48.049805
7801.000000,8895.000000,6848.000000,0.000000,48.049805
7803.000000,8895.000000,6848.000000,0.000000,48.049805
7804.000000,8898.000000,6848.000000,0.000000,48.049805
7803.000000,8897.000000,6848.000000,0.000000,48.049805
7803.000000,8894.000000,6849.000000,0.000000,48.049805
7799.000000,8889.000000,6844.000000,0.000000,48.049805
7796.000000,8884.000000,6840.000000,0.000000,48.049805
7794.000000,8882.000000,6838.000000,0.000000,48.049805
7792.000000,8882.000000,6838.000000,0.000000,48.049805
7792.000000,8882.000000,6838.000000,0.000000,48.049805
7793.000000,8882.000000,6838.000000,0.000000,48.049805
7794.000000,8882.000000,6838.000000,0.000000,48.049805
7795.000000,8883.000000,6840.000000,0.000000,48.049805
7794.000000,8883.000000,6840.000000,0.000000,48.049805
7794.000000,8883.000000,6839.000000,0.000000,48.049805
7798.000000,8887.000000,6841.000000,0.000000,48.049805
7798.000000,8889.000000,6842.000000,0.000000,48.049805
7798.000000,8892.000000,6846.000000,0.000000,48.049805
7801.000000,8892.000000,6846.000000,0.000000,48.049805
7801.000000,8892.000000,6845.000000,0.000000,48.049805
7799.000000,8891.000000,6842.000000,0.000000,48.049805
7797.000000,8885.000000,6838.000000,0.000000,48.049805
7793.000000,8882.000000,6837.000000,0.000000,48.049805
7791.000000,8880.000000,6834.000000,0.000000,48.049805
7790.000000,8878.000000,6835.000000,0.000000,48.049805
7789.000000,8877.000000,6833.000000,0.000000,48.049805
7789.000000,8877.000000,6834.000000,0.000000,48.049805
7788.000000,8877.000000,6834.000000,0.000000,48.049805
7789.000000,8877.000000,6835.000000,0.000000,48.049805
7790.000000,8878.000000,6835.000000,0.000000,48.049805
7792.000000,8882.000000,6837.000000,0.000000,48.049805
7794.000000,8882.000000,6838.000000,0.000000,48.049805
7794.000000,8884.000000,6837.000000,0.000000,48.049805
7799.000000,8885.000000,6841.000000,0.000000,48.049805
7799.000000,8888.000000,6843.000000,0.000000,48.049805
7799.000000,8888.000000,6844.000000,0.000000,48.049805
7800.000000,8891.000000,6844.000000,0.000000,48.049805
7798.000000,8889.000000,6840.000000,0.000000,48.049805
7792.000000,8884.000000,6836.000000,0.000000,48.049805
7791.000000,8880.000000,6835.000000,0.000000,48.049805
7791.000000,8880.000000,6835.000000,0.000000,48.049805
7790.000000,8878.000000,6835.000000,0.000000,48.049805
7791.000000,8882.000000,6837.000000,0.000000,48.049805
7791.000000,8880.000000,6835.000000,0.000000,48.049805
7791.000000,8880.000000,6834.000000,0.000000,48.049805
7790.000000,8881.000000,6834.000000,0.000000,48.049805
7790.000000,8882.000000,6834.000000,0.000000,48.049805
7792.000000,8885.000000,6836.000000,0.000000,48.049805
7795.000000,8887.000000,6839.000000,0.000000,48.049805
7795.000000,8887.000000,6838.000000,0.000000,48.049805
7800.000000,8891.000000,6842.000000,0.000000,48.049805
7800.000000,8892.000000,6841.000000,0.000000,48.049805
7801.000000,8892.000000,6842.000000,0.000000,48.049805
7800.000000,8893.000000,6842.000000,0.000000,48.049805
7798.000000,8890.000000,6841.000000,0.000000,48.049805
7794.000000,8886.000000,6838.000000,0.000000,48.049805
7791.000000,8883.000000,6835.000000,0.000000,48.049805
7790.000000,8881.000000,6835.000000,0.000000,48.049805
7791.000000,8884.000000,6836.000000,0.000000,48.049805
7791.000000,8880.000000,6834.000000,0.000000,48.049805
7790.000000,8881.000000,6834.000000,0.000000,48.049805
7790.000000,8882.000000,6834.000000,0.000000,48.049805
7790.000000,8882.000000,6834.000000,0.000000,48.049805
7793.000000,8884.000000,6836.000000,0.000000,48.049805
7796.000000,8886.000000,6837.000000,0.000000,48.049805
7796.000000,8887.000000,6838.000000,0.000000,48.049805
7797.000000,8888.000000,6838.000000,0.000000,48.049805
7800.000000,8892.000000,6842.000000,0.000000,48.049805
7800.000000,8892.000000,6843.000000,0.000000,48.049805
7795.000000,8886.000000,6838.000000,0.000000,48.049805
7795.000000,8884.000000,6836.000000,0.000000,48.049805
7792.000000,8884.000000,6836.000000,0.000000,48.049805
7790.000000,8882.000000,6834.000000,0.000000,48.049805
7791.000000,8882.000000,6835.000000,0.000000,48.049805
7790.000000,8881.000000,6835.000000,0.000000,48.049805
7791.000000,8882.000000,6835.000000,0.000000,48.049805
7790.000000,8882.000000,6835.000000,0.000000,48.049805
7790.000000,8882.000000,6834.000000,0.000000,48.049805
7790.000000,8883.000000,6834.000000,0.000000,48.049805
7793.000000,8883.000000,6834.000000,0.000000,48.049805
7793.000000,8886.000000,6835.000000,0.000000,48.049805
7795.000000,8887.000000,6836.000000,0.000000,48.049805
7797.000000,8888.000000,6838.000000,0.000000,48.049805
7800.000000,8890.000000,6841.000000,0.000000,48.049805
7798.000000,8889.000000,6839.000000,0.000000,48.049805
7793.000000,8885.000000,6836.000000,0.000000,48.049805
7789.000000,8881.000000,6833.000000,0.000000,48.049805
7787.000000,8878.000000,6831.000000,0.000000,48.049805
7787.000000,8877.000000,6831.000000,0.000000,48.049805
7786.000000,8877.000000,6831.000000,0.000000,48.049805
7785.000000,8875.000000,6830.000000,0.000000,48.049805
7784.000000,8874.000000,6830.000000,0.000000,48.049805
7783.000000,8873.000000,6830.000000,0.000000,48.049805
7783.000000,8874.000000,6829.000000,0.000000,48.049805
7784.000000,8875.000000,6829.000000,0.000000,48.049805
7786.000000,8877.000000,6831.000000,0.000000,48.049805
7787.000000,8877.000000,6832.000000,0.000000,48.049805
7787.000000,8879.000000,6833.000000,0.000000,48.049805
7788.000000,8879.000000,6833.000000,0.000000,48.049805
7790.000000,8881.000000,6833.000000,0.000000,48.049805
7790.000000,8880.000000,6834.000000,0.000000,48.049805
7786.000000,8876.000000,6831.000000,0.000000,48.049805
7784.000000,8873.000000,6829.000000,0.000000,48.049805
7780.000000,8870.000000,6828.000000,0.000000,48.049805
7779.000000,8869.000000,6827.000000,0.000000,48.049805
7782.000000,8869.000000,6828.000000,0.000000,48.049805
7782.000000,8878.000000,6839.000000,0.000000,48.049805
7796.000000,8878.000000,6837.000000,0.000000,48.049805
7794.000000,8876.000000,6837.000000,0.000000,48.049805
7799.000000,8881.000000,6841.000000,0.000000,48.049805
7798.000000,8881.000000,6839.000000,0.000000,48.049805
7801.000000,8885.000000,6845.000000,0.000000,48.049805
7803.000000,8889.000000,6845.000000,0.000000,48.049805
7805.000000,8891.000000,6847.000000,0.000000,48.049805
7806.000000,8893.000000,6847.000000,0.000000,48.049805
7806.000000,8896.000000,6848.000000,0.000000,48.049805
7802.000000,8890.000000,6844.000000,1.000000,38.877930
7801.000000,8884.000000,6839.000000,1.000000,38.877930
7800.000000,8880.000000,6840.000000,1.000000,38.877930
7796.000000,8879.000000,6838.000000,1.000000,38.877930
7796.000000,8880.000000,6840.000000,1.000000,38.877930
7800.000000,8880.000000,6840.000000,1.000000,38.877930
7799.000000,8882.000000,6841.000000,1.000000,38.877930
7788.000000,8873.000000,6833.000000,1.000000,38.877930
7787.000000,8872.000000,6831.000000,1.000000,38.877930
7781.000000,8870.000000,6828.000000,1.000000,38.877930
7781.000000,8872.000000,6828.000000,1.000000,38.877930
7783.000000,8873.000000,6829.000000,1.000000,38.877930
7784.000000,8875.000000,6829.000000,1.000000,38.877930
7785.000000,8876.000000,6830.000000,1.000000,38.877930
7785.000000,8876.000000,6830.000000,1.000000,38.877930
7784.000000,8876.000000,6830.000000,1.000000,38.877930
7782.000000,8873.000000,6828.000000,1.000000,38.877930
7779.000000,8869.000000,6826.000000,1.000000,38.877930
7778.000000,8867.000000,6825.000000,1.000000,38.877930
7777.000000,8867.000000,6825.000000,1.000000,38.877930
7777.000000,8866.000000,6824.000000,1.000000,38.877930
7778.000000,8868.000000,6825.000000,1.000000,38.877930
7778.000000,8869.000000,6825.000000,1.000000,38.877930
7778.000000,8869.000000,6824.000000,1.000000,38.877930
7777.000000,8868.000000,6824.000000,1.000000,38.877930
7781.000000,8872.000000,6827.000000,1.000000,38.877930
7781.000000,8873.000000,6828.000000,1.000000,38.877930
7783.000000,8875.000000,6828.000000,1.000000,38.877930
7783.000000,8877.000000,6829.000000,1.000000,38.877930
7783.000000,8878.000000,6828.000000,1.000000,38.877930
7781.000000,8874.000000,6826.000000,1.000000,38.877930
7781.000000,8874.000000,6824.000000,1.000000,38.877930
7777.000000,8871.000000,6824.000000,1.000000,38.877930
7777.000000,8868.000000,6823.000000,1.000000,38.877930
7778.000000,8867.000000,6824.000000,1.000000,38.877930
7777.000000,8869.000000,6823.000000,1.000000,38.877930
7778.000000,8870.000000,6823.000000,1.000000,38.877930
7779.000000,8869.000000,6824.000000,1.000000,38.877930
7779.000000,8871.000000,6823.000000,1.000000,38.877930
7782.000000,8873.000000,6824.000000,1.000000,38.877930
7782.000000,8874.000000,6825.000000,1.000000,38.877930
7782.000000,8874.000000,6828.000000,1.000000,38.877930
7784.000000,8876.000000,6828.000000,1.000000,38.877930
7786.000000,8880.000000,6829.000000,1.000000,38.877930
7786.000000,8880.000000,6828.000000,1.000000,38.877930
7783.000000,8876.000000,6826.000000,1.000000,38.877930
7780.000000,8871.000000,6824.000000,1.000000,38.877930
7779.000000,8870.000000,6823.000000,1.000000,38.877930
7778.000000,8869.000000,6821.000000,1.000000,38.877930
7778.000000,8869.000000,6822.000000,1.000000,38.877930
7778.000000,8869.000000,6823.000000,1.000000,38.877930
7778.000000,8871.000000,6823.000000,1.000000,38.877930
7779.000000,8871.000000,6822.000000,1.000000,38.877930
7779.000000,8871.000000,6823.000000,1.000000,38.877930
7781.000000,8874.000000,6825.000000,1.000000,38.877930
7782.000000,8875.000000,6825.000000,1.000000,38.877930
7784.000000,8878.000000,6827.000000,1.000000,38.877930
7785.000000,8879.000000,6828.000000,1.000000,38.877930
7785.000000,8881.000000,6828.000000,1.000000,38.877930
7786.000000,8881.000000,6828.000000,1.000000,38.877930
7784.000000,8878.000000,6827.000000,1.000000,38.877930
7781.000000,8875.000000,6824.000000,1.000000,38.877930
7779.000000,8871.000000,6823.000000,1.000000,38.877930
7780.000000,8871.000000,6823.000000,1.000000,38.877930
7779.000000,8871.000000,6820.000000,1.000000,38.877930
7778.000000,8870.000000,6822.000000,1.000000,38.877930
7778.000000,8871.000000,6821.000000,1.000000,38.877930
7778.000000,8872.000000,6824.000000,1.000000,38.877930
7778.000000,8872.000000,6824.000000,1.000000,38.877930
7781.000000,8872.000000,6824.000000,1.000000,38.877930
7781.000000,8875.000000,6825.000000,1.000000,38.877930
7782.000000,8875.000000,6826.000000,1.000000,38.877930
7783.000000,8878.000000,6826.000000,1.000000,38.877930
7785.000000,8882.000000,6828.000000,1.000000,38.877930
7787.000000,8881.000000,6829.000000,1.000000,38.877930
7782.000000,8878.000000,6825.000000,1.000000,38.877930
7782.000000,8878.000000,6824.000000,1.000000,38.877930
7782.000000,8876.000000,6824.000000,1.000000,38.877930
7779.000000,8873.000000,6824.000000,1.000000,38.877930
7778.000000,8872.000000,6822.000000,1.000000,38.877930
7778.000000,8871.000000,6821.000000,1.000000,38.877930
7778.000000,8872.000000,6821.000000,1.000000,38.877930
7779.000000,8873.000000,6824.000000,1.000000,38.877930
7778.000000,8874.000000,6823.000000,1.000000,38.877930
7778.000000,8875.000000,6824.000000,1.000000,38.877930
7780.000000,8875.000000,6824.000000,1.000000,38.877930
7780.000000,8877.000000,6825.000000,1.000000,38.877930
7783.000000,8881.000000,6827.000000,1.000000,38.877930
7784.000000,8881.000000,6827.000000,1.000000,38.877930
7784.000000,8882.000000,6828.000000,1.000000,38.877930
7786.000000,8883.000000,6828.000000,1.000000,38.877930
7785.000000,8881.000000,6827.000000,1.000000,38.877930
7785.000000,8877.000000,6824.000000,1.000000,38.877930
7780.000000,8877.000000,6822.000000,1.000000,38.877930
7779.000000,8876.000000,6822.000000,1.000000,38.877930
7779.000000,8875.000000,6823.000000,1.000000,38.877930
7780.000000,8875.000000,6823.000000,1.000000,38.877930
7781.000000,8876.000000,6824.000000,1.000000,38.877930
7782.000000,8880.000000,6825.000000,1.000000,38.877930
7781.000000,8879.000000,6826.000000,1.000000,38.877930
7781.000000,8881.000000,6826.000000,1.000000,38.877930
7785.000000,8884.000000,6826.000000,1.000000,38.877930
7785.000000,8886.000000,6829.000000,1.000000,38.877930
7787.000000,8886.000000,6829.000000,1.000000,38.877930
7788.000000,8888.000000,6829.000000,1.000000,38.877930
7786.000000,8885.000000,6828.000000,1.000000,38.877930
7784.000000,8883.000000,6826.000000,1.000000,38.877930
7783.000000,8881.000000,6826.000000,1.000000,38.877930
7783.000000,8880.000000,6825.000000,1.000000,38.877930
7781.000000,8880.000000,6825.000000,1.000000,38.877930
7782.000000,8879.000000,6826.000000,1.000000,38.877930
7782.000000,8879.000000,6825.000000,1.000000,38.877930
7782.000000,8880.000000,6825.000000,1.000000,38.877930
7782.000000,8881.000000,6824.000000,1.000000,38.877930
7782.000000,8880.000000,6825.000000,1.000000,38.877930
7804.000000,8896.000000,6842.000000,1.000000,38.877930
7795.000000,8892.000000,6834.000000,1.000000,38.877930
7806.000000,8899.000000,6842.000000,1.000000,38.877930
7809.000000,8906.000000,6846.000000,1.000000,38.877930
7809.000000,8906.000000,6847.000000,1.000000,38.877930
7807.000000,8900.000000,6846.000000,0.000000,38.444336
7792.000000,8887.000000,6832.000000,0.000000,38.444336
7801.000000,8893.000000,6839.000000,0.000000,38.444336
7801.000000,8892.000000,6838.000000,0.000000,38.444336
7790.000000,8886.000000,6832.000000,0.000000,38.444336
7790.000000,8881.000000,6825.000000,0.000000,38.444336
7782.000000,8881.000000,6825.000000,0.000000,38.444336
7781.000000,8878.000000,6824.000000,0.000000,38.444336
7781.000000,8879.000000,6824.000000,0.000000,38.444336
7783.000000,8881.000000,6827.000000,0.000000,38.444336
7785.000000,8883.000000,6827.000000,0.000000,38.444336
7785.000000,8883.000000,6828.000000,0.000000,38.444336
7785.000000,8885.000000,6828.000000,0.000000,38.444336
7782.000000,8879.000000,6826.000000,0.000000,38.444336
7782.000000,8879.000000,6823.000000,0.000000,38.444336
7779.000000,8877.000000,6823.000000,0.000000,38.444336
7777.000000,8874.000000,6822.000000,0.000000,38.444336
7777.000000,8872.000000,6821.000000,0.000000,38.444336
7777.000000,8872.000000,6821.000000,0.000000,38.444336
7776.000000,8872.000000,6820.000000,0.000000,38.444336
7777.000000,8873.000000,6820.000000,0.000000,38.444336
7777.000000,8871.000000,6820.000000,0.000000,38.444336
7775.000000,8871.000000,6820.000000,0.000000,38.444336
7778.000000,8873.000000,6822.000000,0.000000,38.444336
7779.000000,8877.000000,6822.000000,0.000000,38.444336
7781.000000,8880.000000,6823.000000,0.000000,38.444336
7780.000000,8879.000000,6824.000000,0.000000,38.444336
7781.000000,8878.000000,6824.000000,0.000000,38.444336
7778.000000,8874.000000,6822.000000,0.000000,38.444336
7777.000000,8872.000000,6821.000000,0.000000,38.444336
7777.000000,8872.000000,6818.000000,0.000000,38.444336
7774.000000,8869.000000,6818.000000,0.000000,38.444336
7774.000000,8867.000000,6817.000000,0.000000,38.444336
7774.000000,8867.000000,6817.000000,0.000000,38.444336
7773.000000,8867.000000,6818.000000,0.000000,38.444336
7773.000000,8868.000000,6816.000000,0.000000,38.444336
7773.000000,8867.000000,6818.000000,0.000000,38.444336
7774.000000,8869.000000,6818.000000,0.000000,38.444336
7774.000000,8874.000000,6819.000000,0.000000,38.444336
7776.000000,8874.000000,6819.000000,0.000000,38.444336
7777.000000,8875.000000,6820.000000,0.000000,38.444336
7779.000000,8879.000000,6821.000000,0.000000,38.444336
7778.000000,8877.000000,6820.000000,0.000000,38.444336
7775.000000,8873.000000,6818.000000,0.000000,38.444336
7773.000000,8869.000000,6816.000000,0.000000,38.444336
7770.000000,8866.000000,6813.000000,0.000000,38.444336
7770.000000,8864.000000,6812.000000,0.000000,38.444336
7770.000000,8864.000000,6813.000000,0.000000,38.444336
7770.000000,8864.000000,6813.000000,0.000000,38.444336
7771.000000,8864.000000,6813.000000,0.000000,38.444336
7770.000000,8863.000000,6812.000000,0.000000,38.444336
7771.000000,8865.000000,6813.000000,0.000000,38.444336
7772.000000,8868.000000,6815.000000,0.000000,38.444336
7774.000000,8871.000000,6817.000000,0.000000,38.444336
7774.000000,8870.000000,6817.000000,0.000000,38.444336
7774.000000,8870.000000,6819.000000,0.000000,38.444336
7776.000000,8876.000000,6819.000000,0.000000,38.444336
7777.000000,8876.000000,6819.000000,0.000000,38.444336
7774.000000,8871.000000,6816.000000,0.000000,38.444336
7771.000000,8867.000000,6814.000000,0.000000,38.444336
7769.000000,8865.000000,6813.000000,0.000000,38.444336
7768.000000,8864.000000,6812.000000,0.000000,38.444336
7770.000000,8866.000000,6812.000000,0.000000,38.444336
7770.000000,8866.000000,6813.000000,0.000000,38.444336
7769.000000,8866.000000,6813.000000,0.000000,38.444336
7769.000000,8866.000000,6813.000000,0.000000,38.444336
7770.000000,8868.000000,6813.000000,0.000000,38.444336
7773.000000,8870.000000,6815.000000,0.000000,38.444336
7775.000000,8872.000000,6817.000000,0.000000,38.444336
7777.000000,8875.000000,6819.000000,0.000000,38.444336
7777.000000,8877.000000,6819.000000,0.000000,38.444336
7778.000000,8877.000000,6819.000000,0.000000,38.444336
7777.000000,8878.000000,6819.000000,0.000000,38.444336
7774.000000,8873.000000,6817.000000,0.000000,38.444336
7772.000000,8872.000000,6814.000000,0.000000,38.444336
7771.000000,8868.000000,6812.000000,0.000000,38.444336
7771.000000,8867.000000,6813.000000,0.000000,38.444336
7770.000000,8870.000000,6813.000000,0.000000,38.444336
7770.000000,8870.000000,6814.000000,0.000000,38.444336
7773.000000,8870.000000,6815.000000,0.000000,38.444336
7772.000000,8870.000000,6815.000000,0.000000,38.444336
7772.000000,8872.000000,6817.000000,0.000000,38.444336
7775.000000,8875.000000,6818.000000,0.000000,38.444336
7776.000000,8878.000000,6819.000000,0.000000,38.444336
7777.000000,8879.000000,6820.000000,0.000000,38.444336
7779.000000,8883.000000,6822.000000,0.000000,38.444336
7780.000000,8884.000000,6823.000000,0.000000,38.444336
7780.000000,8884.000000,6822.000000,0.000000,38.444336
7779.000000,8883.000000,6822.000000,0.000000,38.444336
7777.000000,8879.000000,6820.000000,0.000000,38.444336
7775.000000,8876.000000,6818.000000,0.000000,38.444336
7775.000000,8875.000000,6818.000000,0.000000,38.444336
7776.000000,8875.000000,6819.000000,0.000000,38.444336
7775.000000,8877.000000,6818.000000,0.000000,38.444336
7776.000000,8877.000000,6819.000000,0.000000,38.444336
7776.000000,8876.000000,6818.000000,0.000000,38.444336
7776.000000,8876.000000,6818.000000,0.000000,38.444336
7778.000000,8879.000000,6820.000000,0.000000,38.444336
7780.000000,8883.000000,6821.000000,0.000000,38.444336
7782.000000,8886.000000,6823.000000,0.000000,38.444336
7783.000000,8886.000000,6825.000000,0.000000,38.444336
7784.000000,8891.000000,6824.000000,0.000000,38.444336
7787.000000,8891.000000,6825.000000,0.000000,38.444336
7787.000000,8887.000000,6825.000000,0.000000,38.444336
7784.000000,8887.000000,6824.000000,0.000000,38.444336
7782.000000,8885.000000,6824.000000,0.000000,38.444336
7780.000000,8882.000000,6821.000000,0.000000,38.444336
7780.000000,8881.000000,6820.000000,0.000000,38.444336
7780.000000,8882.000000,6821.000000,0.000000,38.444336
7781.000000,8882.000000,6822.000000,0.000000,38.444336
7779.000000,8883.000000,6820.000000,0.000000,38.444336
7779.000000,8881.000000,6820.000000,0.000000,38.444336
7788.000000,8891.000000,6826.000000,0.000000,38.444336
7788.000000,8891.000000,6835.000000,0.000000,38.444336
7799.000000,8900.000000,6835.000000,0.000000,38.444336
7801.000000,8901.000000,6837.000000,0.000000,38.444336
7804.000000,8904.000000,6839.000000,0.000000,38.444336
7807.000000,8907.000000,6841.000000,0.000000,38.444336
7809.000000,8910.000000,6843.000000,0.000000,38.444336
7810.000000,8907.000000,6844.000000,0.000000,38.444336
7806.000000,8905.000000,6841.000000,1.000000,45.050781
7801.000000,8901.000000,6838.000000,1.000000,45.050781
7795.000000,8895.000000,6831.000000,1.000000,45.050781
7782.000000,8887.000000,6823.000000,1.000000,45.050781
7782.000000,8885.000000,6821.000000,1.000000,45.050781
7782.000000,8886.000000,6823.000000,1.000000,45.050781
7779.000000,8884.000000,6822.000000,1.000000,45.050781
7779.000000,8884.000000,6822.000000,1.000000,45.050781
7782.000000,8885.000000,6822.000000,1.000000,45.050781
7782.000000,8887.000000,6823.000000,1.000000,45.050781
7783.000000,8889.000000,6824.000000,1.000000,45.050781
7784.000000,8891.000000,6826.000000,1.000000,45.050781
7785.000000,8892.000000,6826.000000,1.000000,45.050781
7784.000000,8892.000000,6826.000000,1.000000,45.050781
7781.000000,8889.000000,6823.000000,1.000000,45.050781
7781.000000,8885.000000,6822.000000,1.000000,45.050781
7779.000000,8885.000000,6822.000000,1.000000,45.050781
7775.000000,8881.000000,6818.000000,1.000000,45.050781
7776.000000,8878.000000,6818.000000,1.000000,45.050781
7774.000000,8877.000000,6818.000000,1.000000,45.050781
7774.000000,8877.000000,6816.000000,1.000000,45.050781
7774.000000,8875.000000,6816.000000,1.000000,45.050781
7774.000000,8875.000000,6816.000000,1.000000,45.050781
7774.000000,8875.000000,6817.000000,1.000000,45.050781
7774.000000,8875.000000,6817.000000,1.000000,45.050781
7774.000000,8876.000000,6818.000000,1.000000,45.050781
7776.000000,8877.000000,6818.000000,1.000000,45.050781
7776.000000,8878.000000,6819.000000,1.000000,45.050781
7776.000000,8880.000000,6819.000000,1.000000,45.050781
7772.000000,8876.000000,6816.000000,1.000000,45.050781
7767.000000,8868.000000,6812.000000,1.000000,45.050781
7767.000000,8864.000000,6810.000000,1.000000,45.050781
7766.000000,8864.000000,6807.000000,1.000000,45.050781
7762.000000,8861.000000,6807.000000,1.000000,45.050781
7762.000000,8859.000000,6807.000000,1.000000,45.050781
7759.000000,8858.000000,6805.000000,1.000000,45.050781
7759.000000,8855.000000,6805.000000,1.000000,45.050781
7760.000000,8856.000000,6806.000000,1.000000,45.050781
7759.000000,8855.000000,6805.000000,1.000000,45.050781
7758.000000,8855.000000,6805.000000,1.000000,45.050781
7758.000000,8858.000000,6806.000000,1.000000,45.050781
7761.000000,8858.000000,6808.000000,1.000000,45.050781
7763.000000,8861.000000,6808.000000,1.000000,45.050781
7762.000000,8859.000000,6807.000000,1.000000,45.050781
7757.000000,8855.000000,6805.000000,1.000000,45.050781
7754.000000,8848.000000,6802.000000,1.000000,45.050781
7748.000000,8841.000000,6799.000000,1.000000,45.050781
7743.000000,8833.000000,6795.000000,1.000000,45.050781
7743.000000,8831.000000,6795.000000,1.000000,45.050781
7743.000000,8830.000000,6793.000000,1.000000,45.050781
7743.000000,8830.000000,6793.000000,1.000000,45.050781
7744.000000,8829.000000,6793.000000,1.000000,45.050781
7741.000000,8827.000000,6792.000000,1.000000,45.050781
7741.000000,8828.000000,6793.000000,1.000000,45.050781
7742.000000,8831.000000,6793.000000,1.000000,45.050781
7743.000000,8833.000000,6794.000000,1.000000,45.050781
7746.000000,8835.000000,6797.000000,1.000000,45.050781
7747.000000,8838.000000,6798.000000,1.000000,45.050781
7747.000000,8841.000000,6799.000000,1.000000,45.050781
7750.000000,8841.000000,6799.000000,1.000000,45.050781
7745.000000,8833.000000,6796.000000,1.000000,45.050781
7739.000000,8826.000000,6790.000000,1.000000,45.050781
7738.000000,8822.000000,6787.000000,1.000000,45.050781
7738.000000,8821.000000,6787.000000,1.000000,45.050781
7738.000000,8821.000000,6785.000000,1.000000,45.050781
7739.000000,8820.000000,6785.000000,1.000000,45.050781
7737.000000,8821.000000,6785.000000,1.000000,45.050781
7737.000000,8821.000000,6785.000000,1.000000,45.050781
7737.000000,8821.000000,6785.000000,1.000000,45.050781
7737.000000,8821.000000,6786.000000,1.000000,45.050781
7737.000000,8821.000000,6786.000000,1.000000,45.050781
7738.000000,8822.000000,6787.000000,1.000000,45.050781
7737.000000,8823.000000,6790.000000,1.000000,45.050781
7739.000000,8825.000000,6790.000000,1.000000,45.050781
7739.000000,8826.000000,6791.000000,1.000000,45.050781
7739.000000,8826.000000,6789.000000,1.000000,45.050781
7738.000000,8824.000000,6789.000000,1.000000,45.050781
7737.000000,8822.000000,6786.000000,1.000000,45.050781
7738.000000,8821.000000,6784.000000,1.000000,45.050781
7739.000000,8820.000000,6784.000000,1.000000,45.050781
7738.000000,8821.000000,6782.000000,1.000000,45.050781
7741.000000,8820.000000,6783.000000,1.000000,45.050781
7739.000000,8821.000000,6782.000000,1.000000,45.050781
7738.000000,8821.000000,6783.000000,1.000000,45.050781
7738.000000,8821.000000,6784.000000,1.000000,45.050781
7739.000000,8821.000000,6784.000000,1.000000,45.050781
7736.000000,8821.000000,6786.000000,1.000000,45.050781
7735.000000,8822.000000,6788.000000,1.000000,45.050781
7737.000000,8823.000000,6788.000000,1.000000,45.050781
7737.000000,8824.000000,6789.000000,1.000000,45.050781
7739.000000,8827.000000,6790.000000,1.000000,45.050781
7736.000000,8823.000000,6788.000000,1.000000,45.050781
7736.000000,8823.000000,6785.000000,1.000000,45.050781
7738.000000,8821.000000,6785.000000,1.000000,45.050781
7739.000000,8821.000000,6784.000000,1.000000,45.050781
7739.000000,8821.000000,6783.000000,1.000000,45.050781
7736.000000,8821.000000,6782.000000,1.000000,45.050781
7738.000000,8821.000000,6784.000000,1.000000,45.050781
7737.000000,8821.000000,6783.000000,1.000000,45.050781
7737.000000,8821.000000,6784.000000,1.000000,45.050781
7737.000000,8821.000000,6785.000000,1.000000,45.050781
7738.000000,8821.000000,6785.000000,1.000000,45.050781
7738.000000,8824.000000,6786.000000,1.000000,45.050781
7736.000000,8823.000000,6787.000000,1.000000,45.050781
7741.000000,8828.000000,6789.000000,1.000000,45.050781
7740.000000,8828.000000,6791.000000,1.000000,45.050781
7739.000000,8825.000000,6790.000000,1.000000,45.050781
7737.000000,8822.000000,6786.000000,1.000000,45.050781
7737.000000,8822.000000,6786.000000,1.000000,45.050781
7737.000000,8822.000000,6786.000000,1.000000,45.050781
7752.000000,8836.000000,6799.000000,1.000000,45.050781
7754.000000,8837.000000,6799.000000,1.000000,45.050781
7753.000000,8836.000000,6798.000000,1.000000,45.050781
7757.000000,8842.000000,6802.000000,1.000000,45.050781
7758.000000,8845.000000,6803.000000,1.000000,45.050781
7761.000000,8847.000000,6805.000000,1.000000,45.050781
7763.000000,8850.000000,6806.000000,1.000000,45.050781
7763.000000,8855.000000,6808.000000,1.000000,45.050781
7765.000000,8855.000000,6808.000000,1.000000,45.050781
7768.000000,8858.000000,6809.000000,1.000000,45.050781
7769.000000,8857.000000,6809.000000,0.000000,84.584961
7769.000000,8855.000000,6808.000000,0.000000,84.584961
7767.000000,8855.000000,6808.000000,0.000000,84.584961
7752.000000,8837.000000,6799.000000,0.000000,84.584961
7761.000000,8847.000000,6805.000000,0.000000,84.584961
7763.000000,8848.000000,6806.000000,0.000000,84.584961
7764.000000,8851.000000,6805.000000,0.000000,84.584961
7765.000000,8851.000000,6806.000000,0.000000,84.584961
7744.000000,8829.000000,6791.000000,0.000000,84.584961
7743.000000,8828.000000,6791.000000,0.000000,84.584961
7743.000000,8833.000000,6792.000000,0.000000,84.584961
7746.000000,8833.000000,6792.000000,0.000000,84.584961
7746.000000,8837.000000,6793.000000,0.000000,84.584961
7750.000000,8839.000000,6796.000000,0.000000,84.584961
7751.000000,8840.000000,6796.000000,0.000000,84.584961
7754.000000,8844.000000,6798.000000,0.000000,84.584961
7753.000000,8845.000000,6798.000000,0.000000,84.584961
7749.000000,8842.000000,6795.000000,0.000000,84.584961
7744.000000,8831.000000,6791.000000,0.000000,84.584961
7744.000000,8827.000000,6789.000000,0.000000,84.584961
7740.000000,8827.000000,6787.000000,0.000000,84.584961
7738.000000,8825.000000,6787.000000,0.000000,84.584961
7737.000000,8823.000000,6786.000000,0.000000,84.584961
7739.000000,8824.000000,6787.000000,0.000000,84.584961
7739.000000,8823.000000,6788.000000,0.000000,84.584961
7740.000000,8825.000000,6787.000000,0.000000,84.584961
7739.000000,8826.000000,6787.000000,0.000000,84.584961
7739.000000,8828.000000,6789.000000,0.000000,84.584961
7739.000000,8829.000000,6790.000000,0.000000,84.584961
7743.000000,8829.000000,6790.000000,0.000000,84.584961
7743.000000,8831.000000,6791.000000,0.000000,84.584961
7746.000000,8834.000000,6792.000000,0.000000,84.584961
7748.000000,8836.000000,6793.000000,0.000000,84.584961
7745.000000,8834.000000,6791.000000,0.000000,84.584961
7742.000000,8829.000000,6789.000000,0.000000,84.584961
7737.000000,8825.000000,6786.000000,0.000000,84.584961
7737.000000,8822.000000,6783.000000,0.000000,84.584961
7737.000000,8822.000000,6783.000000,0.000000,84.584961
7737.000000,8822.000000,6783.000000,0.000000,84.584961
7738.000000,8822.000000,6783.000000,0.000000,84.584961
7737.000000,8822.000000,6783.000000,0.000000,84.584961
7739.000000,8821.000000,6782.000000,0.000000,84.584961
7737.000000,8822.000000,6783.000000,0.000000,84.584961
7738.000000,8822.000000,6784.000000,0.000000,84.584961
7737.000000,8822.000000,6784.000000,0.000000,84.584961
7737.000000,8824.000000,6785.000000,0.000000,84.584961
7737.000000,8824.000000,6786.000000,0.000000,84.584961
7736.000000,8825.000000,6786.000000,0.000000,84.584961
7740.000000,8827.000000,6787.000000,0.000000,84.584961
7740.000000,8827.000000,6787.000000,0.000000,84.584961
7738.000000,8828.000000,6787.000000,0.000000,84.584961
7736.000000,8823.000000,6785.000000,0.000000,84.584961
7736.000000,8821.000000,6782.000000,0.000000,84.584961
7736.000000,8821.000000,6780.000000,0.000000,84.584961
7736.000000,8821.000000,6780.000000,0.000000,84.584961
7738.000000,8821.000000,6780.000000,0.000000,84.584961
7738.000000,8821.000000,6779.000000,0.000000,84.584961
7737.000000,8821.000000,6778.000000,0.000000,84.584961
7737.000000,8821.000000,6779.000000,0.000000,84.584961
7736.000000,8821.000000,6779.000000,0.000000,84.584961
7735.000000,8822.000000,6779.000000,0.000000,84.584961
7736.000000,8821.000000,6780.000000,0.000000,84.584961
7736.000000,8823.000000,6783.000000,0.000000,84.584961
7733.000000,8823.000000,6783.000000,0.000000,84.584961
7734.000000,8824.000000,6782.000000,0.000000,84.584961
7734.000000,8824.000000,6784.000000,0.000000,84.584961
7735.000000,8825.000000,6785.000000,0.000000,84.584961
7734.000000,8824.000000,6784.000000,0.000000,84.584961
7735.000000,8821.000000,6780.000000,0.000000,84.584961
7737.000000,8821.000000,6777.000000,0.000000,84.584961
7738.000000,8821.000000,6777.000000,0.000000,84.584961
7738.000000,8821.000000,6777.000000,0.000000,84.584961
7737.000000,8821.000000,6777.000000,0.000000,84.584961
7738.000000,8821.000000,6778.000000,0.000000,84.584961
7737.000000,8821.000000,6779.000000,0.000000,84.584961
7738.000000,8821.000000,6776.000000,0.000000,84.584961
7738.000000,8821.000000,6777.000000,0.000000,84.584961
7736.000000,8821.000000,6779.000000,0.000000,84.584961
7735.000000,8822.000000,6779.000000,0.000000,84.584961
7735.000000,8822.000000,6782.000000,0.000000,84.584961
7736.000000,8822.000000,6782.000000,0.000000,84.584961
7735.000000,8823.000000,6782.000000,0.000000,84.584961
7735.000000,8823.000000,6781.000000,0.000000,84.584961
7735.000000,8822.000000,6780.000000,0.000000,84.584961
7738.000000,8821.000000,6777.000000,0.000000,84.584961
7738.000000,8821.000000,6775.000000,0.000000,84.584961
7739.000000,8820.000000,6775.000000,0.000000,84.584961
7739.000000,8820.000000,6775.000000,0.000000,84.584961
7738.000000,8820.000000,6775.000000,0.000000,84.584961
7739.000000,8820.000000,6776.000000,0.000000,84.584961
7739.000000,8820.000000,6776.000000,0.000000,84.584961
7737.000000,8820.000000,6775.000000,0.000000,84.584961
7738.000000,8821.000000,6775.000000,0.000000,84.584961
7736.000000,8821.000000,6776.000000,0.000000,84.584961
7736.000000,8821.000000,6778.000000,0.000000,84.584961
7736.000000,8823.000000,6779.000000,0.000000,84.584961
7733.000000,8823.000000,6779.000000,0.000000,84.584961
7734.000000,8822.000000,6780.000000,0.000000,84.584961
7736.000000,8822.000000,6778.000000,0.000000,84.584961
7738.000000,8821.000000,6775.000000,0.000000,84.584961
7738.000000,8819.000000,6773.000000,0.000000,84.584961
7737.000000,8817.000000,6773.000000,0.000000,84.584961
7737.000000,8817.000000,6773.000000,0.000000,84.584961
7737.000000,8817.000000,6772.000000,0.000000,84.584961
7736.000000,8817.000000,6772.000000,0.000000,84.584961
7736.000000,8818.000000,6772.000000,0.000000,84.584961
7737.000000,8818.000000,6774.000000,0.000000,84.584961
7737.000000,8819.000000,6773.000000,0.000000,84.584961
7737.000000,8820.000000,6773.000000,0.000000,84.584961
7736.000000,8820.000000,6774.000000,0.000000,84.584961
7738.000000,8821.000000,6776.000000,0.000000,84.584961
7738.000000,8821.000000,6776.000000,0.000000,84.584961
7738.000000,8821.000000,6776.000000,0.000000,84.584961
7737.000000,8821.000000,6776.000000,0.000000,84.584961
7737.000000,8820.000000,6774.000000,0.000000,84.584961
7739.000000,8820.000000,6777.000000,0.000000,84.584961
7741.000000,8820.000000,6783.000000,0.000000,84.584961
7740.000000,8819.000000,6780.000000,0.000000,84.584961
7742.000000,8820.000000,6781.000000,0.000000,84.584961
7742.000000,8813.000000,6776.000000,0.000000,84.584961
7743.000000,8820.000000,6782.000000,1.000000,39.999023
7744.000000,8819.000000,6783.000000,1.000000,39.999023
7744.000000,8819.000000,6783.000000,1.000000,39.999023
7741.000000,8820.000000,6784.000000,1.000000,39.999023
7741.000000,8820.000000,6786.000000,1.000000,39.999023
7741.000000,8820.000000,6786.000000,1.000000,39.999023
7738.000000,8818.000000,6775.000000,1.000000,39.999023
7737.000000,8820.000000,6774.000000,1.000000,39.999023
7739.000000,8820.000000,6775.000000,1.000000,39.999023
7737.000000,8818.000000,6774.000000,1.000000,39.999023
7733.000000,8812.000000,6771.000000,1.000000,39.999023
7730.000000,8805.000000,6768.000000,1.000000,39.999023
7726.000000,8800.000000,6765.000000,1.000000,39.999023
7726.000000,8799.000000,6765.000000,1.000000,39.999023
7726.000000,8799.000000,6765.000000,1.000000,39.999023
7726.000000,8800.000000,6765.000000,1.000000,39.999023
7727.000000,8799.000000,6766.000000,1.000000,39.999023
7726.000000,8798.000000,6766.000000,1.000000,39.999023
7727.000000,8800.000000,6765.000000,1.000000,39.999023
7727.000000,8802.000000,6766.000000,1.000000,39.999023
7730.000000,8807.000000,6768.000000,1.000000,39.999023
7731.000000,8809.000000,6770.000000,1.000000,39.999023
7731.000000,8810.000000,6770.000000,1.000000,39.999023
7731.000000,8810.000000,6772.000000,1.000000,39.999023
7735.000000,8816.000000,6772.000000,1.000000,39.999023
7732.000000,8811.000000,6772.000000,1.000000,39.999023
7728.000000,8805.000000,6767.000000,1.000000,39.999023
7723.000000,8799.000000,6764.000000,1.000000,39.999023
7723.000000,8796.000000,6763.000000,1.000000,39.999023
7722.000000,8796.000000,6763.000000,1.000000,39.999023
7724.000000,8796.000000,6763.000000,1.000000,39.999023
7724.000000,8796.000000,6763.000000,1.000000,39.999023
7723.000000,8795.000000,6763.000000,1.000000,39.999023
7722.000000,8795.000000,6762.000000,1.000000,39.999023
7724.000000,8797.000000,6763.000000,1.000000,39.999023
7727.000000,8802.000000,6765.000000,1.000000,39.999023
7725.000000,8803.000000,6765.000000,1.000000,39.999023
7729.000000,8808.000000,6767.000000,1.000000,39.999023
7731.000000,8811.000000,6769.000000,1.000000,39.999023
7731.000000,8814.000000,6768.000000,1.000000,39.999023
7733.000000,8814.000000,6768.000000,1.000000,39.999023
7729.000000,8809.000000,6768.000000,1.000000,39.999023
7726.000000,8805.000000,6765.000000,1.000000,39.999023
7724.000000,8799.000000,6763.000000,1.000000,39.999023
7722.000000,8796.000000,6762.000000,1.000000,39.999023
7722.000000,8796.000000,6761.000000,1.000000,39.999023
7721.000000,8797.000000,6761.000000,1.000000,39.999023
7721.000000,8796.000000,6761.000000,1.000000,39.999023
7721.000000,8796.000000,6762.000000,1.000000,39.999023
7722.000000,8797.000000,6762.000000,1.000000,39.999023
7724.000000,8800.000000,6762.000000,1.000000,39.999023
7726.000000,8802.000000,6764.000000,1.000000,39.999023
7726.000000,8803.000000,6763.000000,1.000000,39.999023
7729.000000,8808.000000,6766.000000,1.000000,39.999023
7729.000000,8809.000000,6766.000000,1.000000,39.999023
7731.000000,8811.000000,6768.000000,1.000000,39.999023
7729.000000,8807.000000,6766.000000,1.000000,39.999023
7729.000000,8807.000000,6764.000000,1.000000,39.999023
7724.000000,8801.000000,6764.000000,1.000000,39.999023
7723.000000,8797.000000,6761.000000,1.000000,39.999023
7721.000000,8794.000000,6759.000000,1.000000,39.999023
7722.000000,8795.000000,6761.000000,1.000000,39.999023
7722.000000,8798.000000,6761.000000,1.000000,39.999023
7723.000000,8795.000000,6760.000000,1.000000,39.999023
7725.000000,8798.000000,6761.000000,1.000000,39.999023
7725.000000,8801.000000,6762.000000,1.000000,39.999023
7723.000000,8801.000000,6763.000000,1.000000,39.999023
7726.000000,8803.000000,6763.000000,1.000000,39.999023
7727.000000,8806.000000,6764.000000,1.000000,39.999023
7729.000000,8808.000000,6766.000000,1.000000,39.999023
7731.000000,8813.000000,6767.000000,1.000000,39.999023
7733.000000,8815.000000,6768.000000,1.000000,39.999023
7730.000000,8810.000000,6766.000000,1.000000,39.999023
7727.000000,8805.000000,6764.000000,1.000000,39.999023
7723.000000,8798.000000,6761.000000,1.000000,39.999023
7723.000000,8799.000000,6761.000000,1.000000,39.999023
7723.000000,8800.000000,6762.000000,1.000000,39.999023
7723.000000,8797.000000,6760.000000,1.000000,39.999023
7723.000000,8797.000000,6759.000000,1.000000,39.999023
7722.000000,8797.000000,6759.000000,1.000000,39.999023
7722.000000,8797.000000,6760.000000,1.000000,39.999023
7724.000000,8798.000000,6761.000000,1.000000,39.999023
7724.000000,8801.000000,6762.000000,1.000000,39.999023
7726.000000,8803.000000,6763.000000,1.000000,39.999023
7727.000000,8807.000000,6765.000000,1.000000,39.999023
7730.000000,8811.000000,6766.000000,1.000000,39.999023
7731.000000,8813.000000,6766.000000,1.000000,39.999023
7731.000000,8810.000000,6765.000000,1.000000,39.999023
7730.000000,8810.000000,6765.000000,1.000000,39.999023
7726.000000,8803.000000,6763.000000,1.000000,39.999023
7723.000000,8799.000000,6760.000000,1.000000,39.999023
7720.000000,8795.000000,6759.000000,1.000000,39.999023
7721.000000,8793.000000,6758.000000,1.000000,39.999023
7720.000000,8793.000000,6757.000000,1.000000,39.999023
7721.000000,8793.000000,6759.000000,1.000000,39.999023
7721.000000,8794.000000,6759.000000,1.000000,39.999023
7721.000000,8794.000000,6759.000000,1.000000,39.999023
7722.000000,8796.000000,6759.000000,1.000000,39.999023
7725.000000,8799.000000,6760.000000,1.000000,39.999023
7724.000000,8801.000000,6761.000000,1.000000,39.999023
7726.000000,8803.000000,6762.000000,1.000000,39.999023
7728.000000,8807.000000,6764.000000,1.000000,39.999023
7731.000000,8810.000000,6765.000000,1.000000,39.999023
7728.000000,8809.000000,6765.000000,1.000000,39.999023
7728.000000,8803.000000,6761.000000,1.000000,39.999023
7726.000000,8803.000000,6758.000000,1.000000,39.999023
7722.000000,8796.000000,6758.000000,1.000000,39.999023
7719.000000,8793.000000,6756.000000,1.000000,39.999023
7719.000000,8792.000000,6757.000000,1.000000,39.999023
7720.000000,8793.000000,6757.000000,1.000000,39.999023
7719.000000,8792.000000,6758.000000,1.000000,39.999023
7728.000000,8803.000000,6764.000000,1.000000,39.999023
7738.000000,8814.000000,6771.000000,1.000000,39.999023
7738.000000,8813.000000,6770.000000,1.000000,39.999023
7736.000000,8813.000000,6770.000000,1.000000,39.999023
7740.000000,8819.000000,6773.000000,1.000000,39.999023
7743.000000,8819.000000,6775.000000,1.000000,39.999023
7742.000000,8820.000000,6776.000000,1.000000,39.999023
7740.000000,8820.000000,6777.000000,1.000000,39.999023
7741.000000,8820.000000,6778.000000,1.000000,39.999023
7741.000000,8820.000000,6776.000000,0.000000,27.586914
7740.000000,8818.000000,6772.000000,0.000000,27.586914
7723.000000,8797.000000,6761.000000,0.000000,27.586914
7718.000000,8792.000000,6757.000000,0.000000,27.586914
7717.000000,8792.000000,6757.000000,0.000000,27.586914
7718.000000,8792.000000,6757.000000,0.000000,27.586914
7718.000000,8792.000000,6757.000000,0.000000,27.586914
7719.000000,8793.000000,6757.000000,0.000000,27.586914
7718.000000,8792.000000,6757.000000,0.000000,27.586914
7720.000000,8794.000000,6758.000000,0.000000,27.586914
7720.000000,8797.000000,6759.000000,0.000000,27.586914
7721.000000,8798.000000,6758.000000,0.000000,27.586914
7723.000000,8801.000000,6761.000000,0.000000,27.586914
7725.000000,8803.000000,6761.000000,0.000000,27.586914
7725.000000,8803.000000,6762.000000,0.000000,27.586914
7724.000000,8803.000000,6762.000000,0.000000,27.586914
7718.000000,8796.000000,6759.000000,0.000000,27.586914
7716.000000,8789.000000,6756.000000,0.000000,27.586914
7714.000000,8787.000000,6754.000000,0.000000,27.586914
7714.000000,8786.000000,6754.000000,0.000000,27.586914
7716.000000,8788.000000,6755.000000,0.000000,27.586914
7715.000000,8786.000000,6755.000000,0.000000,27.586914
7715.000000,8786.000000,6754.000000,0.000000,27.586914
7715.000000,8786.000000,6754.000000,0.000000,27.586914
7716.000000,8788.000000,6754.000000,0.000000,27.586914
7718.000000,8792.000000,6757.000000,0.000000,27.586914
7719.000000,8794.000000,6758.000000,0.000000,27.586914
7721.000000,8797.000000,6759.000000,0.000000,27.586914
7723.000000,8801.000000,6759.000000,0.000000,27.586914
7725.000000,8805.000000,6761.000000,0.000000,27.586914
