8787.000000,8672.000000,6478.000000,0.000000,21504.000000
8787.000000,8666.000000,6475.000000,0.000000,21504.000000
8782.000000,8666.000000,6469.000000,0.000000,21504.000000
8774.000000,8653.000000,6469.000000,0.000000,21504.000000
8768.000000,8642.000000,6464.000000,0.000000,21504.000000
8768.000000,8641.000000,6464.000000,0.000000,21504.000000
8769.000000,8640.000000,6463.000000,0.000000,21504.000000
8766.000000,8638.000000,6463.000000,0.000000,21504.000000
8765.000000,8637.000000,6462.000000,0.000000,21504.000000
8766.000000,8635.000000,6462.000000,0.000000,21504.000000
8766.000000,8627.000000,6459.000000,0.000000,21504.000000
8761.000000,8627.000000,6459.000000,0.000000,21504.000000
8767.000000,8638.000000,6462.000000,0.000000,21504.000000
8767.000000,8638.000000,6462.000000,0.000000,21504.000000
8771.000000,8646.000000,6466.000000,0.000000,21504.000000
8775.000000,8652.000000,6467.000000,0.000000,21504.000000
8773.000000,8650.000000,6468.000000,0.000000,21504.000000
8769.000000,8642.000000,6463.000000,0.000000,21504.000000
8764.000000,8630.000000,6460.000000,1.000000,21504.000000
8761.000000,8613.000000,6456.000000,1.000000,21504.000000
8761.000000,8607.000000,6455.000000,1.000000,21504.000000
8759.000000,8607.000000,6455.000000,1.000000,21504.000000
8760.000000,8606.000000,6455.000000,1.000000,21504.000000
8760.000000,8606.000000,6455.000000,1.000000,21504.000000
8760.000000,8606.000000,6455.000000,1.000000,21504.000000
8758.000000,8607.000000,6455.000000,1.000000,21504.000000
8760.000000,8606.000000,6455.000000,1.000000,21504.000000
8760.000000,8610.000000,6455.000000,1.000000,21504.000000
8764.000000,8621.000000,6458.000000,1.000000,21504.000000
8764.000000,8628.000000,6460.000000,1.000000,21504.000000
8766.000000,8628.000000,6460.000000,1.000000,21504.000000
8767.000000,8635.000000,6461.000000,1.000000,21504.000000
8764.000000,8630.000000,6459.000000,1.000000,21504.000000
8760.000000,8610.000000,6456.000000,1.000000,21504.000000
8759.000000,8606.000000,6455.000000,1.000000,21504.000000
8747.000000,8605.000000,6455.000000,1.000000,21504.000000
8734.000000,8604.000000,6454.000000,1.000000,21504.000000
8736.000000,8605.000000,6454.000000,1.000000,21504.000000
8736.000000,8604.000000,6455.000000,1.000000,21504.000000
8734.000000,8604.000000,6455.000000,1.000000,21504.000000
8734.000000,8603.000000,6455.000000,1.000000,21504.000000
8736.000000,8605.000000,6455.000000,1.000000,21504.000000
8736.000000,8605.000000,6455.000000,1.000000,21504.000000
8737.000000,8605.000000,6455.000000,1.000000,21504.000000
8738.000000,8606.000000,6455.000000,1.000000,21504.000000
8746.000000,8607.000000,6454.000000,1.000000,21504.000000
8756.000000,8607.000000,6454.000000,1.000000,21504.000000
8756.000000,8607.000000,6455.000000,1.000000,21504.000000
8754.000000,8606.000000,6455.000000,1.000000,21504.000000
8736.000000,8605.000000,6454.000000,1.000000,21504.000000
8733.000000,8600.000000,6453.000000,1.000000,21504.000000
8731.000000,8597.000000,6452.000000,1.000000,21504.000000
8735.000000,8598.000000,6453.000000,1.000000,21504.000000
8733.000000,8597.000000,6453.000000,1.000000,21504.000000
8729.000000,8593.000000,6451.000000,1.000000,21504.000000
8731.000000,8595.000000,6450.000000,1.000000,21504.000000
8731.000000,8595.000000,6451.000000,1.000000,21504.000000
8731.000000,8595.000000,6451.000000,1.000000,21504.000000
8733.000000,8602.000000,6453.000000,1.000000,21504.000000
8736.000000,8605.000000,6455.000000,1.000000,21504.000000
8736.000000,8605.000000,6455.000000,1.000000,21504.000000
8740.000000,8605.000000,6454.000000,1.000000,21504.000000
8741.000000,8607.000000,6454.000000,1.000000,21504.000000
8736.000000,8605.000000,6454.000000,1.000000,21504.000000
8736.000000,8601.000000,6453.000000,1.000000,21504.000000
8732.000000,8601.000000,6451.000000,1.000000,21504.000000
8732.000000,8597.000000,6451.000000,1.000000,21504.000000
8731.000000,8593.000000,6450.000000,1.000000,21504.000000
8731.000000,8596.000000,6451.000000,1.000000,21504.000000
8730.000000,8595.000000,6451.000000,1.000000,21504.000000
8727.000000,8592.000000,6451.000000,1.000000,21504.000000
8728.000000,8591.000000,6449.000000,1.000000,21504.000000
8732.000000,8596.000000,6451.000000,1.000000,21504.000000
8732.000000,8598.000000,6452.000000,1.000000,21504.000000
8733.000000,8598.000000,6454.000000,1.000000,21504.000000
8735.000000,8602.000000,6454.000000,1.000000,21504.000000
8737.000000,8605.000000,6455.000000,1.000000,21504.000000
8737.000000,8606.000000,6455.000000,1.000000,21504.000000
8736.000000,8605.000000,6455.000000,1.000000,21504.000000
8732.000000,8604.000000,6454.000000,1.000000,21504.000000
8729.000000,8596.000000,6452.000000,1.000000,21504.000000
8726.000000,8590.000000,6449.000000,1.000000,21504.000000
8726.000000,8589.000000,6448.000000,1.000000,21504.000000
8726.000000,8589.000000,6448.000000,1.000000,21504.000000
8724.000000,8588.000000,6448.000000,1.000000,21504.000000
8723.000000,8585.000000,6447.000000,1.000000,21504.000000
8722.000000,8583.000000,6447.000000,1.000000,21504.000000
8724.000000,8586.000000,6448.000000,1.000000,21504.000000
8724.000000,8588.000000,6448.000000,1.000000,21504.000000
8729.000000,8594.000000,6450.000000,1.000000,21504.000000
8732.000000,8597.000000,6451.000000,1.000000,21504.000000
8732.000000,8597.000000,6454.000000,1.000000,21504.000000
8733.000000,8604.000000,6454.000000,1.000000,21504.000000
8733.000000,8605.000000,6454.000000,1.000000,21504.000000
8735.000000,8604.000000,6454.000000,1.000000,21504.000000
8730.000000,8598.000000,6451.000000,1.000000,21504.000000
8724.000000,8587.000000,6448.000000,1.000000,21504.000000
8720.000000,8583.000000,6447.000000,1.000000,21504.000000
8722.000000,8585.000000,6447.000000,1.000000,21504.000000
8727.000000,8591.000000,6449.000000,1.000000,21504.000000
8727.000000,8596.000000,6451.000000,1.000000,21504.000000
8730.000000,8596.000000,6451.000000,1.000000,21504.000000
8732.000000,8599.000000,6451.000000,1.000000,21504.000000
8732.000000,8600.000000,6452.000000,1.000000,21504.000000
8734.000000,8605.000000,6454.000000,1.000000,21504.000000
8738.000000,8607.000000,6454.000000,1.000000,21504.000000
8749.000000,8610.000000,6452.000000,1.000000,21504.000000
8757.000000,8612.000000,6452.000000,1.000000,21504.000000
8756.000000,8615.000000,6451.000000,1.000000,21504.000000
8756.000000,8617.000000,6452.000000,1.000000,21504.000000
8758.000000,8617.000000,6450.000000,1.000000,21504.000000
8757.000000,8615.000000,6450.000000,1.000000,21504.000000
8757.000000,8614.000000,6451.000000,1.000000,21504.000000
8756.000000,8615.000000,6450.000000,1.000000,21504.000000
8759.000000,8616.000000,6450.000000,1.000000,21504.000000
8762.000000,8619.000000,6451.000000,1.000000,21504.000000
8765.000000,8627.000000,6453.000000,1.000000,21504.000000
8768.000000,8633.000000,6455.000000,1.000000,21504.000000
8768.000000,8638.000000,6456.000000,1.000000,21504.000000
8770.000000,8638.000000,6457.000000,1.000000,21504.000000
8774.000000,8645.000000,6457.000000,1.000000,21504.000000
8778.000000,8653.000000,6459.000000,1.000000,21504.000000
8782.000000,8661.000000,6461.000000,1.000000,21504.000000
8785.000000,8666.000000,6466.000000,1.000000,21504.000000
8787.000000,8668.000000,6466.000000,1.000000,21504.000000
8782.000000,8663.000000,6462.000000,1.000000,21504.000000
8775.000000,8649.000000,6458.000000,1.000000,21504.000000
8775.000000,8638.000000,6456.000000,1.000000,21504.000000
8770.000000,8638.000000,6456.000000,1.000000,21504.000000
8768.000000,8637.000000,6456.000000,1.000000,21504.000000
8770.000000,8639.000000,6456.000000,1.000000,21504.000000
8771.000000,8640.000000,6456.000000,1.000000,21504.000000
8772.000000,8641.000000,6456.000000,1.000000,21504.000000
8775.000000,8644.000000,6456.000000,1.000000,21504.000000
8776.000000,8646.000000,6457.000000,1.000000,21504.000000
8778.000000,8652.000000,6458.000000,1.000000,21504.000000
8778.000000,8657.000000,6459.000000,1.000000,21504.000000
8781.000000,8657.000000,6463.000000,1.000000,21504.000000
8785.000000,8664.000000,6463.000000,0.000000,21504.000000
8788.000000,8667.000000,6466.000000,0.000000,21504.000000
8785.000000,8669.000000,6465.000000,0.000000,21504.000000
8784.000000,8662.000000,6462.000000,0.000000,21504.000000
8779.000000,8653.000000,6458.000000,0.000000,21504.000000
8779.000000,8651.000000,6457.000000,0.000000,21504.000000
8781.000000,8657.000000,6458.000000,0.000000,21504.000000
8795.000000,8676.000000,6469.000000,0.000000,21504.000000
8795.000000,8683.000000,6473.000000,0.000000,21504.000000
8799.000000,8683.000000,6473.000000,0.000000,21504.000000
8804.000000,8689.000000,6473.000000,0.000000,21504.000000
8809.000000,8697.000000,6478.000000,0.000000,21504.000000
8811.000000,8701.000000,6482.000000,0.000000,21504.000000
8817.000000,8709.000000,6484.000000,0.000000,21504.000000
8815.000000,8709.000000,6482.000000,0.000000,21504.000000
8822.000000,8719.000000,6490.000000,0.000000,21504.000000
8821.000000,8717.000000,6490.000000,0.000000,21504.000000
8812.000000,8703.000000,6482.000000,0.000000,21504.000000
8812.000000,8703.000000,6481.000000,0.000000,21504.000000
8813.000000,8702.000000,6481.000000,0.000000,21504.000000
8808.000000,8692.000000,6478.000000,0.000000,21504.000000
8807.000000,8690.000000,6474.000000,0.000000,21504.000000
8805.000000,8687.000000,6473.000000,0.000000,21504.000000
8802.000000,8682.000000,6471.000000,0.000000,21504.000000
8801.000000,8677.000000,6467.000000,0.000000,21504.000000
8800.000000,8675.000000,6467.000000,0.000000,21504.000000
8800.000000,8677.000000,6468.000000,0.000000,21504.000000
8801.000000,8677.000000,6470.000000,0.000000,21504.000000
8801.000000,8679.000000,6470.000000,0.000000,21504.000000
8801.000000,8682.000000,6472.000000,0.000000,21504.000000
8805.000000,8686.000000,6475.000000,0.000000,21504.000000
8802.000000,8683.000000,6471.000000,0.000000,21504.000000
8794.000000,8670.000000,6465.000000,0.000000,21504.000000
8788.000000,8654.000000,6459.000000,0.000000,21504.000000
8784.000000,8647.000000,6456.000000,0.000000,21504.000000
8784.000000,8642.000000,6456.000000,0.000000,21504.000000
8781.000000,8642.000000,6456.000000,0.000000,21504.000000
8778.000000,8637.000000,6454.000000,0.000000,21504.000000
8776.000000,8634.000000,6455.000000,0.000000,21504.000000
8776.000000,8630.000000,6454.000000,0.000000,21504.000000
8777.000000,8632.000000,6455.000000,0.000000,21504.000000
8779.000000,8635.000000,6455.000000,0.000000,21504.000000
8777.000000,8633.000000,6454.000000,0.000000,21504.000000
8779.000000,8639.000000,6454.000000,0.000000,21504.000000
8779.000000,8639.000000,6457.000000,0.000000,21504.000000
8784.000000,8647.000000,6457.000000,0.000000,21504.000000
8779.000000,8640.000000,6455.000000,0.000000,21504.000000
8773.000000,8627.000000,6453.000000,0.000000,21504.000000
8770.000000,8616.000000,6450.000000,0.000000,21504.000000
8760.000000,8615.000000,6450.000000,0.000000,21504.000000
8759.000000,8613.000000,6451.000000,0.000000,21504.000000
8758.000000,8612.000000,6452.000000,0.000000,21504.000000
8753.000000,8609.000000,6453.000000,0.000000,21504.000000
8753.000000,8606.000000,6454.000000,0.000000,21504.000000
8751.000000,8606.000000,6454.000000,0.000000,21504.000000
8751.000000,8606.000000,6454.000000,0.000000,21504.000000
8754.000000,8608.000000,6453.000000,0.000000,21504.000000
8757.000000,8612.000000,6452.000000,0.000000,21504.000000
8759.000000,8613.000000,6451.000000,0.000000,21504.000000
8763.000000,8615.000000,6450.000000,0.000000,21504.000000
8765.000000,8616.000000,6449.000000,0.000000,21504.000000
8759.000000,8613.000000,6451.000000,0.000000,21504.000000
8759.000000,8604.000000,6454.000000,0.000000,21504.000000
8747.000000,8604.000000,6454.000000,0.000000,21504.000000
8747.000000,8593.000000,6445.000000,0.000000,21504.000000
8743.000000,8586.000000,6440.000000,0.000000,21504.000000
8741.000000,8583.000000,6439.000000,0.000000,21504.000000
8741.000000,8581.000000,6437.000000,0.000000,21504.000000
8735.000000,8576.000000,6434.000000,0.000000,21504.000000
8738.000000,8580.000000,6435.000000,0.000000,21504.000000
8734.000000,8579.000000,6434.000000,0.000000,21504.000000
8734.000000,8584.000000,6435.000000,0.000000,21504.000000
8739.000000,8584.000000,6435.000000,0.000000,21504.000000
8746.000000,8597.000000,6445.000000,0.000000,21504.000000
8741.000000,8594.000000,6443.000000,0.000000,21504.000000
8748.000000,8604.000000,6454.000000,0.000000,21504.000000
8748.000000,8605.000000,6454.000000,0.000000,21504.000000
8744.000000,8597.000000,6446.000000,0.000000,21504.000000
8737.000000,8577.000000,6433.000000,0.000000,21504.000000
8727.000000,8565.000000,6422.000000,0.000000,21504.000000
8727.000000,8563.000000,6419.000000,0.000000,21504.000000
8727.000000,8563.000000,6422.000000,0.000000,21504.000000
8728.000000,8563.000000,6422.000000,0.000000,21504.000000
8725.000000,8561.000000,6419.000000,0.000000,21504.000000
8724.000000,8562.000000,6418.000000,0.000000,21504.000000
8726.000000,8565.000000,6418.000000,0.000000,21504.000000
8730.000000,8568.000000,6425.000000,0.000000,21504.000000
8735.000000,8575.000000,6429.000000,0.000000,21504.000000
8742.000000,8582.000000,6432.000000,0.000000,21504.000000
8742.000000,8590.000000,6440.000000,0.000000,21504.000000
8744.000000,8590.000000,6446.000000,0.000000,21504.000000
8746.000000,8598.000000,6446.000000,0.000000,21504.000000
8746.000000,8601.000000,6450.000000,0.000000,21504.000000
8745.000000,8592.000000,6439.000000,0.000000,21504.000000
8731.000000,8574.000000,6428.000000,0.000000,21504.000000
8725.000000,8564.000000,6419.000000,0.000000,21504.000000
8722.000000,8561.000000,6416.000000,0.000000,21504.000000
8721.000000,8561.000000,6417.000000,0.000000,21504.000000
8721.000000,8560.000000,6416.000000,0.000000,21504.000000
8720.000000,8560.000000,6416.000000,0.000000,21504.000000
8718.000000,8558.000000,6412.000000,0.000000,21504.000000
8724.000000,8562.000000,6419.000000,0.000000,21504.000000
8716.000000,8561.000000,6412.000000,0.000000,21504.000000
8734.000000,8574.000000,6428.000000,0.000000,21504.000000
8741.000000,8585.000000,6436.000000,0.000000,21504.000000
8746.000000,8594.000000,6441.000000,0.000000,21504.000000
8746.000000,8602.000000,6450.000000,0.000000,21504.000000
8746.000000,8605.000000,6453.000000,0.000000,21504.000000
8748.000000,8605.000000,6452.000000,0.000000,21504.000000
8748.000000,8604.000000,6452.000000,0.000000,21504.000000
8744.000000,8591.000000,6440.000000,0.000000,21504.000000
8735.000000,8577.000000,6429.000000,0.000000,21504.000000
8732.000000,8575.000000,6429.000000,0.000000,21504.000000
8734.000000,8576.000000,6428.000000,0.000000,21504.000000
8736.000000,8580.000000,6430.000000,0.000000,21504.000000
8737.000000,8582.000000,6432.000000,0.000000,21504.000000
8737.000000,8583.000000,6432.000000,0.000000,21504.000000
8739.000000,8583.000000,6432.000000,0.000000,21504.000000
8742.000000,8587.000000,6435.000000,0.000000,21504.000000
8743.000000,8593.000000,6440.000000,0.000000,21504.000000
8745.000000,8600.000000,6446.000000,1.000000,21504.000000
8744.000000,8604.000000,6451.000000,1.000000,21504.000000
8752.000000,8610.000000,6451.000000,1.000000,21504.000000
8758.000000,8615.000000,6450.000000,1.000000,21504.000000
8758.000000,8615.000000,6450.000000,1.000000,21504.000000
8749.000000,8611.000000,6452.000000,1.000000,21504.000000
8749.000000,8603.000000,6450.000000,1.000000,21504.000000
8744.000000,8603.000000,6439.000000,1.000000,21504.000000
8739.000000,8592.000000,6439.000000,1.000000,21504.000000
8744.000000,8601.000000,6447.000000,1.000000,21504.000000
8740.000000,8593.000000,6439.000000,1.000000,21504.000000
8744.000000,8604.000000,6452.000000,1.000000,21504.000000
8742.000000,8599.000000,6444.000000,1.000000,21504.000000
8737.000000,8593.000000,6436.000000,1.000000,21504.000000
8738.000000,8596.000000,6440.000000,1.000000,21504.000000
8738.000000,8605.000000,6448.000000,1.000000,21504.000000
8739.000000,8605.000000,6452.000000,1.000000,21504.000000
8742.000000,8609.000000,6452.000000,1.000000,21504.000000
8748.000000,8613.000000,6449.000000,1.000000,21504.000000
8752.000000,8617.000000,6448.000000,1.000000,21504.000000
8755.000000,8619.000000,6448.000000,1.000000,21504.000000
8751.000000,8618.000000,6448.000000,1.000000,21504.000000
8743.000000,8612.000000,6451.000000,1.000000,21504.000000
8737.000000,8607.000000,6452.000000,1.000000,21504.000000
8735.000000,8605.000000,6452.000000,1.000000,21504.000000
8735.000000,8605.000000,6452.000000,1.000000,21504.000000
8738.000000,8606.000000,6452.000000,1.000000,21504.000000
8739.000000,8607.000000,6452.000000,1.000000,21504.000000
8738.000000,8607.000000,6453.000000,1.000000,21504.000000
8741.000000,8609.000000,6452.000000,1.000000,21504.000000
8745.000000,8612.000000,6451.000000,1.000000,21504.000000
8748.000000,8615.000000,6450.000000,1.000000,21504.000000
8751.000000,8617.000000,6449.000000,1.000000,21504.000000
8751.000000,8619.000000,6448.000000,1.000000,21504.000000
8755.000000,8619.000000,6448.000000,1.000000,21504.000000
8757.000000,8621.000000,6447.000000,1.000000,21504.000000
8763.000000,8624.000000,6446.000000,1.000000,21504.000000
8764.000000,8623.000000,6446.000000,1.000000,21504.000000
8756.000000,8621.000000,6447.000000,1.000000,21504.000000
8750.000000,8618.000000,6449.000000,1.000000,21504.000000
8746.000000,8615.000000,6450.000000,1.000000,21504.000000
8747.000000,8614.000000,6449.000000,1.000000,21504.000000
8747.000000,8615.000000,6449.000000,1.000000,21504.000000
8748.000000,8615.000000,6449.000000,1.000000,21504.000000
8747.000000,8615.000000,6449.000000,1.000000,21504.000000
8747.000000,8616.000000,6449.000000,1.000000,21504.000000
8748.000000,8617.000000,6449.000000,1.000000,21504.000000
8749.000000,8617.000000,6449.000000,1.000000,21504.000000
8753.000000,8620.000000,6447.000000,1.000000,21504.000000
8757.000000,8622.000000,6447.000000,1.000000,21504.000000
8764.000000,8625.000000,6445.000000,1.000000,21504.000000
8767.000000,8626.000000,6445.000000,1.000000,21504.000000
8767.000000,8626.000000,6445.000000,1.000000,21504.000000
8769.000000,8627.000000,6445.000000,1.000000,21504.000000
8763.000000,8624.000000,6445.000000,1.000000,21504.000000
8753.000000,8620.000000,6447.000000,1.000000,21504.000000
8751.000000,8618.000000,6448.000000,1.000000,21504.000000
8750.000000,8618.000000,6448.000000,1.000000,21504.000000
8749.000000,8619.000000,6448.000000,1.000000,21504.000000
8750.000000,8619.000000,6448.000000,1.000000,21504.000000
8750.000000,8619.000000,6448.000000,1.000000,21504.000000
8750.000000,8619.000000,6448.000000,1.000000,21504.000000
8751.000000,8619.000000,6448.000000,1.000000,21504.000000
8750.000000,8619.000000,6448.000000,1.000000,21504.000000
8753.000000,8621.000000,6447.000000,1.000000,21504.000000
8759.000000,8623.000000,6446.000000,1.000000,21504.000000
8762.000000,8624.000000,6446.000000,1.000000,21504.000000
8766.000000,8632.000000,6447.000000,1.000000,21504.000000
8767.000000,8637.000000,6449.000000,1.000000,21504.000000
8767.000000,8637.000000,6447.000000,1.000000,21504.000000
8767.000000,8634.000000,6447.000000,1.000000,21504.000000
8762.000000,8627.000000,6444.000000,1.000000,21504.000000
8750.000000,8622.000000,6446.000000,1.000000,21504.000000
8752.000000,8622.000000,6447.000000,1.000000,21504.000000
8751.000000,8621.000000,6447.000000,1.000000,21504.000000
8754.000000,8623.000000,6446.000000,1.000000,21504.000000
8752.000000,8623.000000,6446.000000,1.000000,21504.000000
8748.000000,8621.000000,6447.000000,1.000000,21504.000000
8748.000000,8621.000000,6446.000000,1.000000,21504.000000
8751.000000,8622.000000,6446.000000,1.000000,21504.000000
8757.000000,8623.000000,6446.000000,1.000000,21504.000000
8760.000000,8627.000000,6445.000000,1.000000,21504.000000
8764.000000,8629.000000,6444.000000,1.000000,21504.000000
8768.000000,8633.000000,6446.000000,1.000000,21504.000000
8768.000000,8640.000000,6450.000000,1.000000,21504.000000
8768.000000,8639.000000,6450.000000,1.000000,21504.000000
8762.000000,8628.000000,6446.000000,1.000000,21504.000000
8762.000000,8623.000000,6447.000000,1.000000,21504.000000
8757.000000,8623.000000,6447.000000,1.000000,21504.000000
8754.000000,8621.000000,6447.000000,1.000000,21504.000000
8753.000000,8623.000000,6446.000000,1.000000,21504.000000
8754.000000,8622.000000,6447.000000,1.000000,21504.000000
8753.000000,8621.000000,6447.000000,1.000000,21504.000000
8753.000000,8623.000000,6446.000000,1.000000,21504.000000
8755.000000,8623.000000,6446.000000,1.000000,21504.000000
8758.000000,8624.000000,6446.000000,1.000000,21504.000000
8758.000000,8626.000000,6445.000000,1.000000,21504.000000
8762.000000,8626.000000,6445.000000,1.000000,21504.000000
8764.000000,8630.000000,6446.000000,1.000000,21504.000000
8767.000000,8636.000000,6449.000000,1.000000,21504.000000
8769.000000,8642.000000,6451.000000,1.000000,21504.000000
8769.000000,8640.000000,6450.000000,1.000000,21504.000000
8764.000000,8629.000000,6446.000000,1.000000,21504.000000
8756.000000,8624.000000,6446.000000,1.000000,21504.000000
8750.000000,8622.000000,6447.000000,1.000000,21504.000000
8750.000000,8621.000000,6447.000000,1.000000,21504.000000
8750.000000,8621.000000,6447.000000,1.000000,21504.000000
8752.000000,8622.000000,6447.000000,1.000000,21504.000000
8754.000000,8622.000000,6447.000000,1.000000,21504.000000
8752.000000,8623.000000,6446.000000,1.000000,21504.000000
8753.000000,8623.000000,6446.000000,1.000000,21504.000000
8755.000000,8625.000000,6445.000000,1.000000,21504.000000
8761.000000,8626.000000,6444.000000,1.000000,21504.000000
8761.000000,8629.000000,6443.000000,1.000000,21504.000000
8768.000000,8629.000000,6445.000000,1.000000,21504.000000
8768.000000,8632.000000,6445.000000,1.000000,21504.000000
8770.000000,8637.000000,6447.000000,1.000000,21504.000000
8770.000000,8638.000000,6448.000000,1.000000,21504.000000
8765.000000,8629.000000,6445.000000,1.000000,21504.000000
8755.000000,8624.000000,6446.000000,1.000000,21504.000000
8752.000000,8621.000000,6447.000000,0.000000,21504.000000
8750.000000,8619.000000,6448.000000,0.000000,21504.000000
8760.000000,8624.000000,6446.000000,0.000000,21504.000000
8760.000000,8620.000000,6447.000000,0.000000,21504.000000
8754.000000,8620.000000,6447.000000,0.000000,21504.000000
8764.000000,8622.000000,6447.000000,0.000000,21504.000000
8762.000000,8623.000000,6446.000000,0.000000,21504.000000
8769.000000,8625.000000,6446.000000,0.000000,21504.000000
8771.000000,8628.000000,6446.000000,0.000000,21504.000000
8773.000000,8635.000000,6449.000000,0.000000,21504.000000
8775.000000,8639.000000,6451.000000,0.000000,21504.000000
8779.000000,8646.000000,6454.000000,0.000000,21504.000000
8777.000000,8645.000000,6453.000000,0.000000,21504.000000
8777.000000,8645.000000,6449.000000,0.000000,21504.000000
8773.000000,8637.000000,6449.000000,0.000000,21504.000000
8767.000000,8624.000000,6446.000000,0.000000,21504.000000
8760.000000,8623.000000,6446.000000,0.000000,21504.000000
8760.000000,8622.000000,6447.000000,0.000000,21504.000000
8759.000000,8622.000000,6447.000000,0.000000,21504.000000
8758.000000,8621.000000,6447.000000,0.000000,21504.000000
8755.000000,8619.000000,6448.000000,0.000000,21504.000000
8760.000000,8622.000000,6447.000000,0.000000,21504.000000
8760.000000,8622.000000,6447.000000,0.000000,21504.000000
8762.000000,8622.000000,6447.000000,0.000000,21504.000000
8765.000000,8623.000000,6446.000000,0.000000,21504.000000
8770.000000,8624.000000,6446.000000,0.000000,21504.000000
8773.000000,8630.000000,6446.000000,0.000000,21504.000000
8774.000000,8637.000000,6449.000000,0.000000,21504.000000
8770.000000,8634.000000,6448.000000,0.000000,21504.000000
8764.000000,8626.000000,6445.000000,0.000000,21504.000000
8757.000000,8622.000000,6446.000000,0.000000,21504.000000
8757.000000,8622.000000,6448.000000,0.000000,21504.000000
8747.000000,8617.000000,6448.000000,0.000000,21504.000000
8753.000000,8619.000000,6448.000000,0.000000,21504.000000
8755.000000,8619.000000,6448.000000,0.000000,21504.000000
8754.000000,8618.000000,6449.000000,0.000000,21504.000000
8753.000000,8619.000000,6448.000000,0.000000,21504.000000
8756.000000,8619.000000,6448.000000,0.000000,21504.000000
8757.000000,8621.000000,6447.000000,0.000000,21504.000000
8759.000000,8623.000000,6446.000000,0.000000,21504.000000
8759.000000,8623.000000,6445.000000,0.000000,21504.000000
8765.000000,8625.000000,6445.000000,0.000000,21504.000000
8769.000000,8628.000000,6444.000000,0.000000,21504.000000
8773.000000,8630.000000,6444.000000,0.000000,21504.000000
8774.000000,8630.000000,6444.000000,0.000000,21504.000000
8766.000000,8626.000000,6445.000000,0.000000,21504.000000
8755.000000,8620.000000,6447.000000,0.000000,21504.000000
8752.000000,8617.000000,6449.000000,0.000000,21504.000000
8752.000000,8615.000000,6449.000000,0.000000,21504.000000
8750.000000,8615.000000,6449.000000,0.000000,21504.000000
8752.000000,8616.000000,6449.000000,0.000000,21504.000000
8750.000000,8615.000000,6449.000000,0.000000,21504.000000
8747.000000,8612.000000,6449.000000,0.000000,21504.000000
8747.000000,8612.000000,6450.000000,0.000000,21504.000000
8751.000000,8616.000000,6449.000000,0.000000,21504.000000
8755.000000,8617.000000,6449.000000,0.000000,21504.000000
8755.000000,8618.000000,6449.000000,0.000000,21504.000000
8755.000000,8618.000000,6447.000000,0.000000,21504.000000
8755.000000,8618.000000,6447.000000,0.000000,21504.000000
8762.000000,8623.000000,6445.000000,0.000000,21504.000000
8754.000000,8619.000000,6448.000000,0.000000,21504.000000
8756.000000,8618.000000,6447.000000,0.000000,21504.000000
8746.000000,8611.000000,6449.000000,0.000000,21504.000000
8740.000000,8600.000000,6441.000000,0.000000,21504.000000
8740.000000,8597.000000,6437.000000,0.000000,21504.000000
8740.000000,8597.000000,6436.000000,0.000000,21504.000000
8740.000000,8597.000000,6433.000000,0.000000,21504.000000
8738.000000,8596.000000,6433.000000,0.000000,21504.000000
8737.000000,8592.000000,6432.000000,0.000000,21504.000000
8739.000000,8590.000000,6428.000000,0.000000,21504.000000
8740.000000,8592.000000,6430.000000,0.000000,21504.000000
8740.000000,8597.000000,6437.000000,0.000000,21504.000000
8742.000000,8602.000000,6444.000000,0.000000,21504.000000
8744.000000,8605.000000,6445.000000,0.000000,21504.000000
8749.000000,8612.000000,6450.000000,0.000000,21504.000000
8749.000000,8612.000000,6450.000000,0.000000,21504.000000
8750.000000,8613.000000,6450.000000,0.000000,21504.000000
8740.000000,8602.000000,6442.000000,0.000000,21504.000000
8732.000000,8584.000000,6423.000000,0.000000,21504.000000
8721.000000,8573.000000,6415.000000,0.000000,21504.000000
8717.000000,8567.000000,6410.000000,0.000000,21504.000000
8718.000000,8568.000000,6409.000000,0.000000,21504.000000
8717.000000,8567.000000,6408.000000,0.000000,21504.000000
8717.000000,8565.000000,6403.000000,0.000000,21504.000000
8716.000000,8565.000000,6403.000000,0.000000,21504.000000
8713.000000,8560.000000,6402.000000,0.000000,21504.000000
8713.000000,8563.000000,6404.000000,0.000000,21504.000000
8721.000000,8572.000000,6412.000000,0.000000,21504.000000
8717.000000,8569.000000,6407.000000,0.000000,21504.000000
8732.000000,8582.000000,6420.000000,0.000000,21504.000000
8737.000000,8588.000000,6425.000000,0.000000,21504.000000
8737.000000,8590.000000,6427.000000,0.000000,21504.000000
8737.000000,8578.000000,6418.000000,0.000000,21504.000000
8728.000000,8578.000000,6418.000000,0.000000,21504.000000
8718.000000,8563.000000,6404.000000,0.000000,21504.000000
8711.000000,8552.000000,6402.000000,0.000000,21504.000000
8713.000000,8552.000000,6401.000000,0.000000,21504.000000
8711.000000,8552.000000,6402.000000,0.000000,21504.000000
8713.000000,8552.000000,6401.000000,0.000000,21504.000000
8712.000000,8549.000000,6401.000000,0.000000,21504.000000
8713.000000,8551.000000,6401.000000,0.000000,21504.000000
8713.000000,8551.000000,6401.000000,0.000000,21504.000000
8713.000000,8552.000000,6401.000000,0.000000,21504.000000
8716.000000,8559.000000,6400.000000,0.000000,21504.000000
8718.000000,8563.000000,6403.000000,0.000000,21504.000000
8719.000000,8568.000000,6409.000000,0.000000,21504.000000
8723.000000,8571.000000,6412.000000,0.000000,21504.000000
8727.000000,8576.000000,6417.000000,0.000000,21504.000000
8718.000000,8569.000000,6408.000000,0.000000,21504.000000
8718.000000,8557.000000,6402.000000,0.000000,21504.000000
8713.000000,8557.000000,6401.000000,0.000000,21504.000000
8712.000000,8548.000000,6401.000000,0.000000,21504.000000
8713.000000,8548.000000,6401.000000,0.000000,21504.000000
8713.000000,8546.000000,6401.000000,0.000000,21504.000000
8713.000000,8543.000000,6401.000000,0.000000,21504.000000
8714.000000,8547.000000,6401.000000,0.000000,21504.000000
8711.000000,8538.000000,6401.000000,0.000000,21504.000000
8716.000000,8550.000000,6400.000000,0.000000,21504.000000
8716.000000,8550.000000,6401.000000,0.000000,21504.000000
8712.000000,8549.000000,6401.000000,0.000000,21504.000000
8714.000000,8553.000000,6400.000000,1.000000,21504.000000
8716.000000,8559.000000,6400.000000,1.000000,21504.000000
8717.000000,8565.000000,6401.000000,1.000000,21504.000000
8719.000000,8568.000000,6405.000000,1.000000,21504.000000
8715.000000,8561.000000,6401.000000,1.000000,21504.000000
8712.000000,8549.000000,6402.000000,1.000000,21504.000000
8714.000000,8541.000000,6400.000000,1.000000,21504.000000
8715.000000,8538.000000,6400.000000,1.000000,21504.000000
8715.000000,8543.000000,6399.000000,1.000000,21504.000000
8717.000000,8543.000000,6398.000000,1.000000,21504.000000
8717.000000,8542.000000,6398.000000,1.000000,21504.000000
8720.000000,8541.000000,6397.000000,1.000000,21504.000000
8716.000000,8540.000000,6399.000000,1.000000,21504.000000
8716.000000,8542.000000,6400.000000,1.000000,21504.000000
8717.000000,8546.000000,6399.000000,1.000000,21504.000000
8717.000000,8550.000000,6399.000000,1.000000,21504.000000
8718.000000,8552.000000,6398.000000,1.000000,21504.000000
8718.000000,8556.000000,6399.000000,1.000000,21504.000000
8719.000000,8556.000000,6399.000000,1.000000,21504.000000
8717.000000,8550.000000,6399.000000,1.000000,21504.000000
8718.000000,8542.000000,6398.000000,1.000000,21504.000000
8716.000000,8529.000000,6397.000000,1.000000,21504.000000
8712.000000,8520.000000,6394.000000,1.000000,21504.000000
8712.000000,8517.000000,6392.000000,1.000000,21504.000000
8706.000000,8513.000000,6391.000000,1.000000,21504.000000
8696.000000,8504.000000,6382.000000,1.000000,21504.000000
8696.000000,8504.000000,6373.000000,1.000000,21504.000000
8686.000000,8498.000000,6373.000000,1.000000,21504.000000
8684.000000,8495.000000,6369.000000,1.000000,21504.000000
8685.000000,8497.000000,6369.000000,1.000000,21504.000000
8688.000000,8499.000000,6373.000000,1.000000,21504.000000
8686.000000,8498.000000,6372.000000,1.000000,21504.000000
8688.000000,8500.000000,6374.000000,1.000000,21504.000000
8693.000000,8505.000000,6377.000000,1.000000,21504.000000
8693.000000,8506.000000,6377.000000,1.000000,21504.000000
8693.000000,8506.000000,6373.000000,1.000000,21504.000000
8687.000000,8501.000000,6373.000000,1.000000,21504.000000
8681.000000,8489.000000,6367.000000,1.000000,21504.000000
8669.000000,8467.000000,6357.000000,1.000000,21504.000000
8664.000000,8460.000000,6355.000000,1.000000,21504.000000
8660.000000,8455.000000,6352.000000,1.000000,21504.000000
8656.000000,8451.000000,6349.000000,1.000000,21504.000000
8654.000000,8449.000000,6348.000000,1.000000,21504.000000
8654.000000,8448.000000,6348.000000,1.000000,21504.000000
8654.000000,8447.000000,6348.000000,1.000000,21504.000000
8652.000000,8447.000000,6348.000000,1.000000,21504.000000
8655.000000,8450.000000,6349.000000,1.000000,21504.000000
8658.000000,8456.000000,6353.000000,1.000000,21504.000000
8657.000000,8456.000000,6352.000000,1.000000,21504.000000
8662.000000,8461.000000,6354.000000,1.000000,21504.000000
8666.000000,8467.000000,6356.000000,1.000000,21504.000000
8655.000000,8457.000000,6352.000000,1.000000,21504.000000
8647.000000,8444.000000,6345.000000,1.000000,21504.000000
8647.000000,8439.000000,6339.000000,1.000000,21504.000000
8647.000000,8439.000000,6339.000000,1.000000,21504.000000
8647.000000,8439.000000,6339.000000,1.000000,21504.000000
8648.000000,8440.000000,6340.000000,1.000000,21504.000000
8647.000000,8440.000000,6341.000000,1.000000,21504.000000
8647.000000,8438.000000,6340.000000,1.000000,21504.000000
8647.000000,8439.000000,6340.000000,1.000000,21504.000000
8647.000000,8440.000000,6340.000000,1.000000,21504.000000
8648.000000,8443.000000,6342.000000,1.000000,21504.000000
8648.000000,8443.000000,6345.000000,1.000000,21504.000000
8649.000000,8445.000000,6345.000000,1.000000,21504.000000
8652.000000,8451.000000,6348.000000,1.000000,21504.000000
8659.000000,8458.000000,6352.000000,1.000000,21504.000000
8661.000000,8461.000000,6352.000000,1.000000,21504.000000
8657.000000,8458.000000,6353.000000,1.000000,21504.000000
8648.000000,8448.000000,6344.000000,1.000000,21504.000000
8647.000000,8441.000000,6340.000000,1.000000,21504.000000
8648.000000,8437.000000,6337.000000,1.000000,21504.000000
8648.000000,8437.000000,6337.000000,1.000000,21504.000000
8647.000000,8437.000000,6337.000000,1.000000,21504.000000
8648.000000,8435.000000,6334.000000,1.000000,21504.000000
8648.000000,8434.000000,6332.000000,1.000000,21504.000000
8648.000000,8434.000000,6333.000000,1.000000,21504.000000
8648.000000,8434.000000,6334.000000,1.000000,21504.000000
8648.000000,8435.000000,6333.000000,1.000000,21504.000000
8648.000000,8435.000000,6334.000000,1.000000,21504.000000
8648.000000,8436.000000,6334.000000,1.000000,21504.000000
8648.000000,8436.000000,6335.000000,1.000000,21504.000000
8647.000000,8437.000000,6335.000000,1.000000,21504.000000
8647.000000,8438.000000,6338.000000,1.000000,21504.000000
8647.000000,8438.000000,6337.000000,1.000000,21504.000000
8648.000000,8435.000000,6331.000000,1.000000,21504.000000
8644.000000,8423.000000,6325.000000,1.000000,21504.000000
8638.000000,8414.000000,6323.000000,1.000000,21504.000000
8637.000000,8409.000000,6321.000000,1.000000,21504.000000
8632.000000,8405.000000,6321.000000,1.000000,21504.000000
8632.000000,8396.000000,6316.000000,1.000000,21504.000000
8624.000000,8396.000000,6316.000000,1.000000,21504.000000
8618.000000,8388.000000,6313.000000,1.000000,21504.000000
8616.000000,8386.000000,6312.000000,1.000000,21504.000000
8620.000000,8389.000000,6314.000000,1.000000,21504.000000
8625.000000,8396.000000,6316.000000,1.000000,21504.000000
8633.000000,8405.000000,6321.000000,1.000000,21504.000000
8640.000000,8412.000000,6321.000000,1.000000,21504.000000
8641.000000,8416.000000,6324.000000,1.000000,21504.000000
8641.000000,8416.000000,6324.000000,1.000000,21504.000000
8644.000000,8420.000000,6324.000000,1.000000,21504.000000
8639.000000,8414.000000,6322.000000,1.000000,21504.000000
8624.000000,8398.000000,6317.000000,1.000000,21504.000000
8610.000000,8382.000000,6309.000000,1.000000,21504.000000
8608.000000,8378.000000,6306.000000,1.000000,21504.000000
8607.000000,8374.000000,6303.000000,1.000000,21504.000000
8606.000000,8373.000000,6301.000000,1.000000,21504.000000
8605.000000,8370.000000,6298.000000,1.000000,21504.000000
8605.000000,8370.000000,6294.000000,1.000000,21504.000000
8605.000000,8368.000000,6294.000000,1.000000,21504.000000
8605.000000,8367.000000,6295.000000,1.000000,21504.000000
8606.000000,8370.000000,6299.000000,1.000000,21504.000000
8606.000000,8373.000000,6301.000000,1.000000,21504.000000
8607.000000,8376.000000,6304.000000,1.000000,21504.000000
8608.000000,8378.000000,6307.000000,1.000000,21504.000000
8610.000000,8381.000000,6309.000000,1.000000,21504.000000
8608.000000,8378.000000,6307.000000,1.000000,21504.000000
8608.000000,8371.000000,6301.000000,1.000000,21504.000000
8606.000000,8371.000000,6301.000000,1.000000,21504.000000
8605.000000,8368.000000,6296.000000,1.000000,21504.000000
8605.000000,8365.000000,6296.000000,1.000000,21504.000000
8605.000000,8365.000000,6295.000000,0.000000,21504.000000
8605.000000,8364.000000,6295.000000,0.000000,21504.000000
8605.000000,8364.000000,6294.000000,0.000000,21504.000000
8604.000000,8363.000000,6293.000000,0.000000,21504.000000
8605.000000,8363.000000,6294.000000,0.000000,21504.000000
8605.000000,8363.000000,6294.000000,0.000000,21504.000000
8605.000000,8363.000000,6296.000000,0.000000,21504.000000
8605.000000,8365.000000,6296.000000,0.000000,21504.000000
8606.000000,8368.000000,6299.000000,0.000000,21504.000000
8606.000000,8370.000000,6305.000000,0.000000,21504.000000
8607.000000,8373.000000,6308.000000,0.000000,21504.000000
8608.000000,8375.000000,6309.000000,0.000000,21504.000000
8607.000000,8371.000000,6306.000000,0.000000,21504.000000
8605.000000,8364.000000,6301.000000,0.000000,21504.000000
8605.000000,8361.000000,6298.000000,0.000000,21504.000000
8605.000000,8361.000000,6298.000000,0.000000,21504.000000
8595.000000,8350.000000,6290.000000,0.000000,21504.000000
8604.000000,8358.000000,6296.000000,0.000000,21504.000000
8603.000000,8357.000000,6294.000000,0.000000,21504.000000
8593.000000,8347.000000,6288.000000,0.000000,21504.000000
8600.000000,8354.000000,6292.000000,0.000000,21504.000000
8600.000000,8355.000000,6292.000000,0.000000,21504.000000
8602.000000,8356.000000,6294.000000,0.000000,21504.000000
8602.000000,8361.000000,6296.000000,0.000000,21504.000000
8603.000000,8361.000000,6296.000000,0.000000,21504.000000
8604.000000,8362.000000,6297.000000,0.000000,21504.000000
8603.000000,8362.000000,6298.000000,0.000000,21504.000000
8605.000000,8365.000000,6300.000000,0.000000,21504.000000
8603.000000,8363.000000,6299.000000,0.000000,21504.000000
8596.000000,8351.000000,6294.000000,0.000000,21504.000000
8587.000000,8340.000000,6290.000000,0.000000,21504.000000
8587.000000,8333.000000,6286.000000,0.000000,21504.000000
8583.000000,8333.000000,6286.000000,0.000000,21504.000000
8584.000000,8334.000000,6286.000000,0.000000,21504.000000
8584.000000,8333.000000,6286.000000,0.000000,21504.000000
8583.000000,8332.000000,6285.000000,0.000000,21504.000000
8582.000000,8331.000000,6285.000000,0.000000,21504.000000
8581.000000,8330.000000,6285.000000,0.000000,21504.000000
8583.000000,8334.000000,6287.000000,0.000000,21504.000000
8585.000000,8336.000000,6289.000000,0.000000,21504.000000
8585.000000,8340.000000,6290.000000,0.000000,21504.000000
8587.000000,8340.000000,6293.000000,0.000000,21504.000000
8591.000000,8347.000000,6293.000000,0.000000,21504.000000
8595.000000,8354.000000,6296.000000,0.000000,21504.000000
8583.000000,8343.000000,6290.000000,0.000000,21504.000000
8585.000000,8341.000000,6291.000000,0.000000,21504.000000
8577.000000,8328.000000,6286.000000,0.000000,21504.000000
8566.000000,8314.000000,6278.000000,0.000000,21504.000000
8572.000000,8319.000000,6282.000000,0.000000,21504.000000
8572.000000,8320.000000,6282.000000,0.000000,21504.000000
8574.000000,8320.000000,6282.000000,0.000000,21504.000000
8572.000000,8318.000000,6281.000000,0.000000,21504.000000
8570.000000,8317.000000,6281.000000,0.000000,21504.000000
8570.000000,8317.000000,6281.000000,0.000000,21504.000000
8570.000000,8320.000000,6282.000000,0.000000,21504.000000
8574.000000,8326.000000,6284.000000,0.000000,21504.000000
8577.000000,8330.000000,6286.000000,0.000000,21504.000000
8577.000000,8334.000000,6288.000000,0.000000,21504.000000
8579.000000,8334.000000,6288.000000,0.000000,21504.000000
8579.000000,8338.000000,6290.000000,0.000000,21504.000000
8584.000000,8344.000000,6293.000000,0.000000,21504.000000
8581.000000,8340.000000,6291.000000,0.000000,21504.000000
8573.000000,8325.000000,6285.000000,0.000000,21504.000000
8567.000000,8316.000000,6282.000000,0.000000,21504.000000
8566.000000,8313.000000,6281.000000,0.000000,21504.000000
8563.000000,8311.000000,6278.000000,0.000000,21504.000000
8563.000000,8311.000000,6280.000000,0.000000,21504.000000
8565.000000,8312.000000,6280.000000,0.000000,21504.000000
8563.000000,8309.000000,6279.000000,0.000000,21504.000000
8560.000000,8307.000000,6277.000000,0.000000,21504.000000
8564.000000,8309.000000,6279.000000,0.000000,21504.000000
8565.000000,8311.000000,6281.000000,0.000000,21504.000000
8561.000000,8310.000000,6277.000000,0.000000,21504.000000
8569.000000,8319.000000,6283.000000,0.000000,21504.000000
8572.000000,8326.000000,6285.000000,0.000000,21504.000000
8572.000000,8326.000000,6284.000000,0.000000,21504.000000
8570.000000,8325.000000,6284.000000,0.000000,21504.000000
8569.000000,8323.000000,6284.000000,0.000000,21504.000000
8566.000000,8316.000000,6281.000000,0.000000,21504.000000
8560.000000,8309.000000,6278.000000,0.000000,21504.000000
8555.000000,8305.000000,6275.000000,0.000000,21504.000000
8557.000000,8306.000000,6275.000000,0.000000,21504.000000
8558.000000,8306.000000,6275.000000,0.000000,21504.000000
8558.000000,8305.000000,6275.000000,0.000000,21504.000000
8558.000000,8306.000000,6274.000000,0.000000,21504.000000
8559.000000,8306.000000,6274.000000,0.000000,21504.000000
8559.000000,8307.000000,6275.000000,0.000000,21504.000000
8562.000000,8310.000000,6278.000000,0.000000,21504.000000
8565.000000,8314.000000,6280.000000,0.000000,21504.000000
8569.000000,8319.000000,6282.000000,0.000000,21504.000000
8571.000000,8322.000000,6283.000000,0.000000,21504.000000
8574.000000,8329.000000,6286.000000,0.000000,21504.000000
8575.000000,8329.000000,6287.000000,0.000000,21504.000000
8575.000000,8318.000000,6282.000000,0.000000,21504.000000
8568.000000,8318.000000,6282.000000,0.000000,21504.000000
8564.000000,8311.000000,6278.000000,0.000000,21504.000000
8561.000000,8306.000000,6275.000000,0.000000,21504.000000
8560.000000,8307.000000,6274.000000,0.000000,21504.000000
8561.000000,8308.000000,6276.000000,0.000000,21504.000000
8562.000000,8308.000000,6275.000000,0.000000,21504.000000
8554.000000,8303.000000,6271.000000,0.000000,21504.000000
8559.000000,8306.000000,6274.000000,0.000000,21504.000000
8559.000000,8311.000000,6277.000000,0.000000,21504.000000
8565.000000,8311.000000,6278.000000,0.000000,21504.000000
8565.000000,8313.000000,6278.000000,0.000000,21504.000000
8569.000000,8319.000000,6280.000000,0.000000,21504.000000
8574.000000,8327.000000,6284.000000,0.000000,21504.000000
8578.000000,8332.000000,6286.000000,0.000000,21504.000000
8580.000000,8335.000000,6287.000000,0.000000,21504.000000
8574.000000,8327.000000,6285.000000,0.000000,21504.000000
8567.000000,8314.000000,6279.000000,0.000000,21504.000000
8567.000000,8308.000000,6275.000000,0.000000,21504.000000
8561.000000,8308.000000,6275.000000,0.000000,21504.000000
8564.000000,8307.000000,6275.000000,0.000000,21504.000000
8565.000000,8309.000000,6277.000000,0.000000,21504.000000
8564.000000,8309.000000,6276.000000,0.000000,21504.000000
8563.000000,8308.000000,6275.000000,0.000000,21504.000000
8564.000000,8309.000000,6276.000000,0.000000,21504.000000
8566.000000,8311.000000,6276.000000,0.000000,21504.000000
8571.000000,8314.000000,6279.000000,0.000000,21504.000000
8571.000000,8318.000000,6281.000000,1.000000,21504.000000
8574.000000,8324.000000,6283.000000,1.000000,21504.000000
8574.000000,8328.000000,6284.000000,1.000000,21504.000000
8575.000000,8328.000000,6284.000000,1.000000,21504.000000
8579.000000,8334.000000,6287.000000,1.000000,21504.000000
8575.000000,8329.000000,6284.000000,1.000000,21504.000000
8569.000000,8316.000000,6279.000000,1.000000,21504.000000
8564.000000,8309.000000,6274.000000,1.000000,21504.000000
8558.000000,8305.000000,6269.000000,1.000000,21504.000000
8563.000000,8308.000000,6272.000000,1.000000,21504.000000
8564.000000,8308.000000,6272.000000,1.000000,21504.000000
8564.000000,8305.000000,6270.000000,1.000000,21504.000000
8561.000000,8305.000000,6270.000000,1.000000,21504.000000
8559.000000,8303.000000,6268.000000,1.000000,21504.000000
8554.000000,8301.000000,6266.000000,1.000000,21504.000000
8556.000000,8303.000000,6267.000000,1.000000,21504.000000
8559.000000,8307.000000,6268.000000,1.000000,21504.000000
8562.000000,8310.000000,6271.000000,1.000000,21504.000000
8566.000000,8315.000000,6274.000000,1.000000,21504.000000
8567.000000,8319.000000,6275.000000,1.000000,21504.000000
8567.000000,8314.000000,6274.000000,1.000000,21504.000000
8564.000000,8314.000000,6274.000000,1.000000,21504.000000
8558.000000,8308.000000,6268.000000,1.000000,21504.000000
8554.000000,8303.000000,6266.000000,1.000000,21504.000000
8552.000000,8301.000000,6264.000000,1.000000,21504.000000
8554.000000,8303.000000,6265.000000,1.000000,21504.000000
8555.000000,8303.000000,6266.000000,1.000000,21504.000000
8555.000000,8301.000000,6265.000000,1.000000,21504.000000
8555.000000,8302.000000,6266.000000,1.000000,21504.000000
8555.000000,8303.000000,6266.000000,1.000000,21504.000000
8557.000000,8303.000000,6266.000000,1.000000,21504.000000
8561.000000,8304.000000,6267.000000,1.000000,21504.000000
8564.000000,8308.000000,6269.000000,1.000000,21504.000000
8567.000000,8312.000000,6271.000000,1.000000,21504.000000
8569.000000,8317.000000,6274.000000,1.000000,21504.000000
8573.000000,8323.000000,6276.000000,1.000000,21504.000000
8568.000000,8317.000000,6273.000000,1.000000,21504.000000
8563.000000,8309.000000,6268.000000,1.000000,21504.000000
8563.000000,8309.000000,6264.000000,1.000000,21504.000000
8558.000000,8303.000000,6264.000000,1.000000,21504.000000
8557.000000,8301.000000,6262.000000,1.000000,21504.000000
8556.000000,8301.000000,6263.000000,1.000000,21504.000000
8558.000000,8302.000000,6264.000000,1.000000,21504.000000
8557.000000,8301.000000,6262.000000,1.000000,21504.000000
8559.000000,8301.000000,6263.000000,1.000000,21504.000000
8561.000000,8303.000000,6264.000000,1.000000,21504.000000
8563.000000,8306.000000,6265.000000,1.000000,21504.000000
8563.000000,8307.000000,6266.000000,1.000000,21504.000000
8565.000000,8307.000000,6266.000000,1.000000,21504.000000
8569.000000,8312.000000,6268.000000,1.000000,21504.000000
8571.000000,8317.000000,6272.000000,1.000000,21504.000000
8575.000000,8321.000000,6274.000000,1.000000,21504.000000
8572.000000,8318.000000,6272.000000,1.000000,21504.000000
8564.000000,8308.000000,6266.000000,1.000000,21504.000000
8560.000000,8302.000000,6262.000000,1.000000,21504.000000
8560.000000,8300.000000,6262.000000,1.000000,21504.000000
8559.000000,8300.000000,6262.000000,1.000000,21504.000000
8560.000000,8301.000000,6262.000000,1.000000,21504.000000
8561.000000,8302.000000,6261.000000,1.000000,21504.000000
8562.000000,8302.000000,6261.000000,1.000000,21504.000000
8561.000000,8302.000000,6261.000000,1.000000,21504.000000
8564.000000,8305.000000,6263.000000,1.000000,21504.000000
8565.000000,8306.000000,6265.000000,1.000000,21504.000000
8568.000000,8309.000000,6266.000000,1.000000,21504.000000
8568.000000,8312.000000,6267.000000,1.000000,21504.000000
8569.000000,8312.000000,6267.000000,1.000000,21504.000000
8573.000000,8317.000000,6270.000000,1.000000,21504.000000
8576.000000,8322.000000,6272.000000,1.000000,21504.000000
8572.000000,8317.000000,6270.000000,1.000000,21504.000000
8565.000000,8307.000000,6264.000000,1.000000,21504.000000
8561.000000,8301.000000,6261.000000,1.000000,21504.000000
8559.000000,8299.000000,6258.000000,1.000000,21504.000000
8562.000000,8301.000000,6261.000000,1.000000,21504.000000
8562.000000,8301.000000,6261.000000,1.000000,21504.000000
8562.000000,8301.000000,6261.000000,1.000000,21504.000000
8562.000000,8300.000000,6260.000000,1.000000,21504.000000
8562.000000,8302.000000,6259.000000,1.000000,21504.000000
8563.000000,8304.000000,6261.000000,1.000000,21504.000000
8566.000000,8306.000000,6262.000000,1.000000,21504.000000
8569.000000,8309.000000,6265.000000,1.000000,21504.000000
8572.000000,8312.000000,6266.000000,1.000000,21504.000000
8572.000000,8317.000000,6269.000000,1.000000,21504.000000
8574.000000,8317.000000,6269.000000,1.000000,21504.000000
8578.000000,8323.000000,6272.000000,1.000000,21504.000000
8573.000000,8316.000000,6269.000000,1.000000,21504.000000
8566.000000,8307.000000,6264.000000,1.000000,21504.000000
8564.000000,8304.000000,6261.000000,1.000000,21504.000000
8562.000000,8302.000000,6260.000000,1.000000,21504.000000
8564.000000,8303.000000,6260.000000,1.000000,21504.000000
8564.000000,8303.000000,6261.000000,1.000000,21504.000000
8564.000000,8303.000000,6261.000000,1.000000,21504.000000
8564.000000,8304.000000,6261.000000,1.000000,21504.000000
8563.000000,8304.000000,6259.000000,1.000000,21504.000000
8565.000000,8305.000000,6262.000000,1.000000,21504.000000
8569.000000,8310.000000,6264.000000,1.000000,21504.000000
8572.000000,8313.000000,6267.000000,1.000000,21504.000000
8574.000000,8318.000000,6270.000000,1.000000,21504.000000
8578.000000,8325.000000,6273.000000,1.000000,21504.000000
8578.000000,8328.000000,6274.000000,1.000000,21504.000000
8579.000000,8328.000000,6271.000000,1.000000,21504.000000
8575.000000,8322.000000,6271.000000,1.000000,21504.000000
8569.000000,8311.000000,6266.000000,1.000000,21504.000000
8566.000000,8308.000000,6262.000000,1.000000,21504.000000
8566.000000,8306.000000,6261.000000,1.000000,21504.000000
8567.000000,8307.000000,6263.000000,1.000000,21504.000000
8565.000000,8306.000000,6262.000000,1.000000,21504.000000
8565.000000,8305.000000,6262.000000,1.000000,21504.000000
8566.000000,8307.000000,6263.000000,1.000000,21504.000000
8566.000000,8307.000000,6263.000000,1.000000,21504.000000
8567.000000,8308.000000,6263.000000,1.000000,21504.000000
8570.000000,8312.000000,6266.000000,1.000000,21504.000000
8572.000000,8315.000000,6268.000000,1.000000,21504.000000
8575.000000,8320.000000,6271.000000,1.000000,21504.000000
8579.000000,8326.000000,6274.000000,1.000000,21504.000000
8580.000000,8330.000000,6275.000000,1.000000,21504.000000
8576.000000,8323.000000,6272.000000,1.000000,21504.000000
8576.000000,8312.000000,6267.000000,1.000000,21504.000000
8569.000000,8312.000000,6263.000000,1.000000,21504.000000
8563.000000,8306.000000,6263.000000,1.000000,21504.000000
8562.000000,8304.000000,6262.000000,1.000000,21504.000000
8561.000000,8304.000000,6262.000000,0.000000,21504.000000
8560.000000,8304.000000,6261.000000,0.000000,21504.000000
8559.000000,8303.000000,6261.000000,0.000000,21504.000000
8564.000000,8307.000000,6265.000000,0.000000,21504.000000
8573.000000,8315.000000,6271.000000,0.000000,21504.000000
8573.000000,8317.000000,6272.000000,0.000000,21504.000000
8574.000000,8321.000000,6273.000000,0.000000,21504.000000
8574.000000,8321.000000,6273.000000,0.000000,21504.000000
8574.000000,8321.000000,6273.000000,0.000000,21504.000000
8574.000000,8321.000000,6273.000000,0.000000,21504.000000
8574.000000,8321.000000,6273.000000,0.000000,21504.000000
8580.000000,8328.000000,6278.000000,0.000000,21504.000000
8584.000000,8333.000000,6280.000000,0.000000,21504.000000
8586.000000,8337.000000,6283.000000,0.000000,21504.000000
8586.000000,8337.000000,6279.000000,0.000000,21504.000000
8579.000000,8329.000000,6279.000000,0.000000,21504.000000
8575.000000,8318.000000,6276.000000,0.000000,21504.000000
8568.000000,8310.000000,6270.000000,0.000000,21504.000000
8565.000000,8309.000000,6268.000000,0.000000,21504.000000
8567.000000,8308.000000,6270.000000,0.000000,21504.000000
8566.000000,8308.000000,6268.000000,0.000000,21504.000000
8566.000000,8309.000000,6268.000000,0.000000,21504.000000
8566.000000,8308.000000,6268.000000,0.000000,21504.000000
8566.000000,8308.000000,6268.000000,0.000000,21504.000000
8567.000000,8309.000000,6269.000000,0.000000,21504.000000
8569.000000,8311.000000,6271.000000,0.000000,21504.000000
8572.000000,8316.000000,6275.000000,0.000000,21504.000000
8576.000000,8322.000000,6277.000000,0.000000,21504.000000
8578.000000,8329.000000,6279.000000,0.000000,21504.000000
8581.000000,8336.000000,6282.000000,0.000000,21504.000000
8578.000000,8329.000000,6280.000000,0.000000,21504.000000
8578.000000,8319.000000,6276.000000,0.000000,21504.000000
8571.000000,8319.000000,6276.000000,0.000000,21504.000000
8567.000000,8311.000000,6271.000000,0.000000,21504.000000
8561.000000,8306.000000,6267.000000,0.000000,21504.000000
8566.000000,8312.000000,6270.000000,0.000000,21504.000000
8563.000000,8310.000000,6269.000000,0.000000,21504.000000
8564.000000,8309.000000,6269.000000,0.000000,21504.000000
8562.000000,8308.000000,6268.000000,0.000000,21504.000000
8569.000000,8313.000000,6272.000000,0.000000,21504.000000
8569.000000,8319.000000,6274.000000,0.000000,21504.000000
8572.000000,8319.000000,6274.000000,0.000000,21504.000000
8576.000000,8326.000000,6278.000000,0.000000,21504.000000
8579.000000,8332.000000,6280.000000,0.000000,21504.000000
8584.000000,8339.000000,6283.000000,0.000000,21504.000000
8586.000000,8344.000000,6287.000000,0.000000,21504.000000
8580.000000,8337.000000,6283.000000,0.000000,21504.000000
8575.000000,8327.000000,6278.000000,0.000000,21504.000000
8569.000000,8318.000000,6275.000000,0.000000,21504.000000
8569.000000,8315.000000,6273.000000,0.000000,21504.000000
8568.000000,8315.000000,6273.000000,0.000000,21504.000000
8571.000000,8316.000000,6274.000000,0.000000,21504.000000
8570.000000,8317.000000,6274.000000,0.000000,21504.000000
8572.000000,8318.000000,6275.000000,0.000000,21504.000000
8571.000000,8319.000000,6275.000000,0.000000,21504.000000
8573.000000,8320.000000,6275.000000,0.000000,21504.000000
8576.000000,8325.000000,6277.000000,0.000000,21504.000000
8576.000000,8328.000000,6277.000000,0.000000,21504.000000
8577.000000,8328.000000,6282.000000,0.000000,21504.000000
8582.000000,8338.000000,6282.000000,0.000000,21504.000000
8584.000000,8343.000000,6283.000000,0.000000,21504.000000
8589.000000,8348.000000,6285.000000,0.000000,21504.000000
8577.000000,8337.000000,6280.000000,0.000000,21504.000000
8577.000000,8330.000000,6279.000000,0.000000,21504.000000
8572.000000,8321.000000,6275.000000,0.000000,21504.000000
8569.000000,8315.000000,6272.000000,0.000000,21504.000000
8565.000000,8312.000000,6269.000000,0.000000,21504.000000
8565.000000,8312.000000,6271.000000,0.000000,21504.000000
8569.000000,8314.000000,6271.000000,0.000000,21504.000000
8569.000000,8313.000000,6271.000000,0.000000,21504.000000
8570.000000,8316.000000,6272.000000,0.000000,21504.000000
8573.000000,8319.000000,6274.000000,0.000000,21504.000000
8576.000000,8326.000000,6276.000000,0.000000,21504.000000
8579.000000,8331.000000,6278.000000,0.000000,21504.000000
8581.000000,8334.000000,6280.000000,0.000000,21504.000000
8581.000000,8343.000000,6283.000000,0.000000,21504.000000
8587.000000,8343.000000,6286.000000,0.000000,21504.000000
8588.000000,8347.000000,6286.000000,0.000000,21504.000000
8585.000000,8344.000000,6284.000000,0.000000,21504.000000
8576.000000,8330.000000,6278.000000,0.000000,21504.000000
8575.000000,8321.000000,6275.000000,0.000000,21504.000000
8572.000000,8317.000000,6273.000000,0.000000,21504.000000
8572.000000,8317.000000,6273.000000,0.000000,21504.000000
8571.000000,8318.000000,6273.000000,0.000000,21504.000000
8571.000000,8317.000000,6272.000000,0.000000,21504.000000
8572.000000,8317.000000,6272.000000,0.000000,21504.000000
8571.000000,8316.000000,6272.000000,0.000000,21504.000000
8574.000000,8318.000000,6272.000000,0.000000,21504.000000
8577.000000,8325.000000,6275.000000,0.000000,21504.000000
8577.000000,8326.000000,6275.000000,0.000000,21504.000000
8575.000000,8326.000000,6274.000000,0.000000,21504.000000
8585.000000,8340.000000,6281.000000,0.000000,21504.000000
8585.000000,8345.000000,6283.000000,0.000000,21504.000000
8588.000000,8345.000000,6283.000000,0.000000,21504.000000
8585.000000,8343.000000,6282.000000,0.000000,21504.000000
8573.000000,8326.000000,6273.000000,0.000000,21504.000000
8575.000000,8324.000000,6274.000000,0.000000,21504.000000
8574.000000,8321.000000,6272.000000,0.000000,21504.000000
8576.000000,8324.000000,6273.000000,0.000000,21504.000000
8577.000000,8327.000000,6275.000000,0.000000,21504.000000
8573.000000,8323.000000,6272.000000,0.000000,21504.000000
8573.000000,8323.000000,6274.000000,0.000000,21504.000000
8577.000000,8325.000000,6274.000000,0.000000,21504.000000
8579.000000,8329.000000,6275.000000,0.000000,21504.000000
8584.000000,8335.000000,6277.000000,0.000000,21504.000000
8588.000000,8342.000000,6281.000000,0.000000,21504.000000
8593.000000,8349.000000,6284.000000,0.000000,21504.000000
8596.000000,8357.000000,6285.000000,0.000000,21504.000000
8601.000000,8362.000000,6287.000000,0.000000,21504.000000
8601.000000,8362.000000,6288.000000,0.000000,21504.000000
8600.000000,8362.000000,6288.000000,0.000000,21504.000000
8590.000000,8347.000000,6281.000000,0.000000,21504.000000
8586.000000,8339.000000,6279.000000,0.000000,21504.000000
8584.000000,8335.000000,6276.000000,0.000000,21504.000000
8587.000000,8337.000000,6278.000000,0.000000,21504.000000
8589.000000,8339.000000,6278.000000,0.000000,21504.000000
8588.000000,8337.000000,6278.000000,0.000000,21504.000000
8588.000000,8337.000000,6277.000000,0.000000,21504.000000
8588.000000,8333.000000,6275.000000,0.000000,21504.000000
8583.000000,8333.000000,6275.000000,0.000000,21504.000000
8593.000000,8347.000000,6284.000000,1.000000,21504.000000
8596.000000,8353.000000,6284.000000,1.000000,21504.000000
8597.000000,8356.000000,6284.000000,1.000000,21504.000000
8597.000000,8359.000000,6284.000000,1.000000,21504.000000
8605.000000,8367.000000,6290.000000,1.000000,21504.000000
8605.000000,8367.000000,6289.000000,1.000000,21504.000000
8600.000000,8358.000000,6286.000000,1.000000,21504.000000
8594.000000,8348.000000,6282.000000,1.000000,21504.000000
8594.000000,8343.000000,6279.000000,1.000000,21504.000000
8592.000000,8343.000000,6279.000000,1.000000,21504.000000
8594.000000,8344.000000,6279.000000,1.000000,21504.000000
8596.000000,8347.000000,6281.000000,1.000000,21504.000000
8592.000000,8342.000000,6277.000000,1.000000,21504.000000
8596.000000,8345.000000,6281.000000,1.000000,21504.000000
8597.000000,8348.000000,6282.000000,1.000000,21504.000000
8602.000000,8356.000000,6284.000000,1.000000,21504.000000
8604.000000,8360.000000,6286.000000,1.000000,21504.000000
8605.000000,8364.000000,6288.000000,1.000000,21504.000000
8605.000000,8364.000000,6290.000000,1.000000,21504.000000
8605.000000,8367.000000,6290.000000,1.000000,21504.000000
8605.000000,8368.000000,6290.000000,1.000000,21504.000000
8605.000000,8369.000000,6291.000000,1.000000,21504.000000
8605.000000,8363.000000,6287.000000,1.000000,21504.000000
8589.000000,8342.000000,6276.000000,1.000000,21504.000000
8582.000000,8334.000000,6272.000000,1.000000,21504.000000
8582.000000,8332.000000,6272.000000,1.000000,21504.000000
8582.000000,8334.000000,6271.000000,1.000000,21504.000000
8581.000000,8334.000000,6271.000000,1.000000,21504.000000
8580.000000,8332.000000,6271.000000,1.000000,21504.000000
8580.000000,8332.000000,6270.000000,1.000000,21504.000000
8581.000000,8333.000000,6271.000000,1.000000,21504.000000
8584.000000,8335.000000,6273.000000,1.000000,21504.000000
8586.000000,8342.000000,6275.000000,1.000000,21504.000000
8590.000000,8348.000000,6276.000000,1.000000,21504.000000
8593.000000,8353.000000,6279.000000,1.000000,21504.000000
8598.000000,8360.000000,6282.000000,1.000000,21504.000000
8598.000000,8360.000000,6282.000000,1.000000,21504.000000
8596.000000,8360.000000,6282.000000,1.000000,21504.000000
8591.000000,8350.000000,6278.000000,1.000000,21504.000000
8584.000000,8338.000000,6272.000000,1.000000,21504.000000
8581.000000,8331.000000,6270.000000,1.000000,21504.000000
8582.000000,8332.000000,6270.000000,1.000000,21504.000000
8583.000000,8335.000000,6271.000000,1.000000,21504.000000
8582.000000,8335.000000,6271.000000,1.000000,21504.000000
8582.000000,8337.000000,6271.000000,1.000000,21504.000000
8583.000000,8337.000000,6271.000000,1.000000,21504.000000
8586.000000,8340.000000,6272.000000,1.000000,21504.000000
8590.000000,8347.000000,6274.000000,1.000000,21504.000000
8591.000000,8352.000000,6277.000000,1.000000,21504.000000
8596.000000,8358.000000,6280.000000,1.000000,21504.000000
8601.000000,8366.000000,6282.000000,1.000000,21504.000000
8603.000000,8370.000000,6283.000000,1.000000,21504.000000
8604.000000,8372.000000,6286.000000,1.000000,21504.000000
8604.000000,8372.000000,6283.000000,1.000000,21504.000000
8602.000000,8368.000000,6283.000000,1.000000,21504.000000
8596.000000,8357.000000,6279.000000,1.000000,21504.000000
8593.000000,8352.000000,6277.000000,1.000000,21504.000000
8595.000000,8355.000000,6278.000000,1.000000,21504.000000
8598.000000,8356.000000,6279.000000,1.000000,21504.000000
8596.000000,8358.000000,6278.000000,1.000000,21504.000000
8594.000000,8356.000000,6278.000000,1.000000,21504.000000
8594.000000,8360.000000,6280.000000,1.000000,21504.000000
8598.000000,8360.000000,6281.000000,1.000000,21504.000000
8602.000000,8365.000000,6281.000000,1.000000,21504.000000
8605.000000,8368.000000,6285.000000,1.000000,21504.000000
8605.000000,8370.000000,6286.000000,1.000000,21504.000000
8605.000000,8374.000000,6287.000000,1.000000,21504.000000
8606.000000,8377.000000,6289.000000,1.000000,21504.000000
8605.000000,8379.000000,6292.000000,1.000000,21504.000000
8606.000000,8377.000000,6290.000000,1.000000,21504.000000
8606.000000,8369.000000,6286.000000,1.000000,21504.000000
8605.000000,8369.000000,6284.000000,1.000000,21504.000000
8604.000000,8367.000000,6284.000000,1.000000,21504.000000
8604.000000,8367.000000,6282.000000,1.000000,21504.000000
8605.000000,8369.000000,6283.000000,1.000000,21504.000000
8605.000000,8369.000000,6284.000000,1.000000,21504.000000
8606.000000,8371.000000,6284.000000,1.000000,21504.000000
8605.000000,8370.000000,6283.000000,1.000000,21504.000000
8605.000000,8373.000000,6286.000000,1.000000,21504.000000
8606.000000,8376.000000,6288.000000,1.000000,21504.000000
8606.000000,8376.000000,6290.000000,1.000000,21504.000000
8606.000000,8379.000000,6290.000000,1.000000,21504.000000
8609.000000,8386.000000,6296.000000,1.000000,21504.000000
8609.000000,8386.000000,6296.000000,1.000000,21504.000000
8611.000000,8389.000000,6301.000000,1.000000,21504.000000
8611.000000,8390.000000,6299.000000,1.000000,21504.000000
8608.000000,8385.000000,6296.000000,1.000000,21504.000000
8607.000000,8383.000000,6293.000000,1.000000,21504.000000
8607.000000,8380.000000,6293.000000,1.000000,21504.000000
8606.000000,8380.000000,6293.000000,1.000000,21504.000000
8608.000000,8382.000000,6293.000000,1.000000,21504.000000
8609.000000,8383.000000,6295.000000,1.000000,21504.000000
8607.000000,8383.000000,6294.000000,1.000000,21504.000000
8609.000000,8386.000000,6295.000000,1.000000,21504.000000
8611.000000,8388.000000,6297.000000,1.000000,21504.000000
8619.000000,8396.000000,6301.000000,1.000000,21504.000000
8624.000000,8405.000000,6307.000000,1.000000,21504.000000
8624.000000,8405.000000,6313.000000,1.000000,21504.000000
8635.000000,8416.000000,6313.000000,1.000000,21504.000000
8638.000000,8424.000000,6315.000000,1.000000,21504.000000
8643.000000,8433.000000,6321.000000,1.000000,21504.000000
8643.000000,8435.000000,6321.000000,1.000000,21504.000000
8639.000000,8427.000000,6317.000000,1.000000,21504.000000
8629.000000,8414.000000,6310.000000,1.000000,21504.000000
8628.000000,8411.000000,6309.000000,1.000000,21504.000000
8628.000000,8418.000000,6312.000000,1.000000,21504.000000
8633.000000,8418.000000,6312.000000,1.000000,21504.000000
8632.000000,8418.000000,6312.000000,1.000000,21504.000000
8630.000000,8415.000000,6310.000000,1.000000,21504.000000
8629.000000,8413.000000,6311.000000,1.000000,21504.000000
8624.000000,8406.000000,6308.000000,1.000000,21504.000000
8621.000000,8404.000000,6307.000000,1.000000,21504.000000
8623.000000,8407.000000,6308.000000,1.000000,21504.000000
8627.000000,8411.000000,6309.000000,1.000000,21504.000000
8627.000000,8411.000000,6311.000000,1.000000,21504.000000
8630.000000,8415.000000,6311.000000,1.000000,21504.000000
8636.000000,8425.000000,6316.000000,1.000000,21504.000000
8631.000000,8420.000000,6314.000000,1.000000,21504.000000
8619.000000,8402.000000,6307.000000,1.000000,21504.000000
8614.000000,8393.000000,6300.000000,1.000000,21504.000000
8613.000000,8391.000000,6299.000000,0.000000,21504.000000
8612.000000,8390.000000,6299.000000,0.000000,21504.000000
8612.000000,8391.000000,6299.000000,0.000000,21504.000000
8612.000000,8392.000000,6299.000000,0.000000,21504.000000
8613.000000,8392.000000,6300.000000,0.000000,21504.000000
8612.000000,8392.000000,6300.000000,0.000000,21504.000000
8612.000000,8392.000000,6300.000000,0.000000,21504.000000
8614.000000,8395.000000,6302.000000,0.000000,21504.000000
8615.000000,8399.000000,6303.000000,0.000000,21504.000000
8623.000000,8408.000000,6308.000000,0.000000,21504.000000
8624.000000,8414.000000,6310.000000,0.000000,21504.000000
8624.000000,8419.000000,6312.000000,0.000000,21504.000000
8628.000000,8419.000000,6313.000000,0.000000,21504.000000
8629.000000,8419.000000,6313.000000,0.000000,21504.000000
8633.000000,8422.000000,6315.000000,0.000000,21504.000000
8630.000000,8414.000000,6312.000000,0.000000,21504.000000
8625.000000,8406.000000,6310.000000,0.000000,21504.000000
8627.000000,8405.000000,6309.000000,0.000000,21504.000000
8623.000000,8402.000000,6308.000000,0.000000,21504.000000
8618.000000,8397.000000,6306.000000,0.000000,21504.000000
8618.000000,8395.000000,6302.000000,0.000000,21504.000000
8616.000000,8395.000000,6300.000000,0.000000,21504.000000
8615.000000,8393.000000,6300.000000,0.000000,21504.000000
8621.000000,8398.000000,6307.000000,0.000000,21504.000000
8627.000000,8406.000000,6309.000000,0.000000,21504.000000
8628.000000,8408.000000,6309.000000,0.000000,21504.000000
8616.000000,8400.000000,6305.000000,0.000000,21504.000000
8630.000000,8417.000000,6315.000000,0.000000,21504.000000
8636.000000,8422.000000,6317.000000,0.000000,21504.000000
8621.000000,8406.000000,6310.000000,0.000000,21504.000000
8621.000000,8406.000000,6303.000000,0.000000,21504.000000
8610.000000,8392.000000,6303.000000,0.000000,21504.000000
8607.000000,8387.000000,6297.000000,0.000000,21504.000000
8607.000000,8386.000000,6298.000000,0.000000,21504.000000
8608.000000,8386.000000,6298.000000,0.000000,21504.000000
8607.000000,8386.000000,6299.000000,0.000000,21504.000000
8607.000000,8386.000000,6300.000000,0.000000,21504.000000
8609.000000,8386.000000,6299.000000,0.000000,21504.000000
8609.000000,8387.000000,6300.000000,0.000000,21504.000000
8609.000000,8387.000000,6304.000000,0.000000,21504.000000
8612.000000,8392.000000,6304.000000,0.000000,21504.000000
8617.000000,8399.000000,6307.000000,0.000000,21504.000000
8620.000000,8405.000000,6310.000000,0.000000,21504.000000
8627.000000,8416.000000,6315.000000,0.000000,21504.000000
8633.000000,8423.000000,6319.000000,0.000000,21504.000000
8628.000000,8416.000000,6315.000000,0.000000,21504.000000
8619.000000,8403.000000,6310.000000,0.000000,21504.000000
8619.000000,8398.000000,6307.000000,0.000000,21504.000000
8615.000000,8398.000000,6308.000000,0.000000,21504.000000
8616.000000,8400.000000,6308.000000,0.000000,21504.000000
8616.000000,8401.000000,6306.000000,0.000000,21504.000000
8623.000000,8408.000000,6312.000000,0.000000,21504.000000
8625.000000,8410.000000,6312.000000,0.000000,21504.000000
8628.000000,8416.000000,6313.000000,0.000000,21504.000000
8624.000000,8414.000000,6312.000000,0.000000,21504.000000
8642.000000,8435.000000,6324.000000,0.000000,21504.000000
8642.000000,8435.000000,6329.000000,0.000000,21504.000000
8644.000000,8441.000000,6329.000000,0.000000,21504.000000
8645.000000,8445.000000,6332.000000,0.000000,21504.000000
8645.000000,8446.000000,6333.000000,0.000000,21504.000000
8644.000000,8449.000000,6333.000000,0.000000,21504.000000
8645.000000,8446.000000,6332.000000,0.000000,21504.000000
8646.000000,8444.000000,6331.000000,0.000000,21504.000000
8642.000000,8438.000000,6326.000000,0.000000,21504.000000
8644.000000,8442.000000,6330.000000,0.000000,21504.000000
8644.000000,8442.000000,6328.000000,0.000000,21504.000000
8644.000000,8443.000000,6328.000000,0.000000,21504.000000
8644.000000,8444.000000,6329.000000,0.000000,21504.000000
8645.000000,8444.000000,6330.000000,0.000000,21504.000000
8644.000000,8445.000000,6332.000000,0.000000,21504.000000
8645.000000,8445.000000,6332.000000,0.000000,21504.000000
8645.000000,8447.000000,6334.000000,0.000000,21504.000000
8644.000000,8449.000000,6335.000000,0.000000,21504.000000
8644.000000,8451.000000,6335.000000,0.000000,21504.000000
8644.000000,8451.000000,6338.000000,0.000000,21504.000000
8644.000000,8454.000000,6338.000000,0.000000,21504.000000
8645.000000,8456.000000,6340.000000,0.000000,21504.000000
8644.000000,8455.000000,6337.000000,0.000000,21504.000000
8643.000000,8451.000000,6333.000000,0.000000,21504.000000
8643.000000,8451.000000,6333.000000,0.000000,21504.000000
8644.000000,8449.000000,6334.000000,0.000000,21504.000000
8644.000000,8449.000000,6334.000000,0.000000,21504.000000
8644.000000,8449.000000,6328.000000,0.000000,21504.000000
8640.000000,8445.000000,6328.000000,0.000000,21504.000000
8643.000000,8450.000000,6333.000000,0.000000,21504.000000
8641.000000,8447.000000,6331.000000,0.000000,21504.000000
8644.000000,8450.000000,6335.000000,0.000000,21504.000000
8644.000000,8451.000000,6336.000000,0.000000,21504.000000
8643.000000,8453.000000,6336.000000,0.000000,21504.000000
8643.000000,8455.000000,6337.000000,0.000000,21504.000000
8644.000000,8458.000000,6341.000000,0.000000,21504.000000
8644.000000,8458.000000,6340.000000,0.000000,21504.000000
8645.000000,8459.000000,6340.000000,0.000000,21504.000000
8644.000000,8459.000000,6340.000000,0.000000,21504.000000
8642.000000,8456.000000,6339.000000,0.000000,21504.000000
8643.000000,8453.000000,6336.000000,0.000000,21504.000000
8642.000000,8451.000000,6334.000000,0.000000,21504.000000
8643.000000,8453.000000,6336.000000,0.000000,21504.000000
8643.000000,8453.000000,6336.000000,0.000000,21504.000000
8643.000000,8454.000000,6335.000000,0.000000,21504.000000
8642.000000,8454.000000,6337.000000,0.000000,21504.000000
8642.000000,8454.000000,6337.000000,0.000000,21504.000000
8643.000000,8453.000000,6337.000000,0.000000,21504.000000
8642.000000,8456.000000,6339.000000,0.000000,21504.000000
8643.000000,8458.000000,6341.000000,0.000000,21504.000000
8643.000000,8461.000000,6342.000000,0.000000,21504.000000
8642.000000,8462.000000,6339.000000,0.000000,21504.000000
8645.000000,8465.000000,6344.000000,0.000000,21504.000000
8645.000000,8463.000000,6342.000000,0.000000,21504.000000
8644.000000,8463.000000,6342.000000,0.000000,21504.000000
8642.000000,8459.000000,6341.000000,0.000000,21504.000000
8641.000000,8454.000000,6336.000000,0.000000,21504.000000
8643.000000,8458.000000,6341.000000,0.000000,21504.000000
8643.000000,8458.000000,6340.000000,0.000000,21504.000000
8643.000000,8459.000000,6340.000000,0.000000,21504.000000
8642.000000,8457.000000,6340.000000,0.000000,21504.000000
8642.000000,8458.000000,6338.000000,0.000000,21504.000000
8642.000000,8459.000000,6340.000000,0.000000,21504.000000
8642.000000,8459.000000,6340.000000,0.000000,21504.000000
8642.000000,8458.000000,6340.000000,0.000000,21504.000000
8643.000000,8463.000000,6342.000000,1.000000,21504.000000
8643.000000,8463.000000,6343.000000,1.000000,21504.000000
8647.000000,8468.000000,6344.000000,1.000000,21504.000000
8647.000000,8471.000000,6345.000000,1.000000,21504.000000
8643.000000,8463.000000,6343.000000,1.000000,21504.000000
8642.000000,8460.000000,6340.000000,1.000000,21504.000000
8643.000000,8456.000000,6338.000000,1.000000,21504.000000
8643.000000,8454.000000,6337.000000,1.000000,21504.000000
8640.000000,8454.000000,6339.000000,1.000000,21504.000000
8641.000000,8456.000000,6339.000000,1.000000,21504.000000
8640.000000,8453.000000,6336.000000,1.000000,21504.000000
8642.000000,8452.000000,6337.000000,1.000000,21504.000000
8639.000000,8452.000000,6336.000000,1.000000,21504.000000
8640.000000,8455.000000,6339.000000,1.000000,21504.000000
8634.000000,8450.000000,6332.000000,1.000000,21504.000000
8641.000000,8459.000000,6340.000000,1.000000,21504.000000
8642.000000,8460.000000,6341.000000,1.000000,21504.000000
8642.000000,8460.000000,6343.000000,1.000000,21504.000000
8642.000000,8463.000000,6343.000000,1.000000,21504.000000
8639.000000,8460.000000,6336.000000,1.000000,21504.000000
8629.000000,8446.000000,6331.000000,1.000000,21504.000000
8614.000000,8427.000000,6323.000000,1.000000,21504.000000
8612.000000,8423.000000,6321.000000,1.000000,21504.000000
8608.000000,8420.000000,6318.000000,1.000000,21504.000000
8608.000000,8420.000000,6318.000000,1.000000,21504.000000
8607.000000,8418.000000,6315.000000,1.000000,21504.000000
8607.000000,8418.000000,6315.000000,1.000000,21504.000000
8607.000000,8419.000000,6315.000000,1.000000,21504.000000
8607.000000,8416.000000,6315.000000,1.000000,21504.000000
8609.000000,8418.000000,6316.000000,1.000000,21504.000000
8609.000000,8421.000000,6318.000000,1.000000,21504.000000
8611.000000,8425.000000,6320.000000,1.000000,21504.000000
8615.000000,8431.000000,6323.000000,1.000000,21504.000000
8621.000000,8438.000000,6326.000000,1.000000,21504.000000
8621.000000,8438.000000,6324.000000,1.000000,21504.000000
8614.000000,8430.000000,6324.000000,1.000000,21504.000000
8607.000000,8416.000000,6314.000000,1.000000,21504.000000
8606.000000,8410.000000,6310.000000,1.000000,21504.000000
8606.000000,8408.000000,6309.000000,1.000000,21504.000000
8605.000000,8406.000000,6308.000000,1.000000,21504.000000
8606.000000,8408.000000,6307.000000,1.000000,21504.000000
8605.000000,8405.000000,6304.000000,1.000000,21504.000000
8605.000000,8407.000000,6307.000000,1.000000,21504.000000
8605.000000,8407.000000,6307.000000,1.000000,21504.000000
8605.000000,8405.000000,6307.000000,1.000000,21504.000000
8606.000000,8408.000000,6309.000000,1.000000,21504.000000
8607.000000,8408.000000,6310.000000,1.000000,21504.000000
8606.000000,8412.000000,6313.000000,1.000000,21504.000000
8611.000000,8418.000000,6316.000000,1.000000,21504.000000
8613.000000,8420.000000,6318.000000,1.000000,21504.000000
8607.000000,8413.000000,6313.000000,1.000000,21504.000000
8607.000000,8406.000000,6307.000000,1.000000,21504.000000
8606.000000,8406.000000,6302.000000,1.000000,21504.000000
8605.000000,8401.000000,6302.000000,1.000000,21504.000000
8605.000000,8400.000000,6301.000000,1.000000,21504.000000
8605.000000,8399.000000,6301.000000,1.000000,21504.000000
8605.000000,8401.000000,6301.000000,1.000000,21504.000000
8605.000000,8401.000000,6301.000000,1.000000,21504.000000
8605.000000,8400.000000,6302.000000,1.000000,21504.000000
8605.000000,8402.000000,6302.000000,1.000000,21504.000000
8605.000000,8402.000000,6303.000000,1.000000,21504.000000
8605.000000,8402.000000,6303.000000,1.000000,21504.000000
8606.000000,8403.000000,6303.000000,1.000000,21504.000000
8606.000000,8408.000000,6307.000000,1.000000,21504.000000
8607.000000,8409.000000,6309.000000,1.000000,21504.000000
8606.000000,8406.000000,6307.000000,1.000000,21504.000000
8605.000000,8401.000000,6302.000000,1.000000,21504.000000
8604.000000,8398.000000,6296.000000,1.000000,21504.000000
8603.000000,8392.000000,6292.000000,1.000000,21504.000000
8603.000000,8390.000000,6290.000000,1.000000,21504.000000
8601.000000,8390.000000,6290.000000,1.000000,21504.000000
8600.000000,8387.000000,6288.000000,1.000000,21504.000000
8597.000000,8384.000000,6287.000000,1.000000,21504.000000
8596.000000,8382.000000,6285.000000,1.000000,21504.000000
8597.000000,8383.000000,6285.000000,1.000000,21504.000000
8600.000000,8387.000000,6287.000000,1.000000,21504.000000
8604.000000,8394.000000,6292.000000,1.000000,21504.000000
8604.000000,8395.000000,6295.000000,1.000000,21504.000000
8604.000000,8394.000000,6296.000000,1.000000,21504.000000
8605.000000,8394.000000,6298.000000,1.000000,21504.000000
8605.000000,8397.000000,6298.000000,1.000000,21504.000000
8605.000000,8395.000000,6296.000000,1.000000,21504.000000
8600.000000,8385.000000,6288.000000,1.000000,21504.000000
8590.000000,8369.000000,6279.000000,1.000000,21504.000000
8587.000000,8364.000000,6277.000000,1.000000,21504.000000
8589.000000,8363.000000,6276.000000,1.000000,21504.000000
8586.000000,8360.000000,6273.000000,1.000000,21504.000000
8586.000000,8357.000000,6273.000000,1.000000,21504.000000
8584.000000,8357.000000,6274.000000,1.000000,21504.000000
8585.000000,8357.000000,6274.000000,1.000000,21504.000000
8587.000000,8359.000000,6274.000000,1.000000,21504.000000
8590.000000,8365.000000,6277.000000,1.000000,21504.000000
8595.000000,8376.000000,6281.000000,1.000000,21504.000000
8600.000000,8383.000000,6284.000000,1.000000,21504.000000
8603.000000,8388.000000,6287.000000,1.000000,21504.000000
8603.000000,8390.000000,6289.000000,1.000000,21504.000000
8603.000000,8380.000000,6283.000000,1.000000,21504.000000
8596.000000,8380.000000,6283.000000,1.000000,21504.000000
8586.000000,8363.000000,6276.000000,1.000000,21504.000000
8581.000000,8351.000000,6270.000000,1.000000,21504.000000
8581.000000,8349.000000,6269.000000,1.000000,21504.000000
8582.000000,8352.000000,6270.000000,1.000000,21504.000000
8582.000000,8350.000000,6271.000000,1.000000,21504.000000
8582.000000,8350.000000,6269.000000,1.000000,21504.000000
8584.000000,8351.000000,6270.000000,1.000000,21504.000000
8584.000000,8355.000000,6272.000000,1.000000,21504.000000
8586.000000,8355.000000,6272.000000,1.000000,21504.000000
8590.000000,8361.000000,6275.000000,1.000000,21504.000000
8595.000000,8371.000000,6279.000000,1.000000,21504.000000
8599.000000,8378.000000,6281.000000,1.000000,21504.000000
8603.000000,8386.000000,6285.000000,1.000000,21504.000000
8603.000000,8385.000000,6285.000000,1.000000,21504.000000
8593.000000,8368.000000,6277.000000,1.000000,21504.000000
8586.000000,8355.000000,6271.000000,1.000000,21504.000000
8586.000000,8355.000000,6270.000000,1.000000,21504.000000
8583.000000,8348.000000,6270.000000,1.000000,21504.000000
8581.000000,8348.000000,6269.000000,1.000000,21504.000000
8583.000000,8349.000000,6268.000000,1.000000,21504.000000
8581.000000,8347.000000,6269.000000,1.000000,21504.000000
8579.000000,8345.000000,6268.000000,1.000000,21504.000000
8583.000000,8348.000000,6269.000000,0.000000,21504.000000
8584.000000,8351.000000,6270.000000,0.000000,21504.000000
8587.000000,8359.000000,6272.000000,0.000000,21504.000000
8594.000000,8367.000000,6277.000000,0.000000,21504.000000
8594.000000,8367.000000,6280.000000,0.000000,21504.000000
8600.000000,8375.000000,6280.000000,0.000000,21504.000000
8603.000000,8382.000000,6284.000000,0.000000,21504.000000
8597.000000,8375.000000,6281.000000,0.000000,21504.000000
8588.000000,8359.000000,6273.000000,0.000000,21504.000000
8589.000000,8356.000000,6274.000000,0.000000,21504.000000
8588.000000,8353.000000,6273.000000,0.000000,21504.000000
8589.000000,8353.000000,6273.000000,0.000000,21504.000000
8589.000000,8344.000000,6268.000000,0.000000,21504.000000
8582.000000,8344.000000,6271.000000,0.000000,21504.000000
8587.000000,8349.000000,6271.000000,0.000000,21504.000000
8587.000000,8349.000000,6272.000000,0.000000,21504.000000
8587.000000,8351.000000,6271.000000,0.000000,21504.000000
8594.000000,8360.000000,6275.000000,0.000000,21504.000000
8599.000000,8367.000000,6278.000000,0.000000,21504.000000
8602.000000,8372.000000,6282.000000,0.000000,21504.000000
8604.000000,8378.000000,6285.000000,0.000000,21504.000000
8604.000000,8381.000000,6288.000000,0.000000,21504.000000
8605.000000,8381.000000,6288.000000,0.000000,21504.000000
8604.000000,8380.000000,6286.000000,0.000000,21504.000000
8596.000000,8364.000000,6278.000000,0.000000,21504.000000
8587.000000,8351.000000,6272.000000,0.000000,21504.000000
8585.000000,8344.000000,6268.000000,0.000000,21504.000000
8585.000000,8342.000000,6269.000000,0.000000,21504.000000
8586.000000,8344.000000,6270.000000,0.000000,21504.000000
8584.000000,8341.000000,6268.000000,0.000000,21504.000000
8584.000000,8341.000000,6268.000000,0.000000,21504.000000
8584.000000,8341.000000,6269.000000,0.000000,21504.000000
8587.000000,8343.000000,6269.000000,0.000000,21504.000000
8590.000000,8349.000000,6272.000000,0.000000,21504.000000
8594.000000,8356.000000,6273.000000,0.000000,21504.000000
8599.000000,8362.000000,6276.000000,0.000000,21504.000000
8594.000000,8358.000000,6272.000000,0.000000,21504.000000
8603.000000,8370.000000,6280.000000,0.000000,21504.000000
8604.000000,8372.000000,6281.000000,0.000000,21504.000000
8604.000000,8358.000000,6274.000000,0.000000,21504.000000
8596.000000,8358.000000,6274.000000,0.000000,21504.000000
8581.000000,8336.000000,6265.000000,0.000000,21504.000000
8584.000000,8338.000000,6267.000000,0.000000,21504.000000
8587.000000,8338.000000,6266.000000,0.000000,21504.000000
8586.000000,8339.000000,6267.000000,0.000000,21504.000000
8587.000000,8337.000000,6267.000000,0.000000,21504.000000
8585.000000,8337.000000,6267.000000,0.000000,21504.000000
8588.000000,8340.000000,6268.000000,0.000000,21504.000000
8588.000000,8344.000000,6269.000000,0.000000,21504.000000
8588.000000,8344.000000,6269.000000,0.000000,21504.000000
8595.000000,8356.000000,6274.000000,0.000000,21504.000000
8600.000000,8363.000000,6277.000000,0.000000,21504.000000
8604.000000,8368.000000,6279.000000,0.000000,21504.000000
8605.000000,8372.000000,6282.000000,0.000000,21504.000000
8605.000000,8374.000000,6284.000000,0.000000,21504.000000
8599.000000,8363.000000,6277.000000,0.000000,21504.000000
8592.000000,8350.000000,6271.000000,0.000000,21504.000000
8592.000000,8350.000000,6269.000000,0.000000,21504.000000
8589.000000,8342.000000,6269.000000,0.000000,21504.000000
8587.000000,8341.000000,6268.000000,0.000000,21504.000000
8589.000000,8344.000000,6269.000000,0.000000,21504.000000
8588.000000,8342.000000,6269.000000,0.000000,21504.000000
8590.000000,8344.000000,6269.000000,0.000000,21504.000000
8592.000000,8346.000000,6270.000000,0.000000,21504.000000
8589.000000,8344.000000,6268.000000,0.000000,21504.000000
8601.000000,8360.000000,6274.000000,0.000000,21504.000000
8601.000000,8366.000000,6277.000000,0.000000,21504.000000
8604.000000,8366.000000,6277.000000,0.000000,21504.000000
8604.000000,8368.000000,6280.000000,0.000000,21504.000000
8603.000000,8371.000000,6280.000000,0.000000,21504.000000
8605.000000,8372.000000,6281.000000,0.000000,21504.000000
8605.000000,8366.000000,6280.000000,0.000000,21504.000000
8596.000000,8355.000000,6273.000000,0.000000,21504.000000
8592.000000,8345.000000,6268.000000,0.000000,21504.000000
8593.000000,8345.000000,6269.000000,0.000000,21504.000000
8593.000000,8345.000000,6268.000000,0.000000,21504.000000
8592.000000,8343.000000,6268.000000,0.000000,21504.000000
8591.000000,8343.000000,6266.000000,0.000000,21504.000000
8592.000000,8343.000000,6267.000000,0.000000,21504.000000
8593.000000,8345.000000,6268.000000,0.000000,21504.000000
8595.000000,8349.000000,6268.000000,0.000000,21504.000000
8601.000000,8356.000000,6270.000000,0.000000,21504.000000
8604.000000,8362.000000,6275.000000,0.000000,21504.000000
8604.000000,8366.000000,6278.000000,0.000000,21504.000000
8605.000000,8366.000000,6280.000000,0.000000,21504.000000
8605.000000,8370.000000,6280.000000,0.000000,21504.000000
8606.000000,8372.000000,6283.000000,0.000000,21504.000000
8605.000000,8369.000000,6280.000000,0.000000,21504.000000
8602.000000,8361.000000,6274.000000,0.000000,21504.000000
8597.000000,8351.000000,6268.000000,0.000000,21504.000000
8597.000000,8348.000000,6267.000000,0.000000,21504.000000
8595.000000,8344.000000,6266.000000,0.000000,21504.000000
8595.000000,8340.000000,6265.000000,0.000000,21504.000000
8590.000000,8340.000000,6266.000000,0.000000,21504.000000
8596.000000,8344.000000,6266.000000,0.000000,21504.000000
8596.000000,8345.000000,6267.000000,0.000000,21504.000000
8598.000000,8350.000000,6269.000000,0.000000,21504.000000
8596.000000,8349.000000,6268.000000,0.000000,21504.000000
8603.000000,8359.000000,6273.000000,0.000000,21504.000000
8605.000000,8362.000000,6276.000000,0.000000,21504.000000
8605.000000,8367.000000,6279.000000,0.000000,21504.000000
8605.000000,8370.000000,6281.000000,0.000000,21504.000000
8605.000000,8370.000000,6281.000000,0.000000,21504.000000
8605.000000,8371.000000,6281.000000,0.000000,21504.000000
8606.000000,8365.000000,6276.000000,0.000000,21504.000000
8604.000000,8357.000000,6271.000000,0.000000,21504.000000
8603.000000,8354.000000,6268.000000,0.000000,21504.000000
8603.000000,8357.000000,6271.000000,0.000000,21504.000000
8604.000000,8357.000000,6269.000000,0.000000,21504.000000
8603.000000,8357.000000,6269.000000,0.000000,21504.000000
8603.000000,8358.000000,6271.000000,0.000000,21504.000000
8604.000000,8358.000000,6272.000000,0.000000,21504.000000
8605.000000,8362.000000,6272.000000,0.000000,21504.000000
8605.000000,8364.000000,6274.000000,0.000000,21504.000000
8605.000000,8366.000000,6277.000000,0.000000,21504.000000
8606.000000,8369.000000,6279.000000,0.000000,21504.000000
8608.000000,8379.000000,6287.000000,0.000000,21504.000000
8608.000000,8379.000000,6287.000000,0.000000,21504.000000
8610.000000,8380.000000,6287.000000,0.000000,21504.000000
8610.000000,8373.000000,6282.000000,0.000000,21504.000000
8607.000000,8366.000000,6274.000000,1.000000,21504.000000
8605.000000,8366.000000,6273.000000,1.000000,21504.000000
8605.000000,8362.000000,6273.000000,1.000000,21504.000000
8605.000000,8362.000000,6272.000000,1.000000,21504.000000
8605.000000,8361.000000,6272.000000,1.000000,21504.000000
8604.000000,8362.000000,6273.000000,1.000000,21504.000000
8605.000000,8361.000000,6273.000000,1.000000,21504.000000
8605.000000,8361.000000,6274.000000,1.000000,21504.000000
8606.000000,8366.000000,6276.000000,1.000000,21504.000000
8606.000000,8370.000000,6279.000000,1.000000,21504.000000
8607.000000,8370.000000,6279.000000,1.000000,21504.000000
8607.000000,8371.000000,6280.000000,1.000000,21504.000000
8610.000000,8378.000000,6285.000000,1.000000,21504.000000
8612.000000,8381.000000,6287.000000,1.000000,21504.000000
8607.000000,8380.000000,6285.000000,1.000000,21504.000000
8605.000000,8371.000000,6278.000000,1.000000,21504.000000
8604.000000,8363.000000,6271.000000,1.000000,21504.000000
8602.000000,8356.000000,6266.000000,1.000000,21504.000000
8602.000000,8359.000000,6268.000000,1.000000,21504.000000
8604.000000,8359.000000,6268.000000,1.000000,21504.000000
8604.000000,8361.000000,6269.000000,1.000000,21504.000000
8603.000000,8358.000000,6268.000000,1.000000,21504.000000
8603.000000,8360.000000,6268.000000,1.000000,21504.000000
8603.000000,8360.000000,6268.000000,1.000000,21504.000000
8605.000000,8364.000000,6271.000000,1.000000,21504.000000
8605.000000,8367.000000,6273.000000,1.000000,21504.000000
8605.000000,8369.000000,6275.000000,1.000000,21504.000000
8605.000000,8373.000000,6277.000000,1.000000,21504.000000
8606.000000,8373.000000,6277.000000,1.000000,21504.000000
8606.000000,8377.000000,6280.000000,1.000000,21504.000000
8606.000000,8381.000000,6282.000000,1.000000,21504.000000
8606.000000,8379.000000,6280.000000,1.000000,21504.000000
8605.000000,8372.000000,6276.000000,1.000000,21504.000000
8604.000000,8367.000000,6271.000000,1.000000,21504.000000
8603.000000,8366.000000,6270.000000,1.000000,21504.000000
8605.000000,8368.000000,6271.000000,1.000000,21504.000000
8605.000000,8367.000000,6270.000000,1.000000,21504.000000
8605.000000,8367.000000,6271.000000,1.000000,21504.000000
8604.000000,8367.000000,6271.000000,1.000000,21504.000000
8605.000000,8367.000000,6272.000000,1.000000,21504.000000
8604.000000,8369.000000,6272.000000,1.000000,21504.000000
8605.000000,8371.000000,6274.000000,1.000000,21504.000000
8605.000000,8376.000000,6278.000000,1.000000,21504.000000
8605.000000,8379.000000,6280.000000,1.000000,21504.000000
8605.000000,8381.000000,6281.000000,1.000000,21504.000000
8606.000000,8384.000000,6284.000000,1.000000,21504.000000
8606.000000,8384.000000,6282.000000,1.000000,21504.000000
8606.000000,8384.000000,6282.000000,1.000000,21504.000000
8604.000000,8376.000000,6276.000000,1.000000,21504.000000
8603.000000,8369.000000,6271.000000,1.000000,21504.000000
8601.000000,8365.000000,6269.000000,1.000000,21504.000000
8601.000000,8365.000000,6270.000000,1.000000,21504.000000
8601.000000,8365.000000,6270.000000,1.000000,21504.000000
8599.000000,8365.000000,6270.000000,1.000000,21504.000000
8599.000000,8364.000000,6270.000000,1.000000,21504.000000
8599.000000,8364.000000,6270.000000,1.000000,21504.000000
8598.000000,8365.000000,6270.000000,1.000000,21504.000000
8599.000000,8368.000000,6271.000000,1.000000,21504.000000
8603.000000,8375.000000,6275.000000,1.000000,21504.000000
8605.000000,8377.000000,6277.000000,1.000000,21504.000000
8604.000000,8380.000000,6279.000000,1.000000,21504.000000
8605.000000,8380.000000,6283.000000,1.000000,21504.000000
8605.000000,8381.000000,6282.000000,1.000000,21504.000000
8604.000000,8377.000000,6277.000000,1.000000,21504.000000
8604.000000,8377.000000,6273.000000,1.000000,21504.000000
8600.000000,8368.000000,6273.000000,1.000000,21504.000000
8596.000000,8365.000000,6272.000000,1.000000,21504.000000
8595.000000,8363.000000,6270.000000,1.000000,21504.000000
8594.000000,8365.000000,6273.000000,1.000000,21504.000000
8592.000000,8363.000000,6271.000000,1.000000,21504.000000
8592.000000,8362.000000,6270.000000,1.000000,21504.000000
8592.000000,8361.000000,6270.000000,1.000000,21504.000000
8594.000000,8366.000000,6271.000000,1.000000,21504.000000
8594.000000,8366.000000,6275.000000,1.000000,21504.000000
8597.000000,8371.000000,6275.000000,1.000000,21504.000000
8601.000000,8375.000000,6276.000000,1.000000,21504.000000
8601.000000,8379.000000,6277.000000,1.000000,21504.000000
8603.000000,8381.000000,6278.000000,1.000000,21504.000000
8602.000000,8382.000000,6278.000000,1.000000,21504.000000
8599.000000,8375.000000,6276.000000,1.000000,21504.000000
8590.000000,8366.000000,6273.000000,1.000000,21504.000000
8586.000000,8358.000000,6269.000000,1.000000,21504.000000
8586.000000,8358.000000,6266.000000,1.000000,21504.000000
8584.000000,8355.000000,6266.000000,1.000000,21504.000000
8584.000000,8356.000000,6267.000000,1.000000,21504.000000
8583.000000,8353.000000,6266.000000,1.000000,21504.000000
8583.000000,8352.000000,6265.000000,1.000000,21504.000000
8584.000000,8356.000000,6268.000000,1.000000,21504.000000
8585.000000,8353.000000,6265.000000,1.000000,21504.000000
8586.000000,8359.000000,6269.000000,1.000000,21504.000000
8588.000000,8364.000000,6272.000000,1.000000,21504.000000
8588.000000,8364.000000,6275.000000,1.000000,21504.000000
8590.000000,8370.000000,6275.000000,1.000000,21504.000000
8595.000000,8375.000000,6277.000000,1.000000,21504.000000
8598.000000,8379.000000,6278.000000,1.000000,21504.000000
8595.000000,8374.000000,6277.000000,1.000000,21504.000000
8586.000000,8360.000000,6271.000000,1.000000,21504.000000
8581.000000,8352.000000,6265.000000,1.000000,21504.000000
8579.000000,8345.000000,6262.000000,1.000000,21504.000000
8580.000000,8346.000000,6262.000000,1.000000,21504.000000
8580.000000,8343.000000,6260.000000,1.000000,21504.000000
8578.000000,8343.000000,6260.000000,1.000000,21504.000000
8577.000000,8342.000000,6260.000000,1.000000,21504.000000
8576.000000,8339.000000,6258.000000,1.000000,21504.000000
8576.000000,8340.000000,6258.000000,1.000000,21504.000000
8577.000000,8344.000000,6260.000000,1.000000,21504.000000
8581.000000,8351.000000,6264.000000,1.000000,21504.000000
8583.000000,8355.000000,6267.000000,1.000000,21504.000000
8587.000000,8362.000000,6270.000000,1.000000,21504.000000
8587.000000,8366.000000,6274.000000,1.000000,21504.000000
8587.000000,8366.000000,6271.000000,1.000000,21504.000000
8584.000000,8363.000000,6271.000000,1.000000,21504.000000
8579.000000,8350.000000,6263.000000,1.000000,21504.000000
8572.000000,8335.000000,6255.000000,1.000000,21504.000000
8571.000000,8333.000000,6256.000000,1.000000,21504.000000
8571.000000,8332.000000,6255.000000,1.000000,21504.000000
8571.000000,8333.000000,6257.000000,1.000000,21504.000000
8569.000000,8331.000000,6256.000000,1.000000,21504.000000
8569.000000,8332.000000,6256.000000,1.000000,21504.000000
8569.000000,8332.000000,6256.000000,1.000000,21504.000000
8568.000000,8333.000000,6255.000000,0.000000,21504.000000
8570.000000,8337.000000,6258.000000,0.000000,21504.000000
8574.000000,8341.000000,6258.000000,0.000000,21504.000000
8576.000000,8346.000000,6262.000000,0.000000,21504.000000
8592.000000,8370.000000,6276.000000,0.000000,21504.000000
8595.000000,8374.000000,6278.000000,0.000000,21504.000000
8595.000000,8374.000000,6279.000000,0.000000,21504.000000
8587.000000,8362.000000,6272.000000,0.000000,21504.000000
8587.000000,8362.000000,6267.000000,0.000000,21504.000000
8582.000000,8349.000000,6267.000000,0.000000,21504.000000
8582.000000,8345.000000,6264.000000,0.000000,21504.000000
8579.000000,8344.000000,6263.000000,0.000000,21504.000000
8583.000000,8348.000000,6265.000000,0.000000,21504.000000
8582.000000,8349.000000,6265.000000,0.000000,21504.000000
8583.000000,8348.000000,6266.000000,0.000000,21504.000000
8583.000000,8350.000000,6267.000000,0.000000,21504.000000
8584.000000,8351.000000,6267.000000,0.000000,21504.000000
8584.000000,8362.000000,6272.000000,0.000000,21504.000000
8590.000000,8362.000000,6272.000000,0.000000,21504.000000
8593.000000,8367.000000,6274.000000,0.000000,21504.000000
8597.000000,8374.000000,6276.000000,0.000000,21504.000000
8601.000000,8378.000000,6278.000000,0.000000,21504.000000
8589.000000,8367.000000,6274.000000,0.000000,21504.000000
8590.000000,8362.000000,6273.000000,0.000000,21504.000000
8583.000000,8348.000000,6264.000000,0.000000,21504.000000
8583.000000,8342.000000,6261.000000,0.000000,21504.000000
8580.000000,8342.000000,6260.000000,0.000000,21504.000000
8579.000000,8341.000000,6260.000000,0.000000,21504.000000
8576.000000,8337.000000,6259.000000,0.000000,21504.000000
8576.000000,8340.000000,6260.000000,0.000000,21504.000000
8579.000000,8338.000000,6260.000000,0.000000,21504.000000
8579.000000,8339.000000,6261.000000,0.000000,21504.000000
8578.000000,8339.000000,6260.000000,0.000000,21504.000000
8584.000000,8345.000000,6263.000000,0.000000,21504.000000
8586.000000,8351.000000,6267.000000,0.000000,21504.000000
8586.000000,8351.000000,6269.000000,0.000000,21504.000000
8589.000000,8356.000000,6269.000000,0.000000,21504.000000
8591.000000,8364.000000,6273.000000,0.000000,21504.000000
8590.000000,8360.000000,6271.000000,0.000000,21504.000000
8582.000000,8344.000000,6263.000000,0.000000,21504.000000
8574.000000,8334.000000,6259.000000,0.000000,21504.000000
8571.000000,8325.000000,6254.000000,0.000000,21504.000000
8570.000000,8326.000000,6254.000000,0.000000,21504.000000
8569.000000,8322.000000,6252.000000,0.000000,21504.000000
8569.000000,8322.000000,6253.000000,0.000000,21504.000000
8570.000000,8322.000000,6253.000000,0.000000,21504.000000
8571.000000,8322.000000,6252.000000,0.000000,21504.000000
8572.000000,8322.000000,6252.000000,0.000000,21504.000000
8573.000000,8324.000000,6254.000000,0.000000,21504.000000
8576.000000,8331.000000,6256.000000,0.000000,21504.000000
8570.000000,8326.000000,6252.000000,0.000000,21504.000000
8582.000000,8337.000000,6258.000000,0.000000,21504.000000
8582.000000,8341.000000,6260.000000,0.000000,21504.000000
8585.000000,8341.000000,6258.000000,0.000000,21504.000000
8580.000000,8336.000000,6258.000000,0.000000,21504.000000
8574.000000,8326.000000,6254.000000,0.000000,21504.000000
8562.000000,8311.000000,6246.000000,0.000000,21504.000000
8561.000000,8309.000000,6244.000000,0.000000,21504.000000
8565.000000,8312.000000,6247.000000,0.000000,21504.000000
8565.000000,8313.000000,6247.000000,0.000000,21504.000000
8566.000000,8312.000000,6247.000000,0.000000,21504.000000
8566.000000,8313.000000,6248.000000,0.000000,21504.000000
8568.000000,8313.000000,6248.000000,0.000000,21504.000000
8569.000000,8315.000000,6250.000000,0.000000,21504.000000
8573.000000,8320.000000,6253.000000,0.000000,21504.000000
8572.000000,8324.000000,6252.000000,0.000000,21504.000000
8577.000000,8331.000000,6256.000000,0.000000,21504.000000
8580.000000,8337.000000,6258.000000,0.000000,21504.000000
8584.000000,8340.000000,6258.000000,0.000000,21504.000000
8584.000000,8338.000000,6259.000000,0.000000,21504.000000
8581.000000,8338.000000,6254.000000,0.000000,21504.000000
8573.000000,8325.000000,6254.000000,0.000000,21504.000000
8570.000000,8317.000000,6251.000000,0.000000,21504.000000
8568.000000,8315.000000,6247.000000,0.000000,21504.000000
8570.000000,8315.000000,6249.000000,0.000000,21504.000000
8568.000000,8315.000000,6246.000000,0.000000,21504.000000
8568.000000,8315.000000,6247.000000,0.000000,21504.000000
8571.000000,8316.000000,6248.000000,0.000000,21504.000000
8565.000000,8311.000000,6243.000000,0.000000,21504.000000
8565.000000,8311.000000,6252.000000,0.000000,21504.000000
8576.000000,8322.000000,6252.000000,0.000000,21504.000000
8578.000000,8327.000000,6254.000000,0.000000,21504.000000
8582.000000,8333.000000,6256.000000,0.000000,21504.000000
8585.000000,8338.000000,6256.000000,0.000000,21504.000000
8582.000000,8338.000000,6256.000000,0.000000,21504.000000
8582.000000,8336.000000,6256.000000,0.000000,21504.000000
8582.000000,8325.000000,6251.000000,0.000000,21504.000000
8575.000000,8325.000000,6247.000000,0.000000,21504.000000
8573.000000,8319.000000,6247.000000,0.000000,21504.000000
8570.000000,8316.000000,6246.000000,0.000000,21504.000000
8572.000000,8317.000000,6247.000000,0.000000,21504.000000
8573.000000,8319.000000,6248.000000,0.000000,21504.000000
8572.000000,8318.000000,6248.000000,0.000000,21504.000000
8572.000000,8317.000000,6247.000000,0.000000,21504.000000
8573.000000,8321.000000,6249.000000,0.000000,21504.000000
8573.000000,8326.000000,6251.000000,0.000000,21504.000000
8577.000000,8326.000000,6253.000000,0.000000,21504.000000
8577.000000,8330.000000,6253.000000,0.000000,21504.000000
8582.000000,8334.000000,6255.000000,0.000000,21504.000000
8585.000000,8340.000000,6258.000000,0.000000,21504.000000
8587.000000,8351.000000,6264.000000,0.000000,21504.000000
8585.000000,8344.000000,6260.000000,0.000000,21504.000000
8578.000000,8328.000000,6253.000000,0.000000,21504.000000
8572.000000,8319.000000,6248.000000,0.000000,21504.000000
8572.000000,8316.000000,6246.000000,0.000000,21504.000000
8570.000000,8316.000000,6247.000000,0.000000,21504.000000
8571.000000,8318.000000,6247.000000,0.000000,21504.000000
8564.000000,8313.000000,6241.000000,0.000000,21504.000000
8566.000000,8312.000000,6243.000000,0.000000,21504.000000
8570.000000,8315.000000,6246.000000,0.000000,21504.000000
8571.000000,8317.000000,6246.000000,0.000000,21504.000000
8575.000000,8322.000000,6249.000000,0.000000,21504.000000
8575.000000,8324.000000,6249.000000,0.000000,21504.000000
8575.000000,8324.000000,6251.000000,0.000000,21504.000000
8577.000000,8330.000000,6251.000000,0.000000,21504.000000
8584.000000,8340.000000,6256.000000,0.000000,21504.000000
8587.000000,8351.000000,6264.000000,0.000000,21504.000000
8583.000000,8340.000000,6256.000000,0.000000,21504.000000
8575.000000,8325.000000,6251.000000,0.000000,21504.000000
8572.000000,8320.000000,6249.000000,0.000000,21504.000000
8573.000000,8320.000000,6248.000000,1.000000,21504.000000
8572.000000,8320.000000,6248.000000,1.000000,21504.000000
8571.000000,8321.000000,6249.000000,1.000000,21504.000000
8571.000000,8319.000000,6248.000000,1.000000,21504.000000
8568.000000,8319.000000,6248.000000,1.000000,21504.000000
8570.000000,8320.000000,6249.000000,1.000000,21504.000000
8572.000000,8323.000000,6250.000000,1.000000,21504.000000
8574.000000,8328.000000,6251.000000,1.000000,21504.000000
8577.000000,8334.000000,6255.000000,1.000000,21504.000000
8578.000000,8334.000000,6253.000000,1.000000,21504.000000
8585.000000,8346.000000,6260.000000,1.000000,21504.000000
8585.000000,8348.000000,6262.000000,1.000000,21504.000000
8585.000000,8338.000000,6255.000000,1.000000,21504.000000
8581.000000,8338.000000,6254.000000,1.000000,21504.000000
8576.000000,8329.000000,6254.000000,1.000000,21504.000000
8565.000000,8315.000000,6245.000000,1.000000,21504.000000
8569.000000,8321.000000,6249.000000,1.000000,21504.000000
8570.000000,8323.000000,6251.000000,1.000000,21504.000000
8569.000000,8322.000000,6251.000000,1.000000,21504.000000
8563.000000,8315.000000,6247.000000,1.000000,21504.000000
8554.000000,8307.000000,6239.000000,1.000000,21504.000000
8555.000000,8312.000000,6241.000000,1.000000,21504.000000
8555.000000,8312.000000,6243.000000,1.000000,21504.000000
8557.000000,8314.000000,6243.000000,1.000000,21504.000000
8560.000000,8320.000000,6246.000000,1.000000,21504.000000
8563.000000,8326.000000,6247.000000,1.000000,21504.000000
8567.000000,8328.000000,6249.000000,1.000000,21504.000000
8564.000000,8325.000000,6248.000000,1.000000,21504.000000
8555.000000,8315.000000,6243.000000,1.000000,21504.000000
8548.000000,8306.000000,6236.000000,1.000000,21504.000000
8544.000000,8301.000000,6233.000000,1.000000,21504.000000
8544.000000,8301.000000,6233.000000,1.000000,21504.000000
8544.000000,8301.000000,6233.000000,1.000000,21504.000000
8541.000000,8299.000000,6230.000000,1.000000,21504.000000
8540.000000,8298.000000,6231.000000,1.000000,21504.000000
8538.000000,8297.000000,6229.000000,1.000000,21504.000000
8538.000000,8297.000000,6231.000000,1.000000,21504.000000
8542.000000,8299.000000,6231.000000,1.000000,21504.000000
8543.000000,8301.000000,6233.000000,1.000000,21504.000000
8543.000000,8306.000000,6236.000000,1.000000,21504.000000
8548.000000,8306.000000,6238.000000,1.000000,21504.000000
8548.000000,8307.000000,6238.000000,1.000000,21504.000000
8550.000000,8310.000000,6241.000000,1.000000,21504.000000
8545.000000,8306.000000,6238.000000,1.000000,21504.000000
8537.000000,8298.000000,6232.000000,1.000000,21504.000000
8529.000000,8290.000000,6229.000000,1.000000,21504.000000
8527.000000,8283.000000,6226.000000,1.000000,21504.000000
8526.000000,8284.000000,6225.000000,1.000000,21504.000000
8526.000000,8282.000000,6225.000000,1.000000,21504.000000
8526.000000,8282.000000,6223.000000,1.000000,21504.000000
8524.000000,8280.000000,6223.000000,1.000000,21504.000000
8523.000000,8278.000000,6224.000000,1.000000,21504.000000
8524.000000,8280.000000,6223.000000,1.000000,21504.000000
8525.000000,8284.000000,6226.000000,1.000000,21504.000000
8528.000000,8288.000000,6227.000000,1.000000,21504.000000
8531.000000,8291.000000,6228.000000,1.000000,21504.000000
8532.000000,8294.000000,6229.000000,1.000000,21504.000000
8532.000000,8295.000000,6230.000000,1.000000,21504.000000
8534.000000,8295.000000,6229.000000,1.000000,21504.000000
8529.000000,8291.000000,6229.000000,1.000000,21504.000000
8524.000000,8279.000000,6224.000000,1.000000,21504.000000
8518.000000,8271.000000,6219.000000,1.000000,21504.000000
8516.000000,8269.000000,6218.000000,1.000000,21504.000000
8516.000000,8268.000000,6217.000000,1.000000,21504.000000
8517.000000,8269.000000,6217.000000,1.000000,21504.000000
8515.000000,8268.000000,6217.000000,1.000000,21504.000000
8515.000000,8268.000000,6216.000000,1.000000,21504.000000
8514.000000,8265.000000,6216.000000,1.000000,21504.000000
8518.000000,8269.000000,6218.000000,1.000000,21504.000000
8521.000000,8274.000000,6219.000000,1.000000,21504.000000
8524.000000,8280.000000,6223.000000,1.000000,21504.000000
8528.000000,8286.000000,6225.000000,1.000000,21504.000000
8531.000000,8291.000000,6228.000000,1.000000,21504.000000
8531.000000,8290.000000,6228.000000,1.000000,21504.000000
8531.000000,8282.000000,6225.000000,1.000000,21504.000000
8524.000000,8282.000000,6219.000000,1.000000,21504.000000
8516.000000,8271.000000,6219.000000,1.000000,21504.000000
8514.000000,8265.000000,6215.000000,1.000000,21504.000000
8514.000000,8263.000000,6213.000000,1.000000,21504.000000
8516.000000,8264.000000,6215.000000,1.000000,21504.000000
8516.000000,8263.000000,6214.000000,1.000000,21504.000000
8513.000000,8262.000000,6213.000000,1.000000,21504.000000
8515.000000,8264.000000,6214.000000,1.000000,21504.000000
8515.000000,8264.000000,6217.000000,1.000000,21504.000000
8518.000000,8270.000000,6217.000000,1.000000,21504.000000
8520.000000,8274.000000,6219.000000,1.000000,21504.000000
8525.000000,8279.000000,6221.000000,1.000000,21504.000000
8529.000000,8285.000000,6225.000000,1.000000,21504.000000
8532.000000,8290.000000,6226.000000,1.000000,21504.000000
8529.000000,8287.000000,6226.000000,1.000000,21504.000000
8521.000000,8276.000000,6220.000000,1.000000,21504.000000
8521.000000,8264.000000,6214.000000,1.000000,21504.000000
8515.000000,8264.000000,6210.000000,1.000000,21504.000000
8512.000000,8258.000000,6210.000000,1.000000,21504.000000
8512.000000,8255.000000,6209.000000,1.000000,21504.000000
8513.000000,8256.000000,6209.000000,1.000000,21504.000000
8512.000000,8256.000000,6210.000000,1.000000,21504.000000
8513.000000,8254.000000,6206.000000,1.000000,21504.000000
8515.000000,8259.000000,6210.000000,1.000000,21504.000000
8519.000000,8263.000000,6212.000000,1.000000,21504.000000
8519.000000,8266.000000,6214.000000,1.000000,21504.000000
8520.000000,8266.000000,6214.000000,1.000000,21504.000000
8523.000000,8271.000000,6216.000000,1.000000,21504.000000
8527.000000,8277.000000,6219.000000,1.000000,21504.000000
8530.000000,8283.000000,6222.000000,1.000000,21504.000000
8526.000000,8279.000000,6220.000000,1.000000,21504.000000
8519.000000,8266.000000,6213.000000,1.000000,21504.000000
8513.000000,8252.000000,6206.000000,1.000000,21504.000000
8511.000000,8247.000000,6204.000000,1.000000,21504.000000
8511.000000,8247.000000,6203.000000,1.000000,21504.000000
8512.000000,8247.000000,6203.000000,1.000000,21504.000000
8511.000000,8246.000000,6203.000000,1.000000,21504.000000
8508.000000,8245.000000,6202.000000,1.000000,21504.000000
8508.000000,8244.000000,6202.000000,1.000000,21504.000000
8509.000000,8246.000000,6203.000000,1.000000,21504.000000
8512.000000,8251.000000,6205.000000,1.000000,21504.000000
8516.000000,8256.000000,6207.000000,1.000000,21504.000000
8519.000000,8262.000000,6211.000000,1.000000,21504.000000
8519.000000,8262.000000,6213.000000,1.000000,21504.000000
8522.000000,8267.000000,6213.000000,1.000000,21504.000000
8523.000000,8272.000000,6215.000000,0.000000,21504.000000
8521.000000,8268.000000,6213.000000,0.000000,21504.000000
8514.000000,8253.000000,6206.000000,0.000000,21504.000000
8510.000000,8243.000000,6201.000000,0.000000,21504.000000
8508.000000,8240.000000,6199.000000,0.000000,21504.000000
8508.000000,8242.000000,6199.000000,0.000000,21504.000000
8508.000000,8241.000000,6199.000000,0.000000,21504.000000
8509.000000,8241.000000,6201.000000,0.000000,21504.000000
8509.000000,8241.000000,6199.000000,0.000000,21504.000000
8509.000000,8241.000000,6199.000000,0.000000,21504.000000
8512.000000,8246.000000,6202.000000,0.000000,21504.000000
8517.000000,8251.000000,6205.000000,0.000000,21504.000000
8520.000000,8258.000000,6207.000000,0.000000,21504.000000
8522.000000,8265.000000,6212.000000,0.000000,21504.000000
8527.000000,8270.000000,6213.000000,0.000000,21504.000000
8530.000000,8279.000000,6217.000000,0.000000,21504.000000
8530.000000,8273.000000,6215.000000,0.000000,21504.000000
8527.000000,8273.000000,6215.000000,0.000000,21504.000000
8526.000000,8268.000000,6214.000000,0.000000,21504.000000
8528.000000,8266.000000,6214.000000,0.000000,21504.000000
8527.000000,8263.000000,6212.000000,0.000000,21504.000000
8527.000000,8265.000000,6214.000000,0.000000,21504.000000
8528.000000,8264.000000,6214.000000,0.000000,21504.000000
8528.000000,8263.000000,6213.000000,0.000000,21504.000000
8528.000000,8266.000000,6213.000000,0.000000,21504.000000
8529.000000,8266.000000,6213.000000,0.000000,21504.000000
8533.000000,8270.000000,6216.000000,0.000000,21504.000000
8534.000000,8275.000000,6219.000000,0.000000,21504.000000
8536.000000,8279.000000,6220.000000,0.000000,21504.000000
8541.000000,8287.000000,6225.000000,0.000000,21504.000000
8547.000000,8292.000000,6226.000000,0.000000,21504.000000
8549.000000,8295.000000,6227.000000,0.000000,21504.000000
8545.000000,8291.000000,6226.000000,0.000000,21504.000000
8545.000000,8280.000000,6220.000000,0.000000,21504.000000
8537.000000,8280.000000,6220.000000,0.000000,21504.000000
8532.000000,8272.000000,6215.000000,0.000000,21504.000000
8531.000000,8269.000000,6215.000000,0.000000,21504.000000
8526.000000,8260.000000,6209.000000,0.000000,21504.000000
8532.000000,8268.000000,6215.000000,0.000000,21504.000000
8529.000000,8265.000000,6212.000000,0.000000,21504.000000
8532.000000,8268.000000,6215.000000,0.000000,21504.000000
8534.000000,8272.000000,6217.000000,0.000000,21504.000000
8534.000000,8278.000000,6221.000000,0.000000,21504.000000
8538.000000,8278.000000,6221.000000,0.000000,21504.000000
8541.000000,8283.000000,6222.000000,0.000000,21504.000000
8544.000000,8289.000000,6225.000000,0.000000,21504.000000
8542.000000,8289.000000,6223.000000,0.000000,21504.000000
8551.000000,8296.000000,6226.000000,0.000000,21504.000000
8546.000000,8292.000000,6225.000000,0.000000,21504.000000
8537.000000,8277.000000,6217.000000,0.000000,21504.000000
8533.000000,8269.000000,6213.000000,0.000000,21504.000000
8533.000000,8265.000000,6212.000000,0.000000,21504.000000
8533.000000,8265.000000,6212.000000,0.000000,21504.000000
8534.000000,8267.000000,6213.000000,0.000000,21504.000000
8532.000000,8265.000000,6212.000000,0.000000,21504.000000
8532.000000,8262.000000,6211.000000,0.000000,21504.000000
8532.000000,8262.000000,6211.000000,0.000000,21504.000000
8535.000000,8267.000000,6213.000000,0.000000,21504.000000
8535.000000,8271.000000,6215.000000,0.000000,21504.000000
8538.000000,8271.000000,6217.000000,0.000000,21504.000000
8540.000000,8276.000000,6217.000000,0.000000,21504.000000
8539.000000,8281.000000,6218.000000,0.000000,21504.000000
8547.000000,8288.000000,6222.000000,0.000000,21504.000000
8548.000000,8290.000000,6223.000000,0.000000,21504.000000
8543.000000,8282.000000,6220.000000,0.000000,21504.000000
8530.000000,8263.000000,6207.000000,0.000000,21504.000000
8532.000000,8262.000000,6209.000000,0.000000,21504.000000
8532.000000,8261.000000,6209.000000,0.000000,21504.000000
8530.000000,8261.000000,6209.000000,0.000000,21504.000000
8533.000000,8263.000000,6210.000000,0.000000,21504.000000
8533.000000,8266.000000,6211.000000,0.000000,21504.000000
8531.000000,8263.000000,6210.000000,0.000000,21504.000000
8534.000000,8265.000000,6212.000000,0.000000,21504.000000
8537.000000,8272.000000,6215.000000,0.000000,21504.000000
8535.000000,8270.000000,6212.000000,0.000000,21504.000000
8544.000000,8282.000000,6219.000000,0.000000,21504.000000
8544.000000,8288.000000,6222.000000,0.000000,21504.000000
8548.000000,8288.000000,6222.000000,0.000000,21504.000000
8551.000000,8292.000000,6222.000000,0.000000,21504.000000
8551.000000,8291.000000,6223.000000,0.000000,21504.000000
8544.000000,8280.000000,6219.000000,0.000000,21504.000000
8538.000000,8270.000000,6212.000000,0.000000,21504.000000
8533.000000,8262.000000,6207.000000,0.000000,21504.000000
8537.000000,8266.000000,6210.000000,0.000000,21504.000000
8537.000000,8268.000000,6212.000000,0.000000,21504.000000
8537.000000,8268.000000,6212.000000,0.000000,21504.000000
8538.000000,8269.000000,6212.000000,0.000000,21504.000000
8538.000000,8269.000000,6211.000000,0.000000,21504.000000
8539.000000,8272.000000,6213.000000,0.000000,21504.000000
8541.000000,8277.000000,6216.000000,0.000000,21504.000000
8546.000000,8282.000000,6218.000000,0.000000,21504.000000
8550.000000,8288.000000,6221.000000,0.000000,21504.000000
8550.000000,8291.000000,6221.000000,0.000000,21504.000000
8550.000000,8292.000000,6221.000000,0.000000,21504.000000
8547.000000,8292.000000,6221.000000,0.000000,21504.000000
8552.000000,8293.000000,6222.000000,0.000000,21504.000000
8545.000000,8282.000000,6217.000000,0.000000,21504.000000
8540.000000,8272.000000,6212.000000,0.000000,21504.000000
8539.000000,8267.000000,6209.000000,0.000000,21504.000000
8539.000000,8268.000000,6209.000000,0.000000,21504.000000
8539.000000,8269.000000,6209.000000,0.000000,21504.000000
8539.000000,8268.000000,6208.000000,0.000000,21504.000000
8537.000000,8268.000000,6208.000000,0.000000,21504.000000
8531.000000,8260.000000,6204.000000,0.000000,21504.000000
8538.000000,8267.000000,6208.000000,0.000000,21504.000000
8543.000000,8275.000000,6214.000000,0.000000,21504.000000
8544.000000,8282.000000,6216.000000,0.000000,21504.000000
8549.000000,8288.000000,6219.000000,0.000000,21504.000000
8552.000000,8291.000000,6220.000000,0.000000,21504.000000
8556.000000,8295.000000,6222.000000,0.000000,21504.000000
8556.000000,8292.000000,6220.000000,0.000000,21504.000000
8552.000000,8292.000000,6215.000000,0.000000,21504.000000
8544.000000,8280.000000,6215.000000,0.000000,21504.000000
8539.000000,8270.000000,6209.000000,0.000000,21504.000000
8536.000000,8261.000000,6205.000000,0.000000,21504.000000
8539.000000,8266.000000,6207.000000,0.000000,21504.000000
8539.000000,8267.000000,6208.000000,0.000000,21504.000000
8538.000000,8264.000000,6207.000000,0.000000,21504.000000
8538.000000,8265.000000,6207.000000,0.000000,21504.000000
8538.000000,8268.000000,6209.000000,0.000000,21504.000000
8541.000000,8271.000000,6210.000000,1.000000,21504.000000
8541.000000,8271.000000,6208.000000,1.000000,21504.000000
8540.000000,8271.000000,6208.000000,1.000000,21504.000000
8549.000000,8282.000000,6216.000000,1.000000,21504.000000
8551.000000,8288.000000,6219.000000,1.000000,21504.000000
8549.000000,8288.000000,6219.000000,1.000000,21504.000000
8549.000000,8286.000000,6218.000000,1.000000,21504.000000
8544.000000,8274.000000,6211.000000,1.000000,21504.000000
8539.000000,8265.000000,6205.000000,1.000000,21504.000000
8538.000000,8264.000000,6204.000000,1.000000,21504.000000
8538.000000,8264.000000,6200.000000,1.000000,21504.000000
8533.000000,8260.000000,6200.000000,1.000000,21504.000000
8541.000000,8269.000000,6208.000000,1.000000,21504.000000
8542.000000,8271.000000,6208.000000,1.000000,21504.000000
8542.000000,8272.000000,6208.000000,1.000000,21504.000000
8540.000000,8271.000000,6206.000000,1.000000,21504.000000
8536.000000,8270.000000,6204.000000,1.000000,21504.000000
8540.000000,8277.000000,6209.000000,1.000000,21504.000000
8543.000000,8285.000000,6214.000000,1.000000,21504.000000
8543.000000,8292.000000,6218.000000,1.000000,21504.000000
8548.000000,8292.000000,6218.000000,1.000000,21504.000000
8550.000000,8295.000000,6221.000000,1.000000,21504.000000
8542.000000,8280.000000,6211.000000,1.000000,21504.000000
8537.000000,8270.000000,6204.000000,1.000000,21504.000000
8536.000000,8266.000000,6203.000000,1.000000,21504.000000
8535.000000,8267.000000,6202.000000,1.000000,21504.000000
8536.000000,8271.000000,6204.000000,1.000000,21504.000000
8538.000000,8271.000000,6204.000000,1.000000,21504.000000
8538.000000,8271.000000,6206.000000,1.000000,21504.000000
8537.000000,8273.000000,6206.000000,1.000000,21504.000000
8538.000000,8275.000000,6207.000000,1.000000,21504.000000
8541.000000,8279.000000,6210.000000,1.000000,21504.000000
8544.000000,8285.000000,6213.000000,1.000000,21504.000000
8548.000000,8292.000000,6217.000000,1.000000,21504.000000
8551.000000,8298.000000,6220.000000,1.000000,21504.000000
8554.000000,8300.000000,6222.000000,1.000000,21504.000000
8554.000000,8297.000000,6222.000000,1.000000,21504.000000
8551.000000,8297.000000,6213.000000,1.000000,21504.000000
8544.000000,8284.000000,6213.000000,1.000000,21504.000000
8536.000000,8272.000000,6205.000000,1.000000,21504.000000
8534.000000,8267.000000,6202.000000,1.000000,21504.000000
8536.000000,8271.000000,6204.000000,1.000000,21504.000000
8535.000000,8268.000000,6203.000000,1.000000,21504.000000
8535.000000,8268.000000,6203.000000,1.000000,21504.000000
8535.000000,8271.000000,6204.000000,1.000000,21504.000000
8535.000000,8270.000000,6205.000000,1.000000,21504.000000
8536.000000,8270.000000,6206.000000,1.000000,21504.000000
8539.000000,8273.000000,6206.000000,1.000000,21504.000000
8542.000000,8279.000000,6211.000000,1.000000,21504.000000
8546.000000,8287.000000,6215.000000,1.000000,21504.000000
8547.000000,8292.000000,6217.000000,1.000000,21504.000000
8549.000000,8294.000000,6219.000000,1.000000,21504.000000
8543.000000,8287.000000,6216.000000,1.000000,21504.000000
8536.000000,8271.000000,6205.000000,1.000000,21504.000000
8536.000000,8263.000000,6200.000000,1.000000,21504.000000
8532.000000,8263.000000,6198.000000,1.000000,21504.000000
8531.000000,8261.000000,6198.000000,1.000000,21504.000000
8532.000000,8261.000000,6199.000000,1.000000,21504.000000
8532.000000,8263.000000,6200.000000,1.000000,21504.000000
8531.000000,8261.000000,6199.000000,1.000000,21504.000000
8532.000000,8259.000000,6197.000000,1.000000,21504.000000
8533.000000,8267.000000,6202.000000,1.000000,21504.000000
8534.000000,8270.000000,6204.000000,1.000000,21504.000000
8534.000000,8279.000000,6210.000000,1.000000,21504.000000
8539.000000,8279.000000,6213.000000,1.000000,21504.000000
8542.000000,8284.000000,6213.000000,1.000000,21504.000000
8545.000000,8286.000000,6214.000000,1.000000,21504.000000
8541.000000,8285.000000,6214.000000,1.000000,21504.000000
8534.000000,8274.000000,6207.000000,1.000000,21504.000000
8528.000000,8259.000000,6198.000000,1.000000,21504.000000
8525.000000,8255.000000,6196.000000,1.000000,21504.000000
8526.000000,8254.000000,6197.000000,1.000000,21504.000000
8526.000000,8255.000000,6197.000000,1.000000,21504.000000
8526.000000,8255.000000,6195.000000,1.000000,21504.000000
8523.000000,8251.000000,6195.000000,1.000000,21504.000000
8523.000000,8251.000000,6195.000000,1.000000,21504.000000
8524.000000,8254.000000,6196.000000,1.000000,21504.000000
8527.000000,8258.000000,6198.000000,1.000000,21504.000000
8530.000000,8262.000000,6201.000000,1.000000,21504.000000
8530.000000,8266.000000,6203.000000,1.000000,21504.000000
8530.000000,8267.000000,6203.000000,1.000000,21504.000000
8530.000000,8265.000000,6203.000000,1.000000,21504.000000
8528.000000,8265.000000,6203.000000,1.000000,21504.000000
8522.000000,8253.000000,6197.000000,1.000000,21504.000000
8512.000000,8237.000000,6189.000000,1.000000,21504.000000
8504.000000,8226.000000,6184.000000,1.000000,21504.000000
8501.000000,8221.000000,6182.000000,1.000000,21504.000000
8499.000000,8219.000000,6180.000000,1.000000,21504.000000
8497.000000,8217.000000,6180.000000,1.000000,21504.000000
8497.000000,8213.000000,6179.000000,1.000000,21504.000000
8497.000000,8213.000000,6179.000000,1.000000,21504.000000
8496.000000,8216.000000,6179.000000,1.000000,21504.000000
8498.000000,8221.000000,6181.000000,1.000000,21504.000000
8501.000000,8224.000000,6183.000000,1.000000,21504.000000
8505.000000,8228.000000,6186.000000,1.000000,21504.000000
8508.000000,8235.000000,6188.000000,1.000000,21504.000000
8511.000000,8242.000000,6191.000000,1.000000,21504.000000
8513.000000,8245.000000,6192.000000,1.000000,21504.000000
8513.000000,8240.000000,6190.000000,1.000000,21504.000000
8509.000000,8240.000000,6184.000000,1.000000,21504.000000
8500.000000,8223.000000,6184.000000,1.000000,21504.000000
8494.000000,8212.000000,6177.000000,1.000000,21504.000000
8491.000000,8208.000000,6175.000000,1.000000,21504.000000
8492.000000,8208.000000,6175.000000,1.000000,21504.000000
8490.000000,8205.000000,6174.000000,1.000000,21504.000000
8489.000000,8203.000000,6173.000000,1.000000,21504.000000
8488.000000,8204.000000,6172.000000,1.000000,21504.000000
8491.000000,8206.000000,6175.000000,1.000000,21504.000000
8491.000000,8206.000000,6178.000000,1.000000,21504.000000
8493.000000,8213.000000,6178.000000,1.000000,21504.000000
8496.000000,8219.000000,6181.000000,1.000000,21504.000000
8501.000000,8226.000000,6185.000000,1.000000,21504.000000
8503.000000,8229.000000,6186.000000,1.000000,21504.000000
8503.000000,8230.000000,6187.000000,1.000000,21504.000000
8496.000000,8218.000000,6180.000000,1.000000,21504.000000
8490.000000,8207.000000,6174.000000,1.000000,21504.000000
8490.000000,8203.000000,6172.000000,1.000000,21504.000000
8488.000000,8203.000000,6172.000000,1.000000,21504.000000
8489.000000,8202.000000,6173.000000,1.000000,21504.000000
8489.000000,8205.000000,6172.000000,1.000000,21504.000000
8491.000000,8207.000000,6174.000000,0.000000,21504.000000
8490.000000,8208.000000,6175.000000,0.000000,21504.000000
8493.000000,8212.000000,6177.000000,0.000000,21504.000000
8497.000000,8218.000000,6180.000000,0.000000,21504.000000
8500.000000,8224.000000,6184.000000,0.000000,21504.000000
8510.000000,8236.000000,6191.000000,0.000000,21504.000000
8510.000000,8236.000000,6199.000000,0.000000,21504.000000
8522.000000,8250.000000,6199.000000,0.000000,21504.000000
8524.000000,8254.000000,6200.000000,0.000000,21504.000000
8518.000000,8246.000000,6197.000000,0.000000,21504.000000
