6696,7320,7020,1616,988,648,24
6700,7324,7024,1616,988,648,23
6700,7324,7024,1616,988,648,23
6704,7332,7032,1616,988,648,24
6704,7340,7036,1616,988,648,23
6704,7340,7040,1616,988,648,23
6708,7348,7044,1616,992,648,24
6708,7348,7044,1616,988,648,23
6712,7356,7048,1616,988,648,24
6712,7360,7052,1616,988,648,23
6712,7364,7056,1616,992,648,23
6716,7372,7064,1616,992,648,24
6720,7376,7068,1616,992,648,23
6720,7380,7068,1620,992,648,23
6716,7380,7068,1616,992,648,24
6716,7380,7068,1616,992,648,23
6716,7384,7068,1616,992,648,23
6720,7392,7072,1620,992,648,24
6720,7396,7076,1620,992,648,23
6720,7400,7076,1616,992,648,23
6724,7404,7080,1620,992,648,24
6724,7408,7084,1616,992,648,23
6724,7408,7084,1620,992,648,24
6720,7396,7076,1616,992,648,23
6720,7384,7072,1616,992,648,23
6716,7368,7060,1616,992,648,24
6716,7356,7056,1616,992,648,23
6716,7344,7048,1616,992,648,23
6716,7340,7044,1616,988,648,24
6712,7324,7036,1616,988,648,23
6712,7320,7036,1616,988,648,23
6712,7320,7036,1616,988,648,24
6716,7320,7036,1616,988,648,23
6712,7320,7036,1616,988,648,23
6716,7324,7040,1616,988,648,24
6720,7328,7040,1616,988,648,23
6720,7328,7044,1616,988,648,24
6720,7332,7044,1616,988,648,23
6720,7332,7044,1616,988,648,23
6724,7336,7048,1616,988,648,24
6716,7332,7044,1616,988,648,23
6724,7340,7052,1616,988,648,23
6724,7340,7052,1616,988,648,24
6720,7344,7052,1616,988,648,23
6724,7352,7056,1616,988,648,23
6724,7352,7056,1616,988,648,24
6728,7360,7064,1616,988,648,23
6728,7368,7068,1616,992,648,23
6732,7372,7072,1616,992,648,24
6732,7376,7076,1616,992,648,23
6732,7380,7076,1616,992,648,23
6732,7384,7080,1616,992,648,24
6732,7392,7084,1616,992,648,23
6740,7404,7096,1616,992,648,24
6744,7412,7100,1616,992,648,23
6744,7416,7104,1616,992,648,23
6744,7416,7104,1616,992,648,24
6740,7412,7100,1616,992,648,23
6736,7392,7088,1616,992,648,23
6732,7380,7080,1616,992,648,24
6732,7368,7072,1616,992,648,23
6728,7352,7064,1616,992,648,23
6728,7344,7056,1616,988,648,24
6724,7328,7048,1616,988,648,23
6724,7324,7048,1616,988,648,23
6724,7320,7040,1616,988,648,24
6724,7316,7040,1612,988,648,23
6724,7320,7040,1616,988,648,24
6728,7324,7044,1616,988,648,23
6728,7324,7048,1616,988,648,23
6724,7316,7040,1616,988,648,24
6728,7328,7048,1616,988,648,23
6728,7328,7048,1616,988,648,23
6728,7332,7052,1616,992,648,24
6728,7336,7052,1616,992,648,23
6732,7344,7060,1616,988,648,23
6732,7352,7064,1616,988,648,24
6740,7360,7072,1616,988,648,23
6740,7364,7076,1612,988,648,23
6744,7372,7080,1612,988,648,24
6744,7380,7084,1612,988,648,23
6748,7388,7092,1612,988,648,24
6748,7392,7092,1612,988,648,23
6752,7396,7100,1616,992,648,23
6748,7396,7096,1616,992,648,24
6752,7400,7100,1616,992,648,23
6748,7400,7100,1616,992,648,23
6744,7400,7100,1616,992,648,24
6748,7412,7104,1616,992,648,23
6752,7416,7108,1616,992,648,23
6752,7416,7108,1616,992,648,24
6744,7404,7100,1616,992,648,23
6744,7396,7092,1616,992,648,23
6740,7384,7088,1616,992,648,24
6740,7372,7080,1616,992,648,23
6740,7356,7072,1612,992,648,24
6732,7340,7060,1612,988,648,23
6732,7340,7056,1612,988,648,23
6736,7336,7056,1612,988,648,24
6732,7336,7056,1612,988,648,23
6736,7336,7056,1612,988,648,23
6736,7340,7060,1612,988,648,24
6736,7340,7060,1616,992,648,23
6736,7340,7060,1612,988,648,23
6736,7344,7060,1616,992,648,24
6736,7344,7064,1612,988,648,23
6736,7344,7060,1612,992,648,23
6736,7348,7060,1612,992,648,24
6732,7348,7060,1612,992,648,23
6732,7348,7060,1612,992,648,24
6732,7348,7060,1612,992,648,23
6732,7352,7060,1612,992,648,23
6732,7360,7068,1616,992,648,24
6736,7368,7072,1616,992,648,23
6736,7372,7072,1616,992,648,23
6740,7380,7080,1616,992,648,24
6740,7388,7084,1616,992,648,23
6740,7392,7088,1616,992,648,23
6740,7396,7088,1616,992,648,24
6740,7404,7092,1616,992,648,23
6740,7408,7092,1616,992,648,24
6744,7416,7100,1616,996,648,23
6744,7420,7100,1616,996,648,23
6744,7416,7100,1616,996,648,24
6740,7408,7092,1616,996,648,23
6736,7396,7088,1616,992,648,23
6732,7384,7076,1616,996,648,24
6732,7372,7068,1616,992,648,23
6732,7368,7068,1616,996,648,23
6728,7360,7060,1616,992,648,24
6724,7348,7052,1616,992,648,23
6720,7344,7048,1616,992,648,23
6720,7344,7048,1616,992,648,24
6724,7348,7052,1616,992,648,23
6724,7348,7052,1616,992,648,23
6728,7356,7056,1616,992,648,24
6724,7356,7056,1620,996,648,23
6728,7360,7060,1620,996,648,24
6724,7360,7056,1616,996,648,23
6724,7364,7060,1616,996,648,23
6724,7368,7064,1616,996,648,24
6728,7368,7064,1616,996,648,23
6728,7372,7064,1616,996,648,23
6728,7376,7068,1616,996,648,24
6728,7384,7072,1616,996,648,23
6728,7392,7076,1616,996,648,23
6728,7392,7076,1620,996,652,24
6736,7408,7084,1616,996,652,23
6732,7412,7088,1616,996,652,23
6732,7416,7088,1616,996,652,24
6736,7424,7092,1620,996,652,23
6732,7424,7092,1616,996,652,24
6736,7432,7100,1620,996,652,23
6736,7436,7100,1620,996,652,23
6736,7440,7104,1620,1000,652,24
6736,7444,7104,1620,1000,652,23
6732,7428,7096,1620,1000,652,23
6728,7420,7088,1620,1000,652,24
6724,7408,7080,1620,996,652,23
6724,7396,7072,1620,996,652,23
6724,7384,7068,1620,996,652,24
6720,7372,7060,1616,996,652,23
6720,7364,7056,1616,996,652,23
6720,7364,7056,1616,996,652,24
6716,7356,7048,1616,996,652,23
6724,7360,7052,1616,996,652,24
6724,7364,7052,1616,996,652,23
6724,7368,7060,1616,996,652,23
6728,7372,7060,1616,996,648,24
6728,7376,7064,1616,996,648,23
6728,7380,7068,1616,996,652,23
6728,7384,7068,1616,996,652,24
6736,7392,7076,1616,996,652,23
6728,7388,7068,1616,996,652,23
6732,7396,7076,1616,996,652,24
6732,7400,7076,1616,996,652,23
6732,7404,7080,1616,996,652,23
6732,7408,7084,1616,996,652,24
6736,7416,7088,1620,1000,652,23
6732,7420,7088,1620,1000,652,23
6740,7432,7096,1616,996,652,24
6736,7432,7096,1616,996,652,23
6740,7444,7104,1620,1000,652,24
6740,7448,7104,1616,1000,652,23
6736,7452,7108,1616,1000,652,23
6740,7456,7108,1620,1000,652,24
6744,7468,7116,1620,1000,652,23
6736,7464,7112,1620,1000,652,23
6736,7464,7112,1620,1000,652,24
6736,7456,7108,1620,1000,652,23
6736,7444,7100,1616,1000,652,23
6736,7432,7096,1620,1000,652,24
6732,7424,7088,1616,1000,652,23
6732,7412,7080,1616,1000,652,23
6728,7400,7076,1616,996,652,24
6728,7396,7072,1616,996,652,23
6728,7392,7072,1616,996,652,24
6728,7392,7072,1616,996,652,23
6732,7396,7076,1616,996,652,23
6728,7396,7072,1616,996,652,24
6728,7400,7072,1616,996,652,23
6732,7408,7080,1616,996,652,23
6732,7412,7084,1620,1000,652,24
6736,7416,7084,1616,996,652,23
6736,7420,7088,1616,996,652,23
6736,7428,7092,1616,1000,652,24
6736,7428,7092,1616,1000,652,23
6740,7440,7100,1616,1000,652,23
6744,7448,7108,1616,1000,652,24
6744,7448,7108,1620,1000,652,23
6740,7452,7108,1620,1000,652,24
6748,7464,7116,1620,1000,652,23
6748,7472,7120,1620,1000,652,23
6748,7476,7124,1620,1000,652,24
6748,7484,7128,1620,1000,652,23
6752,7492,7136,1620,1000,652,23
6752,7500,7136,1620,1000,652,24
6752,7508,7144,1620,1000,652,23
6756,7512,7148,1620,1000,652,23
6752,7516,7148,1620,1000,652,24
6756,7520,7152,1620,1000,652,23
6752,7516,7148,1620,1000,652,23
6752,7508,7144,1620,1004,652,24
6748,7496,7136,1620,1000,652,23
6744,7484,7128,1620,1000,652,24
6744,7480,7124,1620,1000,652,23
6744,7472,7124,1620,1000,652,23
6740,7464,7116,1620,1000,652,24
6748,7468,7120,1620,1000,652,23
6744,7464,7116,1620,1000,652,23
6744,7464,7116,1620,1000,652,24
6744,7468,7116,1620,1000,652,23
6748,7472,7120,1620,1000,652,23
6748,7476,7124,1620,1000,652,24
6748,7480,7128,1620,1000,652,23
6748,7484,7132,1620,1000,652,23
6748,7488,7132,1620,1000,652,24
6752,7496,7136,1620,1000,652,23
6752,7500,7136,1620,1000,652,24
6756,7508,7144,1620,1000,652,23
6756,7516,7148,1620,1000,652,23
6756,7520,7152,1620,1000,652,24
6760,7528,7156,1620,1000,652,23
6760,7532,7160,1620,1000,652,23
6760,7540,7164,1620,1000,652,24
6760,7544,7168,1620,1000,652,23
6764,7556,7172,1620,1000,652,23
6764,7560,7176,1620,1000,652,24
6764,7564,7180,1620,1004,652,23
6764,7572,7184,1620,1004,652,23
6768,7580,7192,1624,1004,652,24
6768,7588,7192,1624,1004,652,23
6768,7588,7196,1620,1004,652,24
6768,7592,7196,1624,1004,652,23
6764,7580,7188,1620,1004,652,23
6764,7572,7184,1620,1004,652,24
6760,7560,7176,1620,1004,652,23
6760,7556,7172,1620,1000,652,23
6760,7552,7168,1620,1000,652,24
6756,7548,7164,1620,1000,652,23
6756,7544,7164,1620,1000,652,23
6760,7548,7168,1620,1000,652,24
6760,7544,7168,1620,1000,652,23
6760,7548,7168,1620,1000,652,23
6760,7552,7172,1620,1000,652,24
6756,7556,7168,1620,1000,652,23
6760,7560,7176,1620,1000,652,23
6760,7564,7176,1620,1000,652,24
6756,7564,7176,1620,1000,652,23
6756,7568,7176,1620,1000,652,24
6756,7568,7176,1620,1000,652,23
6756,7572,7180,1620,1000,652,23
6760,7584,7184,1620,1000,652,24
6756,7580,7184,1620,1000,652,23
6756,7588,7188,1620,1000,652,23
6760,7592,7192,1620,1000,652,24
6756,7596,7192,1620,1000,652,23
6760,7608,7196,1620,1000,652,23
6764,7616,7204,1620,1004,652,24
6760,7616,7204,1620,1004,652,23
6764,7624,7208,1620,1004,652,23
6764,7632,7216,1620,1004,652,24
6768,7640,7220,1620,1004,652,23
6764,7640,7216,1620,1004,652,24
6768,7652,7224,1620,1004,652,23
6772,7652,7228,1620,1004,652,23
6772,7652,7228,1620,1004,652,24
6764,7640,7216,1620,1004,652,23
6764,7632,7216,1620,1004,652,23
6760,7624,7204,1620,1000,652,24
6764,7620,7204,1620,1000,652,23
6764,7616,7204,1620,1000,652,23
6760,7612,7200,1620,1000,652,24
6760,7612,7200,1620,1000,652,23
6760,7612,7200,1620,1000,652,23
6760,7616,7204,1620,1000,652,24
6764,7624,7204,1620,1000,652,23
6764,7624,7208,1620,1000,652,24
6764,7628,7208,1620,1000,652,23
6764,7632,7212,1620,1000,652,23
6764,7636,7212,1620,1000,652,24
6764,7640,7216,1620,1000,652,23
6764,7640,7216,1620,1000,652,23
6764,7648,7220,1620,1000,652,24
6760,7648,7220,1620,1000,652,23
6760,7648,7220,1620,1000,652,23
6768,7660,7228,1620,1000,652,24
6768,7668,7232,1620,1000,652,23
6768,7668,7232,1620,1000,652,23
6768,7680,7240,1620,1000,652,24
6768,7684,7240,1620,1004,652,23
6772,7688,7248,1620,1004,652,24
6772,7696,7248,1620,1004,652,23
6772,7700,7252,1620,1004,652,23
6772,7708,7256,1620,1004,652,24
6776,7712,7260,1620,1004,652,23
6772,7716,7260,1620,1004,652,23
6772,7716,7260,1620,1004,652,24
6772,7716,7264,1620,1004,652,23
6768,7712,7256,1620,1004,652,23
6768,7704,7252,1620,1004,652,24
6764,7700,7248,1620,1004,652,23
6764,7692,7244,1620,1000,652,23
6760,7692,7244,1620,1004,652,24
6764,7688,7244,1620,1000,652,23
6764,7688,7244,1620,1000,652,24
6760,7688,7240,1620,1000,652,23
6760,7688,7240,1620,1000,652,23
6764,7700,7248,1620,1000,652,24
6768,7704,7252,1620,1000,652,23
6768,7704,7252,1620,1000,652,23
6768,7712,7256,1620,1000,652,24
6768,7712,7256,1620,1000,652,23
6772,7724,7268,1620,1000,652,23
6772,7728,7268,1620,1000,652,24
6772,7732,7272,1620,1000,652,23
6772,7736,7272,1620,1000,652,23
6776,7744,7276,1620,1000,652,24
6776,7748,7280,1620,1000,652,23
6776,7752,7280,1620,1000,652,24
6776,7760,7288,1620,1000,652,23
6776,7764,7288,1620,1000,652,23
6776,7772,7292,1620,1000,652,24
6780,7780,7296,1620,1000,652,23
6784,7788,7304,1620,1004,652,23
6780,7784,7304,1620,1004,652,24
6780,7796,7304,1620,1004,652,23
6780,7796,7308,1620,1004,652,23
6780,7804,7312,1620,1004,652,24
6784,7808,7316,1620,1004,652,23
6784,7812,7316,1620,1004,652,23
6780,7808,7316,1620,1004,652,24
6776,7804,7312,1620,1004,652,23
6776,7800,7312,1620,1004,652,23
6780,7800,7312,1620,1004,652,24
6776,7800,7308,1620,1000,652,23
6780,7796,7308,1620,1000,652,24
6776,7796,7304,1620,1000,652,23
6776,7796,7308,1620,1000,652,23
6772,7792,7304,1620,1000,652,24
6772,7792,7304,1620,1000,652,23
6776,7800,7308,1620,1000,652,23
6776,7800,7308,1620,1000,652,24
6776,7804,7312,1620,1000,652,23
6780,7808,7316,1620,1000,652,23
6780,7816,7320,1620,1000,652,24
6780,7816,7320,1620,1000,652,23
6780,7820,7324,1620,1000,652,23
6780,7824,7324,1620,1000,652,24
6776,7824,7324,1620,1004,652,23
6784,7836,7332,1620,1004,652,24
6780,7836,7332,1620,1004,652,23
6788,7844,7340,1620,1004,652,23
6788,7848,7344,1620,1004,652,24
6784,7848,7340,1620,1004,652,23
6784,7852,7340,1620,1004,652,23
6788,7860,7348,1620,1004,652,24
6788,7864,7352,1620,1004,652,23
6788,7872,7356,1620,1004,652,23
6792,7880,7360,1620,1004,652,24
6792,7884,7364,1620,1004,652,23
6792,7892,7368,1624,1004,652,23
6792,7892,7364,1620,1004,652,24
6788,7892,7368,1620,1004,652,23
6792,7896,7368,1620,1004,652,23
6784,7888,7360,1620,1004,652,24
6788,7892,7368,1620,1004,652,23
6784,7884,7360,1620,1004,652,24
6788,7884,7360,1620,1004,652,23
6784,7880,7356,1620,1004,652,23
6784,7876,7360,1620,1004,652,24
6784,7876,7356,1620,1004,652,23
6784,7876,7360,1620,1004,652,23
6788,7880,7360,1620,1004,652,24
6788,7880,7360,1620,1004,652,23
6784,7880,7360,1620,1004,652,23
6788,7884,7364,1620,1004,652,24
6788,7888,7364,1620,1004,652,23
6792,7892,7368,1620,1004,652,23
6788,7892,7368,1620,1004,652,24
6784,7892,7368,1620,1004,652,23
6788,7896,7368,1620,1004,652,24
6788,7900,7372,1620,1004,652,23
6788,7900,7372,1620,1004,652,23
6792,7908,7376,1620,1004,652,24
6792,7912,7380,1620,1004,652,23
6792,7916,7384,1620,1004,652,23
6792,7924,7388,1624,1004,656,24
6796,7932,7396,1624,1008,656,23
6796,7936,7396,1624,1004,652,23
6796,7940,7400,1624,1008,656,24
6800,7948,7404,1624,1008,656,23
6800,7952,7408,1624,1008,656,23
6804,7956,7408,1624,1008,656,24
6800,7956,7408,1620,1008,656,23
6804,7964,7416,1624,1008,656,24
6804,7968,7416,1624,1008,656,23
6804,7972,7420,1624,1008,656,23
6804,7968,7416,1624,1008,656,24
6804,7968,7416,1624,1008,656,23
6804,7964,7416,1624,1008,656,23
6800,7960,7412,1620,1008,656,24
6804,7964,7416,1624,1008,656,23
6800,7952,7408,1620,1008,656,23
6796,7952,7408,1620,1004,656,24
6800,7956,7408,1624,1008,656,23
6804,7956,7412,1620,1004,656,23
6804,7960,7416,1620,1004,652,24
6804,7956,7412,1624,1004,656,23
6804,7960,7416,1624,1008,656,24
6800,7956,7412,1620,1004,656,23
6804,7960,7416,1620,1008,656,23
6804,7964,7416,1620,1008,656,24
6804,7964,7416,1624,1008,656,23
6804,7964,7420,1624,1008,656,23
6804,7968,7420,1624,1008,656,24
6804,7968,7424,1624,1008,656,23
6808,7976,7428,1624,1008,656,23
6808,7976,7424,1624,1008,656,24
6808,7976,7428,1624,1008,656,23
6804,7976,7420,1624,1008,656,23
6804,7980,7428,1624,1008,656,24
6804,7984,7428,1624,1008,656,23
6808,7988,7432,1624,1008,656,24
6808,7988,7432,1624,1008,656,23
6808,7992,7432,1624,1008,656,23
6812,8000,7440,1624,1008,656,24
6812,8004,7440,1624,1008,656,23
6812,8008,7444,1624,1008,656,23
6812,8012,7448,1624,1008,656,24
6812,8012,7444,1624,1008,656,23
6812,8012,7444,1624,1008,656,23
6808,8004,7440,1624,1008,656,24
6808,8000,7436,1624,1008,656,23
6804,7992,7432,1624,1008,656,23
6804,7984,7428,1624,1008,656,24
6804,7984,7428,1624,1008,656,23
6800,7976,7424,1624,1008,656,23
6800,7976,7424,1620,1008,656,24
6800,7972,7420,1620,1008,656,23
6800,7968,7416,1620,1008,656,24
6800,7964,7420,1624,1008,656,23
6804,7972,7424,1624,1008,656,23
6804,7972,7420,1624,1008,656,24
6800,7968,7416,1624,1008,656,23
6804,7972,7420,1624,1008,656,23
6796,7964,7416,1624,1008,656,24
6800,7972,7420,1624,1008,656,23
6800,7968,7416,1624,1008,656,23
6800,7972,7420,1624,1008,656,24
6804,7976,7424,1624,1008,656,23
6800,7976,7424,1624,1008,656,23
6804,7980,7428,1624,1008,656,24
6804,7984,7428,1624,1008,656,23
6808,7988,7432,1624,1008,656,24
6808,7992,7432,1624,1008,656,23
6800,7984,7428,1624,1008,656,23
6804,7988,7428,1624,1008,656,24
6800,7988,7428,1624,1008,656,23
6808,8000,7436,1624,1008,656,23
6804,7996,7432,1624,1012,656,24
6804,8000,7436,1624,1012,656,23
6808,8004,7440,1624,1012,656,23
6800,8000,7432,1624,1012,656,24
6804,7996,7436,1624,1012,656,23
6800,7988,7428,1624,1012,656,23
6796,7980,7424,1624,1008,656,24
6796,7972,7420,1624,1008,656,23
6796,7964,7416,1624,1008,656,23
6788,7952,7404,1620,1008,656,24
6788,7940,7400,1624,1008,656,23
6788,7936,7396,1620,1008,656,24
6792,7928,7396,1624,1008,656,23
6788,7924,7388,1624,1008,656,23
6788,7920,7388,1624,1008,656,24
6788,7916,7388,1624,1008,656,23
6788,7916,7384,1620,1008,656,23
6784,7908,7380,1624,1008,656,24
6784,7904,7376,1620,1008,656,23
6784,7904,7376,1624,1008,656,23
6784,7900,7376,1624,1008,656,24
6784,7900,7372,1620,1008,656,23
6788,7904,7376,1620,1008,656,23
6784,7896,7372,1620,1008,656,24
6788,7900,7376,1620,1008,656,23
6788,7900,7376,1624,1008,656,24
6788,7900,7376,1620,1008,656,23
6788,7900,7376,1624,1008,656,23
6784,7900,7376,1620,1008,656,24
6784,7896,7372,1624,1008,656,23
6784,7900,7376,1624,1008,656,23
6788,7900,7376,1624,1008,656,24
6788,7904,7376,1624,1008,656,23
6788,7908,7380,1624,1008,656,23
6784,7900,7376,1624,1008,656,24
6784,7908,7376,1624,1008,656,23
6788,7908,7380,1624,1008,656,23
6784,7904,7376,1624,1012,656,24
6784,7900,7372,1624,1008,656,23
6784,7888,7368,1624,1008,656,23
6780,7872,7356,1624,1008,656,24
6776,7856,7348,1624,1008,656,23
6776,7840,7340,1624,1008,656,24
6772,7828,7328,1620,1008,656,23
6768,7812,7320,1620,1008,656,23
6768,7800,7312,1620,1008,656,24
6768,7792,7308,1620,1008,656,23
6764,7784,7300,1620,1008,656,23
6764,7776,7300,1620,1008,656,24
6764,7776,7300,1620,1008,656,23
6760,7768,7292,1620,1008,656,23
6764,7764,7292,1620,1004,656,24
6764,7764,7292,1620,1008,656,23
6764,7756,7288,1620,1008,656,23
6760,7756,7284,1620,1008,656,24
6760,7752,7284,1624,1008,656,23
6760,7748,7280,1620,1008,656,24
6764,7752,7284,1620,1008,656,23
6764,7748,7280,1620,1008,656,23
6764,7748,7280,1620,1008,656,24
6764,7752,7284,1624,1008,656,23
6768,7756,7288,1624,1008,656,23
6768,7756,7288,1620,1008,656,24
6764,7752,7284,1620,1008,656,23
6760,7748,7280,1624,1008,656,23
6764,7752,7284,1620,1008,656,24
6760,7748,7280,1620,1008,656,23
6764,7752,7284,1620,1008,656,23
6768,7760,7288,1620,1008,656,24
6764,7756,7284,1620,1008,656,23
6764,7756,7284,1620,1008,656,24
6764,7752,7284,1620,1008,656,23
6764,7744,7280,1620,1008,656,23
6760,7732,7272,1620,1008,656,24
6756,7712,7260,1620,1008,656,23
6760,7700,7252,1620,1008,656,23
6752,7676,7240,1620,1008,656,24
6752,7660,7228,1620,1008,656,23
6752,7644,7220,1620,1004,656,23
6748,7632,7212,1620,1004,656,24
6744,7620,7204,1620,1004,656,23
6740,7608,7196,1620,1004,656,23
6744,7608,7196,1620,1004,656,24
6740,7600,7188,1620,1004,656,23
6740,7600,7192,1620,1004,656,23
6744,7596,7188,1620,1004,656,24
6740,7592,7184,1624,1008,656,23
6740,7588,7180,1620,1004,656,24
6740,7584,7180,1620,1004,656,23
6740,7584,7180,1620,1004,656,23
6744,7592,7184,1620,1004,656,24
6744,7588,7184,1620,1008,656,23
6744,7588,7184,1620,1008,656,23
6744,7588,7184,1620,1008,656,24
6740,7588,7184,1620,1008,656,23
6740,7584,7180,1620,1008,656,23
6740,7588,7180,1620,1008,656,24
6744,7592,7184,1620,1008,656,23
6740,7588,7180,1620,1008,656,23
6740,7592,7184,1620,1008,656,24
6744,7596,7184,1620,1008,656,23
6744,7596,7188,1620,1008,656,24
6744,7604,7192,1620,1008,656,23
6744,7604,7192,1620,1008,656,23
6748,7608,7196,1620,1008,656,24
6744,7604,7192,1620,1008,656,23
6744,7596,7188,1620,1008,656,23
6740,7580,7176,1620,1008,656,24
6740,7564,7168,1620,1008,656,23
6732,7540,7152,1620,1008,656,23
6736,7532,7148,1620,1004,656,24
6736,7520,7144,1620,1004,656,23
6732,7504,7132,1620,1004,656,23
6732,7492,7124,1620,1004,656,24
6732,7488,7124,1620,1004,656,23
6728,7480,7116,1620,1004,656,24
6728,7476,7116,1620,1004,652,23
6728,7472,7112,1620,1004,656,23
6724,7464,7104,1620,1004,652,24
6724,7460,7104,1620,1004,656,23
6724,7460,7104,1620,1004,656,23
6728,7460,7104,1620,1004,656,24
6728,7460,7104,1620,1004,656,23
6728,7456,7100,1620,1004,656,23
6724,7456,7100,1620,1004,656,24
6728,7456,7100,1620,1004,656,23
6728,7460,7104,1620,1004,656,23
6724,7456,7104,1620,1004,656,24
6724,7456,7100,1620,1004,656,23
6720,7456,7100,1620,1004,656,24
6720,7460,7100,1620,1004,656,23
6724,7464,7104,1620,1004,656,23
6728,7468,7108,1620,1004,656,24
6724,7464,7104,1620,1004,656,23
6724,7468,7108,1620,1004,656,23
6724,7472,7108,1620,1004,656,24
6724,7476,7112,1620,1004,656,23
6728,7476,7112,1620,1004,656,23
6728,7480,7116,1620,1004,656,24
6724,7468,7108,1620,1004,656,23
6720,7452,7096,1620,1004,656,23
6716,7432,7084,1620,1004,656,24
6712,7412,7072,1620,1004,656,23
6712,7392,7060,1620,1004,656,24
6704,7376,7048,1620,1004,652,23
6704,7360,7040,1616,1004,652,23
6704,7348,7032,1620,1004,652,24
6700,7336,7024,1616,1000,652,23
6700,7332,7024,1620,1000,652,23
6700,7328,7020,1616,1000,652,24
6700,7328,7016,1620,1000,652,23
6700,7324,7016,1616,1000,652,23
6696,7324,7016,1616,1000,652,24
6700,7324,7016,1616,1000,652,23
6704,7328,7016,1616,1000,652,23
6704,7328,7020,1616,1000,652,24
6700,7324,7016,1616,1000,652,23
6700,7324,7016,1616,1000,652,24
6696,7320,7012,1616,1000,652,23
6696,7324,7016,1616,1000,652,23
6700,7332,7020,1616,1000,652,24
6700,7332,7020,1616,1000,652,23
6704,7336,7024,1616,1000,652,23
6704,7340,7028,1616,1000,652,24
6704,7344,7028,1616,1000,652,23
6704,7348,7028,1616,1000,652,23
6708,7352,7036,1620,1004,652,24
6708,7352,7036,1620,1004,652,23
6708,7356,7036,1620,1000,652,23
6708,7360,7040,1616,1000,652,24
6712,7368,7044,1620,1000,652,23
6712,7368,7044,1620,1004,652,24
6708,7368,7040,1620,1000,652,23
6704,7352,7032,1620,1000,652,23
6700,7332,7020,1620,1000,652,24
6696,7312,7008,1620,1000,652,23
6688,7288,6992,1616,1000,652,23
6688,7272,6980,1616,1000,652,24
6684,7256,6972,1616,1000,652,23
6684,7244,6964,1620,1000,652,23
6680,7232,6956,1616,996,652,24
6680,7224,6952,1616,996,652,23
6680,7224,6952,1616,996,652,24
6684,7224,6952,1616,996,652,23
6684,7224,6952,1616,996,652,23
6688,7228,6956,1616,996,652,24
6688,7228,6956,1616,996,648,23
6684,7224,6956,1616,996,648,23
6680,7220,6952,1616,996,648,24
6680,7224,6952,1616,996,648,23
6684,7228,6956,1616,996,648,23
6688,7232,6960,1616,996,648,24
6688,7236,6960,1616,996,648,23
6684,7236,6960,1616,996,648,23
6688,7240,6964,1616,996,648,24
6688,7244,6968,1616,996,648,23
6688,7252,6972,1616,996,648,24
6688,7252,6972,1616,996,648,23
6696,7268,6984,1616,996,648,23
6692,7264,6980,1616,996,648,24
6688,7264,6976,1616,996,648,23
6692,7272,6980,1616,996,648,23
6692,7276,6988,1616,996,648,24
6692,7280,6988,1616,996,648,23
6696,7288,6996,1616,996,648,23
6700,7296,7000,1616,996,648,24
6692,7284,6988,1616,996,648,23
6692,7280,6988,1616,996,648,23
6684,7256,6972,1616,996,648,24
6684,7248,6968,1616,992,648,23
6680,7224,6952,1616,992,648,24
6676,7208,6940,1616,992,648,23
6676,7196,6936,1612,992,648,23
6676,7184,6932,1612,992,648,24
6676,7176,6924,1612,988,648,23
6672,7168,6920,1612,988,648,23
6676,7168,6920,1612,988,648,24
6676,7168,6920,1612,988,648,23
6676,7172,6924,1612,988,648,23
6676,7176,6924,1612,988,648,24
6680,7180,6928,1612,988,648,23
6680,7180,6928,1612,988,648,23
6680,7184,6932,1612,988,648,24
6680,7180,6932,1612,988,648,23
6680,7188,6932,1612,988,644,23
6684,7192,6936,1612,988,644,24
6684,7196,6940,1612,988,644,23
6684,7200,6940,1612,988,648,24
6684,7204,6948,1612,988,644,23
6688,7212,6952,1612,988,648,23
6684,7212,6948,1612,988,648,24
6684,7216,6956,1612,988,648,23
6688,7224,6960,1612,988,648,23
6692,7232,6964,1612,988,644,24
6692,7236,6968,1612,988,648,23
6692,7244,6968,1612,988,648,23
6688,7244,6968,1612,988,648,24
6696,7256,6976,1612,988,648,23
6696,7256,6980,1616,988,648,23
6696,7264,6984,1612,988,648,24
6700,7268,6988,1612,988,648,23
6696,7264,6980,1612,988,648,24
6692,7252,6976,1612,988,644,23
6688,7232,6964,1612,988,644,23
6684,7212,6952,1612,988,644,24
6684,7200,6944,1612,984,644,23
6684,7192,6940,1612,984,644,23
6684,7184,6936,1612,984,644,24
6684,7176,6932,1612,984,644,23
6684,7176,6932,1612,984,644,23
6684,7172,6932,1612,984,644,24
6688,7180,6936,1612,984,644,23
6684,7176,6932,1612,984,644,23
6680,7176,6928,1612,984,644,24
6684,7184,6936,1612,984,644,23
6688,7188,6940,1612,984,644,24
6684,7188,6940,1608,984,644,23
6684,7188,6940,1612,984,644,23
6692,7196,6944,1608,980,644,24
6692,7200,6948,1612,984,644,23
6688,7200,6948,1612,984,644,23
6692,7212,6956,1612,984,644,24
6692,7216,6956,1612,984,644,23
6692,7220,6956,1612,984,644,23
6696,7228,6964,1612,984,644,24
6696,7236,6968,1612,984,644,23
6692,7232,6968,1612,984,644,23
6696,7244,6972,1612,984,644,24
6696,7248,6976,1612,984,644,23
6704,7260,6988,1612,984,644,24
6700,7260,6984,1612,984,644,23
6704,7268,6988,1612,984,644,23
6704,7276,6996,1612,984,644,24
6700,7280,6996,1612,984,644,23
6700,7280,6996,1612,984,644,23
6700,7276,6992,1612,984,644,24
6700,7264,6988,1612,984,644,23
6696,7252,6980,1612,984,644,23
6692,7240,6968,1612,980,644,24
6696,7228,6968,1612,980,644,23
6688,7216,6956,1612,980,644,23
6684,7208,6952,1608,980,640,24
6684,7200,6944,1608,980,640,23
6684,7200,6944,1608,980,640,24
6680,7196,6940,1608,980,640,23
6680,7200,6944,1608,980,640,23
6684,7204,6948,1608,976,640,24
6684,7208,6948,1608,980,640,23
6684,7212,6952,1612,980,640,23
6688,7216,6956,1608,980,640,24
6680,7216,6952,1608,980,640,23
6680,7216,6952,1608,980,640,23
6684,7224,6960,1608,980,640,24
6688,7236,6964,1608,980,640,23
6684,7236,6964,1608,980,640,23
6688,7244,6968,1608,980,640,24
6692,7252,6976,1608,980,640,23
6692,7260,6980,1608,980,640,24
6692,7264,6984,1608,980,640,23
6692,7272,6988,1612,980,640,23
6696,7280,6992,1608,980,640,24
6696,7288,6996,1608,980,640,23
6700,7296,7004,1612,980,640,23
6696,7296,7004,1608,980,640,24
6700,7308,7012,1608,980,640,23
6704,7316,7016,1612,980,644,23
6704,7324,7024,1608,980,640,24
6704,7324,7024,1612,980,640,23
6704,7328,7024,1612,980,644,23
6700,7320,7020,1612,980,644,24
6696,7308,7012,1612,980,644,23
6700,7300,7008,1608,980,640,23
6696,7284,6996,1608,980,640,24
6692,7272,6992,1608,980,640,23
6692,7264,6988,1608,976,640,24
6688,7252,6980,1608,976,640,23
6692,7256,6980,1608,976,640,23
6688,7248,6976,1608,976,640,24
6692,7252,6980,1608,976,640,23
6692,7252,6980,1608,976,640,23
6692,7256,6980,1608,976,640,24
6692,7260,6980,1608,976,640,23
6692,7264,6984,1608,976,640,23
6692,7264,6988,1608,976,640,24
6692,7268,6988,1608,976,640,23
6696,7272,6992,1608,976,640,23
6696,7280,6996,1608,976,640,24
6696,7284,7000,1608,976,640,23
6696,7288,7000,1608,976,640,24
6700,7296,7004,1608,976,640,23
6700,7304,7012,1608,976,640,23
6700,7308,7012,1608,976,640,24
6700,7312,7016,1608,976,640,23
6704,7320,7024,1608,980,640,23
6704,7328,7024,1608,980,640,24
6704,7336,7028,1608,980,640,23
6704,7340,7032,1608,980,640,23
6708,7348,7040,1612,980,640,24
6708,7352,7040,1608,980,640,23
6708,7360,7044,1608,980,640,23
6708,7368,7052,1608,980,640,24
6712,7376,7056,1608,980,640,23
6716,7384,7060,1608,980,640,24
6712,7372,7056,1608,980,640,23
6712,7368,7052,1608,980,640,23
6704,7352,7040,1608,980,640,24
6704,7344,7036,1608,980,640,23
6704,7332,7028,1608,976,640,23
6700,7324,7024,1608,976,640,24
6700,7316,7020,1608,976,640,23
6696,7308,7012,1608,976,640,23
6696,7308,7012,1608,976,640,24
6696,7308,7012,1608,976,640,23
6700,7312,7020,1608,976,640,23
6696,7312,7016,1608,976,640,24
6696,7316,7020,1608,976,640,23
6700,7324,7020,1608,976,640,24
6700,7324,7024,1608,976,640,23
6700,7328,7028,1608,976,640,23
6700,7332,7028,1608,976,640,24
6700,7336,7032,1608,976,640,23
6700,7344,7036,1608,980,640,23
6704,7348,7040,1612,980,640,24
6708,7356,7044,1608,980,640,23
6708,7364,7052,1608,980,640,23
6708,7368,7052,1608,980,640,24
6712,7380,7060,1608,980,640,23
6712,7380,7060,1608,980,640,23
6712,7388,7064,1608,980,640,24
6712,7396,7072,1608,980,640,23
6716,7404,7076,1612,980,644,24
6716,7412,7080,1612,980,644,23
6716,7416,7080,1612,980,644,23
6720,7428,7088,1612,980,644,24
6720,7432,7092,1612,980,644,23
6720,7440,7096,1612,984,644,23
6720,7444,7100,1612,984,644,24
6720,7436,7096,1612,984,644,23
6716,7432,7092,1608,984,644,23
6716,7420,7084,1612,984,644,24
6712,7408,7080,1612,984,644,23
6712,7400,7072,1608,980,644,23
6712,7396,7072,1608,980,644,24
6708,7388,7068,1608,980,644,23
6712,7388,7068,1608,980,644,24
6708,7384,7064,1612,980,644,23
6712,7388,7068,1612,980,644,23
6716,7392,7072,1608,980,644,24
6716,7392,7072,1608,980,644,23
6712,7396,7072,1612,984,644,23
6716,7400,7072,1608,980,644,24
6720,7408,7084,1612,984,644,23
6716,7408,7080,1608,984,644,23
6720,7416,7088,1612,984,644,24
6716,7412,7084,1612,984,644,23
6724,7424,7092,1612,984,644,23
6728,7436,7104,1612,984,644,24
6728,7436,7104,1612,984,644,23
6728,7444,7104,1612,984,644,24
6732,7452,7112,1612,984,644,23
6732,7456,7116,1612,984,644,23
6732,7464,7120,1612,984,644,24
6736,7472,7124,1612,984,644,23
6736,7476,7128,1612,984,644,23
6736,7488,7132,1612,988,644,24
6736,7488,7132,1612,984,644,23
6740,7500,7144,1612,988,644,23
6740,7504,7144,1612,988,644,24
6740,7508,7148,1612,988,644,23
6740,7516,7152,1612,988,644,23
6736,7512,7148,1612,988,644,24
6736,7508,7144,1612,988,644,23
6736,7504,7140,1612,988,644,24
6732,7492,7132,1612,988,644,23
6728,7480,7128,1612,988,644,23
6728,7472,7120,1612,988,644,24
6736,7472,7124,1612,988,644,23
6732,7468,7120,1612,988,644,23
6736,7468,7120,1612,988,644,24
6736,7468,7120,1612,988,644,23
6732,7464,7120,1612,988,644,23
6732,7468,7120,1612,988,644,24
6732,7472,7120,1612,988,644,23
6732,7476,7124,1612,988,648,23
6732,7480,7124,1612,988,644,24
6736,7484,7128,1612,988,648,23
6732,7484,7128,1612,988,648,23
6732,7488,7132,1612,988,648,24
6736,7492,7132,1612,988,648,23
6740,7500,7140,1612,988,648,24
6736,7504,7140,1612,988,648,23
6748,7520,7152,1612,988,648,23
6740,7516,7152,1612,992,648,24
6744,7524,7156,1612,992,648,23
6752,7540,7168,1612,992,648,23
6748,7540,7164,1616,992,648,24
6748,7548,7172,1616,992,648,23
6752,7556,7176,1616,992,648,23
6752,7564,7180,1616,992,648,24
6752,7564,7184,1616,992,648,23
6748,7568,7180,1616,992,648,23
6752,7576,7184,1616,992,648,24
6752,7580,7184,1616,992,648,23
6752,7584,7188,1616,996,648,24
6748,7576,7184,1616,996,648,23
6744,7568,7176,1616,996,648,23
6744,7556,7172,1616,996,648,24
6744,7548,7168,1616,992,648,23
6740,7536,7156,1616,992,648,23
6736,7524,7152,1616,992,648,24
6736,7520,7148,1616,992,648,23
6736,7516,7144,1616,992,648,23
6736,7512,7144,1616,992,648,24
6736,7516,7144,1616,992,648,23
6736,7516,7144,1616,992,648,23
6740,7520,7152,1616,992,648,24
6740,7520,7148,1616,992,648,23
6736,7520,7148,1616,996,648,24
6736,7520,7148,1616,996,648,23
6740,7528,7156,1616,996,648,23
6740,7532,7156,1616,996,648,24
6740,7536,7160,1616,996,648,23
6744,7540,7164,1616,996,648,23
6740,7540,7160,1616,996,652,24
6740,7544,7164,1616,996,652,23
6740,7548,7164,1616,996,648,23
6744,7556,7172,1616,996,652,24
6744,7560,7176,1616,996,652,23
6744,7564,7176,1616,996,652,23
6752,7576,7184,1616,996,652,24
6752,7580,7188,1616,996,652,23
6756,7588,7192,1616,996,652,24
6752,7588,7192,1616,1000,652,23
6752,7592,7192,1616,1000,652,23
6756,7600,7200,1616,1000,652,24
6752,7600,7200,1616,1000,652,23
6752,7608,7204,1616,1000,652,23
6756,7608,7200,1616,1000,652,24
6748,7592,7192,1620,1000,652,23
6748,7584,7188,1616,1000,652,23
6744,7572,7180,1616,1000,652,24
6740,7556,7172,1616,1000,652,23
6744,7552,7168,1616,1000,652,23
6740,7540,7156,1616,1000,652,24
6740,7532,7156,1616,1000,652,23
6740,7524,7148,1616,1000,652,24
6740,7520,7144,1616,1000,652,23
6736,7516,7144,1616,1000,652,23
6736,7516,7144,1616,1000,652,24
6736,7516,7144,1616,1000,652,23
6736,7516,7144,1616,1000,652,23
6740,7524,7148,1616,1000,652,24
6736,7516,7144,1616,1000,652,23
6736,7520,7148,1620,1000,652,23
6740,7528,7152,1620,1000,652,24
6740,7528,7152,1616,1000,652,23
6740,7532,7152,1616,1000,652,23
6740,7532,7152,1616,1000,652,24
6740,7540,7156,1616,1000,652,23
6744,7544,7160,1616,1000,652,24
6744,7548,7164,1616,1000,652,23
6744,7552,7168,1620,1000,652,23
6744,7556,7168,1616,1000,652,24
6744,7564,7172,1616,1000,652,23
6748,7568,7176,1620,1000,652,23
6744,7568,7176,1620,1004,652,24
6744,7576,7180,1620,1004,652,23
6748,7580,7184,1620,1004,652,23
6752,7588,7188,1620,1004,652,24
6752,7592,7192,1620,1004,652,23
6748,7592,7192,1620,1004,656,23
6752,7592,7192,1620,1004,656,24
6748,7584,7184,1620,1004,656,23
6744,7568,7176,1620,1004,652,24
6744,7560,7168,1620,1004,652,23
6740,7544,7160,1620,1004,652,23
6736,7528,7148,1616,1004,652,24
6740,7520,7148,1616,1004,652,23
6736,7512,7140,1616,1000,652,23
6736,7500,7132,1616,1000,652,24
6732,7496,7132,1616,1000,652,23
6736,7496,7132,1616,1000,652,23
6740,7500,7136,1620,1004,652,24
6740,7500,7136,1616,1000,652,23
6740,7504,7136,1616,1000,652,23
6740,7504,7136,1620,1004,652,24
6736,7496,7132,1620,1004,656,23
6736,7500,7136,1620,1004,656,24
6736,7500,7132,1620,1004,656,23
6736,7500,7132,1620,1004,656,23
6744,7516,7144,1620,1004,656,24
6740,7512,7140,1620,1004,656,23
6736,7512,7140,1620,1004,656,23
6736,7516,7144,1620,1004,656,24
6740,7524,7148,1620,1004,656,23
6744,7528,7152,1620,1004,656,23
6744,7536,7156,1620,1004,656,24
6748,7540,7160,1620,1008,656,23
6744,7540,7160,1620,1008,656,23
6744,7540,7156,1620,1008,656,24
6752,7552,7168,1620,1008,656,23
6752,7556,7172,1620,1008,656,23
6756,7568,7176,1620,1008,656,24
6756,7572,7180,1620,1008,656,23
6748,7564,7172,1620,1008,656,24
6748,7560,7172,1620,1008,656,23
6740,7548,7164,1620,1008,656,23
6744,7540,7156,1620,1008,656,24
6740,7524,7148,1620,1008,656,23
6736,7512,7140,1620,1008,656,23
6736,7500,7132,1620,1008,656,24
6736,7488,7124,1620,1004,656,23
6732,7484,7120,1620,1008,656,23
6732,7476,7120,1620,1008,656,24
6728,7472,7116,1620,1004,656,23
6732,7472,7116,1620,1008,656,24
6728,7468,7112,1620,1008,656,23
6728,7468,7112,1620,1004,656,23
6728,7468,7112,1620,1008,656,24
6728,7468,7112,1620,1004,656,23
6732,7472,7112,1620,1004,656,23
6732,7472,7112,1620,1004,656,24
6732,7476,7116,1620,1004,656,23
6732,7476,7116,1620,1008,656,23
6732,7480,7120,1620,1008,656,24
6736,7484,7120,1620,1008,656,23
6732,7488,7120,1620,1008,656,23
6736,7492,7124,1620,1008,656,24
6736,7500,7132,1620,1008,656,23
6732,7496,7128,1620,1008,656,24
6736,7504,7132,1620,1008,656,23
6732,7504,7132,1620,1008,656,23
6736,7512,7136,1620,1008,656,24
6740,7516,7140,1620,1008,656,23
6736,7520,7140,1620,1008,656,23
6740,7528,7148,1620,1008,656,24
6748,7540,7156,1620,1008,656,23
6744,7540,7156,1620,1008,656,23
6740,7536,7152,1620,1008,656,24
6740,7528,7144,1620,1008,656,23
6732,7508,7132,1620,1008,656,23
6732,7496,7124,1620,1008,656,24
6728,7484,7120,1620,1008,656,23
6732,7476,7112,1620,1008,656,23
6724,7456,7100,1620,1008,656,24
6728,7452,7100,1620,1008,656,23
6728,7444,7096,1620,1008,656,24
6724,7440,7092,1620,1008,656,23
6724,7436,7088,1620,1008,656,23
6720,7436,7088,1620,1008,656,24
6724,7436,7088,1620,1008,656,23
6724,7436,7088,1620,1008,656,23
6724,7440,7088,1620,1008,656,24
6724,7436,7088,1620,1008,656,23
6728,7440,7092,1620,1008,656,23
6728,7444,7092,1620,1008,656,24
6728,7448,7096,1620,1008,656,23
6724,7444,7092,1620,1008,656,23
6724,7448,7096,1620,1008,656,24
6728,7456,7100,1620,1008,656,23
6728,7456,7100,1620,1008,656,24
6728,7460,7104,1620,1008,656,23
6732,7468,7108,1620,1008,656,23
6728,7472,7108,1620,1008,656,24
6732,7476,7116,1620,1008,656,23
6732,7480,7116,1620,1008,656,23
6732,7484,7116,1620,1008,656,24
6732,7488,7120,1620,1008,656,23
6732,7492,7120,1620,1008,656,23
6732,7496,7124,1620,1008,656,24
6736,7504,7128,1624,1008,656,23
6732,7500,7128,1620,1008,656,23
6732,7496,7124,1620,1008,656,24
6728,7484,7116,1620,1008,656,23
6724,7468,7108,1620,1008,656,24
6724,7452,7096,1620,1008,656,23
6724,7440,7092,1620,1008,656,23
6716,7424,7080,1620,1008,656,24
6716,7412,7072,1620,1008,656,23
6712,7396,7060,1620,1008,656,23
6712,7388,7060,1620,1008,656,24
6712,7388,7056,1620,1004,656,23
6712,7388,7056,1620,1004,656,23
6712,7388,7056,1620,1004,656,24
6708,7384,7052,1620,1004,656,23
6716,7392,7060,1620,1004,656,23
6716,7392,7060,1620,1004,656,24
6712,7392,7060,1620,1004,656,23
6712,7392,7060,1620,1004,656,24
6716,7400,7064,1620,1004,656,23
6712,7396,7060,1616,1004,656,23
6712,7400,7064,1616,1004,656,24
6716,7404,7068,1616,1004,656,23
6716,7408,7068,1620,1004,656,23
6716,7416,7072,1620,1004,656,24
6716,7416,7072,1620,1004,656,23
6716,7424,7076,1620,1008,656,23
6720,7428,7084,1620,1004,656,24
6720,7436,7088,1620,1004,656,23
6724,7440,7092,1620,1004,656,23
6724,7444,7092,1620,1008,656,24
6728,7452,7096,1620,1008,656,23
6724,7452,7096,1620,1008,656,24
6724,7456,7100,1620,1008,656,23
6724,7460,7104,1620,1008,656,23
6724,7464,7104,1620,1008,656,24
6724,7464,7104,1620,1008,656,23
6716,7444,7092,1616,1008,656,23
6716,7432,7084,1616,1004,656,24
6712,7412,7072,1616,1004,656,23
6712,7400,7064,1616,1004,656,23
6712,7388,7060,1616,1004,656,24
6712,7380,7052,1616,1004,656,23
6712,7372,7048,1616,1004,656,23
6708,7368,7044,1620,1004,656,24
6704,7356,7036,1620,1004,656,23
6704,7356,7036,1616,1004,656,24
6704,7356,7040,1616,1004,656,23
6704,7360,7040,1616,1004,656,23
6708,7360,7040,1616,1004,656,24
6708,7364,7044,1616,1004,652,23
6708,7364,7044,1616,1004,656,23
6708,7368,7044,1620,1004,656,24
6704,7364,7040,1616,1004,652,23
6704,7368,7044,1616,1004,652,23
6708,7372,7048,1616,1004,656,24
6708,7380,7052,1616,1004,656,23
6712,7384,7056,1616,1004,656,23
6708,7388,7056,1620,1004,656,24
6708,7388,7056,1616,1004,656,23
6712,7400,7064,1616,1004,656,24
6716,7408,7072,1616,1004,656,23
6716,7412,7072,1616,1004,656,23
6712,7412,7072,1616,1004,656,24
6716,7424,7076,1616,1004,656,23
6716,7424,7080,1616,1004,656,23
6720,7436,7088,1620,1004,656,24
6720,7436,7088,1616,1004,656,23
6720,7444,7092,1616,1004,656,23
6720,7444,7092,1616,1004,656,24
6724,7444,7096,1620,1004,656,23
6720,7432,7088,1620,1004,656,23
6716,7420,7076,1616,1004,656,24
6712,7408,7072,1616,1004,656,23
6712,7396,7064,1616,1004,652,23
6712,7380,7056,1616,1004,652,24
6708,7368,7048,1616,1000,652,23
6708,7360,7044,1616,1000,652,24
6704,7356,7040,1616,1000,652,23
6704,7348,7036,1616,1000,652,23
6704,7352,7036,1616,1000,652,24
6708,7360,7040,1616,1000,652,23
6708,7360,7044,1616,1000,652,23
6712,7364,7044,1616,1000,652,24
6704,7356,7040,1616,1000,652,23
6708,7360,7044,1616,1000,652,23
6708,7364,7044,1616,1000,652,24
6712,7368,7048,1616,1000,652,23
6712,7372,7052,1616,1000,652,23
6716,7380,7056,1616,1000,652,24
6716,7384,7060,1616,1000,652,23
6712,7384,7060,1616,1000,652,24
6712,7388,7060,1616,1000,652,23
6712,7392,7064,1616,1000,652,23
6712,7396,7064,1616,1000,652,24
6716,7404,7072,1616,1000,652,23
6716,7408,7072,1616,1000,652,23
6720,7416,7080,1616,1000,652,24
6720,7424,7080,1616,1000,652,23
6724,7432,7088,1616,1000,652,23
6720,7432,7088,1616,1000,652,24
6724,7440,7092,1616,1004,652,23
6728,7448,7096,1616,1000,652,23
6728,7448,7100,1616,1000,652,24
6724,7440,7092,1616,1004,652,23
6720,7432,7088,1616,1004,652,24
6716,7412,7076,1616,1000,652,23
6716,7404,7072,1616,1000,652,23
6712,7388,7060,1616,1000,652,24
6704,7368,7048,1616,1000,652,23
6704,7364,7044,1616,1000,652,23
6704,7356,7040,1616,1000,652,24
6700,7348,7036,1616,1000,652,23
6704,7352,7036,1616,1000,652,23
6708,7356,7040,1616,1000,652,24
6708,7356,7040,1616,1000,652,23
6708,7360,7040,1616,1000,652,23
6704,7356,7040,1616,996,652,24
6712,7364,7048,1616,996,652,23
6708,7364,7044,1616,1000,652,23
6712,7372,7048,1616,996,652,24
6712,7372,7048,1616,996,652,23
6708,7372,7048,1616,1000,652,24
6712,7380,7052,1616,996,652,23
6712,7380,7056,1616,996,652,23
6712,7388,7060,1616,996,652,24
6716,7396,7064,1616,996,652,23
6712,7400,7064,1616,1000,652,23
6720,7408,7072,1616,1000,652,24
6716,7412,7076,1616,1000,652,23
6720,7420,7080,1616,1000,652,23
6716,7420,7080,1616,1000,652,24
6716,7424,7080,1616,1000,652,23
6724,7432,7088,1616,1000,652,23
6720,7436,7088,1616,1000,652,24
6720,7440,7092,1616,1000,652,23
6720,7444,7092,1616,1000,652,24
6720,7440,7092,1616,1000,652,23
6716,7432,7084,1616,1000,652,23
6712,7420,7076,1616,1000,652,24
6712,7404,7068,1616,1000,652,23
6708,7388,7056,1616,1000,652,23
6708,7376,7052,1616,996,652,24
6704,7364,7044,1616,996,652,23
6704,7356,7036,1616,996,652,23
6700,7348,7032,1616,996,652,24
6696,7344,7028,1616,996,652,23
6700,7344,7028,1616,996,648,23
6696,7344,7024,1616,996,648,24
6700,7348,7028,1616,996,648,23
6700,7348,7032,1616,996,648,24
6700,7352,7032,1616,996,648,23
6704,7356,7036,1612,996,648,23
6700,7356,7036,1616,996,648,24
6704,7360,7036,1616,996,648,23
6708,7368,7044,1616,996,648,23
6704,7368,7040,1616,996,648,24
6704,7372,7044,1616,996,648,23
6704,7376,7048,1616,996,648,23
6704,7384,7052,1616,996,648,24
6704,7388,7052,1616,996,648,23
6708,7396,7056,1616,996,648,23
6708,7400,7060,1616,996,652,24
6708,7404,7064,1616,996,648,23
6708,7412,7068,1616,996,652,24
6708,7416,7068,1616,996,652,23
6716,7428,7080,1616,996,652,23
6712,7428,7080,1616,996,652,24
6716,7440,7084,1616,996,652,23
6716,7444,7088,1616,996,652,23
6712,7440,7088,1616,996,652,24
6716,7440,7088,1616,996,652,23
6716,7432,7080,1616,996,652,23
6712,7416,7068,1616,996,652,24
6708,7400,7060,1616,996,648,23
6704,7384,7052,1616,996,648,23
6704,7372,7044,1616,996,648,24
6700,7360,7036,1612,992,648,23
6696,7348,7028,1612,992,648,24
6700,7344,7028,1612,992,648,23
6696,7336,7020,1612,992,648,23
6700,7340,7024,1612,992,648,24
6700,7344,7024,1612,992,648,23
6700,7344,7024,1612,992,648,23
6700,7344,7028,1616,992,648,24
6700,7344,7028,1612,992,648,23
6700,7348,7032,1612,992,648,23
6704,7356,7036,1612,992,648,24
6700,7352,7032,1616,992,648,23
6704,7356,7036,1616,992,648,23
6704,7360,7040,1612,992,648,24
6704,7364,7040,1612,992,648,23
6704,7368,7044,1612,992,648,24
6704,7372,7044,1616,992,648,23
6708,7380,7052,1612,992,648,23
6704,7384,7052,1616,992,648,24
6708,7388,7056,1616,992,648,23
6712,7396,7060,1616,996,648,23
6712,7404,7064,1616,996,648,24
6712,7404,7064,1616,996,648,23
6712,7412,7072,1616,996,648,23
6712,7416,7072,1616,996,648,24
6716,7424,7076,1616,996,648,23
6720,7432,7084,1616,996,648,23
6712,7428,7076,1616,996,648,24
6716,7428,7080,1616,996,648,23
6712,7416,7072,1616,996,648,24
6708,7400,7064,1616,996,648,23
6704,7384,7052,1616,996,648,23
6704,7368,7044,1616,992,648,24
6704,7360,7040,1616,992,648,23
6704,7352,7036,1612,992,648,23
6704,7344,7032,1612,992,648,24
6700,7336,7024,1612,992,648,23
6700,7332,7024,1616,992,648,23
6700,7332,7020,1612,992,648,24
6700,7336,7024,1616,992,648,23
6700,7332,7024,1612,992,648,23
6700,7336,7024,1612,992,648,24
6700,7336,7024,1612,992,648,23
6700,7340,7028,1612,992,648,23
6704,7344,7028,1612,992,648,24
6704,7344,7032,1616,992,648,23
6704,7348,7032,1612,992,648,24
6704,7352,7036,1612,992,648,23
6708,7364,7040,1612,992,648,23
6708,7368,7044,1612,992,648,24
6704,7368,7044,1612,992,648,23
6708,7376,7048,1612,992,648,23
6708,7384,7052,1616,992,648,24
6716,7392,7060,1616,992,648,23
6712,7396,7064,1616,992,648,23
6712,7396,7064,1616,992,648,24
6712,7404,7068,1616,992,648,23
6716,7412,7072,1616,992,648,23
6716,7416,7076,1616,992,648,24
6720,7428,7080,1616,996,648,23
6724,7436,7088,1616,996,648,24
6720,7432,7084,1616,996,648,23
6720,7436,7088,1616,996,648,23
6720,7424,7080,1616,996,648,24
6716,7412,7072,1616,996,648,23
6712,7396,7064,1616,996,648,23
6708,7380,7052,1616,992,648,24
6704,7364,7044,1616,992,648,23
6704,7356,7036,1612,992,648,23
6708,7352,7036,1616,992,648,24
6704,7344,7032,1612,992,648,23
6708,7344,7032,1612,992,648,23
6704,7340,7028,1616,992,648,24
6704,7344,7028,1616,992,648,23
6704,7344,7032,1612,992,648,24
6704,7348,7032,1612,992,648,23
6700,7344,7028,1612,992,648,23
6708,7352,7036,1616,992,648,24
6704,7348,7032,1616,992,648,23
6708,7356,7040,1616,992,648,23
6708,7360,7040,1616,992,648,24
6708,7364,7044,1616,992,648,23
6708,7372,7048,1616,992,648,23
6712,7376,7048,1616,992,648,24
6712,7376,7052,1616,992,648,23
6708,7380,7052,1616,992,648,23
6712,7388,7056,1616,992,648,24
6712,7392,7060,1616,992,648,23
6716,7404,7068,1616,996,648,23
6716,7408,7072,1616,996,648,24
6720,7412,7072,1616,996,648,23
6720,7416,7072,1616,996,648,24
6716,7420,7076,1616,996,648,23
6720,7428,7080,1616,996,648,23
6720,7436,7084,1616,996,648,24
6724,7440,7088,1616,996,648,23
6720,7432,7084,1616,996,648,23
6716,7424,7076,1616,996,648,24
6712,7408,7068,1616,996,648,23
6708,7396,7060,1616,996,648,23
6704,7380,7048,1616,996,648,24
6704,7368,7044,1616,992,648,23
6704,7360,7036,1616,992,648,23
6700,7348,7028,1616,992,648,24
6704,7348,7032,1616,992,648,23
6704,7344,7028,1616,992,648,24
6704,7344,7028,1616,992,648,23
6700,7340,7024,1612,992,648,23
6700,7344,7028,1616,992,648,24
6704,7348,7032,1616,992,648,23
6704,7348,7032,1616,992,648,23
6704,7348,7032,1616,992,648,24
6704,7352,7032,1616,992,648,23
6704,7356,7036,1616,992,648,23
6700,7356,7032,1616,992,648,24
6700,7360,7036,1616,992,648,23
6708,7368,7044,1616,992,648,23
6708,7376,7048,1616,992,648,24
6708,7376,7048,1616,992,648,23
6708,7384,7052,1616,996,648,24
6716,7396,7060,1616,996,648,23
6712,7400,7060,1616,996,648,23
6712,7404,7064,1616,996,648,24
6716,7412,7068,1616,996,652,23
6716,7416,7072,1616,996,648,23
6720,7424,7076,1616,996,648,24
6720,7428,7080,1616,996,648,23
6720,7436,7084,1616,996,652,23
6720,7440,7088,1616,996,652,24
6720,7444,7088,1616,996,652,23
6716,7440,7084,1616,996,652,23
6716,7436,7084,1616,996,652,24
6712,7424,7076,1616,996,652,23
6708,7404,7064,1616,996,652,24
6704,7388,7048,1616,996,652,23
6700,7372,7040,1616,996,648,23
6700,7364,7036,1616,996,648,24
6700,7356,7032,1616,996,648,23
6696,7344,7024,1616,992,648,23
6696,7336,7020,1616,996,648,24
6696,7336,7020,1616,996,648,23
6700,7340,7024,1616,996,648,23
6700,7340,7024,1616,996,648,24
6700,7344,7024,1616,996,648,23
6704,7348,7028,1616,996,648,23
6700,7348,7028,1616,996,648,24
6700,7352,7028,1616,996,648,23
6704,7352,7032,1616,996,648,24
6704,7356,7032,1616,996,648,23
6704,7360,7036,1616,996,648,23
6700,7360,7036,1616,996,648,24
6700,7364,7036,1616,996,648,23
6704,7376,7044,1616,996,652,23
6700,7376,7044,1616,996,652,24
6700,7380,7044,1616,996,652,23
6708,7388,7052,1616,996,652,23
6708,7392,7056,1616,996,652,24
6708,7400,7060,1616,996,652,23
6708,7404,7064,1616,996,652,23
6712,7412,7068,1616,996,652,24
6716,7420,7072,1616,996,652,23
6716,7424,7076,1616,996,652,23
6716,7428,7080,1616,996,652,24
6720,7436,7084,1616,1000,652,23
6716,7440,7088,1616,1000,652,24
6720,7440,7084,1616,1000,652,23
6716,7428,7076,1616,1000,652,23
6708,7408,7064,1616,1000,652,24
6704,7392,7056,1616,1000,652,23
6700,7380,7044,1616,996,652,23
6696,7364,7036,1616,996,652,24
6696,7352,7028,1616,996,652,23
6696,7344,7024,1616,996,652,23
6700,7340,7024,1616,996,652,24
6696,7336,7020,1616,996,652,23
6696,7332,7016,1616,996,652,23
6696,7332,7020,1616,996,652,24
6700,7340,7024,1616,996,652,23
6696,7340,7020,1616,996,652,24
6700,7340,7024,1616,996,652,23
6700,7344,7024,1616,996,652,23
6700,7344,7024,1616,996,652,24
6700,7348,7028,1616,996,652,23
6700,7352,7032,1616,996,652,23
6700,7356,7032,1616,996,652,24
6704,7360,7036,1616,996,652,23
6700,7364,7036,1616,1000,652,23
6704,7372,7040,1616,1000,652,24
6704,7376,7044,1616,1000,652,23
6708,7384,7052,1616,1000,652,23
6712,7392,7056,1616,1000,652,24
6712,7400,7060,1616,1000,652,23
6716,7408,7068,1616,1000,652,24
6708,7404,7064,1616,1000,652,23
6708,7408,7064,1616,1000,652,23
6712,7416,7068,1616,1000,652,24
6712,7420,7072,1616,1000,652,23
6716,7428,7080,1616,1000,652,23
6716,7432,7080,1616,1000,652,24
6716,7440,7084,1620,1000,652,23
6716,7436,7080,1616,1000,652,23
6712,7424,7072,1620,1000,652,24
6708,7412,7068,1616,1000,652,23
6708,7400,7060,1616,1000,652,23
6704,7384,7052,1616,1000,652,24
6700,7372,7044,1616,1000,652,23
6700,7364,7040,1616,1000,652,24
6700,7352,7032,1616,1000,652,23
6700,7344,7028,1616,1000,652,23
6700,7344,7028,1616,1000,652,24
6700,7344,7028,1616,1000,652,23
6700,7348,7028,1616,1000,652,23
6700,7344,7028,1616,1000,652,24
6700,7348,7032,1616,1000,652,23
6700,7352,7028,1616,1000,652,23
6700,7348,7028,1616,1000,652,24
6700,7352,7032,1616,1000,652,23
6700,7356,7036,1616,1000,652,23
6704,7360,7036,1616,1000,652,24
6704,7364,7040,1616,1000,652,23
6704,7368,7044,1616,1000,652,24
6708,7376,7048,1616,1000,652,23
6708,7384,7052,1616,1000,652,23
6708,7388,7052,1616,1000,652,24
6712,7396,7060,1616,1000,652,23
6708,7400,7060,1620,1000,652,23
6712,7404,7064,1616,1000,652,24
6708,7404,7064,1616,1000,652,23
6712,7412,7068,1616,1000,652,23
6712,7420,7072,1620,1004,652,24
6712,7424,7072,1620,1004,652,23
6716,7432,7080,1620,1004,652,23
6720,7440,7088,1620,1004,652,24
6720,7448,7092,1620,1004,652,23
6720,7448,7092,1620,1004,656,24
6720,7440,7088,1620,1004,656,23
6716,7428,7080,1620,1004,656,23
6716,7416,7072,1616,1004,652,24
6712,7400,7064,1616,1004,652,23
6708,7392,7056,1616,1004,652,23
6704,7376,7044,1620,1004,652,24
6708,7376,7048,1616,1000,652,23
6704,7364,7040,1620,1000,652,23
6704,7360,7036,1620,1004,652,24
6700,7352,7032,1616,1000,652,23
6700,7356,7032,1616,1000,652,23
6700,7360,7032,1616,1000,652,24
6700,7360,7036,1620,1000,652,23
6704,7364,7036,1616,1000,652,24
6700,7364,7036,1616,1000,652,23
6704,7368,7040,1616,1000,652,23
6704,7368,7040,1620,1004,652,24
6704,7372,7040,1620,1004,652,23
6704,7376,7044,1616,1000,652,23
6700,7376,7044,1616,1000,652,24
6708,7388,7052,1616,1004,652,23
6708,7392,7052,1620,1004,652,23
6708,7396,7056,1620,1004,652,24
6708,7404,7060,1620,1004,656,23
6708,7408,7064,1620,1004,656,23
6708,7412,7068,1620,1004,656,24
6708,7416,7068,1620,1004,656,23
6708,7420,7072,1620,1004,656,24
6716,7436,7080,1620,1004,656,23
6716,7440,7084,1620,1004,656,23
6716,7444,7084,1620,1004,656,24
6716,7448,7088,1620,1004,656,23
6720,7456,7092,1620,1004,656,23
6720,7460,7096,1620,1004,656,24
6716,7452,7092,1620,1004,656,23
6712,7440,7080,1620,1004,656,23
6712,7432,7080,1620,1004,656,24
6708,7416,7068,1620,1004,656,23
6708,7404,7060,1620,1004,656,23
6704,7392,7052,1616,1004,656,24
6704,7384,7048,1616,1004,652,23
6700,7372,7040,1616,1004,652,24
6700,7372,7040,1620,1004,656,23
6696,7364,7036,1616,1004,652,23
6700,7364,7036,1616,1004,652,24
6700,7368,7040,1620,1004,656,23
6704,7376,7040,1616,1004,652,23
6708,7380,7044,1616,1004,652,24
6704,7376,7044,1616,1004,652,23
6704,7376,7044,1616,1004,652,23
6704,7376,7044,1616,1004,652,24
6704,7384,7048,1616,1004,652,23
6700,7384,7048,1616,1004,652,23
6708,7392,7052,1620,1004,656,24
6708,7396,7056,1620,1004,656,23
6704,7400,7056,1616,1004,656,23
6708,7408,7060,1620,1004,656,24
6708,7412,7064,1620,1004,656,23
6708,7416,7068,1616,1004,656,24
6712,7424,7072,1616,1004,656,23
6708,7428,7072,1616,1004,656,23
6712,7432,7076,1616,1004,656,24
6708,7436,7080,1620,1004,656,23
6712,7444,7084,1620,1004,656,23
6712,7452,7088,1620,1004,656,24
6712,7456,7092,1620,1004,656,23
6712,7460,7092,1620,1004,656,23
6712,7464,7092,1620,1004,656,24
6712,7460,7092,1616,1004,656,23
6708,7452,7088,1616,1004,656,23
6712,7444,7084,1620,1004,656,24
6708,7428,7076,1620,1004,656,23
6708,7420,7068,1616,1004,656,24
6704,7404,7060,1620,1004,656,23
6700,7396,7052,1616,1004,656,23
6696,7384,7044,1616,1004,652,24
6696,7376,7040,1616,1004,652,23
6696,7372,7036,1616,1004,652,23
6696,7372,7036,1616,1000,652,24
6696,7376,7040,1616,1004,656,23
6696,7376,7040,1620,1004,656,23
6696,7380,7044,1616,1004,652,24
6696,7384,7044,1616,1004,652,23
6700,7384,7048,1616,1004,652,23
6700,7388,7048,1616,1004,652,24
6700,7388,7048,1616,1004,652,23
6704,7400,7056,1616,1004,652,24
6704,7404,7060,1616,1004,656,23
6704,7408,7060,1616,1004,656,23
6708,7416,7068,1616,1004,652,24
6708,7416,7068,1616,1004,652,23
6704,7420,7068,1616,1004,652,23
6704,7424,7068,1616,1004,656,24
6704,7428,7072,1616,1004,656,23
6708,7436,7076,1616,1004,656,23
6712,7444,7084,1616,1004,656,24
6708,7444,7084,1616,1004,656,23
6708,7452,7088,1616,1004,656,23
6712,7460,7092,1616,1004,656,24
6712,7464,7096,1620,1004,656,23
6716,7472,7100,1620,1004,656,24
6716,7476,7104,1620,1004,656,23
6716,7476,7104,1616,1004,656,23
6708,7464,7096,1616,1004,656,24
6708,7456,7092,1616,1004,656,23
6704,7444,7080,1616,1004,656,23
6700,7436,7076,1620,1004,656,24
6700,7424,7068,1616,1004,656,23
6696,7412,7060,1616,1004,652,23
6700,7408,7060,1616,1000,652,24
6704,7404,7060,1616,1004,652,23
6700,7396,7056,1616,1000,652,23
6700,7396,7052,1616,1000,652,24
6700,7396,7052,1616,1000,652,23
6700,7396,7052,1616,1000,652,24
6700,7396,7052,1616,1000,652,23
6700,7400,7060,1616,1000,652,23
6700,7404,7060,1616,1000,652,24
6704,7404,7060,1616,1000,652,23
6704,7412,7064,1616,1000,652,23
6704,7412,7068,1616,1000,652,24
6708,7416,7068,1616,1000,652,23
6704,7420,7068,1616,1000,652,23
6704,7424,7072,1616,1000,652,24
6704,7428,7072,1616,1000,652,23
6708,7432,7080,1616,1000,652,23
6708,7444,7084,1616,1000,652,24
6712,7448,7088,1616,1004,652,23
6712,7452,7088,1616,1004,652,24
6712,7456,7096,1616,1004,652,23
6716,7468,7100,1616,1004,652,23
6716,7468,7100,1616,1004,652,24
6720,7476,7108,1616,1004,652,23
6712,7476,7104,1616,1004,652,23
6720,7488,7112,1616,1004,652,24
6720,7492,7112,1616,1004,652,23
6716,7488,7112,1616,1004,652,23
6712,7484,7108,1616,1004,652,24
6712,7476,7100,1616,1004,652,23
6712,7464,7100,1616,1000,652,23
6712,7456,7092,1616,1000,652,24
6712,7448,7088,1616,1000,652,23
6708,7436,7084,1616,1000,652,23
6708,7428,7076,1616,1000,652,24
6700,7416,7068,1616,1000,652,23
6696,7408,7064,1616,1000,652,24
6700,7408,7064,1616,1000,652,23
6704,7416,7068,1616,1000,652,23
6708,7420,7072,1616,1000,652,24
6704,7416,7068,1616,1000,652,23
6704,7420,7072,1616,1000,652,23
6704,7420,7072,1616,1000,652,24
6708,7424,7072,1616,1000,652,23
6708,7428,7076,1616,1000,652,23
6708,7428,7076,1616,1000,652,24
6708,7432,7080,1616,1000,652,23
6704,7432,7076,1616,1000,652,23
6712,7440,7084,1616,1000,652,24
6708,7440,7084,1616,1000,652,23
6704,7444,7084,1616,1000,652,24
6708,7452,7088,1616,1000,652,23
6708,7456,7092,1616,1000,652,23
6708,7460,7092,1616,1000,652,24
6712,7464,7096,1616,1000,652,23
6712,7468,7100,1616,1000,652,23
6712,7472,7104,1616,1000,652,24
6712,7480,7104,1616,1000,652,23
6712,7484,7108,1616,1000,652,23
6712,7488,7112,1616,1000,652,24
6712,7492,7112,1616,1000,652,23
6712,7496,7116,1616,1000,652,23
6708,7484,7108,1616,1000,652,24
6708,7480,7104,1616,1000,652,23
6704,7464,7096,1616,1000,652,23
6704,7456,7092,1616,1000,652,24
6704,7444,7084,1616,1000,652,23
6700,7432,7076,1616,996,652,24
6700,7424,7072,1616,996,652,23
6696,7416,7068,1616,996,652,23
6696,7408,7060,1616,996,652,24
6688,7400,7056,1612,996,652,23
6692,7404,7056,1616,996,652,23
6692,7400,7056,1612,996,652,24
6692,7404,7056,1612,996,652,23
6692,7404,7056,1616,996,652,23
6692,7408,7060,1612,996,652,24
6692,7404,7056,1616,996,652,23
6692,7408,7060,1612,996,652,23
6696,7416,7064,1616,996,652,24
6696,7420,7068,1616,996,652,23
6692,7420,7068,1612,996,652,24
6696,7424,7072,1616,996,652,23
6696,7432,7072,1612,996,652,23
6700,7440,7080,1616,996,652,24
6696,7440,7076,1616,996,652,23
6704,7448,7084,1616,996,652,23
6704,7456,7092,1616,996,652,24
6708,7460,7096,1616,996,652,23
6704,7460,7092,1612,996,652,23
6708,7468,7100,1616,1000,652,24
6708,7476,7104,1616,1000,652,23
6708,7480,7104,1616,1000,652,23
6708,7484,7108,1616,1000,652,24
6708,7484,7104,1616,1000,652,23
6704,7484,7104,1616,1000,652,24
6700,7476,7100,1616,1000,652,23
6700,7464,7092,1616,1000,652,23
6700,7452,7088,1616,996,652,24
6696,7440,7080,1616,996,652,23
6692,7424,7068,1616,996,652,23
6692,7412,7064,1616,996,652,24
6692,7400,7056,1616,996,652,23
6692,7392,7048,1612,996,648,23
6688,7384,7044,1616,996,648,24
6696,7388,7048,1612,992,648,23
6692,7384,7044,1612,992,648,23
6692,7384,7044,1612,992,648,24
6696,7388,7048,1612,992,648,23
6692,7388,7048,1616,996,648,24
6696,7388,7048,1612,992,648,23
6692,7388,7048,1612,992,648,23
6692,7388,7048,1612,992,648,24
6696,7396,7056,1612,992,648,23
6692,7392,7052,1612,992,648,23
6688,7392,7048,1612,992,648,24
6692,7400,7056,1612,992,648,23
6692,7404,7056,1612,992,648,23
6692,7408,7056,1612,992,648,24
6692,7412,7060,1612,992,648,23
6692,7416,7064,1612,996,648,23
6692,7420,7068,1612,996,648,24
6696,7428,7072,1616,996,648,23
6696,7432,7072,1616,996,648,24
6696,7436,7076,1616,996,652,23
6696,7440,7076,1616,996,652,23
6696,7444,7080,1616,996,652,24
6696,7448,7084,1616,996,648,23
6700,7456,7088,1616,996,652,23
6704,7460,7092,1616,996,652,24
6696,7448,7084,1616,996,652,23
6692,7432,7072,1612,996,648,23
6692,7416,7064,1616,996,652,24
6684,7400,7052,1612,992,648,23
6684,7388,7044,1612,992,648,23
6684,7372,7036,1612,992,648,24
6680,7364,7028,1612,992,648,23
6680,7356,7028,1612,992,648,24
6680,7348,7020,1612,992,648,23
6680,7344,7020,1612,992,648,23
6680,7344,7020,1612,992,648,24
6680,7344,7016,1612,992,648,23
6680,7344,7020,1612,992,648,23
6680,7344,7016,1612,992,648,24
6676,7344,7016,1612,992,648,23
6680,7344,7016,1612,992,648,23
6680,7348,7024,1612,992,648,24
6680,7348,7024,1612,992,648,23
6684,7356,7028,1612,992,648,23
6688,7360,7032,1612,992,648,24
6684,7364,7032,1612,992,648,23
6688,7368,7036,1612,992,648,24
6684,7372,7036,1612,992,648,23
6688,7380,7044,1612,992,648,23
6688,7384,7044,1612,992,648,24
6692,7388,7048,1612,992,648,23
6692,7392,7048,1612,992,648,23
6692,7400,7056,1612,992,648,24
6696,7404,7060,1612,992,648,23
6700,7412,7064,1612,992,648,23
6696,7412,7064,1612,992,648,24
6700,7420,7068,1616,996,648,23
6700,7428,7072,1616,996,648,23
6700,7428,7072,1612,996,648,24
6696,7416,7068,1612,996,648,23
6684,7396,7052,1616,996,648,24
6684,7384,7044,1612,992,648,23
6684,7372,7036,1612,992,648,23
6680,7352,7024,1612,992,648,24
6680,7344,7020,1612,992,648,23
6676,7332,7012,1612,992,648,23
6676,7324,7004,1612,992,648,24
6676,7312,7000,1612,992,648,23
6676,7308,7000,1612,992,648,23
6676,7308,7000,1612,992,648,24
6676,7312,7000,1612,988,648,23
6676,7312,7000,1612,988,648,23
6676,7316,7000,1612,992,648,24
6680,7316,7004,1612,992,648,23
6676,7312,7000,1612,992,648,24
6676,7316,7004,1612,992,648,23
6680,7320,7008,1612,992,648,23
6676,7320,7004,1612,992,648,24
6676,7324,7008,1612,992,648,23
6680,7332,7016,1612,992,648,23
6684,7340,7020,1612,992,648,24
6684,7344,7020,1612,992,648,23
6688,7348,7024,1612,992,648,23
6684,7352,7028,1612,992,648,24
6688,7356,7032,1612,992,648,23
6688,7364,7036,1612,992,648,23
6692,7372,7040,1612,992,648,24
6688,7372,7040,1612,992,648,23
6688,7376,7044,1612,992,648,24
6696,7388,7052,1612,992,648,23
6692,7388,7052,1612,992,648,23
6700,7400,7060,1612,992,648,24
6700,7400,7060,1612,996,648,23
6696,7392,7052,1616,996,648,23
6692,7380,7048,1616,996,648,24
6688,7360,7032,1616,992,648,23
6684,7348,7024,1616,992,648,23
6680,7328,7012,1616,992,648,24
6676,7312,7004,1612,992,648,23
6672,7300,6992,1612,992,648,23
6676,7292,6988,1612,992,648,24
6672,7284,6984,1612,992,648,23
6672,7284,6984,1612,992,648,24
6672,7280,6980,1616,992,648,23
6672,7280,6980,1612,992,648,23
6672,7284,6984,1612,992,648,24
6676,7284,6988,1612,992,648,23
6672,7284,6984,1612,992,648,23
6672,7288,6984,1612,992,648,24
6676,7288,6988,1612,992,648,23
6672,7292,6988,1612,992,648,23
6676,7296,6988,1612,992,648,24
6676,7300,6992,1612,992,648,23
6676,7304,6996,1616,992,648,23
6676,7308,6996,1612,992,648,24
6676,7312,7000,1612,992,648,23
6676,7320,7004,1612,992,648,23
6676,7324,7008,1612,992,648,24
6676,7328,7008,1616,992,648,23
6680,7332,7012,1616,992,648,24
6684,7340,7016,1616,992,648,23
6684,7344,7020,1616,992,648,23
6688,7352,7028,1616,996,648,24
6688,7360,7032,1616,996,648,23
6688,7364,7036,1616,996,648,23
6688,7368,7036,1616,996,648,24
6688,7372,7036,1616,996,648,23
6688,7364,7032,1616,996,648,23
6680,7348,7020,1616,996,648,24
6676,7328,7008,1616,996,648,23
6672,7312,7000,1616,992,648,23
6672,7296,6988,1612,992,648,24
6676,7292,6988,1612,992,648,23
6668,7272,6972,1612,992,648,24
6664,7264,6968,1612,992,648,23
6668,7260,6968,1612,992,648,23
6664,7256,6964,1612,992,648,24
6668,7260,6968,1612,992,648,23
6664,7260,6968,1612,992,648,23
6668,7268,6972,1612,992,648,24
6668,7268,6968,1612,992,648,23
6668,7268,6972,1616,992,648,23
6664,7268,6972,1616,992,648,24
6672,7276,6976,1612,992,648,23
6668,7276,6976,1612,992,648,23
6668,7280,6980,1612,992,648,24
6672,7288,6984,1616,992,648,23
6672,7292,6988,1616,992,648,23
6672,7296,6988,1612,992,648,24
6672,7300,6992,1616,992,648,23
6676,7308,6996,1616,992,648,24
6672,7312,7000,1616,996,648,23
6680,7324,7004,1616,996,648,23
6680,7328,7012,1616,996,648,24
6684,7336,7016,1616,996,648,23
6684,7340,7020,1616,996,652,23
6684,7348,7024,1616,996,652,24
6680,7348,7020,1616,996,652,23
6688,7360,7028,1616,996,652,23
6680,7356,7028,1616,996,652,24
6684,7364,7028,1616,996,652,23
6684,7364,7028,1616,996,652,23
6684,7352,7024,1616,996,652,24
6676,7332,7012,1616,996,652,23
6676,7320,7004,1616,996,652,24
6672,7304,6996,1612,996,648,23
6668,7288,6984,1612,992,648,23
6668,7276,6980,1612,992,648,24
6668,7268,6972,1612,992,648,23
6664,7256,6964,1612,992,648,23
6668,7256,6968,1612,992,648,24
6672,7260,6968,1612,992,648,23
6664,7256,6964,1612,992,648,23
6668,7260,6968,1612,992,648,24
6668,7264,6972,1612,992,648,23
6668,7264,6968,1612,992,648,23
6668,7268,6972,1612,992,648,24
6672,7272,6976,1612,992,648,23
6672,7276,6980,1612,992,648,24
6672,7276,6980,1612,992,648,23
6672,7280,6980,1612,992,648,23
6672,7284,6984,1612,992,648,24
6668,7288,6984,1612,992,648,23
6672,7296,6988,1612,996,648,23
6676,7308,6996,1612,996,648,24
6676,7312,7000,1616,996,652,23
6676,7316,7004,1612,996,652,23
6680,7324,7008,1616,996,652,24
6684,7332,7016,1616,996,652,23
6684,7340,7020,1616,996,652,23
6684,7344,7020,1612,996,652,24
6684,7352,7024,1612,996,652,23
6688,7356,7028,1616,996,652,24
6684,7360,7028,1612,996,652,23
6692,7372,7040,1616,996,652,23
6688,7372,7036,1616,996,652,24
6688,7368,7036,1616,996,652,23
6684,7356,7028,1616,996,652,23
6680,7340,7016,1612,996,652,24
6676,7320,7004,1612,996,652,23
6672,7304,6996,1612,996,652,23
6672,7292,6988,1612,996,652,24
6668,7276,6976,1612,996,652,23
6664,7264,6968,1612,996,652,23
6660,7256,6964,1612,996,652,24
6660,7256,6960,1612,996,648,23
6656,7252,6960,1612,996,648,24
6660,7256,6960,1612,996,648,23
6664,7260,6964,1612,996,652,23
6664,7264,6968,1612,996,652,24
6664,7264,6968,1612,996,652,23
6664,7268,6972,1612,996,652,23
6664,7272,6972,1612,996,652,24
6664,7272,6972,1612,996,652,23
6668,7280,6980,1612,996,652,23
6672,7288,6984,1612,996,652,24
6672,7292,6988,1612,996,652,23
6676,7304,6996,1612,996,652,23
6676,7308,7000,1612,996,652,24
6676,7312,7000,1612,996,652,23
6680,7320,7008,1612,996,652,23
6680,7324,7008,1616,996,652,24
6680,7328,7012,1616,996,652,23
6680,7332,7012,1616,996,652,24
6680,7336,7012,1616,996,652,23
6680,7344,7020,1616,996,652,23
6688,7356,7028,1616,1000,652,24
6684,7360,7032,1616,1000,652,23
6688,7368,7036,1616,1000,652,23
6692,7376,7044,1616,1000,652,24
6684,7372,7040,1616,1000,652,23
6684,7368,7036,1616,1000,652,23
6684,7356,7028,1616,1000,652,24
6680,7344,7020,1616,1000,652,23
6676,7324,7008,1616,1000,652,23
6676,7316,7004,1616,1000,652,24
6672,7300,6992,1616,1000,652,23
6672,7292,6988,1616,996,652,24
6672,7284,6984,1612,996,652,23
6668,7276,6980,1612,996,652,23
6672,7280,6984,1616,996,652,24
6672,7280,6984,1612,996,652,23
6672,7280,6984,1616,996,652,23
6672,7280,6984,1616,996,652,24
6668,7284,6984,1616,996,652,23
6668,7284,6980,1616,996,652,23
6676,7292,6992,1616,1000,652,24
6676,7296,6992,1616,1000,652,23
6676,7300,6996,1616,1000,652,23
6680,7304,7000,1616,1000,652,24
6680,7308,7000,1616,1000,652,23
6680,7312,7004,1616,1000,652,24
6680,7320,7008,1616,1000,652,23
6680,7320,7008,1616,1000,652,23
6680,7328,7012,1616,1000,652,24
6680,7332,7012,1616,1000,652,23
6680,7336,7016,1616,1000,652,23
6684,7344,7024,1616,1000,652,24
6684,7352,7028,1616,1000,652,23
6688,7360,7032,1616,1000,652,23
6692,7368,7040,1616,1000,652,24
6692,7372,7040,1616,1000,652,23
6692,7376,7044,1616,1000,652,23
6692,7380,7048,1616,1000,652,24
6696,7388,7052,1616,1004,652,23
6696,7392,7052,1616,1004,652,24
6688,7380,7044,1616,1004,656,23
6688,7372,7040,1616,1004,656,23
6688,7360,7032,1616,1000,652,24
6684,7340,7020,1616,1000,652,23
6676,7320,7008,1616,1000,652,23
6672,7308,7000,1616,1000,652,24
6676,7300,6996,1616,1000,652,23
6668,7288,6984,1616,1000,652,23
6672,7288,6984,1616,1000,652,24
6668,7284,6984,1616,1000,652,23
6672,7288,6984,1616,1000,652,23
6668,7288,6988,1616,1000,652,24
6672,7292,6988,1616,1000,652,23
6672,7296,6992,1616,1000,652,23
6672,7296,6992,1616,1000,652,24
6676,7300,6992,1616,1000,652,23
6676,7304,6996,1616,1000,652,24
6676,7308,7000,1616,1000,652,23
6680,7312,7004,1616,1000,652,23
6680,7320,7008,1616,1000,652,24
6684,7328,7012,1616,1000,652,23
6684,7328,7012,1616,1000,652,23
6680,7328,7012,1616,1004,652,24
6680,7336,7016,1616,1004,652,23
6680,7340,7020,1616,1004,656,23
6680,7344,7020,1616,1004,656,24
6688,7356,7028,1616,1004,656,23
6684,7356,7024,1616,1004,656,23
6680,7356,7024,1616,1004,656,24
6684,7368,7032,1616,1004,656,23
6688,7376,7040,1616,1004,656,24
6688,7380,7044,1616,1004,656,23
6692,7388,7052,1616,1004,656,23
6688,7384,7044,1616,1004,656,24
6688,7380,7044,1616,1004,656,23
6688,7372,7040,1616,1004,656,23
6680,7356,7024,1616,1004,656,24
6676,7336,7016,1616,1004,656,23
6676,7324,7008,1616,1004,656,23
6676,7312,7000,1616,1004,656,24
6672,7304,6996,1616,1004,656,23
6672,7292,6988,1616,1004,656,23
6668,7288,6984,1616,1004,656,24
6668,7284,6980,1616,1000,656,23
6668,7280,6980,1616,1004,652,24
6668,7284,6980,1616,1004,652,23
6672,7288,6984,1616,1000,656,23
6672,7288,6984,1616,1004,656,24
6672,7292,6984,1616,1004,656,23
6672,7292,6988,1616,1004,656,23
6668,7292,6988,1616,1004,656,24
6672,7300,6988,1616,1004,656,23
6672,7304,6996,1616,1004,656,23
6676,7308,6996,1616,1004,656,24
6676,7316,7000,1616,1004,656,23
6676,7316,7000,1616,1004,656,23
6676,7324,7004,1616,1004,656,24
6676,7328,7008,1616,1004,656,23
6680,7336,7012,1616,1004,656,24
6680,7344,7020,1616,1004,656,23
6676,7344,7016,1616,1004,656,23
6680,7352,7020,1616,1004,656,24
6680,7356,7024,1616,1004,656,23
6684,7368,7032,1616,1004,656,23
6688,7376,7040,1616,1004,656,24
6688,7380,7044,1616,1008,656,23
6692,7388,7048,1620,1008,656,23
6692,7392,7048,1616,1008,656,24
6688,7388,7048,1620,1008,656,23
6684,7380,7040,1620,1008,656,23
6684,7364,7028,1620,1008,656,24
6676,7344,7016,1620,1008,656,23
6672,7328,7008,1616,1004,656,24
6672,7316,6996,1616,1004,656,23
6672,7304,6992,1616,1004,656,23
6664,7292,6984,1616,1004,656,24
6668,7288,6984,1616,1004,656,23
6668,7284,6980,1616,1004,656,23
6668,7284,6976,1616,1004,656,24
6668,7284,6976,1616,1004,656,23
6664,7280,6976,1616,1004,656,23
6664,7284,6976,1616,1004,656,24
6664,7284,6980,1616,1004,656,23
6668,7292,6984,1616,1004,656,23
6668,7292,6988,1616,1004,656,24
6668,7296,6988,1616,1004,656,23
6668,7300,6988,1616,1004,656,24
6668,7304,6992,1616,1004,656,23
6668,7308,6992,1616,1004,656,23
6668,7312,6996,1616,1004,656,24
6672,7320,7000,1616,1004,656,23
6672,7324,7004,1616,1004,656,23
6676,7332,7008,1616,1004,656,24
6676,7340,7012,1616,1004,656,23
6676,7344,7016,1616,1004,656,23
6680,7356,7024,1616,1004,656,24
6680,7360,7024,1616,1004,656,23
6680,7364,7028,1616,1008,656,23
6684,7368,7032,1616,1008,656,24
6684,7376,7036,1616,1008,656,23
6684,7384,7040,1616,1008,656,24
6688,7388,7044,1616,1008,656,23
6688,7392,7048,1616,1008,656,23
6684,7384,7040,1616,1008,656,24
6680,7368,7032,1616,1008,656,23
6676,7352,7020,1620,1008,656,23
6680,7344,7016,1616,1008,656,24
6672,7324,7004,1616,1004,656,23
6672,7312,6996,1616,1004,656,23
6672,7304,6992,1616,1004,656,24
6672,7296,6984,1616,1004,656,23
6668,7288,6984,1616,1004,656,23
6668,7288,6984,1616,1004,656,24
6668,7284,6980,1616,1004,656,23
6668,7288,6984,1616,1004,656,24
6672,7292,6988,1616,1004,656,23
6668,7292,6984,1616,1004,656,23
6664,7296,6984,1616,1004,656,24
6672,7300,6992,1616,1004,656,23
6672,7304,6992,1616,1004,656,23
6672,7308,6996,1616,1004,656,24
6672,7312,6996,1616,1004,656,23
6676,7320,7000,1616,1004,656,23
6676,7324,7004,1616,1004,656,24
6676,7328,7008,1616,1004,656,23
6680,7340,7016,1616,1004,656,23
6680,7344,7016,1616,1004,656,24
6680,7348,7020,1616,1004,656,23
6680,7356,7024,1616,1004,656,24
6680,7360,7028,1616,1004,656,23
6684,7368,7032,1616,1008,656,23
6684,7372,7032,1616,1008,656,24
6680,7376,7036,1616,1008,656,23
6680,7380,7036,1616,1008,656,23
6688,7392,7048,1616,1008,656,24
6688,7396,7052,1620,1008,656,23
6688,7400,7052,1616,1008,656,23
6688,7400,7052,1616,1008,656,24
6684,7388,7044,1616,1008,656,23
6680,7376,7036,1620,1008,656,23
6676,7360,7028,1616,1008,656,24
6676,7352,7020,1616,1008,656,23
6672,7332,7008,1616,1004,656,24
6676,7328,7008,1616,1004,656,23
6676,7320,7004,1616,1004,656,23
6672,7312,7000,1616,1004,656,24
6676,7312,7000,1616,1004,656,23
6672,7308,6996,1616,1004,656,23
6672,7308,6996,1616,1004,656,24
6672,7316,7000,1616,1004,656,23
6676,7320,7004,1616,1004,656,23
6676,7320,7004,1616,1004,656,24
6676,7324,7008,1616,1004,656,23
6680,7332,7012,1616,1004,656,23
6676,7328,7008,1616,1004,656,24
6676,7328,7008,1616,1004,656,23
6676,7332,7008,1616,1004,656,23
6676,7336,7012,1616,1004,656,24
6680,7344,7016,1616,1004,656,23
6680,7352,7024,1616,1004,656,24
6684,7360,7028,1616,1004,656,23
6688,7368,7036,1616,1004,656,23
6692,7376,7040,1616,1004,656,24
6688,7380,7040,1616,1004,656,23
6688,7384,7044,1620,1008,656,23
6692,7392,7048,1616,1008,656,24
6692,7396,7052,1616,1004,656,23
6692,7400,7052,1616,1004,656,23
6688,7404,7052,1616,1004,656,24
6688,7404,7052,1616,1008,656,23
6692,7412,7060,1616,1008,656,24
6692,7412,7060,1616,1008,656,23
6684,7404,7052,1616,1008,656,23
6688,7396,7048,1620,1008,656,24
6684,7384,7044,1616,1008,656,23
6680,7368,7032,1616,1004,656,23
6676,7352,7020,1616,1004,656,24
6676,7340,7016,1616,1004,656,23
6672,7332,7008,1616,1004,656,23
6672,7324,7004,1616,1004,656,24
6672,7320,7004,1616,1004,656,23
6676,7324,7004,1616,1004,656,23
6672,7324,7004,1616,1004,656,24
6672,7328,7008,1616,1004,656,23
6676,7332,7008,1616,1004,656,24
6676,7336,7012,1616,1004,652,23
6676,7336,7012,1616,1004,656,23
6672,7332,7008,1616,1000,652,24
6672,7336,7012,1616,1000,652,23
6676,7344,7016,1616,1004,652,23
6676,7344,7016,1616,1004,652,24
6676,7352,7020,1616,1004,652,23
6680,7356,7024,1616,1004,652,23
6680,7360,7028,1616,1004,652,24
6680,7368,7028,1616,1004,652,23
6684,7376,7036,1616,1004,656,23
6684,7380,7036,1616,1004,656,24
6684,7388,7040,1616,1004,656,23
6684,7388,7044,1616,1004,656,24
6684,7396,7048,1616,1004,656,23
6684,7400,7048,1616,1004,656,23
6688,7408,7056,1616,1004,656,24
6688,7416,7060,1616,1004,656,23
6688,7416,7060,1616,1004,656,23
6688,7424,7064,1616,1004,656,24
6688,7424,7064,1616,1004,656,23
6684,7416,7060,1616,1004,656,23
6684,7412,7056,1616,1004,656,24
6680,7396,7048,1616,1004,656,23
6676,7380,7036,1616,1004,656,23
6672,7364,7024,1616,1004,656,24
6672,7348,7016,1616,1000,652,23
6672,7348,7016,1616,1000,652,24
6672,7336,7008,1616,1000,652,23
6668,7328,7004,1616,1000,652,23
6664,7320,6996,1616,1000,652,24
6668,7324,7000,1616,1000,652,23
6672,7328,7004,1616,1000,652,23
6664,7320,7000,1616,1000,652,24
6668,7324,7000,1616,1000,652,23
6668,7328,7004,1616,1000,652,23
6672,7332,7008,1616,1000,652,24
6668,7332,7004,1616,1000,652,23
6672,7336,7012,1616,1000,652,23
6672,7344,7012,1616,1000,652,24
6676,7352,7020,1616,1000,652,23
6672,7348,7016,1616,1000,652,24
6676,7356,7020,1616,1000,652,23
6672,7356,7020,1616,1000,652,23
6672,7364,7024,1616,1000,652,24
6676,7372,7032,1616,1000,652,23
6680,7380,7036,1616,1000,652,23
6680,7388,7040,1616,1000,652,24
6680,7388,7040,1616,1000,652,23
6680,7396,7044,1616,1000,652,23
6680,7396,7044,1616,1000,652,24
6680,7404,7048,1616,1000,652,23
6680,7408,7052,1616,1000,652,23
6680,7416,7056,1616,1000,652,24
6684,7420,7060,1616,1004,656,23
6680,7416,7060,1616,1004,652,23
6684,7416,7056,1616,1004,652,24
6676,7400,7048,1616,1004,652,23
6676,7384,7036,1616,1004,652,24
6676,7372,7028,1616,1000,652,23
6668,7352,7020,1616,1000,652,23
6668,7344,7012,1616,1000,652,24
6664,7328,7004,1616,1000,652,23
6664,7320,6996,1616,1000,652,23
6664,7316,6996,1616,1000,652,24
6660,7308,6988,1612,996,652,23
6660,7312,6992,1616,996,652,23
6660,7308,6988,1616,1000,652,24
6660,7312,6992,1612,996,652,23
6664,7316,6996,1612,996,652,23
6664,7316,6996,1616,1000,652,24
6660,7316,6996,1612,996,652,23
6660,7320,6996,1612,996,652,24
6664,7324,7000,1612,996,652,23
6664,7328,7000,1612,996,652,23
6660,7328,7000,1616,1000,652,24
6664,7332,7004,1616,1000,652,23
6664,7340,7012,1616,1000,652,23
6668,7348,7012,1616,1000,652,24
6668,7356,7016,1616,1000,652,23
6668,7356,7020,1612,1000,652,23
6672,7368,7028,1616,1000,652,24
6672,7372,7032,1616,1000,652,23
6672,7376,7032,1616,1000,652,23
6672,7380,7036,1616,1000,652,24
6672,7384,7036,1616,1000,652,23
6676,7392,7044,1616,1000,652,23
6676,7396,7044,1616,1000,652,24
6676,7400,7048,1616,1000,652,23
6676,7404,7048,1616,1000,652,24
6680,7412,7056,1616,1000,652,23
6676,7404,7048,1616,1000,652,23
6672,7392,7040,1616,1000,652,24
6676,7384,7036,1616,1000,652,23
6668,7360,7020,1616,1000,652,23
6664,7344,7012,1616,1000,652,24
6664,7336,7008,1616,1000,652,23
6668,7328,7004,1616,996,652,23
6660,7312,6992,1612,996,652,24
6660,7308,6992,1612,996,652,23
6660,7304,6988,1612,996,652,23
6660,7308,6992,1612,996,652,24
6660,7308,6992,1612,996,652,23
6664,7312,6996,1612,996,652,24
6660,7312,6992,1612,996,652,23
6660,7312,6992,1612,996,652,23
6660,7312,6992,1616,996,652,24
6664,7320,6996,1612,996,652,23
6664,7324,7004,1612,996,652,23
6664,7328,7004,1612,996,652,24
6672,7336,7008,1612,996,652,23
6672,7340,7012,1612,996,652,23
6668,7340,7012,1612,996,652,24
6676,7352,7020,1612,996,652,23
6676,7356,7024,1616,996,652,23
6676,7364,7028,1612,996,652,24
6676,7368,7032,1612,996,652,23
6676,7368,7028,1612,996,652,23
6676,7376,7036,1612,996,652,24
6680,7380,7036,1616,1000,652,23
6680,7388,7044,1616,1000,652,24
6684,7396,7048,1616,1000,652,23
6684,7400,7052,1616,1000,652,23
6684,7404,7056,1616,1000,652,24
6688,7412,7060,1616,1000,652,23
6688,7416,7064,1616,1000,652,23
6684,7408,7056,1616,1000,652,24
6680,7400,7052,1616,1000,652,23
6680,7388,7044,1616,1000,652,23
6672,7368,7032,1616,1000,652,24
6668,7352,7016,1616,1000,652,23
6668,7340,7012,1616,996,652,23
6660,7328,7004,1616,996,652,24
6664,7320,7000,1616,996,652,23
6664,7316,7000,1616,996,652,24
6664,7312,6992,1612,996,652,23
6660,7312,6992,1612,996,652,23
6664,7316,6996,1612,996,652,24
6664,7316,6996,1612,996,652,23
6664,7316,7000,1612,996,652,23
6664,7316,6996,1612,996,652,24
6664,7320,7000,1612,996,652,23
6664,7320,7000,1612,996,652,23
6660,7320,7000,1612,996,652,24
6664,7324,7004,1612,996,652,23
6664,7328,7004,1616,996,652,23
6664,7336,7008,1612,996,652,24
6664,7340,7012,1612,996,652,23
6672,7352,7020,1616,996,652,24
6668,7352,7020,1616,1000,652,23
6668,7356,7020,1616,996,652,23
6676,7368,7028,1616,1000,652,24
6672,7368,7028,1616,1000,652,23
6672,7372,7028,1616,1000,652,23
6672,7380,7036,1616,1000,652,24
6676,7384,7040,1616,1000,652,23
6676,7392,7044,1616,1000,652,23
6680,7396,7048,1616,1000,652,24
6680,7404,7052,1616,1000,652,23
6680,7408,7056,1616,1000,652,23
6676,7408,7052,1616,1000,652,24
6672,7396,7044,1616,1000,652,23
6672,7388,7040,1616,1000,652,24
6672,7376,7032,1616,1000,652,23
6668,7360,7024,1612,1000,652,23
6668,7344,7012,1612,996,652,24
6664,7332,7008,1612,996,652,23
6664,7324,7000,1612,996,652,23
6664,7320,7000,1612,996,652,24
6664,7312,6992,1612,996,652,23
6664,7312,6992,1612,996,652,23
6660,7308,6992,1616,996,652,24
6664,7312,6992,1616,996,652,23
6660,7312,6992,1616,996,652,23
6660,7312,6992,1612,996,652,24
6664,7316,6996,1616,996,652,23
6664,7320,7000,1612,996,652,23
6664,7324,7000,1612,996,652,24
6664,7324,7000,1612,996,652,23
6664,7328,7004,1612,996,652,24
6664,7332,7004,1612,996,652,23
6664,7332,7004,1612,996,652,23
6668,7340,7012,1616,996,652,24
6664,7344,7012,1616,996,652,23
6668,7352,7016,1616,1000,652,23
6672,7360,7024,1616,1000,652,24
6672,7364,7024,1616,1000,652,23
6672,7368,7028,1616,1000,652,23
6672,7376,7032,1616,1000,652,24
6672,7380,7036,1616,1000,652,23
6672,7384,7036,1616,1000,652,23
6676,7392,7044,1616,1000,652,24
6676,7396,7044,1616,1000,652,23
6676,7400,7048,1616,1000,652,24
6680,7408,7052,1616,1000,652,23
6676,7404,7048,1616,1000,652,23
6672,7396,7044,1616,1000,652,24
6672,7380,7036,1616,1000,652,23
6668,7368,7028,1616,1000,652,23
6668,7356,7020,1616,1000,652,24
6664,7336,7008,1616,1000,652,23
6660,7324,7000,1616,1000,652,23
6656,7312,6992,1616,1000,652,24
6656,7300,6984,1616,996,652,23
6656,7292,6980,1616,996,652,23
6656,7288,6976,1616,996,652,24
6656,7288,6976,1616,996,652,23
6652,7288,6976,1616,996,652,24
6656,7292,6980,1616,996,652,23
6652,7292,6976,1616,996,652,23
6656,7292,6980,1612,996,652,24
6660,7300,6984,1616,1000,652,23
6656,7300,6984,1612,996,652,23
6656,7304,6984,1612,996,652,24
6656,7304,6984,1612,996,652,23
6660,7312,6992,1616,1000,652,23
6656,7312,6992,1616,1000,652,24
6660,7320,6996,1616,1000,652,23
6660,7324,6996,1616,1000,652,23
6660,7332,7004,1616,1000,652,24
6664,7340,7008,1616,1000,652,23
6668,7344,7012,1616,1000,652,24
6660,7344,7012,1616,1000,652,23
6664,7352,7016,1616,1000,652,23
6668,7360,7020,1616,1000,652,24
6668,7364,7024,1616,1000,652,23
6668,7368,7024,1616,1000,652,23
6668,7372,7028,1616,1000,652,24
6676,7384,7036,1616,1000,652,23
6672,7388,7040,1616,1000,652,23
6676,7392,7044,1616,1000,652,24
6672,7388,7040,1616,1000,652,23
6664,7368,7028,1616,1004,652,23
6664,7356,7020,1616,1000,652,24
6656,7336,7004,1616,1000,652,23
6656,7320,6996,1616,1000,652,23
6652,7304,6988,1616,1000,652,24
6648,7292,6976,1616,1000,652,23
6652,7284,6976,1616,1000,652,24
6652,7280,6972,1616,1000,652,23
6648,7272,6968,1616,1000,652,23
6648,7272,6964,1616,1000,652,24
6652,7276,6968,1616,1000,652,23
6652,7276,6972,1616,1000,652,23
6652,7280,6972,1616,1000,652,24
6652,7284,6972,1616,1000,652,23
6652,7284,6972,1616,1000,652,23
6652,7284,6972,1616,1000,652,24
6652,7288,6976,1616,1000,652,23
6652,7292,6976,1616,1000,652,23
6656,7296,6984,1616,1000,652,24
6656,7300,6984,1616,1000,652,23
6656,7304,6988,1616,1000,652,24
6660,7312,6992,1616,1000,652,23
6664,7324,7000,1616,1000,652,23
6664,7324,7000,1616,1000,652,24
6664,7332,7004,1616,1000,652,23
6668,7336,7008,1616,1000,652,23
6668,7344,7012,1616,1000,652,24
6672,7348,7016,1616,1000,652,23
6664,7348,7016,1616,1000,652,23
6672,7360,7024,1616,1000,652,24
6672,7368,7028,1616,1004,652,23
6672,7368,7028,1616,1004,656,23
6676,7376,7036,1616,1004,652,24
6672,7376,7032,1616,1004,656,23
6668,7372,7028,1616,1004,656,24
6672,7364,7028,1616,1004,656,23
6664,7344,7012,1616,1004,656,23
6660,7328,7004,1620,1004,656,24
6660,7316,6996,1616,1000,652,23
6660,7308,6992,1616,1000,652,23
6660,7296,6984,1616,1000,652,24
6652,7280,6972,1616,1000,652,23
6652,7272,6968,1616,1000,652,23
6652,7268,6964,1616,1000,652,24
6652,7268,6964,1616,1000,652,23
6652,7268,6964,1616,1000,652,23
6656,7272,6968,1616,1000,652,24
6652,7272,6968,1616,1000,652,23
6652,7276,6968,1616,1000,652,23
6656,7280,6972,1616,1000,652,24
6656,7280,6976,1616,1000,652,23
6652,7280,6972,1616,1000,652,24
6656,7288,6976,1616,1000,652,23
6660,7292,6980,1616,1000,652,23
6664,7300,6984,1616,1004,652,24
6656,7296,6984,1616,1000,652,23
6664,7308,6988,1616,1000,652,23
6664,7312,6996,1616,1000,652,24
6664,7316,6996,1616,1004,652,23
6668,7328,7004,1616,1004,652,23
6668,7332,7008,1616,1004,656,24
6672,7336,7012,1616,1004,656,23
6672,7344,7016,1616,1004,656,23
6672,7348,7016,1616,1004,656,24
6668,7348,7016,1616,1004,656,23
6676,7356,7024,1616,1004,656,24
6676,7360,7024,1616,1004,656,23
6676,7368,7028,1616,1004,656,23
6676,7368,7032,1620,1004,656,24
6676,7372,7032,1616,1004,656,23
6672,7360,7024,1616,1004,656,23
6668,7344,7012,1620,1004,656,24
6668,7328,7004,1616,1004,656,23
6664,7312,6992,1616,1004,656,23
6660,7292,6980,1616,1004,656,24
6660,7284,6976,1616,1004,652,23
6660,7276,6972,1616,1000,652,23
6660,7272,6968,1616,1004,652,24
6660,7268,6968,1616,1000,652,23
6656,7268,6968,1616,1000,652,24
6664,7272,6972,1616,1000,652,23
6660,7272,6972,1616,1000,652,23
6660,7272,6972,1616,1000,652,24
6656,7272,6968,1616,1000,652,23
6656,7268,6968,1616,1000,652,23
6656,7272,6968,1616,1000,652,24
6656,7276,6972,1616,1000,652,23
6660,7284,6976,1616,1004,652,23
6660,7284,6976,1616,1004,652,24
6660,7288,6980,1616,1004,652,23
6664,7296,6984,1616,1004,656,23
6664,7304,6988,1616,1004,652,24
6664,7308,6992,1616,1004,652,23
6668,7316,6996,1616,1004,652,24
6664,7316,6996,1616,1004,656,23
6672,7324,7004,1616,1004,656,23
6668,7328,7004,1616,1004,656,24
6668,7332,7008,1616,1004,656,23
6668,7336,7008,1616,1004,656,23
6668,7340,7012,1616,1004,656,24
6672,7348,7016,1616,1004,656,23
6672,7356,7020,1616,1004,656,23
6676,7360,7024,1616,1004,656,24
6672,7360,7024,1616,1004,656,23
6668,7344,7012,1616,1004,656,23
6664,7332,7004,1616,1004,656,24
6660,7316,6992,1616,1004,656,23
6660,7300,6984,1616,1004,656,24
6652,7280,6972,1616,1004,656,23
6652,7272,6968,1616,1004,656,23
6652,7260,6960,1616,1004,656,24
6652,7256,6956,1616,1004,656,23
6648,7244,6948,1616,1004,656,23
6652,7248,6948,1616,1000,652,24
6648,7244,6948,1616,1004,656,23
6652,7248,6952,1616,1000,652,23
6652,7252,6952,1616,1000,652,24
6652,7252,6952,1616,1004,656,23
6656,7260,6960,1616,1000,652,23
6656,7260,6960,1616,1004,652,24
6652,7260,6956,1616,1004,652,23
6652,7260,6960,1616,1004,652,24
6656,7268,6964,1616,1004,656,23
6652,7268,6964,1616,1004,652,23
6660,7280,6972,1616,1004,656,24
6656,7280,6968,1616,1004,652,23
6656,7288,6976,1616,1004,652,23
6656,7292,6980,1616,1004,656,24
6660,7296,6980,1616,1004,652,23
6660,7304,6984,1616,1004,656,23
6664,7308,6988,1616,1004,656,24
6664,7316,6992,1616,1004,656,23
6656,7312,6988,1616,1004,656,23
6660,7320,6996,1616,1004,656,24
6664,7328,7000,1616,1004,656,23
6664,7336,7004,1616,1004,656,24
6664,7340,7008,1616,1004,656,23
6664,7344,7008,1616,1004,656,23
6664,7344,7008,1616,1004,656,24
6664,7332,7004,1616,1004,656,23
6660,7316,6992,1616,1004,656,23
6656,7300,6984,1616,1004,656,24
6652,7284,6972,1616,1004,656,23
6648,7268,6960,1616,1004,656,23
6648,7256,6956,1616,1004,656,24
6648,7244,6948,1616,1004,656,23
6644,7236,6940,1616,1000,652,23
6648,7232,6940,1616,1000,652,24
6644,7232,6940,1616,1000,652,23
6644,7228,6940,1616,1000,652,24
6644,7232,6936,1616,1000,652,23
6648,7232,6940,1616,1000,652,23
6640,7228,6936,1616,1000,652,24
6644,7232,6940,1616,1000,652,23
6644,7236,6940,1616,1004,656,23
6644,7240,6944,1616,1000,652,24
6648,7248,6948,1616,1000,652,23
6652,7252,6952,1616,1000,652,23
6652,7256,6956,1616,1000,652,24
6648,7260,6956,1616,1000,652,23
6648,7260,6956,1616,1000,652,23
6652,7268,6960,1616,1004,652,24
6648,7272,6960,1616,1004,656,23
6652,7280,6968,1616,1004,656,24
6656,7288,6972,1616,1004,656,23
6652,7288,6972,1616,1004,656,23
6656,7296,6980,1616,1004,656,24
6656,7300,6980,1616,1004,656,23
6660,7308,6988,1616,1004,656,23
6664,7316,6992,1616,1004,656,24
6664,7324,6996,1616,1004,656,23
6664,7328,7000,1616,1004,656,23
6664,7332,7004,1616,1004,656,24
6660,7328,7000,1616,1004,656,23
6660,7320,6992,1616,1004,656,23
6656,7300,6980,1616,1004,656,24
6652,7284,6968,1616,1004,656,23
6648,7264,6956,1616,1004,656,24
6644,7248,6948,1616,1004,656,23
6640,7236,6940,1616,1000,652,23
6640,7228,6936,1616,1000,652,24
6640,7220,6928,1616,1000,652,23
6640,7216,6928,1616,1000,652,23
6640,7212,6928,1616,1000,652,24
6640,7216,6928,1616,1000,652,23
6636,7212,6924,1616,1000,652,23
6640,7216,6928,1616,1000,652,24
6640,7220,6932,1616,1000,652,23
6640,7224,6932,1616,1000,652,23
6644,7224,6936,1616,1000,652,24
6644,7232,6940,1616,1000,652,23
6640,7228,6940,1616,1000,652,24
6648,7240,6944,1616,1000,652,23
6648,7244,6948,1616,1000,652,23
6648,7248,6952,1616,1000,652,24
6652,7256,6952,1616,1000,652,23
6652,7260,6960,1616,1000,652,23
6656,7272,6968,1616,1000,652,24
6656,7276,6968,1616,1000,652,23
6652,7280,6968,1616,1000,652,23
6656,7284,6972,1616,1004,656,24
6656,7292,6976,1616,1004,656,23
6660,7296,6984,1616,1004,656,23
6664,7308,6988,1616,1004,656,24
6664,7312,6992,1616,1004,656,23
6664,7316,6992,1616,1004,656,24
6664,7320,6996,1616,1004,656,23
6668,7328,7004,1616,1004,656,23
6664,7324,7000,1616,1004,656,24
6664,7320,6996,1620,1004,656,23
6660,7304,6988,1616,1004,656,23
6656,7288,6980,1616,1004,656,24
6652,7272,6964,1616,1004,656,23
6648,7256,6956,1616,1004,656,23
6652,7248,6952,1616,1004,656,24
6648,7232,6944,1616,1000,652,23
6648,7228,6940,1616,1000,652,23
6652,7228,6940,1612,1000,652,24
6648,7224,6940,1616,1000,652,23
6648,7224,6940,1612,1000,652,24
6644,7224,6936,1612,1000,652,23
6648,7228,6940,1612,1000,652,23
6648,7232,6944,1616,1000,652,24
6648,7232,6944,1612,1000,652,23
6648,7236,6944,1612,1000,652,23
6652,7240,6948,1616,1000,652,24
6652,7244,6952,1612,1000,652,23
6652,7244,6952,1612,1000,652,23
6652,7252,6956,1616,1000,652,24
6652,7256,6960,1616,1000,652,23
6656,7264,6964,1616,1000,652,23
6656,7268,6968,1616,1000,652,24
6656,7272,6968,1616,1000,652,23
6660,7280,6976,1616,1000,652,23
6664,7288,6980,1616,1000,652,24
6664,7292,6984,1616,1000,652,23
6664,7300,6988,1616,1000,652,24
6668,7312,6996,1616,1000,652,23
6668,7312,6996,1616,1000,652,23
6668,7316,6996,1616,1000,652,24
6668,7320,7000,1616,1004,652,23
6668,7324,7004,1616,1004,652,23
6668,7328,7004,1616,1004,652,24
6672,7328,7004,1616,1004,652,23
6664,7312,6996,1616,1004,652,23
6660,7296,6984,1616,1000,652,24
6656,7280,6976,1616,1000,652,23
6656,7268,6968,1616,1000,652,23
6652,7252,6956,1612,1000,652,24
6652,7240,6952,1616,1000,652,23
6652,7236,6948,1612,1000,652,24
6656,7232,6944,1612,1000,652,23
6648,7224,6940,1612,1000,652,23
6648,7220,6936,1612,1000,652,24
6652,7228,6944,1612,1000,652,23
6656,7232,6944,1612,996,652,23
6648,7228,6940,1612,996,652,24
6652,7232,6944,1612,996,652,23
6652,7232,6944,1612,996,652,23
6652,7236,6948,1612,1000,652,24
6648,7236,6944,1612,1000,652,23
6648,7240,6948,1612,996,652,23
6652,7244,6952,1612,1000,652,24
6652,7252,6956,1616,1000,652,23
6656,7256,6960,1612,1000,652,24
6656,7264,6964,1612,1000,652,23
6656,7268,6968,1616,1000,652,23
6652,7268,6964,1616,1000,652,24
6656,7276,6972,1616,1000,652,23
6656,7280,6972,1616,1000,652,23
6656,7284,6976,1616,1000,652,24
6656,7288,6976,1612,1000,652,23
6660,7300,6984,1616,1000,652,23
6664,7304,6988,1616,1000,652,24
6664,7312,6992,1616,1000,652,23
6664,7316,6996,1612,1000,652,23
6664,7320,6996,1616,1000,652,24
6660,7312,6992,1616,1000,652,23
6656,7300,6984,1616,1000,652,24
6656,7284,6976,1612,1000,652,23
6652,7272,6968,1616,1000,652,23
6648,7252,6952,1612,1000,652,24
6648,7244,6952,1612,1000,652,23
6640,7224,6936,1612,996,652,23
6644,7220,6936,1612,996,652,24
6640,7212,6928,1612,996,652,23
6640,7208,6928,1612,996,652,23
6640,7208,6928,1612,996,652,24
6640,7208,6928,1612,996,652,23
6644,7212,6928,1612,996,652,23
6644,7216,6932,1612,996,652,24
6644,7216,6932,1612,996,652,23
6644,7216,6932,1612,996,652,24
6644,7220,6936,1612,996,652,23
6640,7224,6936,1612,996,652,23
6644,7228,6940,1612,996,652,24
6648,7236,6944,1612,996,652,23
6652,7244,6952,1612,996,652,23
6648,7248,6952,1612,996,652,24
6652,7256,6956,1612,996,652,23
6652,7260,6960,1612,996,652,23
6656,7268,6964,1612,996,652,24
6656,7272,6964,1612,996,652,23
6652,7272,6968,1612,996,652,23
6656,7284,6972,1612,996,652,24
6656,7288,6976,1612,996,652,23
6656,7292,6980,1616,1000,652,24
6660,7300,6984,1616,1000,652,23
6660,7308,6988,1616,1000,652,23
6668,7320,7000,1616,1000,652,24
6660,7316,6992,1612,1000,652,23
6660,7312,6992,1616,1000,652,23
6660,7300,6984,1612,1000,652,24
6656,7284,6972,1612,1000,652,23
6652,7264,6964,1612,996,652,23
6648,7248,6952,1612,996,652,24
6648,7236,6944,1612,996,652,23
6644,7220,6936,1612,996,652,23
6640,7212,6928,1612,996,652,24
6640,7200,6920,1612,996,652,23
6640,7200,6920,1612,996,652,23
6640,7200,6920,1612,996,652,24
6640,7200,6920,1612,996,652,23
6640,7204,6924,1612,996,652,24
6644,7208,6928,1612,996,652,23
6640,7208,6924,1612,996,652,23
6644,7212,6928,1612,996,648,24
6640,7212,6928,1612,996,652,23
6644,7220,6932,1612,996,652,23
6640,7220,6932,1612,996,652,24
6644,7224,6936,1612,996,652,23
6648,7236,6944,1612,996,652,23
6648,7240,6948,1612,996,652,24
6644,7240,6944,1612,996,652,23
6648,7248,6948,1612,996,652,23
6648,7256,6956,1612,996,652,24
6652,7264,6960,1612,996,652,23
6652,7272,6964,1612,996,652,24
6656,7276,6968,1612,996,652,23
6656,7280,6972,1612,996,652,23
6656,7284,6972,1612,996,652,24
6656,7292,6976,1612,996,652,23
6660,7300,6984,1612,996,652,23
6660,7304,6984,1612,996,652,24
6660,7308,6988,1612,996,652,23
6660,7308,6988,1612,996,652,23
6656,7292,6980,1612,996,652,24
6652,7276,6968,1612,996,652,23
6648,7256,6956,1612,996,652,23
6648,7240,6944,1612,996,652,24
6636,7216,6928,1612,996,652,23
6640,7208,6924,1612,996,652,24
6636,7200,6920,1612,992,648,23
6636,7192,6916,1612,992,648,23
6636,7188,6912,1612,992,648,24
6636,7188,6912,1612,992,648,23
6636,7188,6912,1612,992,648,23
6636,7192,6916,1612,992,648,24
6640,7196,6920,1612,992,648,23
6640,7196,6920,1612,992,648,23
6640,7200,6920,1612,992,648,24
6640,7204,6924,1612,992,648,23
6640,7208,6928,1612,992,648,23
6644,7216,6928,1612,992,648,24
6640,7212,6928,1612,992,648,23
6640,7220,6932,1612,992,648,24
6644,7224,6936,1612,992,648,23
6648,7236,6944,1612,992,648,23
6640,7236,6940,1612,996,648,24
6644,7244,6948,1612,996,648,23
6652,7256,6956,1612,996,652,23
6652,7264,6960,1612,996,652,24
6652,7268,6964,1612,996,652,23
6652,7272,6968,1612,996,652,23
6656,7280,6972,1612,996,652,24
6656,7288,6976,1612,996,652,23
6656,7292,6980,1612,996,652,23
6664,7304,6988,1612,996,652,24
6660,7304,6988,1612,996,652,23
6660,7304,6984,1612,996,652,24
6660,7300,6984,1616,996,652,23
6656,7284,6976,1612,996,652,23
6652,7268,6964,1612,996,652,24
6648,7252,6956,1612,996,652,23
6648,7236,6944,1612,996,652,23
6640,7216,6932,1612,996,652,24
6644,7212,6928,1612,992,648,23
6640,7200,6924,1612,992,648,23
6640,7196,6920,1612,992,648,24
6644,7200,6924,1612,992,648,23
6644,7200,6924,1612,992,648,23
6644,7204,6928,1612,992,648,24
6644,7204,6928,1612,992,648,23
6648,7212,6932,1612,996,652,24
6648,7212,6936,1612,992,648,23
6648,7212,6932,1612,992,648,23
6648,7216,6936,1612,992,648,24
6644,7216,6936,1612,992,648,23
6652,7228,6944,1612,992,648,23
6652,7236,6948,1612,992,648,24
6652,7236,6948,1612,992,648,23
6656,7248,6952,1612,996,648,23
6656,7252,6960,1612,996,652,24
6656,7256,6960,1612,996,648,23
6652,7260,6960,1612,996,652,23
6656,7268,6964,1612,996,652,24
6656,7272,6968,1612,996,652,23
6660,7280,6976,1612,996,652,24
6660,7288,6980,1612,996,652,23
6664,7292,6984,1612,996,652,23
6660,7296,6984,1612,996,652,24
6660,7300,6984,1612,996,652,23
6664,7308,6992,1612,996,652,23
6664,7312,6996,1612,996,652,24
6664,7312,6992,1616,996,652,23
6664,7300,6988,1616,996,652,23
6660,7288,6980,1616,996,652,24
6656,7268,6968,1612,996,652,23
6652,7256,6956,1612,996,652,23
6652,7240,6952,1612,996,652,24
6648,7232,6944,1612,996,652,23
6648,7224,6940,1612,996,652,23
6648,7216,6932,1612,996,652,24
6652,7220,6940,1612,996,652,23
6648,7216,6936,1612,996,652,24
6648,7220,6940,1612,996,652,23
6648,7224,6940,1612,996,652,23
6648,7228,6940,1612,996,652,24
6648,7228,6944,1612,996,652,23
6648,7228,6944,1612,996,652,23
6648,7232,6944,1612,996,652,24
6652,7240,6952,1612,996,652,23
6652,7244,6956,1612,996,652,23
6652,7248,6956,1612,996,652,24
6656,7256,6960,1612,996,652,23
6656,7264,6964,1612,996,652,23
6656,7268,6968,1612,996,652,24
6660,7276,6972,1612,996,652,23
6660,7280,6976,1612,996,652,24
6660,7284,6980,1612,996,652,23
6664,7292,6984,1612,996,652,23
6664,7300,6988,1616,996,652,24
6664,7300,6988,1612,996,652,23
6664,7308,6992,1612,996,652,23
6664,7312,6996,1612,996,652,24
6668,7324,7004,1616,1000,652,23
6672,7332,7004,1616,1000,652,23
6672,7336,7008,1616,1000,652,24
6668,7328,7004,1616,1000,652,23
6668,7320,7000,1616,1000,652,23
6660,7300,6984,1612,1000,652,24
6656,7284,6976,1612,996,652,23
6656,7272,6968,1612,996,652,24
6656,7260,6964,1612,996,652,23
6652,7248,6956,1612,996,652,23
6652,7240,6948,1612,996,652,24
6652,7236,6948,1612,996,652,23
6652,7232,6944,1612,996,652,23
6648,7228,6940,1612,996,652,24
6648,7232,6944,1612,996,652,23
6648,7232,6944,1612,996,652,23
6652,7236,6944,1612,996,652,24
6652,7240,6948,1612,996,652,23
6652,7240,6948,1612,996,652,23
6648,7244,6948,1612,996,652,24
6648,7248,6952,1612,996,652,23
6652,7256,6956,1612,996,652,24
6652,7260,6956,1616,996,652,23
6652,7264,6960,1616,996,652,23
6652,7272,6964,1612,996,652,24
6656,7276,6968,1616,996,652,23
6660,7284,6976,1612,996,652,23
6656,7288,6976,1616,996,652,24
6656,7292,6980,1616,1000,652,23
6656,7296,6980,1616,1000,652,23
6660,7308,6992,1616,1000,652,24
6660,7312,6992,1616,1000,652,23
6660,7316,6992,1616,1000,652,23
6660,7324,7000,1616,1000,652,24
6664,7332,7004,1616,1000,652,23
6660,7332,7004,1616,1000,652,24
6660,7336,7004,1616,1000,652,23
6664,7336,7004,1616,1000,652,23
6656,7324,6996,1616,1000,652,24
6652,7308,6984,1616,1000,652,23
6652,7292,6976,1616,1000,652,23
6648,7276,6964,1612,1000,652,24
6644,7260,6956,1612,1000,652,23
6644,7252,6948,1612,996,652,23
6648,7248,6948,1612,996,652,24
6644,7236,6940,1616,996,652,23
6644,7236,6940,1612,996,652,23
6644,7240,6944,1612,996,652,24
6644,7236,6944,1612,996,652,23
6644,7244,6948,1612,996,652,24
6644,7240,6944,1612,996,652,23
6644,7244,6948,1612,996,652,23
6648,7252,6952,1612,996,652,24
6644,7252,6948,1612,996,652,23
6648,7256,6956,1616,996,652,23
6648,7264,6956,1612,996,652,24
6648,7264,6960,1612,996,652,23
6648,7272,6964,1612,996,652,23
6652,7276,6968,1612,996,652,24
6652,7288,6972,1616,1000,652,23
6652,7288,6972,1616,1000,652,23
6656,7300,6980,1616,1000,652,24
6660,7308,6988,1616,1000,652,23
6660,7312,6988,1616,1000,652,24
6656,7316,6988,1616,1000,652,23
6660,7320,6992,1616,1000,652,23
6660,7328,7000,1616,1000,652,24
6660,7332,7000,1616,1000,652,23
6660,7340,7004,1616,1000,652,23
6660,7344,7004,1616,1000,652,24
6660,7348,7008,1616,1000,652,23
6656,7340,7004,1616,1000,652,23
6656,7328,6996,1616,1000,652,24
6648,7308,6984,1616,1000,652,23
6644,7292,6972,1616,1000,652,23
6644,7276,6964,1616,1000,652,24
6644,7264,6956,1612,1000,652,23
6644,7256,6948,1616,1000,652,24
6636,7244,6940,1612,996,652,23
6636,7236,6940,1612,996,652,23
6636,7236,6936,1612,996,652,24
6636,7232,6936,1612,996,652,23
6640,7240,6944,1612,996,652,23
6644,7244,6944,1612,996,652,24
6640,7240,6940,1612,996,652,23
6640,7248,6944,1612,996,652,23
6640,7248,6944,1612,996,652,24
6644,7256,6952,1612,996,652,23
6644,7256,6952,1612,1000,652,23
6648,7268,6956,1616,1000,652,24
6648,7272,6960,1616,1000,652,23
6652,7280,6968,1616,1000,652,24
6652,7288,6972,1616,1000,652,23
6652,7288,6968,1612,1000,652,23
6652,7296,6976,1612,1000,652,24
6652,7300,6976,1616,1000,652,23
6652,7304,6980,1616,1000,652,23
6656,7312,6988,1616,1000,652,24
6656,7320,6992,1616,1000,652,23
6656,7324,6996,1616,1000,652,23
6660,7332,7000,1616,1000,652,24
6660,7340,7004,1616,1000,652,23
6664,7348,7008,1616,1004,656,23
6660,7348,7008,1616,1004,656,24
6664,7348,7008,1616,1004,656,23
6660,7336,7000,1616,1004,656,24
6656,7324,6996,1616,1000,656,23
6652,7308,6984,1616,1000,652,23
6656,7304,6980,1616,1000,652,24
6652,7288,6972,1616,1000,652,23
6648,7280,6968,1616,1000,652,23
6644,7272,6960,1616,1000,652,24
6644,7268,6956,1616,1000,652,23
6644,7264,6956,1616,1000,652,23
6648,7268,6956,1616,1000,652,24
6644,7268,6956,1612,1000,652,23
6648,7276,6964,1616,1000,652,23
6652,7280,6968,1616,1000,652,24
6652,7284,6968,1616,1000,652,23
6648,7284,6968,1616,1000,652,24
6652,7292,6972,1616,1000,652,23
6652,7292,6972,1616,1000,652,23
6648,7296,6976,1616,1000,652,24
6652,7300,6976,1616,1000,652,23
6652,7308,6984,1616,1000,652,23
6656,7316,6988,1616,1000,652,24
6656,7324,6992,1616,1000,652,23
6660,7332,6996,1616,1000,656,23
6664,7344,7008,1616,1000,652,24
6668,7352,7012,1616,1000,656,23
6668,7356,7016,1616,1000,652,23
6660,7352,7012,1616,1000,652,24
6664,7364,7020,1616,1004,656,23
6664,7368,7020,1616,1004,656,24
6668,7376,7024,1616,1004,656,23
6664,7376,7024,1616,1004,656,23
6664,7380,7028,1616,1004,656,24
6660,7372,7020,1616,1004,656,23
6660,7364,7020,1616,1004,656,23
6660,7356,7012,1616,1004,656,24
6656,7340,7004,1616,1004,656,23
6652,7328,6996,1616,1000,656,23
6656,7324,6996,1616,1000,652,24
6656,7316,6988,1616,1000,652,23
6660,7316,6992,1616,1000,652,23
6656,7312,6988,1616,1000,652,24
6656,7312,6988,1616,1000,652,23
6656,7316,6988,1616,1000,652,24
6656,7316,6988,1616,1000,652,23
6660,7320,6992,1612,1000,652,23
6656,7320,6988,1616,1000,652,24
6660,7324,6996,1616,1000,652,23
6660,7328,6996,1616,1000,652,23
6664,7336,7004,1616,1000,652,24
6664,7340,7004,1616,1000,652,23
6664,7340,7008,1616,1000,656,23
6664,7348,7008,1616,1000,652,24
6664,7352,7012,1616,1000,652,23
6660,7356,7012,1616,1000,656,23
6664,7364,7020,1616,1004,656,24
6668,7368,7024,1616,1004,656,23
6664,7372,7024,1616,1004,656,24
6672,7384,7032,1616,1004,656,23
6672,7388,7036,1616,1004,656,23
6672,7396,7040,1616,1004,656,24
6672,7400,7044,1616,1004,656,23
6676,7408,7048,1616,1004,656,23
6672,7408,7048,1616,1004,656,24
6672,7408,7048,1616,1004,656,23
6672,7404,7044,1616,1004,656,23
6668,7388,7032,1616,1004,656,24
6668,7380,7032,1616,1004,656,23
6664,7368,7020,1616,1004,656,23
6660,7352,7012,1616,1000,656,24
6660,7344,7008,1616,1000,652,23
6660,7340,7004,1616,1000,656,24
6660,7336,7000,1616,1000,652,23
6660,7332,7000,1616,1000,652,23
6660,7336,7004,1616,1000,652,24
6660,7340,7004,1616,1000,652,23
6656,7336,7000,1612,1000,652,23
6656,7336,7000,1616,1000,652,24
6660,7344,7004,1612,1000,652,23
6660,7344,7004,1616,1000,652,23
6660,7344,7008,1616,1000,652,24
6656,7348,7008,1612,1000,652,23
6660,7352,7012,1616,1000,652,23
6660,7356,7012,1616,1000,652,24
6660,7360,7012,1616,1000,652,23
6660,7364,7016,1616,1000,652,24
6660,7372,7020,1616,1000,652,23
6664,7380,7028,1616,1000,652,23
6668,7388,7032,1616,1000,652,24
6668,7392,7036,1616,1000,652,23
6672,7400,7044,1616,1004,652,23
6668,7400,7040,1616,1000,652,24
6672,7408,7044,1616,1004,656,23
6672,7412,7048,1616,1004,652,23
6672,7420,7052,1616,1004,652,24
6672,7420,7052,1616,1004,656,23
6668,7412,7044,1616,1004,656,23
6664,7404,7040,1616,1004,656,24
6660,7392,7032,1616,1004,656,23
6660,7376,7024,1616,1000,652,24
6656,7364,7016,1616,1000,652,23
6656,7356,7012,1616,1000,652,23
6652,7344,7004,1612,1000,652,24
6652,7340,7000,1612,1000,652,23
6652,7336,6996,1616,1000,652,23
6652,7336,6996,1616,1000,652,24
6652,7336,6996,1616,1000,652,23
6648,7332,6996,1616,1000,652,23
6652,7340,6996,1616,1000,652,24
6648,7340,6996,1616,1000,652,23
6648,7340,7000,1616,1000,652,23
6648,7344,7000,1616,1000,652,24
6652,7348,7004,1616,1000,652,23
6652,7352,7008,1616,1000,652,23
6656,7360,7012,1616,1000,652,24
6656,7368,7016,1616,1000,652,23
6656,7368,7016,1616,1000,652,24
6660,7376,7024,1616,1000,652,23
6660,7380,7024,1616,1000,652,23
6656,7380,7024,1616,1000,652,24
6656,7388,7028,1616,1000,652,23
6656,7392,7028,1616,1000,652,23
6660,7400,7036,1616,1000,652,24
6664,7408,7040,1616,1000,652,23
6668,7416,7048,1616,1000,652,23
6668,7424,7052,1616,1004,656,24
6664,7420,7048,1616,1004,656,23
6664,7420,7052,1616,1004,656,23
6660,7412,7044,1616,1004,656,24
6660,7404,7040,1616,1004,656,23
6660,7396,7032,1616,1004,656,24
6656,7380,7024,1616,1000,652,23
6656,7368,7016,1616,1000,652,23
6652,7360,7012,1612,1000,652,24
6648,7348,7004,1616,1000,652,23
6648,7340,7000,1612,1000,652,23
6644,7332,6992,1612,996,652,24
6644,7332,6992,1612,996,652,23
6644,7332,6992,1612,1000,652,23
6648,7336,6996,1612,996,652,24
6644,7336,6996,1612,996,652,23
6644,7336,6996,1612,996,652,23
6648,7340,7000,1612,1000,652,24
6648,7344,7000,1612,996,652,23
6652,7348,7004,1616,1000,652,23
6652,7356,7008,1612,1000,652,24
6652,7356,7008,1612,1000,652,23
6648,7356,7008,1612,1000,652,24
6648,7360,7012,1612,1000,652,23
6652,7368,7016,1616,1000,652,23
6656,7376,7020,1612,1000,652,24
6656,7380,7024,1616,1000,652,23
6660,7388,7032,1616,1000,652,23
6656,7388,7028,1616,1000,652,24
6656,7392,7032,1616,1000,652,23
6652,7396,7032,1612,1000,652,23
6656,7400,7036,1616,1000,652,24
6656,7408,7040,1612,1000,652,23
6656,7412,7040,1616,1000,652,24
6656,7408,7040,1612,1000,652,23
6652,7400,7036,1616,1000,652,23
6652,7392,7028,1612,1000,652,24
6648,7376,7016,1612,1000,652,23
6652,7368,7016,1612,1000,652,23
6648,7352,7004,1612,996,652,24
6640,7336,6992,1612,996,652,23
6640,7328,6988,1612,996,652,23
6636,7320,6984,1612,996,652,24
6632,7308,6976,1612,996,652,23
6640,7312,6980,1612,996,652,23
6640,7312,6980,1612,996,652,24
6640,7312,6980,1612,996,652,23
6636,7312,6976,1612,996,652,23
6636,7312,6980,1612,996,652,24
6636,7316,6980,1612,996,652,23
6636,7316,6984,1612,996,652,24
6636,7320,6984,1612,996,652,23
6636,7320,6984,1612,996,652,23
6636,7328,6988,1612,996,652,24
6636,7328,6988,1612,996,652,23
6640,7336,6992,1612,996,652,23
6640,7340,6996,1612,996,652,24
6644,7348,7004,1612,996,652,23
6644,7352,7004,1612,996,652,23
6644,7356,7008,1612,1000,652,24
6644,7360,7008,1612,996,652,23
6648,7372,7016,1612,996,652,23
6648,7376,7016,1612,996,652,24
6648,7376,7020,1612,996,652,23
6648,7380,7020,1612,1000,652,24
6652,7388,7028,1612,1000,652,23
6648,7388,7024,1612,1000,652,23
6648,7384,7024,1612,1000,652,24
6644,7372,7016,1612,1000,652,23
6644,7364,7012,1612,1000,652,23
6640,7348,7000,1612,996,652,24
6636,7332,6992,1612,996,652,23
6632,7316,6980,1612,996,652,23
6628,7300,6968,1612,996,652,24
6632,7296,6968,1612,996,652,23
6632,7288,6964,1612,996,652,23
6628,7280,6960,1612,996,652,24
6632,7284,6964,1612,996,652,23
6632,7284,6964,1612,996,652,24
6632,7284,6964,1612,996,652,23
6632,7288,6964,1612,996,652,23
6628,7284,6964,1612,996,652,24
6636,7292,6968,1612,996,652,23
6636,7292,6968,1612,996,652,23
6640,7300,6976,1612,996,652,24
6636,7300,6972,1612,996,652,23
6632,7300,6972,1612,996,652,23
6636,7304,6976,1612,996,652,24
6636,7308,6976,1612,996,652,23
6636,7316,6984,1612,996,652,23
6640,7324,6988,1612,996,652,24
6640,7328,6988,1612,996,652,23
6636,7328,6988,1612,996,652,24
6640,7336,6996,1612,996,652,23
6644,7340,7000,1612,996,652,23
6648,7348,7004,1612,996,652,24
6648,7352,7008,1616,1000,652,23
6648,7360,7012,1616,1000,652,23
6652,7368,7016,1616,1000,652,24
6648,7368,7016,1612,1000,652,23
6652,7372,7020,1612,1000,652,23
6648,7360,7012,1612,1000,652,24
6644,7352,7008,1612,1000,652,23
6644,7336,6996,1616,1000,652,23
6636,7312,6980,1612,996,652,24
6636,7300,6976,1612,996,652,23
6632,7284,6964,1612,996,652,24
6636,7280,6964,1612,996,652,23
6632,7272,6960,1612,996,652,23
6628,7264,6952,1612,996,652,24
6628,7260,6948,1612,996,652,23
6628,7256,6948,1612,996,652,23
6636,7268,6956,1612,996,652,24
6632,7264,6956,1612,996,652,23
6632,7264,6952,1612,996,652,23
6632,7264,6952,1612,996,652,24
6632,7268,6956,1612,996,652,23
6632,7264,6952,1612,996,652,23
6632,7268,6956,1612,996,652,24
6632,7272,6956,1612,996,652,23
6636,7280,6964,1612,996,652,23
6636,7284,6968,1612,996,652,24
6636,7284,6968,1612,996,652,23
6640,7292,6972,1612,996,652,24
6644,7300,6980,1612,996,652,23
6648,7308,6984,1612,996,652,23
6644,7312,6984,1616,996,652,24
6644,7316,6988,1616,1000,652,23
6648,7320,6992,1616,1000,652,23
6652,7328,6996,1616,1000,652,24
6648,7328,6996,1616,1000,652,23
6648,7336,7000,1616,1000,652,23
6652,7340,7004,1616,1000,652,24
6648,7340,7004,1616,1000,652,23
6648,7340,7004,1616,1000,652,23
6648,7332,6996,1616,1000,652,24
6644,7320,6992,1616,1000,652,23
6640,7300,6980,1612,1000,652,24
6636,7284,6964,1612,996,652,23
6632,7268,6956,1616,1000,652,23
6632,7256,6948,1612,996,652,24
6636,7248,6948,1612,996,652,23
6632,7240,6940,1612,996,652,23
6624,7228,6932,1612,996,652,24
6624,7228,6932,1612,996,652,23
6628,7232,6936,1612,996,652,23
6632,7236,6936,1612,996,652,24
6632,7236,6940,1612,996,652,23
6632,7240,6940,1612,996,652,23
6640,7248,6948,1612,996,652,24
6632,7240,6940,1612,996,652,23
6632,7244,6944,1612,996,652,24
6636,7248,6944,1612,996,652,23
6632,7244,6944,1612,996,652,23
6632,7248,6944,1612,996,652,24
6636,7256,6952,1612,996,652,23
6632,7260,6952,1612,996,652,23
6636,7264,6956,1612,996,652,24
6636,7272,6960,1612,996,652,23
6636,7276,6960,1612,996,652,23
6636,7276,6960,1612,996,652,24
6636,7284,6964,1612,996,652,23
6640,7292,6972,1612,1000,652,23
6640,7292,6972,1612,1000,652,24
6640,7300,6976,1612,1000,652,23
6644,7304,6980,1612,1000,652,24
6648,7312,6988,1616,1000,652,23
6644,7316,6984,1612,1000,652,23
6644,7312,6984,1612,1000,652,24
6644,7304,6980,1616,1000,652,23
6640,7288,6968,1612,1000,652,23
6636,7268,6956,1616,1000,652,24
6632,7248,6944,1612,996,652,23
6624,7228,6932,1612,996,652,23
6624,7216,6924,1612,996,652,24
6624,7208,6920,1612,996,652,23
6620,7200,6912,1612,996,652,23
6620,7196,6908,1612,996,652,24
6616,7192,6908,1612,996,652,23
6624,7196,6912,1612,996,652,24
6624,7200,6912,1612,996,652,23
6624,7200,6912,1612,996,652,23
6624,7200,6916,1612,996,652,24
6624,7204,6916,1612,996,652,23
6628,7208,6920,1612,996,652,23
6624,7204,6916,1612,996,652,24
6624,7212,6920,1612,996,652,23
6624,7216,6924,1612,996,652,23
6628,7220,6924,1616,1000,652,24
6632,7228,6932,1612,996,652,23
6632,7236,6936,1612,996,652,23
6632,7236,6936,1612,1000,652,24
6632,7240,6940,1612,996,652,23
6632,7244,6940,1612,1000,652,24
6632,7248,6944,1612,1000,652,23
6632,7256,6948,1616,1000,652,23
6636,7260,6948,1616,1000,652,24
6640,7272,6960,1616,1000,652,23
6636,7272,6960,1616,1000,652,23
6640,7280,6964,1616,1000,652,24
6640,7284,6968,1616,1000,652,23
6640,7288,6968,1616,1000,652,23
6636,7288,6968,1616,1000,652,24
6636,7280,6964,1616,1000,652,23
6632,7264,6952,1612,1000,652,23
6628,7244,6940,1612,1000,652,24
6624,7224,6928,1612,1000,652,23
6624,7208,6920,1612,1000,652,24
6616,7192,6908,1612,996,652,23
6616,7180,6900,1612,996,652,23
6612,7168,6892,1612,996,652,24
6616,7168,6892,1612,996,652,23
6616,7164,6888,1612,996,652,23
6616,7164,6888,1612,996,652,24
6616,7164,6892,1612,996,652,23
6612,7164,6888,1612,996,652,23
6616,7164,6892,1612,996,652,24
6616,7168,6892,1612,996,652,23
6620,7172,6896,1612,996,652,23
6616,7168,6892,1612,996,652,24
6616,7172,6896,1612,996,652,23
6616,7176,6896,1612,996,652,23
6616,7180,6900,1612,996,652,24
6620,7188,6904,1612,996,652,23
6624,7192,6908,1612,996,652,24
6624,7200,6912,1612,996,652,23
6620,7196,6908,1612,996,652,23
6620,7204,6912,1612,996,652,24
6624,7212,6920,1612,996,652,23
6628,7220,6924,1612,1000,652,23
6628,7228,6928,1612,996,652,24
6628,7232,6932,1612,1000,652,23
6632,7240,6936,1612,1000,652,23
6632,7244,6940,1612,1000,652,24
6628,7244,6936,1612,1000,652,23
6632,7252,6944,1616,1000,652,23
6632,7256,6948,1616,1000,652,24
6632,7256,6948,1616,1000,652,23
6632,7248,6944,1616,1000,652,24
6628,7232,6932,1616,1000,652,23
6624,7216,6920,1616,1000,652,23
6620,7196,6908,1612,1000,652,24
6620,7180,6900,1616,1000,652,23
6612,7164,6888,1612,1000,652,23
6612,7152,6884,1612,996,652,24
6612,7144,6876,1612,996,652,23
6612,7136,6876,1612,996,652,23
6612,7136,6872,1612,996,652,24
6612,7140,6876,1612,996,652,23
6612,7140,6876,1612,996,652,23
6612,7144,6876,1612,996,652,24
6612,7140,6876,1612,996,652,23
6612,7144,6880,1612,996,652,24
6616,7148,6880,1612,996,652,23
6612,7152,6880,1612,996,652,23
6616,7156,6884,1612,996,652,24
6616,7156,6884,1612,996,652,23
6620,7164,6892,1612,996,652,23
6616,7168,6892,1612,996,652,24
6620,7176,6896,1612,1000,652,23
6620,7180,6904,1612,996,652,23
6620,7184,6904,1616,1000,652,24
6624,7192,6908,1612,1000,652,23
6624,7200,6916,1612,1000,652,23
6628,7204,6916,1612,1000,652,24
6628,7212,6920,1612,1000,652,23
6628,7216,6924,1612,1000,652,24
6632,7224,6928,1616,1000,652,23
6632,7228,6932,1616,1000,652,23
6632,7232,6936,1612,1000,652,24
6632,7240,6940,1616,1000,652,23
6636,7244,6944,1616,1000,652,23
6636,7244,6944,1616,1000,652,24
6636,7236,6940,1616,1000,652,23
6632,7220,6928,1616,1000,652,23
6628,7200,6916,1612,1000,652,24
6628,7184,6908,1612,1000,652,23
6620,7168,6896,1612,1000,652,23
6620,7160,6892,1612,1000,652,24
6620,7148,6884,1612,1000,652,23
6616,7144,6880,1616,1000,652,24
6620,7140,6880,1612,996,652,23
6620,7140,6880,1612,996,652,23
6616,7140,6880,1612,1000,652,24
6620,7144,6880,1616,1000,652,23
6620,7144,6880,1612,996,652,23
6620,7148,6884,1612,996,652,24
6620,7148,6884,1612,996,652,23
6620,7152,6884,1612,996,652,23
6620,7152,6888,1612,1000,652,24
6620,7160,6892,1612,1000,652,23
6624,7164,6896,1612,1000,652,23
6628,7172,6900,1612,1000,652,24
6628,7176,6904,1612,1000,652,23
6628,7184,6908,1612,1000,652,23
6624,7184,6908,1612,1000,652,24
6632,7192,6912,1612,1000,652,23
6636,7200,6920,1612,1000,652,24
6636,7208,6924,1612,1000,652,23
6632,7208,6924,1616,1000,652,23
6636,7216,6928,1612,1000,652,24
6640,7224,6936,1616,1000,652,23
6640,7228,6940,1616,1000,652,23
6640,7236,6940,1616,1000,652,24
6640,7236,6944,1616,1000,652,23
6640,7240,6944,1616,1000,652,23
6640,7240,6944,1616,1000,652,24
6636,7228,6936,1616,1000,656,23
6632,7216,6928,1612,1000,652,23
6632,7200,6920,1612,1000,652,24
6628,7184,6908,1612,1000,652,23
6624,7168,6900,1612,1000,652,24
6624,7156,6892,1612,1000,652,23
6620,7144,6884,1612,1000,652,23
6616,7132,6876,1612,1000,652,24
6616,7128,6872,1616,1000,652,23
6616,7128,6872,1612,1000,652,23
6616,7132,6876,1612,996,652,24
6616,7132,6872,1612,996,652,23
6616,7136,6876,1612,996,652,23
6616,7136,6876,1612,996,652,24
6620,7140,6880,1612,1000,652,23
6620,7144,6884,1612,996,652,23
6616,7140,6880,1612,1000,652,24
6620,7144,6884,1612,1000,652,23
6620,7148,6884,1612,1000,652,23
6624,7156,6888,1612,1000,652,24
6624,7160,6892,1612,1000,652,23
6624,7168,6896,1612,1000,652,24
6624,7172,6900,1612,1000,652,23
6624,7176,6900,1612,1000,652,23
6628,7184,6908,1612,1000,652,24
6628,7188,6908,1612,1000,652,23
6632,7192,6912,1612,1000,652,23
6628,7200,6916,1612,1000,652,24
6628,7204,6916,1616,1000,652,23
6632,7212,6924,1612,1000,652,23
6632,7216,6928,1612,1000,652,24
6632,7216,6924,1616,1000,652,23
6636,7224,6932,1616,1000,652,23
6628,7212,6924,1612,1000,652,24
6628,7204,6920,1612,1000,652,23
6624,7188,6908,1612,1000,652,24
6620,7168,6896,1612,1000,652,23
6616,7152,6884,1612,1000,652,23
6608,7136,6876,1612,1000,652,24
6608,7124,6864,1612,1000,652,23
6608,7120,6864,1612,996,652,23
6608,7112,6860,1612,996,652,24
6612,7116,6860,1612,996,652,23
6612,7116,6864,1612,996,652,23
6612,7120,6864,1612,996,652,24
6612,7120,6864,1612,996,652,23
6608,7120,6864,1612,996,652,23
6608,7124,6864,1612,996,652,24
6608,7128,6868,1612,996,652,23
6608,7128,6868,1612,996,652,24
6612,7136,6872,1612,996,652,23
6612,7140,6876,1612,996,652,23
6612,7140,6876,1612,996,652,24
6612,7148,6880,1612,1000,652,23
6612,7152,6884,1612,996,652,23
6616,7160,6888,1612,996,652,24
6616,7164,6888,1612,1000,652,23
6616,7176,6896,1612,1000,652,23
6620,7180,6900,1612,1000,652,24
6620,7188,6904,1612,1000,652,23
6620,7196,6908,1612,1000,652,23
6624,7204,6916,1612,1000,652,24
6624,7204,6916,1612,1000,652,23
6628,7216,6924,1612,1000,652,24
6632,7228,6932,1612,1000,652,23
6632,7228,6932,1612,1000,652,23
6632,7232,6932,1612,1000,652,24
6620,7212,6920,1612,1000,652,23
6620,7200,6912,1612,1000,652,23
6616,7184,6904,1612,1000,652,24
6616,7168,6892,1612,1000,652,23
6608,7152,6880,1612,996,652,23
6608,7144,6876,1612,996,652,24
6612,7140,6876,1612,996,652,23
6608,7132,6872,1612,996,652,23
6604,7124,6864,1612,996,652,24
6604,7124,6864,1612,996,652,23
6608,7128,6868,1612,996,652,23
6612,7136,6872,1612,996,652,24
6612,7140,6876,1612,996,652,23
6612,7148,6880,1612,996,652,24
6612,7148,6880,1612,996,652,23
6612,7152,6884,1612,996,652,23
6612,7156,6884,1612,996,652,24
6616,7164,6888,1612,996,652,23
6620,7172,6896,1612,996,652,23
6616,7172,6896,1612,996,652,24
6620,7180,6900,1612,996,652,23
6620,7184,6904,1616,1000,652,23
6616,7188,6904,1612,996,652,24
6616,7192,6908,1612,996,652,23
6620,7200,6912,1612,996,652,23
6620,7208,6916,1612,996,652,24
6620,7212,6916,1612,1000,652,23
6624,7224,6928,1612,1000,652,24
6624,7228,6932,1616,1000,652,23
6628,7240,6936,1616,1000,652,23
6628,7244,6940,1616,1000,652,24
6628,7252,6944,1616,1000,652,23
6628,7256,6948,1616,1000,652,23
6624,7252,6944,1616,1000,652,24
6624,7248,6940,1616,1000,652,23
6628,7240,6936,1616,1000,652,23
6620,7220,6924,1616,1000,652,24
6616,7204,6912,1616,1000,652,23
6612,7188,6904,1612,996,652,23
6616,7184,6904,1612,996,652,24
6608,7168,6888,1612,996,652,23
6604,7160,6884,1612,996,652,24
6604,7160,6884,1612,996,652,23
6608,7164,6888,1612,996,652,23
6616,7172,6892,1612,996,652,24
6616,7176,6896,1612,996,652,23
6608,7172,6892,1612,996,652,23
6612,7184,6900,1612,996,652,24
6612,7188,6900,1612,996,652,23
6616,7196,6908,1612,996,652,23
6616,7204,6912,1612,996,652,24
6620,7208,6916,1612,996,652,23
6620,7216,6920,1612,996,652,23
6624,7224,6928,1612,996,652,24
6620,7228,6928,1612,996,652,23
6624,7240,6932,1612,996,652,24
6628,7248,6940,1612,996,652,23
6624,7252,6940,1612,996,652,23
6624,7256,6944,1612,996,652,24
6624,7264,6948,1612,996,652,23
6624,7272,6952,1612,996,652,23
6624,7280,6956,1616,996,652,24
6632,7292,6968,1612,996,652,23
6632,7300,6968,1612,996,652,23
6636,7312,6980,1612,996,652,24
6636,7320,6980,1612,996,652,23
6636,7328,6988,1616,1000,652,23
6636,7328,6988,1612,1000,652,24
6636,7320,6984,1612,1000,652,23
6632,7312,6980,1612,996,652,24
6632,7300,6972,1612,996,652,23
6628,7288,6960,1612,996,652,23
6628,7276,6960,1612,996,652,24
6624,7268,6952,1612,996,652,23
6624,7264,6948,1612,996,652,23
6624,7260,6948,1612,996,652,24
6624,7260,6948,1612,992,648,23
6628,7260,6948,1612,992,652,23
6624,7264,6948,1612,992,648,24
6624,7268,6952,1612,992,648,23
6620,7272,6948,1612,992,648,23
6620,7276,6952,1612,992,652,24
6620,7280,6952,1612,992,648,23
6620,7284,6956,1612,992,648,24
6624,7296,6964,1612,996,652,23
6624,7304,6968,1612,996,652,23
6628,7312,6976,1612,996,652,24
6632,7324,6980,1612,996,652,23
6632,7328,6984,1612,996,652,23
6632,7340,6992,1612,996,652,24
6636,7348,6996,1612,996,652,23
6640,7360,7004,1612,996,652,23
6636,7360,7008,1612,996,652,24
6640,7372,7012,1616,996,652,23
6648,7384,7024,1616,996,652,23
6644,7388,7024,1612,996,652,24
6648,7400,7032,1616,996,652,23
6648,7404,7032,1616,1000,652,24
6648,7412,7040,1616,1000,652,23
6652,7420,7048,1616,1000,652,23
6648,7420,7044,1616,1000,652,24
6648,7416,7044,1616,1000,652,23
6644,7408,7036,1616,1000,652,23
6644,7396,7028,1616,1000,652,24
6640,7384,7020,1616,996,652,23
6640,7376,7016,1612,996,652,23
6640,7372,7016,1616,996,652,24
6636,7360,7008,1612,996,652,23
6640,7364,7012,1612,996,652,23
6636,7356,7004,1612,996,652,24
6636,7352,7004,1612,996,652,23
6636,7360,7004,1616,996,652,24
6640,7368,7012,1612,996,652,23
6648,7376,7020,1612,996,652,23
6648,7380,7020,1612,996,652,24
6640,7380,7020,1612,996,652,23
6644,7384,7024,1616,996,652,23
6644,7388,7024,1616,996,652,24
6652,7400,7036,1616,996,652,23
6652,7408,7040,1616,996,652,23
6648,7412,7040,1616,996,652,24
6648,7416,7044,1612,996,652,23
6652,7424,7048,1612,996,652,23
6652,7432,7052,1612,996,652,24
6652,7436,7056,1616,996,652,23
6656,7444,7060,1616,996,652,24
6656,7452,7064,1616,1000,652,23
6656,7456,7068,1616,1000,652,23
6656,7460,7068,1616,1000,652,24
6660,7472,7076,1616,1000,652,23
6664,7484,7084,1616,1000,652,23
6664,7488,7088,1616,1000,652,24
6660,7492,7088,1616,1000,652,23
6664,7504,7096,1616,1000,652,23
6664,7504,7096,1616,1000,652,24
6664,7504,7096,1616,1000,652,23
6664,7500,7092,1616,1000,652,23
6664,7492,7088,1616,1000,652,24
6656,7480,7080,1616,1000,652,23
6652,7468,7072,1616,1000,652,24
6652,7464,7068,1616,1000,652,23
6648,7456,7064,1616,1000,652,23
6648,7452,7064,1616,996,652,24
6648,7452,7060,1616,1000,652,23
6648,7452,7060,1616,996,652,23
6652,7460,7068,1616,996,652,24
6652,7460,7068,1616,1000,652,23
6652,7464,7068,1616,1000,652,23
6656,7468,7072,1616,1000,652,24
6656,7476,7076,1616,1000,652,23
6656,7480,7080,1616,1000,652,23
6660,7488,7084,1616,1000,652,24
6660,7492,7088,1616,1000,652,23
6664,7500,7092,1616,1000,652,23
6660,7504,7096,1616,1000,652,24
6660,7508,7096,1616,1000,652,23
6660,7512,7096,1616,1000,652,24
6660,7520,7104,1616,1000,652,23
6664,7528,7108,1616,1000,652,23
6664,7532,7112,1616,1000,652,24
6664,7540,7116,1616,1004,656,23
6664,7544,7120,1620,1004,656,23
6668,7556,7124,1620,1004,656,24
6668,7556,7124,1616,1004,656,23
6668,7564,7132,1616,1004,656,23
6672,7572,7136,1616,1004,656,24
6672,7580,7140,1620,1004,656,23
6672,7584,7140,1616,1004,656,23
6672,7588,7144,1620,1004,656,24
6668,7588,7144,1620,1004,656,23
6668,7580,7140,1620,1004,656,24
6668,7584,7140,1616,1004,656,23
6668,7576,7132,1616,1004,656,23
6664,7564,7132,1616,1004,656,24
6664,7560,7124,1616,1004,656,23
6664,7560,7124,1616,1004,656,23
6660,7552,7116,1616,1004,656,24
6664,7556,7124,1616,1004,656,23
6664,7556,7124,1616,1004,656,23
6664,7560,7124,1616,1000,656,24
6668,7568,7128,1616,1004,656,23
6664,7564,7128,1616,1004,656,23
6664,7568,7128,1616,1004,656,24
6664,7572,7132,1620,1004,656,23
6664,7576,7132,1620,1004,656,24
6664,7580,7136,1620,1004,656,23
6664,7584,7140,1620,1004,656,23
6664,7584,7140,1616,1004,656,24
6668,7596,7144,1620,1004,656,23
6664,7596,7144,1620,1004,656,23
6668,7604,7152,1620,1004,656,24
6668,7612,7156,1620,1004,656,23
6672,7624,7164,1620,1004,656,23
6672,7624,7164,1620,1004,656,24
6676,7636,7168,1620,1004,656,23
6672,7636,7168,1620,1004,656,23
6676,7648,7176,1620,1004,656,24
6676,7652,7180,1616,1004,656,23
6676,7656,7184,1620,1004,656,24
6676,7664,7184,1620,1008,656,23
6680,7668,7192,1620,1008,656,23
6676,7668,7188,1620,1008,656,24
6684,7680,7200,1620,1008,656,23
6672,7672,7188,1620,1008,656,23
6672,7668,7188,1620,1008,656,24
6672,7664,7184,1620,1008,656,23
6672,7660,7184,1620,1004,656,23
6664,7648,7172,1620,1004,656,24
6668,7648,7176,1616,1004,656,23
6668,7648,7172,1620,1004,656,23
6664,7644,7172,1620,1004,656,24
6668,7644,7172,1620,1004,656,23
6664,7640,7168,1620,1004,656,24
6664,7640,7168,1616,1004,656,23
6664,7648,7172,1620,1004,656,23
6664,7648,7176,1620,1004,656,24
6668,7656,7180,1616,1004,656,23
6668,7652,7180,1620,1004,656,23
6672,7664,7184,1620,1004,656,24
6664,7660,7180,1620,1004,656,23
6668,7664,7184,1620,1008,656,23
6672,7668,7188,1620,1004,656,24
6672,7676,7192,1620,1008,656,23
6672,7680,7192,1620,1008,656,23
6676,7688,7200,1620,1008,656,24
6676,7692,7200,1620,1008,656,23
6672,7692,7200,1620,1008,656,24
6672,7696,7204,1620,1008,656,23
6676,7708,7212,1620,1008,656,23
6676,7708,7212,1620,1008,656,24
6680,7716,7220,1620,1008,656,23
6676,7716,7216,1620,1008,656,23
6680,7728,7224,1620,1008,656,24
6680,7728,7224,1620,1008,656,23
6680,7732,7228,1620,1008,656,23
6680,7736,7228,1620,1008,656,24
6676,7736,7228,1620,1008,656,23
6680,7736,7228,1620,1008,656,23
6676,7732,7224,1620,1008,656,24
6676,7728,7224,1620,1008,656,23
6676,7724,7220,1620,1008,656,23
6672,7716,7216,1620,1008,656,24
6668,7708,7208,1620,1008,656,23
6672,7704,7208,1620,1008,656,24
6672,7700,7208,1620,1008,656,23
6668,7696,7204,1620,1008,656,23
6668,7696,7204,1616,1008,656,24
6668,7696,7204,1620,1008,656,23
6664,7692,7200,1616,1008,656,23
6672,7696,7204,1616,1008,656,24
6668,7696,7204,1616,1008,656,23
6668,7700,7204,1620,1008,656,23
6668,7700,7204,1620,1008,656,24
6672,7704,7208,1620,1008,656,23
6672,7708,7212,1620,1008,656,23
6672,7712,7212,1620,1008,656,24
6676,7716,7216,1620,1008,656,23
6676,7716,7216,1620,1008,656,24
6676,7724,7224,1620,1008,656,23
6680,7728,7228,1620,1008,656,23
6680,7732,7228,1620,1012,660,24
6684,7740,7236,1620,1012,660,23
6684,7744,7236,1620,1012,660,23
6680,7744,7236,1620,1012,660,24
6684,7748,7240,1620,1012,660,23
6684,7752,7240,1620,1012,660,23
6676,7748,7236,1620,1012,660,24
6680,7756,7244,1620,1012,660,23
6684,7760,7248,1620,1012,660,23
6684,7764,7248,1620,1012,660,24
6680,7764,7248,1620,1012,660,23
6680,7764,7248,1620,1012,660,24
6676,7752,7240,1620,1012,660,23
6676,7748,7236,1620,1012,660,23
6676,7740,7232,1620,1012,660,24
6672,7728,7224,1620,1012,660,23
6672,7720,7220,1620,1012,660,23
6672,7716,7216,1620,1012,660,24
6668,7708,7212,1620,1012,660,23
6668,7704,7208,1620,1012,660,23
6664,7696,7204,1620,1012,660,24
6668,7700,7208,1620,1012,660,23
6668,7696,7208,1620,1012,660,23
6668,7700,7208,1620,1012,660,24
6668,7696,7204,1620,1012,660,23
6668,7696,7204,1620,1012,660,24
6668,7700,7208,1620,1012,660,23
6668,7700,7208,1620,1012,660,23
6672,7700,7208,1620,1012,660,24
6668,7700,7208,1620,1012,660,23
6668,7700,7208,1620,1012,660,23
6668,7700,7208,1620,1012,660,24
6668,7700,7208,1620,1012,660,23
6668,7708,7212,1620,1012,660,23
6672,7708,7212,1620,1012,660,24
6672,7712,7216,1620,1012,660,23
6672,7716,7220,1620,1012,660,23
6676,7720,7224,1620,1012,660,24
6672,7720,7220,1620,1012,660,23
6676,7728,7224,1620,1012,660,23
6680,7736,7232,1620,1016,660,24
6680,7736,7232,1620,1012,660,23
6672,7732,7228,1620,1012,660,24
6672,7736,7232,1620,1012,660,23
6676,7740,7232,1620,1016,660,23
6676,7744,7236,1620,1016,660,24
6672,7736,7228,1620,1016,660,23
6672,7728,7228,1620,1016,660,23
6672,7716,7220,1620,1016,660,24
6668,7704,7212,1620,1012,660,23
6664,7692,7200,1620,1012,660,23
6668,7684,7200,1620,1012,660,24
6664,7672,7192,1620,1012,660,23
6660,7664,7188,1620,1012,660,23
6656,7656,7180,1620,1012,660,24
6660,7652,7180,1620,1012,660,23
6660,7652,7180,1620,1012,660,24
6664,7652,7180,1620,1012,660,23
6660,7648,7180,1620,1012,660,23
6660,7644,7176,1620,1012,660,24
6660,7644,7176,1620,1012,660,23
6660,7640,7176,1620,1012,660,23
6664,7644,7176,1620,1012,660,24
6660,7644,7176,1620,1012,660,23
6660,7640,7176,1620,1012,660,23
6664,7644,7176,1620,1012,660,24
6664,7644,7176,1620,1012,660,23
6664,7644,7176,1620,1016,660,23
6664,7648,7180,1620,1012,660,24
6668,7652,7184,1620,1012,660,23
6668,7652,7184,1620,1012,660,24
6660,7648,7180,1620,1016,660,23
6668,7656,7184,1620,1016,660,23
6668,7656,7188,1620,1016,660,24
6664,7656,7184,1620,1016,660,23
6668,7660,7188,1620,1016,660,23
6668,7660,7188,1620,1016,660,24
6668,7660,7188,1620,1016,660,23
6668,7668,7192,1620,1016,660,23
6672,7672,7196,1620,1016,660,24
6664,7660,7188,1620,1016,660,23
6668,7660,7188,1620,1016,660,23
6668,7644,7180,1620,1016,660,24
6664,7628,7168,1620,1016,660,23
6664,7616,7168,1620,1016,660,24
6660,7600,7156,1620,1016,660,23
6656,7580,7140,1620,1016,660,23
6656,7572,7136,1620,1016,660,24
6652,7560,7128,1620,1016,660,23
6652,7556,7124,1620,1012,660,23
6652,7548,7120,1620,1012,660,24
