5123,4475,3797,-5,-13,-14,10240,-1.00,-1.00,1.27,1.06,5128,4490,3812,263,168,185,73,0,0
5123,4477,3798,-5,-14,-14,10240,-1.00,-1.00,1.27,1.06,5128,4489,3811,263,168,185,73,0,0
5123,4476,3798,-5,-13,-14,10240,-1.00,-1.00,1.27,1.06,5128,4489,3811,263,168,185,73,0,0
5123,4476,3796,-5,-13,-13,10240,-1.00,-1.00,1.27,1.06,5128,4488,3810,263,168,185,73,0,0
5123,4474,3795,-5,-12,-13,10240,-1.00,-1.00,1.27,1.06,5128,4488,3810,263,168,185,73,0,0
5123,4475,3795,-5,-13,-14,10240,-1.00,-1.00,1.27,1.06,5128,4488,3809,263,168,185,73,0,0
5123,4472,3794,-4,-13,-14,10240,-1.00,-1.00,1.27,1.06,5127,4487,3809,263,168,185,73,0,0
5123,4465,3789,-4,-15,-15,10240,-1.00,-1.00,1.27,1.06,5127,4486,3808,263,168,185,73,0,0
5123,4461,3787,-4,-18,-17,10240,-1.00,-1.00,1.27,1.06,5127,4485,3808,263,168,185,73,0,0
5123,4462,3787,-4,-20,-18,10240,-1.00,-1.00,1.27,1.06,5127,4485,3807,263,168,185,73,0,0
5123,4462,3788,-4,-22,-19,10240,-1.00,-1.00,1.27,1.06,5127,4484,3806,263,168,185,73,0,0
5123,4465,3789,-4,-21,-19,10240,-1.00,-1.00,1.27,1.06,5127,4483,3806,263,168,185,73,0,0
5123,4468,3791,-4,-19,-17,10240,-1.00,-1.00,1.27,1.06,5127,4483,3805,263,168,185,73,0,0
5123,4467,3790,-4,-17,-16,10240,-1.00,-1.00,1.27,1.06,5127,4482,3805,263,168,185,73,0,0
5123,4467,3790,-3,-15,-15,10240,-1.00,-1.00,1.27,1.06,5126,4482,3804,263,168,185,73,0,0
5123,4468,3791,-3,-14,-14,10240,-1.00,-1.00,1.27,1.06,5126,4481,3804,263,168,185,73,0,0
5123,4471,3794,-3,-13,-12,10240,-1.00,-1.00,1.27,1.06,5126,4481,3803,263,168,185,73,0,0
5123,4477,3798,-3,-10,-10,10240,-1.00,-1.00,1.27,1.06,5126,4481,3803,263,168,185,73,0,0
5123,4478,3799,-3,-7,-7,10240,-1.00,-1.00,1.27,1.06,5126,4481,3803,263,168,185,73,0,0
5123,4480,3800,-3,-4,-5,10240,-1.00,-1.00,1.27,1.06,5126,4481,3803,263,168,185,73,0,0
5123,4481,3802,-3,-2,-3,10240,-1.00,-1.00,1.27,1.06,5126,4481,3803,263,168,185,73,0,0
5123,4484,3803,-3,0,-2,10240,-1.00,-1.00,1.27,1.06,5126,4481,3803,263,168,185,73,0,0
5123,4490,3809,-3,2,0,10240,-1.00,-1.00,1.27,1.06,5126,4481,3803,263,168,185,73,0,0
5123,4490,3808,-2,5,2,10240,-1.00,-1.00,1.27,1.06,5125,4481,3803,263,168,185,73,0,0
5123,4490,3807,-2,7,3,10240,-1.00,-1.00,1.27,1.06,5125,4482,3803,263,168,185,73,0,0
5123,4491,3809,-2,8,5,10240,-1.00,-1.00,1.27,1.06,5125,4482,3804,263,168,185,73,0,0
5123,4493,3810,-2,9,5,10240,-1.00,-1.00,1.27,1.06,5125,4482,3804,263,168,185,73,0,0
5125,4498,3815,-1,10,6,10240,-1.00,-1.00,1.27,1.06,5125,4483,3804,263,168,185,73,0,0
5129,4499,3816,0,12,8,10240,-1.00,-1.00,1.27,1.06,5125,4483,3805,263,168,185,73,0,0
5128,4498,3815,1,14,9,10240,-1.00,-1.00,1.27,1.06,5126,4484,3805,263,168,185,73,0,0
5129,4500,3816,2,15,10,10240,-1.00,-1.00,1.27,1.06,5126,4484,3805,263,168,185,73,0,0
5125,4496,3813,2,14,9,10240,-1.00,-1.00,1.27,1.06,5126,4485,3806,263,136,146,73,0,0
5123,4488,3806,0,11,7,10240,-1.00,-1.00,0.79,1.34,5125,4485,3806,263,136,146,73,0,0
5123,4484,3802,0,7,3,10240,-1.00,-1.00,0.79,1.34,5125,4485,3805,263,136,146,73,0,0
5123,4482,3801,-1,2,0,10240,-1.00,-1.00,0.79,1.34,5125,4485,3805,263,136,146,73,0,0
5123,4478,3798,-2,-2,-3,10240,-1.00,-1.00,0.79,1.34,5125,4485,3805,263,136,146,73,0,0
5123,4477,3797,-2,-4,-5,10240,-1.00,-1.00,0.79,1.34,5125,4484,3805,263,136,146,73,0,0
5123,4476,3798,-2,-6,-6,10240,-1.00,-1.00,0.79,1.34,5125,4484,3805,263,136,146,73,0,0
5123,4477,3798,-2,-7,-7,10240,-1.00,-1.00,0.79,1.34,5125,4484,3804,263,136,146,73,0,0
5123,4477,3797,-2,-7,-7,10240,-1.00,-1.00,0.79,1.34,5125,4484,3804,263,136,146,73,0,0
5123,4477,3796,-2,-7,-7,10240,-1.00,-1.00,0.79,1.34,5125,4483,3804,263,136,146,73,0,0
5123,4478,3798,-2,-6,-6,10240,-1.00,-1.00,0.79,1.34,5125,4483,3804,263,136,146,73,0,0
5123,4481,3801,-2,-5,-6,10240,-1.00,-1.00,0.79,1.34,5125,4483,3804,263,136,146,73,0,0
5123,4482,3801,-2,-3,-4,10240,-1.00,-1.00,0.79,1.34,5125,4483,3803,263,136,146,73,0,0
5123,4483,3802,-2,-2,-3,10240,-1.00,-1.00,0.79,1.34,5125,4483,3803,263,136,146,73,0,0
5123,4484,3803,-2,0,-1,10240,-1.00,-1.00,0.79,1.34,5125,4483,3803,263,136,146,73,0,0
5123,4485,3803,-2,0,0,10240,-1.00,-1.00,0.79,1.34,5125,4483,3803,263,136,146,73,0,0
5123,4484,3803,-1,1,0,10240,-1.00,-1.00,0.79,1.34,5124,4483,3803,263,136,146,73,0,0
5123,4482,3802,-1,0,0,10240,-1.00,-1.00,0.79,1.34,5124,4483,3803,263,136,146,73,0,0
5123,4480,3800,-1,0,-1,10240,-1.00,-1.00,0.79,1.34,5124,4483,3803,263,136,146,73,0,0
5123,4481,3801,-1,-1,-1,10240,-1.00,-1.00,0.79,1.34,5124,4483,3803,263,136,146,73,0,0
5123,4481,3802,-1,-2,-1,10240,-1.00,-1.00,0.79,1.34,5124,4483,3803,263,136,146,73,0,0
5123,4486,3805,-1,-1,-1,10240,-1.00,-1.00,0.79,1.34,5124,4483,3803,263,136,146,73,0,0
5123,4485,3803,-1,0,0,10240,-1.00,-1.00,0.79,1.34,5124,4483,3803,263,136,146,73,0,0
5123,4485,3802,-1,1,0,10240,-1.00,-1.00,0.79,1.34,5124,4483,3803,263,136,146,73,0,0
5123,4485,3803,-1,2,0,10240,-1.00,-1.00,0.79,1.34,5124,4483,3803,263,136,146,73,0,0
5123,4488,3805,-1,2,0,10240,-1.00,-1.00,0.79,1.34,5124,4483,3803,263,136,146,73,0,0
5123,4487,3804,-1,3,0,10240,-1.00,-1.00,0.79,1.34,5124,4484,3803,263,136,146,73,0,0
5123,4489,3805,-1,3,1,10240,-1.00,-1.00,0.79,1.34,5124,4484,3803,263,136,146,73,0,0
5123,4488,3804,-1,4,1,10240,-1.00,-1.00,0.79,1.34,5124,4484,3803,263,136,146,73,0,0
5123,4486,3803,-1,3,1,10240,-1.00,-1.00,0.79,1.34,5124,4484,3803,263,136,146,73,0,0
5123,4484,3802,-1,2,0,10240,-1.00,-1.00,0.79,1.34,5124,4484,3803,263,136,146,73,0,0
5123,4490,3805,-1,3,0,10240,-1.00,-1.00,0.79,1.34,5124,4484,3803,263,136,146,73,0,0
5123,4494,3808,-1,4,1,10240,-1.00,-1.00,0.79,1.34,5124,4484,3804,263,136,146,73,0,0
5127,4499,3812,0,7,3,10240,-1.00,-1.00,0.79,1.34,5124,4485,3804,263,136,146,73,0,0
5135,4505,3816,3,12,6,10240,-1.00,-1.00,0.79,1.34,5124,4486,3804,263,136,146,64,0,0
5140,4507,3819,7,16,9,10240,-1.00,-1.00,0.79,1.34,5125,4486,3805,263,136,146,64,0,0
5148,4512,3823,12,19,13,10240,-1.00,-1.00,0.79,1.34,5126,4487,3805,263,136,146,64,0,0
5147,4511,3822,17,22,15,10240,-1.00,-1.00,0.79,1.34,5126,4488,3806,263,136,146,64,0,0
5148,4512,3822,19,23,15,10240,-1.00,-1.00,0.79,1.34,5127,4489,3807,263,136,146,64,0,0
5151,4513,3821,21,23,15,10240,-1.00,-1.00,0.79,1.34,5128,4490,3807,263,136,146,64,0,0
5151,4513,3821,21,23,14,10240,-1.00,-1.00,0.79,1.34,5129,4490,3807,263,136,146,64,0,0
5145,4511,3820,20,22,13,10240,-1.00,-1.00,0.79,1.34,5129,4491,3808,203,107,146,64,0,0
5141,4509,3818,18,20,12,10240,-1.00,-1.00,0.79,1.34,5130,4492,3808,203,107,146,64,0,0
5137,4506,3816,14,18,11,10240,-1.00,-1.00,0.79,1.34,5130,4492,3808,203,107,146,64,0,0
5132,4503,3814,9,15,8,10240,-1.00,-1.00,0.79,1.34,5130,4492,3809,203,107,146,64,0,0
5127,4500,3810,4,12,6,10240,-1.00,-1.00,0.79,1.34,5130,4493,3809,203,107,146,64,0,0
5123,4491,3803,0,7,2,10240,-1.00,-1.00,0.79,1.34,5130,4493,3809,203,107,146,64,0,0
5123,4492,3804,-3,3,-1,10240,-1.00,-1.00,0.79,1.34,5129,4493,3808,203,107,146,64,0,0
5123,4495,3806,-5,1,-2,10240,-1.00,-1.00,0.79,1.34,5129,4493,3808,203,107,146,64,0,0
5125,4498,3808,-5,1,-3,10240,-1.00,-1.00,0.79,1.34,5129,4493,3808,203,107,146,64,0,0
5124,4499,3809,-5,3,-1,10240,-1.00,-1.00,0.79,1.34,5129,4493,3808,203,107,146,64,0,0
5123,4491,3803,-5,2,-1,10240,-1.00,-1.00,0.79,1.34,5129,4493,3808,203,107,146,64,0,0
5123,4489,3802,-5,1,-2,10240,-1.00,-1.00,0.79,1.34,5128,4493,3808,203,107,146,64,0,0
5123,4488,3802,-5,-1,-4,10240,-1.00,-1.00,0.79,1.34,5128,4493,3808,203,107,146,64,98,0
5123,4490,3801,-5,-3,-6,10240,-1.00,-1.00,0.79,1.34,5128,4493,3808,203,107,146,64,98,0
5123,4489,3803,-5,-3,-5,10240,-1.00,-1.00,0.79,1.34,5128,4492,3807,203,107,146,64,98,0
5123,4487,3799,-5,-4,-6,10240,-1.00,-1.00,0.79,1.34,5128,4492,3807,203,107,146,64,98,0
5123,4486,3799,-5,-4,-6,10240,-1.00,-1.00,0.79,1.34,5128,4492,3807,203,107,146,64,98,0
5123,4486,3799,-4,-5,-7,10240,-1.00,-1.00,0.79,1.34,5127,4492,3807,203,107,146,64,98,0
5123,4489,3801,-4,-5,-7,10240,-1.00,-1.00,0.79,1.34,5127,4492,3806,203,107,146,64,98,0
5123,4489,3801,-4,-4,-6,10240,-1.00,-1.00,0.79,1.34,5127,4492,3806,203,107,146,64,98,0
5123,4484,3798,-4,-4,-6,10240,-1.00,-1.00,0.79,1.34,5127,4491,3806,203,107,146,64,98,0
5123,4483,3796,-4,-5,-7,10240,-1.00,-1.00,0.79,1.34,5127,4491,3806,203,107,146,64,98,0
5123,4480,3794,-4,-7,-8,10240,-1.00,-1.00,0.79,1.34,5127,4491,3805,203,107,146,64,98,0
5123,4480,3795,-4,-9,-9,10240,-1.00,-1.00,0.79,1.34,5127,4490,3805,203,107,146,64,98,0
5123,4482,3795,-4,-9,-10,10240,-1.00,-1.00,0.79,1.34,5127,4490,3805,203,107,146,64,98,0
5123,4484,3798,-3,-8,-9,10240,-1.00,-1.00,0.79,1.34,5126,4490,3804,203,107,146,64,98,0
5123,4486,3800,-3,-7,-7,10240,-1.00,-1.00,0.79,1.34,5126,4490,3804,203,107,146,64,98,0
5123,4487,3800,-3,-5,-6,10240,-1.00,-1.00,0.79,1.34,5126,4490,3804,203,107,146,64,98,0
5123,4488,3801,-3,-3,-4,10240,-1.00,-1.00,0.79,1.34,5126,4490,3804,203,107,146,64,98,0
5123,4489,3801,-3,-2,-3,10240,-1.00,-1.00,0.79,1.34,5126,4490,3804,203,107,146,64,98,0
5123,4487,3801,-3,-2,-3,10240,-1.00,-1.00,0.79,1.34,5126,4490,3804,203,107,146,64,98,0
5123,4492,3804,-3,-1,-2,10240,-1.00,-1.00,0.79,1.34,5126,4490,3804,203,107,146,64,98,0
5123,4494,3806,-3,0,-1,10240,-1.00,-1.00,0.79,1.34,5126,4490,3804,203,107,146,64,98,0
5123,4494,3806,-3,1,0,10240,-1.00,-1.00,0.79,1.34,5126,4490,3804,203,107,146,64,98,0
5123,4494,3806,-3,3,1,10240,-1.00,-1.00,0.79,1.34,5126,4490,3804,203,107,146,64,98,0
5124,4497,3808,-2,4,2,10240,-1.00,-1.00,0.79,1.34,5125,4490,3804,203,107,146,64,98,0
5124,4495,3807,-2,5,2,10240,-1.00,-1.00,0.79,1.34,5125,4490,3804,203,107,146,64,98,0
5123,4494,3804,-1,4,2,10240,-1.00,-1.00,0.79,1.34,5125,4491,3804,203,107,146,64,98,0
5123,4491,3804,-1,3,1,10240,-1.00,-1.00,0.79,1.34,5125,4491,3804,203,107,146,64,98,0
5123,4492,3803,-1,2,0,10240,-1.00,-1.00,0.79,1.34,5125,4491,3804,203,107,146,64,98,0
5123,4483,3798,-2,0,-1,10240,-1.00,-1.00,0.79,1.34,5125,4490,3804,203,107,146,64,98,0
5123,4480,3794,-2,-4,-4,10240,-1.00,-1.00,0.79,1.34,5125,4490,3804,203,107,146,64,98,0
5123,4477,3793,-2,-7,-6,10240,-1.00,-1.00,0.79,1.34,5125,4490,3803,203,107,146,64,98,0
5123,4476,3790,-2,-10,-9,10240,-1.00,-1.00,0.79,1.34,5125,4489,3803,203,107,146,64,98,0
5123,4474,3790,-2,-12,-11,10240,-1.00,-1.00,0.79,1.34,5125,4489,3802,203,107,146,64,98,0
5123,4471,3788,-2,-14,-12,10240,-1.00,-1.00,0.79,1.34,5125,4488,3802,203,107,146,64,98,0
5123,4470,3787,-2,-15,-13,10240,-1.00,-1.00,0.79,1.34,5125,4487,3801,203,107,146,64,98,0
5123,4468,3785,-2,-17,-14,10240,-1.00,-1.00,0.79,1.34,5125,4487,3801,203,107,146,64,98,0
5123,4467,3785,-2,-18,-14,10240,-1.00,-1.00,0.79,1.34,5125,4486,3800,203,107,146,64,98,0
5123,4468,3785,-2,-18,-15,10240,-1.00,-1.00,0.79,1.34,5125,4485,3800,203,107,146,64,98,0
5123,4470,3786,-1,-17,-14,10240,-1.00,-1.00,0.79,1.34,5124,4485,3799,203,107,146,64,98,0
5123,4472,3788,-1,-16,-13,10240,-1.00,-1.00,0.79,1.34,5124,4485,3799,203,107,146,64,98,0
5123,4473,3788,-1,-14,-12,10240,-1.00,-1.00,0.79,1.34,5124,4484,3799,203,107,146,64,98,0
5123,4474,3789,-1,-12,-11,10240,-1.00,-1.00,0.79,1.34,5124,4484,3798,203,107,146,64,98,0
5123,4476,3791,-1,-10,-9,10240,-1.00,-1.00,0.79,1.34,5124,4484,3798,203,107,146,64,98,0
5123,4483,3796,-1,-7,-7,10240,-1.00,-1.00,0.79,1.34,5124,4483,3798,203,107,146,64,98,0
5123,4491,3801,-1,-2,-3,10240,-1.00,-1.00,0.79,1.34,5124,4484,3798,203,107,146,64,98,0
5123,4497,3806,-1,3,0,10240,-1.00,-1.00,0.79,1.34,5124,4484,3798,203,107,146,64,98,0
5124,4496,3805,0,7,3,10240,-1.00,-1.00,0.79,1.34,5124,4485,3799,203,107,146,64,98,0
5130,4501,3810,1,11,7,10240,-1.00,-1.00,0.79,1.34,5124,4485,3799,203,107,146,64,98,0
5140,4509,3814,5,15,10,10240,-1.00,-1.00,0.79,1.34,5125,4486,3799,203,107,146,64,98,0
5146,4513,3819,10,19,12,10240,-1.00,-1.00,0.79,1.34,5126,4487,3800,203,107,146,64,98,0
5146,4514,3819,15,22,15,10240,-1.00,-1.00,0.79,1.34,5126,4488,3801,203,107,146,64,98,0
5143,4512,3818,17,24,17,10240,-1.00,-1.00,0.79,1.34,5127,4489,3801,203,107,146,64,98,0
5137,4509,3814,16,23,16,10240,-1.00,-1.00,0.79,1.34,5127,4489,3802,203,91,117,64,98,0
5140,4510,3816,14,22,15,10240,0.02,-0.09,0.66,1.29,5128,4490,3802,203,91,117,64,98,0
5148,4515,3819,14,21,14,10240,0.02,-0.09,0.66,1.29,5128,4491,3803,203,91,117,64,98,0
5152,4516,3819,16,22,14,10240,0.02,-0.09,0.66,1.29,5129,4492,3803,203,91,117,64,98,0
5155,4517,3819,20,23,15,10240,0.02,-0.09,0.66,1.29,5130,4492,3804,203,91,117,64,98,0
5156,4517,3820,23,24,15,10240,0.02,-0.09,0.66,1.29,5131,4493,3804,203,91,117,64,98,0
5152,4517,3820,23,24,15,10240,0.02,-0.09,0.66,1.29,5132,4494,3805,203,91,117,64,98,0
5150,4516,3819,22,23,15,10240,0.02,-0.09,0.66,1.29,5132,4495,3805,203,91,117,64,98,0
5149,4514,3818,19,21,14,10240,0.02,-0.09,0.66,1.29,5133,4495,3806,203,91,117,64,98,0
5151,4516,3819,18,20,13,10240,0.02,-0.09,0.66,1.29,5133,4496,3806,203,91,117,64,98,0
5150,4516,3819,17,19,12,10240,0.02,-0.09,0.66,1.29,5134,4497,3807,203,91,117,64,98,0
5149,4516,3819,16,19,12,10240,0.02,-0.09,0.66,1.29,5134,4497,3807,203,91,117,64,98,0
5153,4517,3819,16,19,12,10240,0.02,-0.09,0.66,1.29,5135,4498,3807,203,91,117,64,98,0
5149,4515,3818,15,18,11,10240,0.02,-0.09,0.66,1.29,5136,4499,3808,203,91,117,64,98,0
5157,4518,3819,16,18,11,10240,0.02,-0.09,0.66,1.29,5136,4499,3808,203,91,117,64,98,0
5161,4518,3819,19,18,10,10240,0.02,-0.09,0.66,1.29,5137,4500,3809,203,91,117,64,98,0
5166,4519,3819,21,17,10,10240,0.02,-0.09,0.66,1.29,5138,4501,3809,203,91,117,64,98,0
5162,4519,3819,24,18,10,10240,0.02,-0.09,0.66,1.29,5139,4501,3809,203,91,117,64,98,0
5156,4519,3819,23,17,9,10240,0.02,-0.09,0.66,1.29,5139,4502,3810,203,91,117,64,98,0
5152,4517,3820,20,17,9,10240,0.02,-0.09,0.66,1.29,5140,4502,3810,203,91,117,64,98,0
5151,4516,3819,15,15,9,10240,0.02,-0.09,0.66,1.29,5140,4503,3810,203,91,117,64,98,0
5138,4511,3816,9,13,8,10240,0.02,-0.09,0.66,1.29,5140,4503,3810,203,91,117,64,98,0
5132,4507,3812,3,10,6,10240,0.02,-0.09,0.66,1.29,5140,4503,3810,203,91,117,64,98,0
5126,4502,3807,-3,6,3,10240,0.02,-0.09,0.66,1.29,5139,4503,3810,203,91,117,64,98,0
5125,4502,3807,-9,2,0,10240,0.02,-0.09,0.66,1.29,5139,4503,3810,203,91,117,64,98,0
5126,4500,3807,-11,0,-1,10240,0.02,-0.09,0.66,1.29,5138,4503,3810,203,91,117,64,98,0
5127,4503,3808,-12,-1,-2,10240,0.02,-0.09,0.66,1.29,5138,4503,3810,203,91,117,64,98,0
5128,4504,3810,-11,0,-2,10240,0.02,-0.09,0.66,1.29,5138,4503,3810,203,91,117,64,98,0
5131,4507,3811,-10,0,-1,10240,0.02,-0.09,0.66,1.29,5138,4503,3810,203,91,117,64,98,0
5133,4509,3812,-8,2,0,10240,0.02,-0.09,0.66,1.29,5137,4503,3810,203,91,117,64,98,0
5134,4508,3813,-6,4,1,10240,0.02,-0.09,0.66,1.29,5137,4503,3810,203,91,117,64,98,0
5137,4509,3813,-3,5,2,10240,0.02,-0.09,0.66,1.29,5137,4504,3810,203,91,117,64,98,0
5139,4510,3814,-1,5,2,10240,0.02,-0.09,0.66,1.29,5137,4504,3811,203,91,117,64,98,0
5139,4510,3814,0,5,3,10240,0.02,-0.09,0.66,1.29,5137,4504,3811,203,91,117,64,98,0
5140,4510,3814,1,5,3,10240,0.02,-0.09,0.66,1.29,5138,4504,3811,203,91,117,64,98,0
5141,4511,3814,2,6,3,10240,0.02,-0.09,0.66,1.29,5138,4504,3811,203,91,117,64,98,0
5143,4511,3815,3,6,3,10240,0.02,-0.09,0.66,1.29,5138,4505,3811,203,91,117,64,98,0
5147,4514,3816,4,7,3,10240,0.02,-0.09,0.66,1.29,5138,4505,3811,203,91,117,64,98,0
5147,4514,3817,6,7,4,10240,0.02,-0.09,0.66,1.29,5138,4505,3811,203,91,117,64,98,0
5148,4515,3817,8,8,5,10240,0.02,-0.09,0.66,1.29,5139,4506,3812,203,91,117,64,98,0
5151,4517,3818,9,9,5,10240,0.02,-0.09,0.66,1.29,5139,4506,3812,203,91,117,64,98,0
5155,4517,3819,11,10,6,10240,0.02,-0.09,0.66,1.29,5140,4506,3812,203,91,117,64,98,0
5157,4518,3820,13,10,6,10240,0.02,-0.09,0.66,1.29,5140,4507,3812,203,91,117,64,98,0
5156,4518,3819,14,11,7,10240,0.02,-0.09,0.66,1.29,5141,4507,3812,203,91,117,64,98,0
5151,4517,3819,14,10,7,10240,0.02,-0.09,0.66,1.29,5141,4507,3813,203,91,117,64,98,0
5136,4511,3814,9,8,5,10240,0.02,-0.09,0.66,1.29,5141,4508,3813,159,91,117,64,98,0
5123,4488,3796,0,1,0,10240,0.02,-0.09,0.66,1.29,5140,4507,3812,159,91,117,64,98,0
5123,4452,3765,-7,-14,-13,10240,0.02,-0.09,0.66,1.29,5140,4505,3811,159,91,117,64,98,0
5123,4441,3756,-13,-32,-28,10240,0.02,-0.09,0.66,1.29,5139,4503,3809,159,91,117,64,98,0
5120,4434,3747,-17,-50,-43,10240,0.02,-0.09,0.66,1.29,5139,4501,3807,159,91,117,64,98,0
5107,4428,3742,-20,-63,-55,10240,0.02,-0.09,0.66,1.29,5137,4498,3805,159,91,117,64,98,0
5092,4419,3737,-27,-69,-60,10240,0.02,-0.09,0.66,1.29,5136,4496,3802,159,91,117,64,98,0
5076,4409,3729,-37,-74,-64,10240,0.02,-0.09,0.66,1.29,5134,4493,3800,159,91,117,64,98,0
5072,4406,3729,-48,-78,-66,10240,0.02,-0.09,0.66,1.29,5132,4490,3797,159,91,117,64,98,0
5069,4403,3725,-55,-82,-68,10240,0.02,-0.09,0.66,1.29,5130,4487,3795,159,91,117,64,98,0
5066,4402,3725,-60,-83,-69,10240,0.02,-0.09,0.66,1.29,5128,4484,3793,159,91,117,64,98,0
5064,4400,3723,-61,-82,-68,10240,0.02,-0.09,0.66,1.29,5126,4481,3790,159,91,117,64,98,0
5065,4400,3723,-61,-81,-67,10240,0.02,-0.09,0.66,1.29,5124,4479,3788,159,91,117,64,98,0
5061,4397,3722,-60,-80,-66,10240,0.02,-0.09,0.66,1.29,5121,4476,3786,159,91,117,64,98,0
5057,4396,3718,-60,-79,-65,10240,0.02,-0.09,0.66,1.29,5119,4473,3784,159,91,117,64,98,0
5053,4394,3715,-61,-78,-65,10240,0.02,-0.09,0.66,1.29,5117,4471,3781,135,91,117,64,98,0
5050,4392,3714,-62,-77,-65,10240,0.02,-0.09,0.66,1.29,5115,4468,3779,135,91,117,64,98,0
5047,4391,3711,-64,-76,-65,10240,0.02,-0.09,0.66,1.29,5113,4465,3777,135,91,117,64,98,0
5042,4387,3708,-65,-75,-66,10240,0.02,-0.09,0.66,1.29,5110,4463,3775,135,91,117,64,98,0
5037,4385,3705,-67,-75,-66,10240,0.02,-0.09,0.66,1.29,5108,4460,3772,135,91,117,64,98,0
5034,4382,3702,-69,-75,-67,10240,0.02,-0.09,0.66,1.29,5105,4458,3770,135,91,117,64,98,0
5033,4381,3702,-70,-75,-67,10240,0.02,-0.09,0.66,1.29,5103,4455,3768,135,91,117,64,98,0
5037,4385,3706,-69,-73,-65,10240,0.02,-0.09,0.66,1.29,5101,4453,3766,135,91,117,64,98,0
5040,4388,3707,-66,-70,-62,10240,0.02,-0.09,0.66,1.29,5099,4450,3764,135,91,117,64,98,0
5044,4390,3710,-61,-65,-58,10240,0.02,-0.09,0.66,1.29,5097,4448,3762,135,91,117,64,98,0
5047,4392,3712,-56,-60,-54,10240,0.02,-0.09,0.66,1.29,5095,4447,3760,135,91,117,64,98,0
5047,4392,3712,-51,-57,-51,10240,0.02,-0.09,0.66,1.29,5094,4445,3759,135,91,117,64,98,0
5052,4394,3716,-47,-53,-47,10240,0.02,-0.09,0.66,1.29,5092,4443,3757,135,91,117,64,98,0
5055,4396,3718,-42,-50,-43,10240,0.02,-0.09,0.66,1.29,5091,4442,3756,135,91,117,64,98,0
5056,4397,3720,-39,-47,-40,10240,0.02,-0.09,0.66,1.29,5090,4440,3755,135,91,117,64,98,0
5057,4398,3720,-35,-44,-36,10240,0.02,-0.09,0.66,1.29,5089,4439,3753,135,91,117,64,98,0
5059,4398,3721,-32,-42,-34,10240,0.02,-0.09,0.66,1.29,5088,4437,3752,135,91,117,64,98,0
5065,4402,3724,-29,-39,-31,10240,0.02,-0.09,0.66,1.29,5087,4436,3751,135,91,117,64,98,0
5066,4404,3725,-25,-36,-29,10240,0.02,-0.09,0.66,1.29,5086,4435,3751,135,91,117,64,98,0
5067,4404,3725,-22,-33,-27,10240,0.02,-0.09,0.66,1.29,5086,4434,3750,135,91,117,64,98,0
5067,4404,3725,-19,-31,-25,10240,0.02,-0.09,0.66,1.29,5085,4433,3749,135,91,117,64,98,0
5065,4403,3724,-19,-29,-24,10240,0.02,-0.09,0.66,1.29,5084,4432,3748,135,91,117,64,98,0
5065,4400,3724,-18,-29,-24,10240,0.02,-0.09,0.66,1.29,5084,4431,3747,135,91,117,64,98,0
5062,4398,3722,-19,-30,-23,10240,0.02,-0.09,0.66,1.29,5083,4430,3746,114,81,117,64,98,0
5060,4397,3720,-20,-31,-24,10240,0.02,-0.09,0.66,1.29,5082,4429,3746,114,81,99,64,98,0
5058,4397,3720,-21,-31,-24,10240,0.02,-0.09,0.69,0.85,5081,4428,3745,114,81,99,64,98,0
5059,4397,3719,-22,-31,-25,10240,0.02,-0.09,0.69,0.85,5081,4427,3744,114,81,99,64,98,0
5058,4395,3719,-22,-31,-25,10240,0.02,-0.09,0.69,0.85,5080,4426,3743,114,81,99,64,98,0
5059,4396,3720,-21,-30,-24,10240,0.02,-0.09,0.69,0.85,5079,4425,3742,114,81,99,64,98,0
5057,4396,3719,-21,-29,-23,10240,0.02,-0.09,0.69,0.85,5078,4424,3741,114,81,99,64,98,0
5055,4395,3718,-21,-29,-22,10240,0.02,-0.09,0.69,0.85,5078,4423,3741,114,81,99,64,98,0
5055,4396,3717,-21,-27,-22,10240,0.02,-0.09,0.69,0.85,5077,4422,3740,114,81,99,64,98,0
5057,4395,3718,-21,-27,-22,10240,0.02,-0.09,0.69,0.85,5076,4421,3739,114,81,99,64,98,0
5059,4396,3719,-20,-26,-21,10240,0.02,-0.09,0.69,0.85,5076,4420,3739,114,81,99,64,98,0
5062,4399,3721,-17,-24,-20,10240,0.02,-0.09,0.69,0.85,5075,4419,3738,114,81,99,64,98,0
5066,4402,3723,-14,-21,-18,10240,0.02,-0.09,0.69,0.85,5075,4419,3737,114,81,99,64,98,0
5070,4405,3724,-11,-18,-16,10240,0.02,-0.09,0.69,0.85,5075,4418,3737,114,81,99,64,98,0
5071,4405,3725,-7,-15,-14,10240,0.02,-0.09,0.69,0.85,5075,4418,3737,114,81,99,64,98,0
5080,4412,3729,-3,-12,-11,10240,0.02,-0.09,0.69,0.85,5075,4418,3736,114,81,99,64,98,0
5082,4414,3730,0,-8,-9,10240,0.02,-0.09,0.69,0.85,5075,4417,3736,114,81,99,64,98,0
5080,4413,3730,3,-6,-7,10240,0.02,-0.09,0.69,0.85,5075,4417,3736,114,81,99,64,98,0
5074,4408,3727,4,-5,-7,10240,0.02,-0.09,0.69,0.85,5075,4417,3736,114,81,99,64,98,0
5064,4400,3722,0,-8,-8,10240,0.02,-0.09,0.69,0.85,5075,4416,3735,92,68,99,64,98,0
5061,4398,3720,-5,-11,-10,10240,0.02,-0.09,0.69,0.85,5074,4416,3735,92,68,99,64,98,0
5061,4399,3720,-9,-14,-12,10240,0.02,-0.09,0.69,0.85,5074,4415,3734,92,68,99,64,98,0
5063,4400,3721,-11,-16,-13,10240,0.02,-0.09,0.69,0.85,5073,4415,3734,92,68,99,64,98,0
5065,4400,3723,-11,-15,-13,10240,0.02,-0.09,0.69,0.85,5073,4414,3733,92,68,99,64,98,0
5068,4403,3724,-9,-14,-11,10240,0.02,-0.09,0.69,0.85,5073,4414,3733,92,68,99,64,98,0
5070,4405,3724,-6,-12,-10,10240,0.02,-0.09,0.69,0.85,5073,4414,3733,92,68,99,64,98,0
5069,4404,3725,-5,-10,-8,10240,0.02,-0.09,0.69,0.85,5073,4413,3732,92,68,99,64,98,0
5065,4402,3724,-5,-10,-8,10240,0.02,-0.09,0.69,0.85,5073,4413,3732,92,68,99,64,98,0
5063,4400,3722,-6,-10,-8,10240,0.02,-0.09,0.69,0.85,5072,4413,3732,92,68,99,64,98,0
5059,4397,3719,-8,-12,-9,10240,0.02,-0.09,0.69,0.85,5072,4412,3731,92,68,99,64,98,0
5060,4397,3719,-10,-13,-10,10240,0.02,-0.09,0.69,0.85,5071,4411,3731,92,68,99,64,98,0
5057,4395,3717,-11,-14,-12,10240,0.02,-0.09,0.69,0.85,5071,4411,3731,92,68,99,64,98,0
5057,4396,3717,-12,-14,-12,10240,0.02,-0.09,0.69,0.85,5070,4410,3730,92,68,99,64,98,0
5059,4397,3718,-12,-14,-12,10240,0.02,-0.09,0.69,0.85,5070,4410,3730,92,68,99,64,98,0
5064,4399,3721,-11,-13,-11,10240,0.02,-0.09,0.69,0.85,5070,4410,3729,92,68,99,64,98,0
5070,4403,3725,-7,-11,-9,10240,0.02,-0.09,0.69,0.85,5070,4409,3729,92,68,99,64,98,0
5076,4409,3728,-2,-7,-6,10240,0.02,-0.09,0.69,0.85,5070,4409,3729,92,68,99,64,98,0
5081,4414,3731,2,-3,-2,10240,0.02,-0.09,0.69,0.85,5070,4410,3729,92,68,99,64,98,0
5091,4420,3735,9,2,0,10240,0.02,-0.09,0.69,0.85,5071,4410,3730,92,68,99,64,98,0
5115,4433,3741,19,9,4,10240,0.02,-0.09,0.69,0.85,5073,4411,3730,92,68,99,64,98,0
5110,4432,3743,27,14,7,10240,0.02,-0.09,0.69,0.85,5074,4411,3730,92,68,99,64,98,0
5104,4428,3740,31,17,9,10240,0.02,-0.09,0.69,0.85,5075,4412,3731,92,68,99,64,98,0
5094,4423,3735,31,17,9,10240,0.02,-0.09,0.69,0.85,5075,4412,3731,92,68,99,64,98,0
5085,4417,3732,23,13,6,10240,0.02,-0.09,0.69,0.85,5076,4412,3731,80,58,79,64,98,0
5079,4412,3729,15,8,3,10240,0.02,-0.09,0.62,0.74,5076,4412,3731,80,58,79,64,98,0
5083,4415,3732,9,4,1,10240,0.02,-0.09,0.62,0.74,5076,4413,3731,80,58,79,64,98,0
5087,4420,3734,7,3,0,10240,0.02,-0.09,0.62,0.74,5077,4413,3731,80,58,79,64,98,0
5091,4420,3735,8,4,1,10240,0.02,-0.09,0.62,0.74,5077,4413,3731,80,58,79,64,98,0
5094,4423,3736,11,6,3,10240,0.02,-0.09,0.62,0.74,5078,4413,3731,80,58,79,64,98,0
5099,4425,3739,15,8,5,10240,0.02,-0.09,0.62,0.74,5078,4414,3731,80,58,79,64,98,0
5120,4439,3749,22,13,8,10240,0.02,-0.09,0.62,0.74,5080,4415,3732,80,58,79,64,98,0
5122,4443,3752,29,18,12,10240,0.02,-0.09,0.62,0.74,5081,4416,3733,80,58,79,64,98,0
5123,4445,3756,35,22,16,10240,0.02,-0.09,0.62,0.74,5082,4417,3733,80,58,79,64,98,0
5123,4447,3756,40,27,20,10240,0.02,-0.09,0.62,0.74,5084,4418,3734,80,58,79,64,98,0
5123,4446,3755,39,28,21,10240,0.02,-0.09,0.62,0.74,5085,4418,3735,68,58,79,64,98,0
5121,4437,3749,38,25,19,10240,0.02,-0.09,0.62,0.74,5086,4419,3735,68,50,65,64,98,0
5114,4433,3743,34,22,15,10240,0.02,-0.09,0.65,0.77,5087,4420,3736,68,50,65,64,98,0
5106,4429,3740,29,17,11,10240,0.02,-0.09,0.65,0.77,5088,4420,3736,68,50,65,64,98,0
5090,4421,3734,20,10,5,10240,0.02,-0.09,0.65,0.77,5088,4420,3736,68,50,65,64,98,0
5078,4409,3728,9,3,0,10240,0.02,-0.09,0.65,0.77,5088,4420,3735,68,50,65,64,98,0
5059,4397,3719,-4,-5,-5,10240,0.02,-0.09,0.65,0.77,5087,4419,3735,68,50,65,64,98,0
5054,4394,3717,-17,-14,-10,10240,0.02,-0.09,0.65,0.77,5086,4418,3734,68,50,65,64,98,0
5054,4394,3716,-25,-20,-14,10240,0.02,-0.09,0.65,0.77,5084,4417,3734,68,50,65,64,98,0
5058,4395,3720,-29,-22,-16,10240,0.02,-0.09,0.65,0.77,5084,4416,3733,68,50,65,64,98,0
5064,4400,3724,-26,-21,-14,10240,0.02,-0.09,0.65,0.77,5083,4416,3733,68,50,65,64,98,0
5072,4408,3727,-21,-17,-11,10240,0.02,-0.09,0.65,0.77,5083,4416,3733,68,50,65,64,98,0
5077,4411,3729,-15,-12,-8,10240,0.02,-0.09,0.65,0.77,5082,4415,3733,68,50,65,64,98,0
5076,4410,3729,-10,-8,-5,10240,0.02,-0.09,0.65,0.77,5082,4415,3733,68,50,65,64,98,0
5078,4414,3730,-6,-4,-4,10240,0.02,-0.09,0.65,0.77,5082,4415,3732,68,50,65,64,98,0
5079,4414,3731,-4,-2,-2,10240,0.02,-0.09,0.65,0.77,5082,4415,3732,68,50,65,64,98,0
5073,4408,3728,-5,-3,-2,10240,0.02,-0.09,0.65,0.77,5082,4415,3732,57,50,65,64,98,0
5066,4402,3724,-7,-5,-3,10240,0.02,-0.09,0.65,0.77,5081,4415,3732,57,50,65,64,98,0
5058,4397,3719,-12,-9,-6,10240,0.02,-0.09,0.65,0.77,5080,4414,3732,57,50,65,64,98,0
5054,4395,3717,-17,-13,-9,10240,0.02,-0.09,0.65,0.77,5079,4413,3731,57,50,65,64,98,0
5049,4393,3712,-22,-17,-13,10240,0.02,-0.09,0.65,0.77,5078,4413,3730,57,50,65,64,98,0
5043,4391,3710,-27,-19,-16,10240,0.02,-0.09,0.65,0.77,5077,4412,3730,57,50,65,64,98,0
5044,4391,3710,-30,-19,-17,10240,0.02,-0.09,0.65,0.77,5076,4411,3729,57,50,65,64,98,0
5044,4391,3709,-31,-20,-19,10240,0.02,-0.09,0.65,0.77,5075,4411,3728,57,50,65,64,98,0
5045,4392,3709,-31,-19,-19,10240,0.02,-0.09,0.65,0.77,5074,4410,3728,57,50,65,64,98,0
5046,4393,3711,-29,-18,-18,10240,0.02,-0.09,0.65,0.77,5073,4409,3727,57,50,65,64,98,0
5054,4395,3714,-26,-17,-16,10240,0.02,-0.09,0.65,0.77,5073,4409,3727,57,50,65,64,98,0
5055,4395,3717,-23,-15,-14,10240,0.02,-0.09,0.65,0.77,5072,4408,3726,57,50,65,64,98,0
5057,4397,3719,-19,-13,-11,10240,0.02,-0.09,0.65,0.77,5071,4408,3726,57,50,65,64,98,0
5059,4397,3719,-15,-12,-9,10240,0.02,-0.09,0.65,0.77,5071,4408,3726,57,50,65,64,98,0
5055,4395,3716,-14,-11,-8,10240,0.02,-0.09,0.65,0.77,5071,4407,3726,57,50,65,64,98,0
5022,4389,3706,-22,-13,-10,10240,0.02,-0.09,0.65,0.77,5069,4407,3725,57,50,65,64,98,0
5012,4367,3692,-32,-19,-17,10240,0.02,-0.09,0.65,0.77,5067,4405,3724,57,50,65,64,98,0
5003,4363,3690,-45,-27,-23,10240,0.02,-0.09,0.65,0.77,5065,4404,3723,57,50,65,64,98,0
4997,4357,3685,-57,-35,-30,10240,0.02,-0.09,0.65,0.77,5063,4402,3721,57,50,65,64,98,0
4993,4355,3683,-62,-42,-34,10240,0.02,-0.09,0.65,0.77,5060,4401,3720,57,50,65,64,98,0
4993,4354,3684,-65,-44,-35,10240,0.02,-0.09,0.65,0.77,5058,4399,3719,57,50,65,64,98,0
4992,4353,3682,-65,-45,-36,10240,0.02,-0.09,0.65,0.77,5056,4398,3718,57,50,65,64,98,0
5000,4361,3688,-62,-42,-34,10240,0.02,-0.09,0.65,0.77,5054,4396,3717,57,50,65,64,98,0
5011,4367,3693,-56,-38,-30,10240,0.02,-0.09,0.65,0.77,5053,4395,3716,57,50,65,64,98,0
5022,4374,3696,-47,-32,-26,10240,0.02,-0.09,0.65,0.77,5052,4395,3715,57,50,65,64,98,0
5033,4383,3700,-36,-23,-21,10240,0.02,-0.09,0.65,0.77,5051,4394,3715,57,50,65,64,98,0
5045,4390,3708,-24,-16,-16,10240,0.02,-0.09,0.65,0.77,5051,4394,3715,57,50,65,64,98,0
5049,4393,3711,-14,-9,-11,10240,0.02,-0.09,0.65,0.77,5051,4394,3714,57,50,65,64,98,0
5049,4393,3712,-7,-4,-6,10240,0.02,-0.09,0.65,0.77,5051,4394,3714,57,50,65,64,98,0
5047,4392,3709,-3,-2,-4,10240,0.02,-0.09,0.65,0.77,5050,4394,3714,57,50,65,64,98,0
5047,4391,3709,-2,-1,-3,10240,0.02,-0.09,0.65,0.77,5050,4394,3714,57,50,65,64,98,0
5046,4391,3708,-3,-2,-4,10240,0.02,-0.09,0.65,0.77,5050,4394,3714,59,49,57,64,98,0
5050,4393,3711,-2,-2,-4,10240,0.02,-0.09,0.73,0.76,5050,4394,3714,59,49,57,64,98,0
5050,4394,3711,-1,-1,-4,10240,0.02,-0.09,0.73,0.76,5050,4394,3714,59,49,57,64,98,0
5053,4396,3713,0,0,-3,10240,0.02,-0.09,0.73,0.76,5050,4394,3714,59,49,57,64,98,0
5053,4394,3713,1,0,-2,10240,0.02,-0.09,0.73,0.76,5050,4394,3714,59,49,57,64,98,0
5042,4389,3705,0,0,-3,10240,0.02,-0.09,0.73,0.76,5050,4394,3713,59,49,57,64,98,0
5033,4381,3697,-4,-3,-6,10240,0.02,-0.09,0.73,0.76,5050,4393,3713,59,49,57,64,98,0
5025,4374,3693,-11,-9,-11,10240,0.02,-0.09,0.73,0.76,5049,4393,3712,59,49,57,64,98,0
5019,4370,3691,-19,-14,-15,10240,0.02,-0.09,0.73,0.76,5048,4392,3711,59,49,57,64,98,0
5017,4370,3692,-25,-18,-18,10240,0.02,-0.09,0.73,0.76,5047,4391,3711,59,49,57,64,98,0
5015,4369,3691,-28,-20,-19,10240,0.02,-0.09,0.73,0.76,5046,4390,3710,59,49,57,64,98,0
5016,4369,3692,-29,-21,-18,10240,0.02,-0.09,0.73,0.76,5045,4390,3709,59,49,57,64,98,0
5018,4370,3692,-29,-20,-18,10240,0.02,-0.09,0.73,0.76,5044,4389,3709,59,49,57,64,98,0
5020,4370,3693,-27,-19,-17,10240,0.02,-0.09,0.73,0.76,5043,4388,3708,59,49,57,64,98,0
5023,4372,3695,-24,-18,-15,10240,0.02,-0.09,0.73,0.76,5042,4388,3708,59,49,57,64,98,0
5030,4379,3696,-20,-15,-14,10240,0.02,-0.09,0.73,0.76,5042,4388,3708,59,49,57,64,98,0
5031,4379,3697,-16,-12,-12,10240,0.02,-0.09,0.73,0.76,5041,4387,3707,59,49,57,64,98,0
5031,4379,3696,-12,-10,-11,10240,0.02,-0.09,0.73,0.76,5041,4387,3707,59,49,57,64,98,0
5030,4379,3696,-10,-8,-10,10240,0.02,-0.09,0.73,0.76,5041,4387,3706,59,49,57,64,98,0
5031,4379,3697,-10,-8,-10,10240,0.02,-0.09,0.73,0.76,5040,4387,3706,59,49,57,64,98,0
5030,4380,3697,-10,-7,-9,10240,0.02,-0.09,0.73,0.76,5040,4386,3706,59,49,57,64,98,0
5030,4379,3697,-10,-7,-9,10240,0.02,-0.09,0.73,0.76,5040,4386,3706,59,49,57,64,98,0
5025,4376,3695,-10,-7,-9,10240,0.02,-0.09,0.73,0.76,5039,4386,3705,59,49,57,64,98,0
5020,4372,3693,-13,-9,-10,10240,0.02,-0.09,0.73,0.76,5039,4385,3705,59,49,57,64,98,0
5016,4370,3692,-16,-11,-10,10240,0.02,-0.09,0.73,0.76,5038,4385,3704,59,49,57,64,98,0
5016,4370,3691,-19,-13,-11,10240,0.02,-0.09,0.73,0.76,5037,4384,3704,59,49,57,64,98,0
5019,4372,3693,-20,-13,-12,10240,0.02,-0.09,0.73,0.76,5037,4384,3704,59,49,57,64,98,0
5020,4373,3693,-19,-12,-11,10240,0.02,-0.09,0.73,0.76,5036,4383,3703,59,49,57,64,98,0
5021,4373,3693,-17,-11,-11,10240,0.02,-0.09,0.73,0.76,5035,4383,3703,59,49,57,64,98,0
5022,4373,3694,-15,-10,-10,10240,0.02,-0.09,0.73,0.76,5035,4383,3703,59,49,57,64,98,0
5027,4375,3694,-12,-9,-9,10240,0.02,-0.09,0.73,0.76,5035,4383,3702,59,49,57,64,98,0
5028,4379,3696,-10,-7,-8,10240,0.02,-0.09,0.73,0.76,5035,4382,3702,59,49,57,64,98,0
5028,4379,3696,-8,-6,-7,10240,0.02,-0.09,0.73,0.76,5034,4382,3702,59,49,57,64,98,0
5028,4378,3696,-6,-4,-6,10240,0.02,-0.09,0.73,0.76,5034,4382,3702,59,49,57,64,98,0
5025,4376,3694,-7,-4,-6,10240,0.02,-0.09,0.73,0.76,5034,4382,3701,59,49,57,64,98,0
5027,4377,3695,-7,-4,-6,10240,0.02,-0.09,0.73,0.76,5034,4382,3701,59,49,57,64,98,0
5026,4377,3694,-7,-5,-6,10240,0.02,-0.09,0.73,0.76,5033,4382,3701,59,49,57,64,98,0
5025,4374,3693,-7,-5,-7,10240,0.02,-0.09,0.73,0.76,5033,4381,3701,59,49,57,64,98,0
5019,4372,3693,-9,-6,-7,10240,0.02,-0.09,0.73,0.76,5033,4381,3700,59,49,57,64,98,0
5017,4370,3692,-11,-8,-7,10240,0.02,-0.09,0.73,0.76,5032,4381,3700,59,49,57,64,98,0
5014,4368,3690,-13,-9,-8,10240,0.02,-0.09,0.73,0.76,5031,4380,3700,59,49,57,64,98,0
5010,4366,3690,-16,-11,-8,10240,0.02,-0.09,0.73,0.76,5031,4380,3699,59,49,57,64,98,0
5011,4368,3691,-18,-12,-8,10240,0.02,-0.09,0.73,0.76,5030,4379,3699,59,49,57,64,98,0
5009,4367,3691,-19,-12,-8,10240,0.02,-0.09,0.73,0.76,5029,4379,3699,59,49,57,64,98,0
5010,4367,3691,-19,-12,-8,10240,0.02,-0.09,0.73,0.76,5029,4379,3699,59,49,57,64,98,0
5013,4368,3691,-18,-11,-7,10240,0.02,-0.09,0.73,0.76,5028,4378,3698,59,49,57,64,98,0
5018,4371,3692,-16,-10,-7,10240,0.02,-0.09,0.73,0.76,5028,4378,3698,59,49,57,64,98,0
5019,4372,3692,-13,-8,-6,10240,0.02,-0.09,0.73,0.76,5028,4378,3698,59,49,57,64,98,0
5018,4372,3693,-10,-7,-6,10240,0.02,-0.09,0.73,0.76,5027,4378,3698,59,49,57,64,98,0
5015,4370,3691,-10,-6,-6,10240,0.02,-0.09,0.73,0.76,5027,4377,3698,59,49,57,64,98,0
5010,4367,3690,-11,-7,-6,10240,0.02,-0.09,0.73,0.76,5026,4377,3697,59,49,57,64,98,0
5007,4366,3689,-14,-8,-6,10240,0.02,-0.09,0.73,0.76,5026,4377,3697,59,49,57,64,98,0
5010,4368,3690,-15,-9,-7,10240,0.02,-0.09,0.73,0.76,5025,4376,3697,59,49,57,64,98,0
5011,4369,3692,-16,-9,-6,10240,0.02,-0.09,0.73,0.76,5025,4376,3697,59,49,57,64,98,0
5010,4369,3691,-15,-8,-6,10240,0.02,-0.09,0.73,0.76,5024,4376,3696,59,49,57,64,98,0
5011,4369,3691,-14,-7,-5,10240,0.02,-0.09,0.73,0.76,5024,4376,3696,59,49,57,64,98,0
5015,4371,3691,-12,-6,-5,10240,0.02,-0.09,0.73,0.76,5023,4375,3696,59,49,57,64,98,0
5019,4373,3692,-9,-5,-4,10240,0.02,-0.09,0.73,0.76,5023,4375,3696,59,49,57,64,98,0
5022,4374,3694,-6,-3,-4,10240,0.02,-0.09,0.73,0.76,5023,4375,3696,59,49,57,64,98,0
5025,4375,3694,-2,-1,-3,10240,0.02,-0.09,0.73,0.76,5023,4375,3696,59,49,57,64,98,0
5024,4376,3694,0,0,-2,10240,0.02,-0.09,0.73,0.76,5023,4375,3696,59,49,57,64,98,0
5027,4378,3695,1,0,-1,10240,0.02,-0.09,0.73,0.76,5023,4376,3696,59,49,57,64,98,0
5037,4386,3700,5,3,0,10240,0.02,-0.09,0.73,0.76,5024,4376,3696,59,49,57,64,98,0
5042,4389,3704,8,6,2,10240,0.02,-0.09,0.73,0.76,5025,4376,3696,59,49,57,64,98,0
5043,4389,3704,13,9,4,10240,0.02,-0.09,0.73,0.76,5025,4377,3696,59,49,57,64,98,0
5043,4388,3703,16,11,6,10240,0.02,-0.09,0.73,0.76,5026,4377,3697,59,49,57,64,98,0
5040,4387,3701,16,11,6,10240,0.02,-0.09,0.73,0.76,5026,4377,3697,59,49,57,64,98,0
5042,4388,3702,16,10,5,10240,0.02,-0.09,0.73,0.76,5027,4378,3697,59,49,57,64,98,0
5046,4391,3706,16,11,6,10240,0.02,-0.09,0.73,0.76,5027,4378,3697,59,49,57,64,98,0
5050,4393,3709,17,11,7,10240,0.02,-0.09,0.73,0.76,5028,4379,3698,59,49,57,64,98,0
5056,4395,3711,20,13,9,10240,0.02,-0.09,0.73,0.76,5029,4379,3698,59,49,57,64,98,0
5057,4397,3713,23,15,11,10240,0.02,-0.09,0.73,0.76,5030,4380,3699,59,49,57,64,98,0
5057,4396,3713,25,15,13,10240,0.02,-0.09,0.73,0.76,5031,4380,3699,59,49,57,64,98,0
5057,4395,3712,26,15,13,10240,0.02,-0.09,0.73,0.76,5032,4381,3700,59,49,57,64,98,0
5044,4390,3703,22,14,10,10240,0.02,-0.09,0.73,0.76,5032,4381,3700,54,49,57,64,98,0
5043,4390,3703,18,12,8,10240,0.02,-0.09,0.73,0.76,5033,4381,3700,54,49,57,64,98,0
5042,4388,3701,14,9,4,10240,0.02,-0.09,0.73,0.76,5033,4382,3700,54,49,57,64,98,0
5034,4383,3696,8,6,0,10240,0.02,-0.09,0.73,0.76,5033,4382,3700,54,49,57,64,98,0
5032,4381,3694,4,3,-1,10240,0.02,-0.09,0.73,0.76,5033,4382,3699,54,49,57,64,98,0
5029,4379,3693,1,0,-3,10240,0.02,-0.09,0.73,0.76,5033,4382,3699,54,49,57,64,98,0
5019,4373,3689,-4,-2,-6,10240,0.02,-0.09,0.73,0.76,5032,4381,3699,54,49,57,64,98,0
5013,4369,3688,-9,-6,-8,10240,0.02,-0.09,0.73,0.76,5032,4381,3699,54,49,57,64,98,0
5001,4361,3685,-16,-10,-10,10240,0.02,-0.09,0.73,0.76,5031,4380,3698,54,49,57,64,98,0
4996,4355,3677,-23,-15,-13,10240,0.02,-0.09,0.73,0.76,5029,4379,3697,54,49,57,64,98,0
4988,4348,3672,-30,-21,-17,10240,0.02,-0.09,0.73,0.76,5028,4378,3697,54,49,57,64,98,0
4981,4342,3667,-37,-27,-21,10240,0.02,-0.09,0.73,0.76,5026,4377,3696,54,49,57,64,98,0
4975,4336,3663,-42,-32,-26,10240,0.02,-0.09,0.73,0.76,5025,4376,3694,54,49,57,64,98,0
4962,4325,3658,-49,-38,-30,10240,0.02,-0.09,0.73,0.76,5023,4374,3693,54,49,57,64,98,0
4955,4318,3648,-55,-44,-34,10240,0.02,-0.09,0.73,0.76,5020,4372,3692,54,49,57,64,98,0
4947,4310,3643,-61,-50,-39,10240,0.02,-0.09,0.73,0.76,5018,4370,3690,54,49,57,64,98,0
4940,4304,3639,-68,-56,-43,10240,0.02,-0.09,0.73,0.76,5015,4368,3688,54,49,57,64,98,0
4934,4299,3634,-72,-61,-48,10240,0.02,-0.09,0.73,0.76,5013,4366,3687,54,49,57,64,98,0
4924,4294,3631,-77,-65,-50,10240,0.02,-0.09,0.73,0.76,5010,4363,3685,54,49,57,64,98,0
4920,4289,3626,-81,-68,-53,10240,0.02,-0.09,0.73,0.76,5007,4361,3683,54,49,57,64,98,0
4922,4289,3627,-83,-69,-54,10240,0.02,-0.09,0.73,0.76,5004,4358,3681,54,49,57,64,98,0
4925,4292,3629,-82,-68,-53,10240,0.02,-0.09,0.73,0.76,5001,4356,3679,54,49,57,64,98,0
4928,4293,3630,-79,-66,-52,10240,0.02,-0.09,0.73,0.76,4999,4354,3678,54,49,57,64,98,0
4931,4298,3633,-73,-62,-48,10240,0.02,-0.09,0.73,0.76,4997,4352,3676,54,49,57,64,98,0
4936,4302,3636,-68,-57,-45,10240,0.02,-0.09,0.73,0.76,4995,4351,3675,54,49,57,64,98,0
4936,4301,3636,-63,-53,-41,10240,0.02,-0.09,0.73,0.76,4993,4349,3673,54,49,57,64,98,0
4934,4300,3634,-59,-49,-39,10240,0.02,-0.09,0.73,0.76,4991,4347,3672,54,49,57,64,98,0
4929,4296,3631,-58,-48,-38,10240,0.02,-0.09,0.73,0.76,4989,4346,3671,54,49,57,64,98,0
4925,4293,3628,-58,-49,-39,10240,0.02,-0.09,0.73,0.76,4986,4344,3669,54,42,57,64,98,0
4917,4287,3624,-61,-50,-40,10240,0.02,-0.09,0.73,0.76,4984,4342,3668,47,42,57,64,98,0
4920,4289,3625,-62,-51,-41,10240,0.02,-0.09,0.73,0.76,4982,4340,3666,47,42,57,64,98,0
4921,4291,3626,-62,-51,-41,10240,0.02,-0.09,0.73,0.76,4980,4339,3665,47,42,57,64,98,0
4921,4292,3625,-61,-49,-40,10240,0.02,-0.09,0.73,0.76,4978,4337,3664,47,42,57,64,98,0
4921,4291,3626,-58,-47,-38,10240,0.02,-0.09,0.73,0.76,4976,4335,3662,47,42,57,64,98,0
4924,4293,3628,-55,-44,-36,10240,0.02,-0.09,0.73,0.76,4974,4334,3661,47,42,57,64,98,0
4922,4292,3626,-53,-42,-35,10240,0.02,-0.09,0.73,0.76,4973,4333,3660,47,42,57,64,98,0
4922,4292,3627,-51,-41,-33,10240,0.02,-0.09,0.73,0.76,4971,4331,3659,47,42,57,64,98,0
4921,4290,3626,-49,-40,-32,10240,0.02,-0.09,0.73,0.76,4969,4330,3658,47,42,57,64,98,0
4919,4288,3624,-49,-40,-32,10240,0.02,-0.09,0.73,0.76,4968,4328,3657,47,42,57,64,98,0
4926,4293,3628,-46,-38,-31,10240,0.02,-0.09,0.73,0.76,4966,4327,3656,47,42,57,64,98,0
4928,4294,3631,-43,-36,-29,10240,0.02,-0.09,0.73,0.76,4965,4326,3655,47,42,57,64,98,0
4929,4296,3632,-40,-33,-26,10240,0.02,-0.09,0.73,0.76,4964,4325,3654,47,42,57,64,98,0
4930,4295,3632,-36,-31,-23,10240,0.02,-0.09,0.73,0.76,4963,4324,3653,47,42,57,64,98,0
4930,4294,3632,-34,-29,-22,10240,0.02,-0.09,0.73,0.76,4961,4323,3653,47,42,57,64,98,0
4930,4296,3632,-32,-28,-21,10240,0.02,-0.09,0.73,0.76,4960,4322,3652,47,42,57,64,98,0
4929,4296,3632,-31,-27,-20,10240,0.02,-0.09,0.73,0.76,4959,4321,3651,47,42,57,64,98,0
4931,4297,3633,-29,-26,-19,10240,0.02,-0.09,0.73,0.76,4958,4321,3651,47,42,57,64,98,0
4930,4296,3633,-28,-24,-18,10240,0.02,-0.09,0.73,0.76,4958,4320,3650,47,42,57,64,98,0
4927,4294,3631,-28,-24,-18,10240,0.02,-0.09,0.73,0.76,4956,4319,3650,47,42,57,64,98,0
4921,4291,3627,-29,-25,-19,10240,0.02,-0.09,0.73,0.76,4955,4318,3649,44,38,48,64,98,0
4919,4290,3626,-31,-25,-20,10240,0.02,-0.09,0.67,0.68,4954,4317,3648,44,38,48,64,98,0
4919,4289,3625,-33,-26,-21,10240,0.02,-0.09,0.67,0.68,4953,4316,3647,44,38,48,64,98,0
4920,4290,3627,-33,-26,-21,10240,0.02,-0.09,0.67,0.68,4952,4315,3647,44,38,48,64,98,0
4919,4289,3626,-33,-26,-21,10240,0.02,-0.09,0.67,0.68,4951,4314,3646,44,38,48,64,98,0
4919,4290,3627,-32,-25,-20,10240,0.02,-0.09,0.67,0.68,4950,4314,3645,44,38,48,64,98,0
4920,4290,3627,-31,-24,-19,10240,0.02,-0.09,0.67,0.68,4949,4313,3645,44,38,48,64,98,0
4920,4291,3626,-30,-23,-18,10240,0.02,-0.09,0.67,0.68,4948,4312,3644,44,38,48,64,98,0
4923,4293,3628,-28,-21,-17,10240,0.02,-0.09,0.67,0.68,4947,4311,3644,44,38,48,64,98,0
4925,4295,3630,-25,-19,-16,10240,0.02,-0.09,0.67,0.68,4946,4311,3643,44,38,48,64,98,0
4929,4296,3631,-22,-17,-14,10240,0.02,-0.09,0.67,0.68,4946,4310,3643,44,38,48,64,98,0
4927,4295,3630,-20,-15,-13,10240,0.02,-0.09,0.67,0.68,4945,4310,3642,44,38,48,64,98,0
4924,4293,3629,-19,-15,-12,10240,0.02,-0.09,0.67,0.68,4944,4309,3642,44,38,48,64,98,0
4922,4292,3627,-19,-15,-12,10240,0.02,-0.09,0.67,0.68,4944,4309,3641,44,38,48,64,98,0
4922,4292,3626,-20,-16,-13,10240,0.02,-0.09,0.67,0.68,4943,4308,3641,44,38,48,64,98,0
4920,4290,3626,-21,-16,-14,10240,0.02,-0.09,0.67,0.68,4942,4308,3640,44,38,48,64,98,0
4921,4289,3627,-21,-17,-14,10240,0.02,-0.09,0.67,0.68,4941,4307,3640,44,38,48,64,98,0
4922,4290,3627,-20,-17,-13,10240,0.02,-0.09,0.67,0.68,4941,4306,3639,44,38,48,64,98,0
4923,4290,3627,-19,-17,-12,10240,0.02,-0.09,0.67,0.68,4940,4306,3639,44,38,48,64,98,0
4924,4292,3628,-18,-15,-12,10240,0.02,-0.09,0.67,0.68,4940,4305,3639,44,38,48,64,98,0
4927,4293,3630,-16,-14,-10,10240,0.02,-0.09,0.67,0.68,4939,4305,3638,44,38,48,64,98,0
4929,4296,3631,-13,-12,-9,10240,0.02,-0.09,0.67,0.68,4939,4305,3638,44,38,48,64,98,0
4930,4295,3631,-11,-10,-8,10240,0.02,-0.09,0.67,0.68,4938,4304,3638,44,38,48,64,98,0
4931,4296,3632,-9,-9,-7,10240,0.02,-0.09,0.67,0.68,4938,4304,3638,44,38,48,64,98,0
4930,4296,3632,-8,-8,-6,10240,0.02,-0.09,0.67,0.68,4938,4304,3637,44,38,48,64,98,0
4928,4295,3630,-8,-8,-6,10240,0.02,-0.09,0.67,0.68,4938,4304,3637,44,38,48,64,98,0
4929,4296,3631,-8,-8,-6,10240,0.02,-0.09,0.67,0.68,4937,4303,3637,44,38,48,80,98,0
4930,4295,3631,-8,-8,-6,10240,0.02,-0.09,0.67,0.68,4937,4303,3637,44,38,48,80,98,0
4933,4298,3633,-7,-7,-5,10240,0.02,-0.09,0.67,0.68,4937,4303,3637,44,38,48,80,98,0
4936,4300,3635,-5,-5,-4,10240,0.02,-0.09,0.67,0.68,4937,4303,3637,44,38,48,80,98,0
4938,4300,3636,-2,-4,-3,10240,0.02,-0.09,0.67,0.68,4937,4303,3637,44,38,48,80,98,0
4937,4301,3635,-1,-3,-2,10240,0.02,-0.09,0.67,0.68,4937,4303,3637,44,38,48,80,98,0
4939,4301,3635,0,-2,-1,10240,0.02,-0.09,0.67,0.68,4937,4303,3636,44,38,48,80,98,0
4938,4302,3636,1,-1,-1,10240,0.02,-0.09,0.67,0.68,4937,4302,3636,44,38,48,80,98,0
4938,4300,3635,1,-1,-1,10240,0.02,-0.09,0.67,0.68,4937,4302,3636,44,38,48,80,98,0
4933,4296,3632,0,-2,-1,10240,0.02,-0.09,0.67,0.68,4937,4302,3636,38,38,48,80,98,0
4933,4295,3629,-1,-3,-3,10240,0.02,-0.09,0.67,0.68,4937,4302,3636,38,38,48,80,98,0
4931,4292,3628,-3,-6,-5,10240,0.02,-0.09,0.67,0.68,4937,4302,3636,38,38,48,80,98,0
4924,4286,3622,-6,-9,-8,10240,0.02,-0.09,0.67,0.68,4936,4301,3635,38,38,48,80,98,0
4919,4281,3618,-9,-12,-11,10240,0.02,-0.09,0.67,0.68,4936,4300,3635,38,38,48,80,98,0
4916,4278,3616,-13,-16,-14,10240,0.02,-0.09,0.67,0.68,4935,4300,3634,38,38,48,80,98,0
4910,4272,3611,-18,-20,-17,10240,0.02,-0.09,0.67,0.68,4934,4299,3633,38,38,48,80,98,0
4907,4269,3610,-21,-24,-20,10240,0.02,-0.09,0.67,0.68,4933,4298,3633,38,38,48,80,98,0
4906,4268,3609,-23,-26,-21,10240,0.02,-0.09,0.67,0.68,4932,4297,3632,38,38,48,80,98,0
4905,4267,3608,-25,-28,-22,10240,0.02,-0.09,0.67,0.68,4931,4296,3631,38,38,48,80,98,0
4904,4265,3607,-26,-29,-23,10240,0.02,-0.09,0.67,0.68,4931,4295,3630,38,38,48,80,98,0
4900,4264,3605,-27,-29,-23,10240,0.02,-0.09,0.67,0.68,4930,4294,3629,38,38,48,80,98,0
4899,4263,3605,-28,-29,-23,10240,0.02,-0.09,0.67,0.68,4928,4293,3629,38,38,48,80,98,0
4897,4261,3603,-29,-30,-24,10240,0.02,-0.09,0.67,0.68,4927,4292,3628,38,38,48,80,98,0
4893,4257,3601,-30,-31,-24,10240,0.02,-0.09,0.67,0.68,4926,4290,3627,38,38,48,80,98,0
4887,4254,3597,-32,-32,-26,10240,0.02,-0.09,0.67,0.68,4925,4289,3626,38,38,48,80,98,0
4877,4246,3589,-36,-35,-29,10240,0.02,-0.09,0.67,0.68,4923,4288,3625,38,38,48,80,98,0
4872,4243,3585,-41,-38,-32,10240,0.02,-0.09,0.67,0.68,4922,4286,3623,38,38,48,80,98,0
4873,4241,3586,-45,-41,-34,10240,0.02,-0.09,0.67,0.68,4920,4285,3622,38,38,48,80,98,0
4873,4242,3586,-47,-42,-36,10240,0.02,-0.09,0.67,0.68,4919,4283,3621,38,38,48,80,98,0
4875,4243,3586,-46,-41,-35,10240,0.02,-0.09,0.67,0.68,4917,4282,3620,38,38,48,80,98,0
4872,4240,3584,-44,-41,-34,10240,0.02,-0.09,0.67,0.68,4916,4281,3618,38,38,48,80,98,0
4872,4236,3584,-43,-41,-34,10240,0.02,-0.09,0.67,0.68,4914,4279,3617,38,38,48,80,98,0
4871,4235,3584,-42,-41,-33,10240,0.02,-0.09,0.67,0.68,4913,4278,3616,38,38,48,80,98,0
4871,4238,3584,-42,-41,-32,10240,0.02,-0.09,0.67,0.68,4911,4276,3615,38,38,48,80,98,0
4873,4240,3583,-40,-39,-31,10240,0.02,-0.09,0.67,0.68,4910,4275,3614,38,38,48,80,98,0
4874,4243,3586,-38,-36,-30,10240,0.02,-0.09,0.67,0.68,4909,4274,3613,38,38,48,80,98,0
4873,4240,3584,-36,-34,-29,10240,0.02,-0.09,0.67,0.68,4908,4273,3612,38,38,48,80,98,0
4872,4239,3584,-35,-33,-28,10240,0.02,-0.09,0.67,0.68,4906,4272,3611,38,38,48,80,98,0
4871,4237,3584,-34,-32,-27,10240,0.02,-0.09,0.67,0.68,4905,4271,3610,38,38,48,80,98,0
4870,4234,3584,-34,-33,-26,10240,0.02,-0.09,0.67,0.68,4904,4269,3609,38,38,48,80,98,0
4869,4228,3584,-34,-35,-25,10240,0.02,-0.09,0.67,0.68,4903,4268,3609,38,38,48,80,98,0
4869,4228,3584,-33,-37,-25,10240,0.02,-0.09,0.67,0.68,4902,4267,3608,38,38,48,80,98,0
4869,4229,3585,-33,-37,-24,10240,0.02,-0.09,0.67,0.68,4901,4265,3607,38,38,48,80,98,0
4870,4232,3584,-32,-36,-23,10240,0.02,-0.09,0.67,0.68,4900,4264,3606,38,38,48,80,98,0
4871,4237,3585,-30,-33,-22,10240,0.02,-0.09,0.67,0.68,4899,4263,3606,38,38,48,80,98,0
4873,4244,3587,-28,-28,-20,10240,0.02,-0.09,0.67,0.68,4898,4263,3605,38,38,48,80,98,0
4877,4249,3590,-25,-22,-18,10240,0.02,-0.09,0.67,0.68,4897,4262,3604,38,38,48,80,98,0
4884,4253,3595,-21,-16,-15,10240,0.02,-0.09,0.67,0.68,4897,4262,3604,38,38,48,80,98,0
4892,4259,3601,-15,-11,-11,10240,0.02,-0.09,0.67,0.68,4896,4262,3604,38,38,48,80,98,0
4901,4267,3608,-8,-5,-5,10240,0.02,-0.09,0.67,0.68,4897,4262,3604,38,38,48,80,98,0
4914,4279,3617,1,2,1,10240,0.02,-0.09,0.67,0.68,4897,4263,3605,38,38,48,80,98,0
4918,4281,3620,9,9,7,10240,0.02,-0.09,0.67,0.68,4898,4263,3605,38,38,48,80,98,0
4920,4286,3621,15,15,11,10240,0.02,-0.09,0.67,0.68,4899,4264,3606,38,38,48,80,98,0
4924,4288,3624,20,19,15,10240,0.02,-0.09,0.67,0.68,4899,4265,3606,38,38,48,80,98,0
4924,4289,3624,22,21,16,10240,0.02,-0.09,0.67,0.68,4900,4266,3607,38,38,48,80,98,0
4915,4281,3623,21,20,16,10240,0.02,-0.09,0.67,0.68,4901,4266,3607,46,43,48,80,98,0
4910,4277,3616,18,17,14,10240,0.02,-0.09,0.67,0.68,4901,4267,3608,46,43,49,80,98,0
4903,4270,3611,12,12,11,10240,0.02,-0.09,0.74,0.69,4901,4267,3608,46,43,49,80,98,0
4901,4268,3609,6,7,7,10240,0.02,-0.09,0.74,0.69,4901,4267,3608,46,43,49,80,98,0
4897,4266,3607,1,3,2,10240,0.02,-0.09,0.74,0.69,4901,4267,3608,46,43,49,80,98,0
4901,4268,3607,0,1,0,10240,0.02,-0.09,0.74,0.69,4901,4267,3608,46,43,49,80,98,0
4905,4271,3611,0,1,0,10240,0.02,-0.09,0.74,0.69,4901,4267,3608,46,43,49,80,98,0
4905,4271,3611,1,2,1,10240,0.02,-0.09,0.74,0.69,4901,4267,3608,46,43,49,80,98,0
4903,4270,3610,2,3,1,10240,0.02,-0.09,0.74,0.69,4901,4267,3608,46,43,49,80,98,0
4900,4269,3609,2,3,2,10240,0.02,-0.09,0.74,0.69,4901,4267,3608,46,43,49,80,98,0
4898,4266,3607,0,2,1,10240,0.02,-0.09,0.74,0.69,4901,4267,3608,46,43,49,80,98,0
4889,4259,3601,-3,-1,-1,10240,0.02,-0.09,0.74,0.69,4901,4267,3608,46,43,49,80,98,0
4884,4256,3598,-8,-4,-4,10240,0.02,-0.09,0.74,0.69,4900,4266,3607,46,43,49,80,98,0
4880,4253,3595,-12,-8,-7,10240,0.02,-0.09,0.74,0.69,4900,4266,3607,46,43,49,80,98,0
4876,4250,3592,-17,-11,-10,10240,0.02,-0.09,0.74,0.69,4899,4265,3607,46,43,49,80,98,0
4872,4246,3589,-21,-14,-13,10240,0.02,-0.09,0.74,0.69,4898,4265,3606,46,43,49,80,98,0
4870,4243,3588,-24,-17,-15,10240,0.02,-0.09,0.74,0.69,4897,4264,3605,46,43,49,80,98,0
4873,4244,3590,-24,-18,-16,10240,0.02,-0.09,0.74,0.69,4896,4263,3605,46,43,49,80,98,0
4873,4247,3590,-24,-18,-15,10240,0.02,-0.09,0.74,0.69,4895,4263,3604,46,43,49,80,98,0
4876,4250,3592,-22,-17,-14,10240,0.02,-0.09,0.74,0.69,4895,4262,3604,46,43,49,80,98,0
4887,4257,3600,-18,-13,-11,10240,0.02,-0.09,0.74,0.69,4895,4262,3604,46,43,49,80,98,0
4892,4262,3604,-12,-8,-7,10240,0.02,-0.09,0.74,0.69,4894,4262,3604,46,43,49,80,98,0
4892,4261,3603,-7,-4,-4,10240,0.02,-0.09,0.74,0.69,4894,4262,3604,46,43,49,80,98,0
4891,4261,3604,-3,-1,-1,10240,0.02,-0.09,0.74,0.69,4894,4262,3604,46,43,49,80,98,0
4895,4265,3606,-1,0,0,10240,0.02,-0.09,0.74,0.69,4894,4262,3604,46,43,49,80,98,0
4898,4267,3607,0,1,1,10240,0.02,-0.09,0.74,0.69,4894,4262,3604,46,43,49,80,98,0
4900,4268,3609,1,3,2,10240,0.02,-0.09,0.74,0.69,4895,4263,3604,46,43,49,80,98,0
4898,4266,3609,3,4,3,10240,0.02,-0.09,0.74,0.69,4895,4263,3604,46,43,49,80,98,0
4896,4265,3607,3,3,4,10240,0.02,-0.09,0.74,0.69,4895,4263,3604,46,38,49,80,98,0
4897,4265,3607,2,3,4,10240,0.02,-0.09,0.74,0.69,4895,4263,3604,41,38,49,80,98,0
4900,4268,3608,2,3,3,10240,0.02,-0.09,0.74,0.69,4895,4263,3605,41,38,49,80,98,0
4904,4271,3611,4,4,3,10240,0.02,-0.09,0.74,0.69,4895,4263,3605,41,38,49,80,98,0
4899,4268,3607,5,4,3,10240,0.02,-0.09,0.74,0.69,4895,4264,3605,41,38,49,80,98,0
4893,4261,3603,4,3,2,10240,0.02,-0.09,0.74,0.69,4895,4263,3605,41,38,49,80,98,0
4883,4255,3597,0,0,0,10240,0.02,-0.09,0.74,0.69,4895,4263,3605,41,38,49,80,98,0
4877,4250,3591,-6,-4,-5,10240,0.02,-0.09,0.74,0.69,4894,4263,3604,41,38,49,80,98,0
4870,4242,3587,-13,-10,-10,10240,0.02,-0.09,0.74,0.69,4894,4262,3604,41,38,49,80,98,0
4869,4239,3586,-19,-15,-13,10240,0.02,-0.09,0.74,0.69,4893,4261,3603,41,38,49,80,98,0
4868,4238,3586,-22,-19,-15,10240,0.02,-0.09,0.74,0.69,4892,4260,3602,41,38,49,80,98,0
4867,4236,3586,-24,-22,-16,10240,0.02,-0.09,0.74,0.69,4891,4260,3602,41,38,49,80,98,0
4868,4235,3586,-23,-23,-16,10240,0.02,-0.09,0.74,0.69,4890,4259,3601,41,38,49,80,98,0
4867,4233,3586,-23,-23,-15,10240,0.02,-0.09,0.74,0.69,4890,4258,3601,41,38,49,80,98,0
4867,4232,3586,-22,-24,-15,10240,0.02,-0.09,0.74,0.69,4889,4257,3600,41,38,49,80,98,0
4866,4232,3586,-22,-24,-14,10240,0.02,-0.09,0.74,0.69,4888,4256,3600,41,38,49,80,98,0
4866,4231,3586,-22,-24,-14,10240,0.02,-0.09,0.74,0.69,4887,4255,3599,41,38,49,80,98,0
4867,4233,3586,-21,-23,-13,10240,0.02,-0.09,0.74,0.69,4887,4255,3599,41,38,49,80,98,0
4867,4235,3587,-20,-22,-13,10240,0.02,-0.09,0.74,0.69,4886,4254,3599,41,38,49,80,98,0
4867,4237,3587,-19,-20,-12,10240,0.02,-0.09,0.74,0.69,4885,4253,3598,41,38,49,80,98,0
4868,4238,3587,-18,-18,-11,10240,0.02,-0.09,0.74,0.69,4885,4253,3598,41,38,49,80,98,0
4867,4236,3587,-17,-16,-11,10240,0.02,-0.09,0.74,0.69,4884,4252,3597,41,38,49,80,98,0
4868,4238,3587,-17,-15,-10,10240,0.02,-0.09,0.74,0.69,4884,4252,3597,41,38,49,80,98,0
4867,4237,3587,-16,-14,-10,10240,0.02,-0.09,0.74,0.69,4883,4251,3597,41,38,49,80,98,0
4868,4236,3587,-16,-14,-9,10240,0.02,-0.09,0.74,0.69,4883,4251,3596,41,38,49,80,98,0
4866,4235,3586,-15,-14,-9,10240,0.02,-0.09,0.74,0.69,4882,4250,3596,41,38,49,80,98,0
4866,4232,3586,-15,-15,-9,10240,0.02,-0.09,0.74,0.69,4881,4250,3596,41,38,49,80,98,0
4864,4231,3585,-15,-16,-9,10240,0.02,-0.09,0.74,0.69,4881,4249,3595,41,38,49,80,98,0
4868,4239,3586,-15,-15,-9,10240,0.02,-0.09,0.74,0.69,4880,4249,3595,41,38,49,80,98,0
4871,4245,3589,-13,-12,-8,10240,0.02,-0.09,0.74,0.69,4880,4249,3595,41,38,49,80,98,0
4875,4250,3592,-10,-7,-7,10240,0.02,-0.09,0.74,0.69,4880,4249,3595,41,38,49,80,98,0
4884,4256,3599,-5,-1,-3,10240,0.02,-0.09,0.74,0.69,4880,4249,3595,41,38,49,80,98,0
4887,4258,3599,0,3,0,10240,0.02,-0.09,0.74,0.69,4880,4249,3595,41,38,49,80,98,0
4887,4258,3600,3,6,2,10240,0.02,-0.09,0.74,0.69,4881,4250,3595,41,38,49,80,98,0
4885,4256,3598,5,7,4,10240,0.02,-0.09,0.74,0.69,4881,4250,3595,41,38,49,80,98,0
4880,4252,3594,4,6,2,10240,0.02,-0.09,0.74,0.69,4881,4250,3595,38,34,49,80,98,0
4874,4248,3590,0,3,0,10240,0.02,-0.09,0.74,0.69,4880,4250,3595,38,34,49,80,98,0
4869,4242,3588,-3,0,-2,10240,0.02,-0.09,0.74,0.69,4880,4250,3595,38,34,49,80,98,0
4867,4238,3587,-7,-4,-5,10240,0.02,-0.09,0.74,0.69,4880,4249,3595,38,34,49,80,98,0
4867,4233,3586,-10,-9,-7,10240,0.02,-0.09,0.74,0.69,4879,4249,3594,38,34,49,80,98,0
4865,4233,3587,-12,-12,-7,10240,0.02,-0.09,0.74,0.69,4879,4248,3594,38,34,49,80,98,0
4866,4233,3587,-12,-14,-7,10240,0.02,-0.09,0.74,0.69,4878,4248,3594,38,34,49,80,98,0
4867,4233,3587,-12,-15,-7,10240,0.02,-0.09,0.74,0.69,4878,4247,3594,38,34,49,80,98,0
4866,4234,3587,-12,-14,-6,10240,0.02,-0.09,0.74,0.69,4878,4247,3593,38,34,49,80,98,0
4869,4243,3587,-10,-11,-6,10240,0.02,-0.09,0.74,0.69,4877,4246,3593,38,34,49,80,98,0
4870,4245,3589,-9,-7,-5,10240,0.02,-0.09,0.74,0.69,4877,4246,3593,38,34,49,80,98,0
4870,4246,3588,-8,-4,-5,10240,0.02,-0.09,0.74,0.69,4877,4246,3593,38,34,49,80,98,0
4870,4243,3588,-7,-1,-5,10240,0.02,-0.09,0.74,0.69,4877,4246,3593,38,34,49,80,98,0
4872,4245,3590,-6,-1,-4,10240,0.02,-0.09,0.74,0.69,4876,4246,3593,38,34,49,80,98,0
4871,4246,3590,-5,-1,-3,10240,0.02,-0.09,0.74,0.69,4876,4246,3592,38,34,49,80,98,0
4868,4241,3588,-6,-2,-3,10240,0.02,-0.09,0.74,0.69,4876,4246,3592,38,34,49,80,98,0
4866,4237,3587,-6,-3,-3,10240,0.02,-0.09,0.74,0.69,4876,4246,3592,38,34,49,80,98,0
4866,4235,3587,-8,-6,-4,10240,0.02,-0.09,0.74,0.69,4875,4245,3592,38,34,49,80,98,0
4866,4236,3587,-9,-8,-4,10240,0.02,-0.09,0.74,0.69,4875,4245,3592,38,34,49,80,98,0
4865,4234,3587,-9,-9,-5,10240,0.02,-0.09,0.74,0.69,4875,4245,3592,38,34,49,80,98,0
4865,4233,3587,-9,-10,-5,10240,0.02,-0.09,0.74,0.69,4874,4244,3592,38,34,49,80,98,0
4866,4231,3586,-9,-11,-5,10240,0.02,-0.09,0.74,0.69,4874,4244,3591,38,34,49,80,98,0
4864,4230,3586,-9,-12,-5,10240,0.02,-0.09,0.74,0.69,4874,4244,3591,38,34,49,80,98,0
4862,4229,3585,-9,-13,-5,10240,0.02,-0.09,0.74,0.69,4873,4243,3591,38,34,49,80,98,0
4863,4228,3586,-9,-14,-5,10240,0.02,-0.09,0.74,0.69,4873,4243,3591,38,34,49,80,98,0
4862,4227,3584,-10,-14,-5,10240,0.02,-0.09,0.74,0.69,4873,4242,3591,38,34,49,80,98,0
4862,4226,3585,-10,-14,-5,10240,0.02,-0.09,0.74,0.69,4872,4241,3590,38,34,49,80,98,0
4856,4224,3582,-11,-15,-6,10240,0.02,-0.09,0.74,0.69,4872,4241,3590,38,34,49,80,98,0
4857,4223,3581,-12,-16,-7,10240,0.02,-0.09,0.74,0.69,4871,4240,3590,38,34,49,80,98,0
4857,4223,3581,-13,-16,-7,10240,0.02,-0.09,0.74,0.69,4871,4240,3589,38,34,49,80,98,0
4859,4225,3582,-13,-16,-8,10240,0.02,-0.09,0.74,0.69,4870,4239,3589,38,34,49,80,98,0
4861,4225,3584,-12,-15,-7,10240,0.02,-0.09,0.74,0.69,4870,4239,3589,38,34,49,80,98,0
4859,4226,3582,-11,-14,-6,10240,0.02,-0.09,0.74,0.69,4870,4238,3589,38,34,49,80,98,0
4857,4226,3583,-10,-13,-6,10240,0.02,-0.09,0.74,0.69,4869,4238,3589,38,34,49,80,98,0
4860,4226,3584,-10,-12,-5,10240,0.02,-0.09,0.74,0.69,4869,4238,3588,38,34,49,80,98,0
4863,4227,3585,-9,-11,-5,10240,0.02,-0.09,0.74,0.69,4869,4237,3588,38,34,49,80,98,0
4862,4228,3586,-8,-10,-3,10240,0.02,-0.09,0.74,0.69,4868,4237,3588,38,34,49,80,98,0
4861,4227,3584,-7,-10,-3,10240,0.02,-0.09,0.74,0.69,4868,4237,3588,38,34,49,80,98,0
4862,4228,3586,-6,-9,-2,10240,0.02,-0.09,0.74,0.69,4868,4236,3588,38,34,49,80,98,0
4862,4228,3586,-6,-8,-2,10240,0.02,-0.09,0.74,0.69,4868,4236,3588,38,34,49,80,98,0
4866,4230,3585,-5,-8,-2,10240,0.02,-0.09,0.74,0.69,4868,4236,3588,38,34,49,80,98,0
4864,4230,3585,-4,-7,-2,10240,0.02,-0.09,0.74,0.69,4868,4236,3588,38,34,49,80,98,0
4863,4229,3585,-4,-6,-2,10240,0.02,-0.09,0.74,0.69,4867,4235,3588,38,34,49,80,98,0
4863,4228,3586,-3,-6,-2,10240,0.02,-0.09,0.74,0.69,4867,4235,3588,38,34,49,80,98,0
4862,4229,3586,-4,-6,-2,10240,0.02,-0.09,0.74,0.69,4867,4235,3588,38,34,49,80,98,0
4866,4232,3586,-3,-5,-2,10240,0.02,-0.09,0.74,0.69,4867,4235,3588,38,34,49,80,98,0
4866,4234,3587,-2,-4,-1,10240,0.02,-0.09,0.74,0.69,4867,4235,3588,38,34,49,80,98,0
4867,4236,3587,-1,-2,-1,10240,0.02,-0.09,0.74,0.69,4867,4235,3587,38,34,49,80,98,0
4865,4235,3586,-1,0,-1,10240,0.02,-0.09,0.74,0.69,4867,4235,3587,38,34,49,80,98,0
4865,4232,3587,-1,0,0,10240,0.02,-0.09,0.74,0.69,4867,4235,3587,38,34,49,80,98,0
4865,4230,3586,-1,-1,0,10240,0.02,-0.09,0.74,0.69,4867,4235,3587,38,34,49,80,98,0
4865,4230,3585,-2,-3,-1,10240,0.02,-0.09,0.74,0.69,4867,4234,3587,38,34,49,80,98,0
4865,4228,3586,-2,-4,-1,10240,0.02,-0.09,0.74,0.69,4867,4234,3587,38,34,49,71,98,0
4863,4229,3586,-2,-5,-1,10240,0.02,-0.09,0.74,0.69,4867,4234,3587,38,34,49,71,98,0
4864,4230,3586,-2,-4,-1,10240,0.02,-0.09,0.74,0.69,4867,4234,3587,38,34,49,71,98,0
4866,4232,3586,-2,-4,-1,10240,0.02,-0.09,0.74,0.69,4867,4234,3587,38,34,49,71,98,0
4867,4237,3587,-2,-2,0,10240,0.02,-0.09,0.74,0.69,4867,4234,3587,38,34,49,71,98,0
4865,4233,3587,-1,-1,0,10240,0.02,-0.09,0.74,0.69,4866,4234,3587,38,34,49,71,98,0
4867,4235,3587,0,0,0,10240,0.02,-0.09,0.74,0.69,4866,4234,3587,38,34,49,71,98,0
4867,4238,3587,0,1,0,10240,0.02,-0.09,0.74,0.69,4867,4234,3587,38,34,49,71,98,0
4864,4230,3586,0,0,0,10240,0.02,-0.09,0.74,0.69,4866,4234,3587,38,34,49,71,98,0
4863,4229,3585,-1,-1,0,10240,0.02,-0.09,0.74,0.69,4866,4234,3587,38,34,49,71,98,0
4863,4230,3587,-2,-2,0,10240,0.02,-0.09,0.74,0.69,4866,4234,3587,38,34,49,71,98,0
4865,4232,3585,-2,-3,-1,10240,0.02,-0.09,0.74,0.69,4866,4234,3587,38,34,49,71,98,0
4864,4230,3586,-2,-3,-1,10240,0.02,-0.09,0.74,0.69,4866,4233,3587,38,34,49,71,98,0
4862,4229,3585,-2,-3,-1,10240,0.02,-0.09,0.74,0.69,4866,4233,3587,38,34,49,71,98,0
4860,4228,3585,-3,-3,-1,10240,0.02,-0.09,0.74,0.69,4866,4233,3587,38,34,49,71,98,0
4859,4227,3584,-4,-4,-2,10240,0.02,-0.09,0.74,0.69,4866,4233,3587,38,34,49,71,98,0
4860,4228,3584,-5,-5,-2,10240,0.02,-0.09,0.74,0.69,4865,4233,3587,38,34,49,71,98,0
4860,4229,3584,-5,-5,-2,10240,0.02,-0.09,0.74,0.69,4865,4233,3587,38,34,49,71,98,0
4861,4229,3584,-5,-4,-2,10240,0.02,-0.09,0.74,0.69,4865,4232,3586,38,34,49,71,98,0
4856,4226,3582,-5,-4,-3,10240,0.02,-0.09,0.74,0.69,4865,4232,3586,38,34,49,71,98,0
4848,4222,3577,-8,-5,-4,10240,0.02,-0.09,0.74,0.69,4864,4232,3586,38,34,49,71,98,0
4842,4216,3572,-12,-8,-7,10240,0.02,-0.09,0.74,0.69,4863,4231,3586,38,34,49,71,98,0
4838,4213,3569,-17,-12,-10,10240,0.02,-0.09,0.74,0.69,4863,4231,3585,38,34,49,71,98,0
4835,4211,3566,-22,-15,-14,10240,0.02,-0.09,0.74,0.69,4862,4230,3584,38,34,49,71,98,0
4828,4204,3561,-26,-19,-17,10240,0.02,-0.09,0.74,0.69,4861,4229,3584,38,34,49,71,98,0
4824,4201,3560,-30,-22,-20,10240,0.02,-0.09,0.74,0.69,4859,4228,3583,38,34,49,71,98,0
4823,4198,3558,-32,-25,-22,10240,0.02,-0.09,0.74,0.69,4858,4227,3582,38,34,49,71,98,0
4822,4198,3558,-34,-27,-23,10240,0.02,-0.09,0.74,0.69,4857,4226,3581,38,34,49,71,98,0
4818,4195,3556,-35,-28,-23,10240,0.02,-0.09,0.74,0.69,4856,4225,3580,38,34,49,71,98,0
4817,4195,3555,-36,-29,-24,10240,0.02,-0.09,0.74,0.69,4854,4224,3580,38,34,49,71,98,0
4816,4194,3554,-36,-29,-24,10240,0.02,-0.09,0.74,0.69,4853,4223,3579,38,34,49,71,98,0
4817,4195,3554,-36,-28,-24,10240,0.02,-0.09,0.74,0.69,4852,4222,3578,38,34,49,71,98,0
4820,4197,3557,-35,-27,-23,10240,0.02,-0.09,0.74,0.69,4851,4222,3577,38,34,49,71,98,0
4822,4200,3558,-32,-25,-21,10240,0.02,-0.09,0.74,0.69,4850,4221,3576,38,34,49,71,98,0
4830,4206,3561,-28,-21,-19,10240,0.02,-0.09,0.74,0.69,4849,4220,3576,38,34,49,71,98,0
4834,4208,3566,-23,-18,-15,10240,0.02,-0.09,0.74,0.69,4849,4220,3576,38,34,49,71,98,0
4836,4211,3569,-18,-14,-12,10240,0.02,-0.09,0.74,0.69,4848,4220,3575,38,34,49,71,98,0
4841,4214,3572,-13,-10,-8,10240,0.02,-0.09,0.74,0.69,4848,4219,3575,38,34,49,71,98,0
4845,4219,3575,-9,-6,-4,10240,0.02,-0.09,0.74,0.69,4848,4219,3575,38,34,49,71,98,0
4847,4220,3577,-5,-3,-1,10240,0.02,-0.09,0.74,0.69,4848,4219,3575,38,34,49,71,98,0
4844,4218,3574,-3,-1,0,10240,0.02,-0.09,0.74,0.69,4848,4219,3575,38,34,49,71,98,0
4843,4217,3574,-3,0,0,10240,0.02,-0.09,0.74,0.69,4848,4219,3575,38,34,49,71,98,0
4842,4217,3571,-3,-1,-1,10240,0.02,-0.09,0.74,0.69,4847,4219,3575,38,33,43,71,98,0
4842,4217,3572,-4,-1,-2,10240,0.02,-0.09,0.65,0.65,4847,4219,3575,37,33,43,71,98,0
4841,4217,3572,-5,-2,-2,10240,0.02,-0.09,0.65,0.65,4847,4219,3575,37,33,43,71,98,0
4839,4213,3570,-6,-3,-3,10240,0.02,-0.09,0.65,0.65,4847,4219,3575,37,33,43,71,98,0
4838,4213,3569,-6,-4,-4,10240,0.02,-0.09,0.65,0.65,4846,4219,3575,37,33,43,71,98,0
4837,4212,3569,-7,-5,-4,10240,0.02,-0.09,0.65,0.65,4846,4219,3574,37,33,43,71,98,0
4834,4211,3567,-9,-6,-5,10240,0.02,-0.09,0.65,0.65,4846,4218,3574,37,33,43,71,98,0
4833,4208,3567,-10,-7,-6,10240,0.02,-0.09,0.65,0.65,4845,4218,3574,37,33,43,71,98,0
4827,4204,3562,-12,-9,-7,10240,0.02,-0.09,0.65,0.65,4845,4217,3574,37,33,43,71,98,0
4824,4201,3559,-15,-11,-10,10240,0.02,-0.09,0.65,0.65,4844,4217,3573,37,33,43,71,98,0
4818,4197,3557,-18,-14,-12,10240,0.02,-0.09,0.65,0.65,4843,4216,3573,37,33,43,71,98,0
4817,4195,3555,-22,-17,-14,10240,0.02,-0.09,0.65,0.65,4842,4216,3572,37,33,43,71,98,0
4815,4193,3554,-24,-19,-16,10240,0.02,-0.09,0.65,0.65,4841,4215,3571,37,33,43,71,98,0
4812,4190,3551,-26,-21,-17,10240,0.02,-0.09,0.65,0.65,4840,4214,3571,37,33,43,71,98,0
4810,4187,3550,-27,-23,-18,10240,0.02,-0.09,0.65,0.65,4839,4213,3570,37,33,43,71,98,0
4809,4187,3549,-28,-24,-19,10240,0.02,-0.09,0.65,0.65,4838,4212,3569,37,33,43,71,98,0
4809,4187,3549,-28,-24,-20,10240,0.02,-0.09,0.65,0.65,4837,4211,3569,37,33,43,71,98,0
4810,4188,3550,-28,-24,-19,10240,0.02,-0.09,0.65,0.65,4837,4211,3568,37,33,43,71,98,0
4812,4190,3551,-27,-23,-18,10240,0.02,-0.09,0.65,0.65,4836,4210,3567,37,33,43,71,98,0
4812,4192,3552,-25,-21,-17,10240,0.02,-0.09,0.65,0.65,4835,4209,3567,37,33,43,71,98,0
4812,4192,3552,-24,-19,-15,10240,0.02,-0.09,0.65,0.65,4834,4209,3566,37,33,43,71,98,0
4812,4192,3552,-22,-17,-14,10240,0.02,-0.09,0.65,0.65,4833,4208,3566,37,33,43,71,98,0
4812,4192,3552,-21,-16,-14,10240,0.02,-0.09,0.65,0.65,4833,4208,3565,37,33,43,71,98,0
4815,4194,3555,-20,-15,-12,10240,0.02,-0.09,0.65,0.65,4832,4207,3565,37,33,43,71,98,0
4814,4195,3554,-19,-14,-12,10240,0.02,-0.09,0.65,0.65,4831,4207,3565,37,33,43,71,98,0
4816,4196,3554,-17,-12,-11,10240,0.02,-0.09,0.65,0.65,4831,4206,3564,37,33,43,71,98,0
4814,4194,3554,-16,-11,-10,10240,0.02,-0.09,0.65,0.65,4830,4206,3564,37,33,43,71,98,0
4813,4193,3554,-16,-11,-10,10240,0.02,-0.09,0.65,0.65,4830,4206,3564,37,33,43,71,98,0
4816,4196,3554,-15,-11,-9,10240,0.02,-0.09,0.65,0.65,4829,4205,3563,37,33,43,71,98,0
4816,4196,3555,-14,-10,-9,10240,0.02,-0.09,0.65,0.65,4829,4205,3563,37,33,43,71,98,0
4817,4197,3555,-13,-9,-8,10240,0.02,-0.09,0.65,0.65,4829,4205,3563,37,33,43,71,98,0
4816,4196,3554,-12,-8,-8,10240,0.02,-0.09,0.65,0.65,4828,4204,3563,37,33,43,71,98,0
4815,4196,3555,-12,-8,-8,10240,0.02,-0.09,0.65,0.65,4828,4204,3562,37,33,43,71,98,0
4814,4194,3553,-12,-8,-8,10240,0.02,-0.09,0.65,0.65,4827,4204,3562,37,33,43,71,98,0
4814,4194,3553,-12,-8,-8,10240,0.02,-0.09,0.65,0.65,4827,4203,3562,37,33,43,71,98,0
4814,4194,3554,-12,-9,-8,10240,0.02,-0.09,0.65,0.65,4826,4203,3561,37,33,43,71,98,0
4815,4194,3554,-12,-9,-8,10240,0.02,-0.09,0.65,0.65,4826,4203,3561,37,33,43,71,98,0
4815,4195,3554,-11,-8,-7,10240,0.02,-0.09,0.65,0.65,4826,4203,3561,37,33,43,71,98,0
4821,4200,3559,-9,-7,-5,10240,0.02,-0.09,0.65,0.65,4825,4202,3561,37,33,43,71,98,0
4821,4199,3558,-7,-5,-4,10240,0.02,-0.09,0.65,0.65,4825,4202,3561,37,33,43,71,98,0
4821,4200,3558,-5,-3,-3,10240,0.02,-0.09,0.65,0.65,4825,4202,3561,37,33,43,71,98,0
4822,4201,3559,-3,-2,-2,10240,0.02,-0.09,0.65,0.65,4825,4202,3561,37,33,43,71,98,0
4823,4202,3561,-3,-1,-2,10240,0.02,-0.09,0.65,0.65,4825,4202,3561,37,33,43,71,98,0
4825,4205,3562,-2,0,-1,10240,0.02,-0.09,0.65,0.65,4825,4202,3561,37,33,43,71,98,0
4823,4203,3561,-1,0,0,10240,0.02,-0.09,0.65,0.65,4825,4202,3561,37,33,43,69,98,0
4823,4204,3560,-1,1,0,10240,0.02,-0.09,0.65,0.65,4825,4202,3561,37,33,43,69,98,0
4824,4202,3561,-1,1,0,10240,0.02,-0.09,0.65,0.65,4825,4202,3561,37,33,43,69,98,0
4823,4201,3560,-1,0,0,10240,0.02,-0.09,0.65,0.65,4825,4202,3561,37,33,43,69,98,0
4824,4204,3561,-1,0,0,10240,0.02,-0.09,0.65,0.65,4825,4202,3561,37,33,43,69,98,0
4824,4203,3562,-1,0,0,10240,0.02,-0.09,0.65,0.65,4825,4203,3561,37,33,43,69,98,0
4823,4202,3560,-1,0,0,10240,0.02,-0.09,0.65,0.65,4825,4202,3561,37,33,43,69,98,0
4821,4202,3559,-2,0,0,10240,0.02,-0.09,0.65,0.65,4825,4202,3561,35,33,43,69,98,0
4824,4203,3560,-1,0,0,10240,0.02,-0.09,0.65,0.65,4824,4203,3560,35,33,43,69,98,0
4828,4204,3562,0,0,0,10240,0.02,-0.09,0.65,0.65,4825,4203,3561,35,33,43,69,98,0
4830,4208,3565,1,1,0,10240,0.02,-0.09,0.65,0.65,4825,4203,3561,35,33,43,69,98,0
4831,4209,3565,3,3,2,10240,0.02,-0.09,0.65,0.65,4825,4203,3561,35,33,43,69,98,0
4834,4211,3567,5,5,3,10240,0.02,-0.09,0.65,0.65,4825,4203,3561,35,33,43,69,98,0
4838,4214,3569,8,7,5,10240,0.02,-0.09,0.65,0.65,4826,4204,3561,35,33,43,69,98,0
4838,4215,3569,9,8,6,10240,0.02,-0.09,0.65,0.65,4826,4204,3562,35,33,43,69,98,0
4835,4211,3566,10,9,6,10240,0.02,-0.09,0.65,0.65,4826,4204,3562,35,33,43,69,98,0
4830,4207,3563,9,7,5,10240,0.02,-0.09,0.65,0.65,4827,4204,3562,35,33,39,69,98,0
4825,4202,3559,5,4,2,10240,0.02,-0.09,0.72,0.66,4826,4204,3562,35,33,39,69,98,0
4817,4195,3554,0,0,-1,10240,0.02,-0.09,0.72,0.66,4826,4204,3561,35,33,39,69,98,0
4814,4192,3552,-4,-4,-4,10240,0.02,-0.09,0.72,0.66,4826,4203,3561,35,33,39,69,98,0
4808,4187,3548,-9,-9,-8,10240,0.02,-0.09,0.72,0.66,4825,4203,3561,35,33,39,69,98,0
4805,4184,3547,-14,-13,-10,10240,0.02,-0.09,0.72,0.66,4825,4202,3560,35,33,39,69,98,0
4804,4183,3544,-17,-16,-12,10240,0.02,-0.09,0.72,0.66,4824,4202,3560,35,33,39,69,98,0
4804,4184,3545,-19,-17,-14,10240,0.02,-0.09,0.72,0.66,4823,4201,3559,35,33,39,69,98,0
4806,4186,3547,-19,-17,-13,10240,0.02,-0.09,0.72,0.66,4823,4201,3559,35,33,39,69,98,0
4812,4191,3550,-16,-15,-12,10240,0.02,-0.09,0.72,0.66,4822,4200,3558,35,33,39,69,98,0
4814,4194,3552,-13,-11,-10,10240,0.02,-0.09,0.72,0.66,4822,4200,3558,35,33,39,69,98,0
4815,4195,3554,-10,-8,-7,10240,0.02,-0.09,0.72,0.66,4822,4200,3558,35,33,39,69,98,0
4818,4196,3556,-7,-6,-5,10240,0.02,-0.09,0.72,0.66,4822,4200,3558,35,33,39,69,98,0
4819,4198,3557,-5,-4,-3,10240,0.02,-0.09,0.72,0.66,4821,4200,3558,35,33,39,69,98,0
4820,4199,3558,-3,-3,-1,10240,0.02,-0.09,0.72,0.66,4821,4200,3558,35,33,39,69,98,0
4819,4197,3556,-2,-2,-1,10240,0.02,-0.09,0.72,0.66,4821,4200,3558,35,33,39,69,98,0
4816,4195,3554,-2,-2,-1,10240,0.02,-0.09,0.72,0.66,4821,4199,3558,35,33,39,69,98,0
4812,4192,3552,-4,-3,-3,10240,0.02,-0.09,0.72,0.66,4821,4199,3558,35,33,39,69,98,0
4810,4191,3551,-6,-5,-4,10240,0.02,-0.09,0.72,0.66,4821,4199,3557,35,33,39,69,98,0
4812,4193,3552,-8,-6,-5,10240,0.02,-0.09,0.72,0.66,4820,4199,3557,35,33,39,69,98,0
4814,4194,3553,-8,-6,-5,10240,0.02,-0.09,0.72,0.66,4820,4199,3557,35,33,39,69,98,0
4815,4195,3555,-7,-5,-4,10240,0.02,-0.09,0.72,0.66,4820,4198,3557,35,33,39,69,98,0
4819,4198,3556,-5,-3,-3,10240,0.02,-0.09,0.72,0.66,4820,4198,3557,35,33,39,69,98,0
4819,4200,3557,-3,-1,-1,10240,0.02,-0.09,0.72,0.66,4820,4198,3557,35,33,39,69,98,0
4825,4202,3559,0,0,0,10240,0.02,-0.09,0.72,0.66,4820,4199,3557,35,33,39,69,98,0
4825,4203,3561,2,2,1,10240,0.02,-0.09,0.72,0.66,4820,4199,3557,35,33,39,69,98,0
4824,4203,3560,3,3,2,10240,0.02,-0.09,0.72,0.66,4820,4199,3557,35,33,39,69,98,0
4823,4201,3560,4,3,3,10240,0.02,-0.09,0.72,0.66,4820,4199,3557,35,33,39,69,98,0
4823,4201,3559,3,3,3,10240,0.02,-0.09,0.72,0.66,4820,4199,3557,35,33,39,69,98,0
4823,4201,3560,3,2,2,10240,0.02,-0.09,0.72,0.66,4821,4199,3558,35,33,39,69,98,0
4821,4199,3558,2,1,1,10240,0.02,-0.09,0.72,0.66,4821,4199,3558,35,33,39,69,98,0
4821,4200,3558,1,1,1,10240,0.02,-0.09,0.72,0.66,4821,4199,3558,35,33,39,69,98,0
4823,4201,3559,1,1,0,10240,0.02,-0.09,0.72,0.66,4821,4199,3558,35,33,39,64,98,0
4824,4202,3561,1,1,1,10240,0.02,-0.09,0.72,0.66,4821,4199,3558,35,33,39,64,98,0
4826,4203,3559,2,2,1,10240,0.02,-0.09,0.72,0.66,4821,4199,3558,35,33,39,64,98,0
4826,4204,3562,3,3,2,10240,0.02,-0.09,0.72,0.66,4821,4200,3558,35,33,39,64,98,0
4827,4204,3562,4,3,3,10240,0.02,-0.09,0.72,0.66,4821,4200,3558,35,33,39,64,98,0
4828,4205,3563,5,4,3,10240,0.02,-0.09,0.72,0.66,4822,4200,3558,35,33,39,64,98,0
4829,4205,3563,6,4,4,10240,0.02,-0.09,0.72,0.66,4822,4200,3558,35,33,39,64,98,0
4828,4204,3562,6,4,4,10240,0.02,-0.09,0.72,0.66,4822,4200,3558,35,33,39,64,98,0
4829,4206,3563,6,5,4,10240,0.02,-0.09,0.72,0.66,4822,4200,3559,35,33,39,64,98,0
4828,4205,3562,6,4,4,10240,0.02,-0.09,0.72,0.66,4822,4201,3559,35,33,39,64,98,0
4825,4203,3561,5,4,3,10240,0.02,-0.09,0.72,0.66,4822,4201,3559,35,33,39,64,98,0
4826,4204,3560,4,3,2,10240,0.02,-0.09,0.72,0.66,4823,4201,3559,35,33,39,64,98,0
4824,4202,3560,3,2,1,10240,0.02,-0.09,0.72,0.66,4823,4201,3559,35,33,39,64,98,0
4823,4201,3559,1,1,1,10240,0.02,-0.09,0.72,0.66,4823,4201,3559,35,33,39,64,98,0
4823,4200,3560,1,0,0,10240,0.02,-0.09,0.72,0.66,4823,4201,3559,35,33,39,64,98,0
4825,4202,3560,0,0,0,10240,0.02,-0.09,0.72,0.66,4823,4201,3559,35,33,39,64,98,0
4823,4201,3559,0,0,0,10240,0.02,-0.09,0.72,0.66,4823,4201,3559,35,33,39,64,98,0
4823,4200,3558,0,0,0,10240,0.02,-0.09,0.72,0.66,4823,4201,3559,35,33,39,64,98,0
4822,4199,3557,0,0,0,10240,0.02,-0.09,0.72,0.66,4823,4201,3559,35,33,39,64,98,0
4823,4199,3558,0,-1,-1,10240,0.02,-0.09,0.72,0.66,4823,4201,3559,35,33,39,64,98,0
4825,4201,3559,0,-1,-1,10240,0.02,-0.09,0.72,0.66,4823,4201,3559,35,33,39,64,98,0
4824,4200,3558,0,-1,-1,10240,0.02,-0.09,0.72,0.66,4823,4201,3559,35,33,39,64,98,0
4821,4198,3557,0,-1,-1,10240,0.02,-0.09,0.72,0.66,4823,4200,3559,35,33,39,64,98,0
4819,4195,3556,0,-2,-1,10240,0.02,-0.09,0.72,0.66,4823,4200,3559,35,33,39,64,98,0
4817,4192,3554,-2,-4,-2,10240,0.02,-0.09,0.72,0.66,4822,4200,3558,35,33,39,64,98,0
4813,4191,3552,-5,-6,-3,10240,0.02,-0.09,0.72,0.66,4822,4200,3558,35,33,39,64,98,0
4816,4192,3554,-6,-7,-4,10240,0.02,-0.09,0.72,0.66,4822,4199,3558,35,33,39,64,98,0
4819,4196,3556,-5,-6,-4,10240,0.02,-0.09,0.72,0.66,4822,4199,3558,35,33,39,64,98,0
4823,4199,3558,-4,-4,-3,10240,0.02,-0.09,0.72,0.66,4822,4199,3558,35,33,39,64,98,0
4827,4201,3561,0,-2,0,10240,0.02,-0.09,0.72,0.66,4822,4199,3558,35,33,39,64,98,0
4830,4204,3563,2,0,1,10240,0.02,-0.09,0.72,0.66,4822,4200,3558,35,33,39,64,98,0
4835,4208,3566,6,3,3,10240,0.02,-0.09,0.72,0.66,4823,4200,3559,35,33,39,64,98,0
4837,4211,3567,9,6,5,10240,0.02,-0.09,0.72,0.66,4823,4200,3559,35,33,39,64,98,0
4836,4211,3568,11,8,7,10240,0.02,-0.09,0.72,0.66,4824,4201,3559,35,33,39,64,98,0
4830,4206,3564,11,8,7,10240,0.02,-0.09,0.72,0.66,4824,4201,3559,35,33,39,64,98,0
4829,4204,3562,9,7,6,10240,0.02,-0.09,0.72,0.66,4824,4201,3559,35,33,39,64,98,0
4826,4202,3561,6,4,4,10240,0.02,-0.09,0.72,0.66,4824,4201,3559,35,33,39,64,98,0
4827,4203,3561,4,2,3,10240,0.02,-0.09,0.72,0.66,4824,4201,3559,35,33,39,64,98,0
4830,4206,3563,4,2,2,10240,0.02,-0.09,0.72,0.66,4824,4201,3560,35,33,39,64,98,0
4832,4207,3564,4,3,2,10240,0.02,-0.09,0.72,0.66,4825,4201,3560,35,33,39,64,98,0
4833,4209,3565,6,5,3,10240,0.02,-0.09,0.72,0.66,4825,4202,3560,35,33,39,62,98,0
4830,4208,3564,6,6,4,10240,0.02,-0.09,0.72,0.66,4825,4202,3560,35,33,39,62,98,0
4829,4205,3563,6,5,4,10240,0.02,-0.09,0.72,0.66,4825,4202,3560,35,33,39,62,98,0
4827,4204,3563,4,4,3,10240,0.02,-0.09,0.72,0.66,4825,4202,3560,35,33,39,62,98,0
4827,4203,3562,3,3,3,10240,0.02,-0.09,0.72,0.66,4825,4202,3560,35,33,39,62,98,0
4828,4205,3562,2,2,2,10240,0.02,-0.09,0.72,0.66,4825,4202,3560,35,33,39,62,98,0
4826,4203,3560,2,1,1,10240,0.02,-0.09,0.72,0.66,4825,4202,3560,35,33,39,62,98,0
4829,4205,3562,2,2,1,10240,0.02,-0.09,0.72,0.66,4826,4202,3560,35,33,39,62,98,0
4831,4206,3563,3,2,1,10240,0.02,-0.09,0.72,0.66,4826,4202,3561,35,33,39,62,98,0
4834,4209,3565,4,3,2,10240,0.02,-0.09,0.72,0.66,4826,4203,3561,35,33,39,62,98,0
4842,4214,3571,7,6,4,10240,0.02,-0.09,0.72,0.66,4827,4203,3561,35,33,39,62,98,0
4843,4215,3572,11,8,6,10240,0.02,-0.09,0.72,0.66,4827,4203,3561,35,33,39,62,98,0
4840,4214,3570,13,9,8,10240,0.02,-0.09,0.72,0.66,4827,4204,3562,35,33,39,62,98,0
4834,4209,3566,12,9,8,10240,0.02,-0.09,0.72,0.66,4828,4204,3562,35,33,39,62,98,0
4832,4208,3565,9,7,6,10240,0.02,-0.09,0.72,0.66,4828,4204,3562,35,33,39,62,98,0
4819,4199,3557,3,3,2,10240,0.02,-0.09,0.72,0.66,4828,4204,3562,35,33,39,62,98,0
4820,4199,3558,-1,0,0,10240,0.02,-0.09,0.72,0.66,4827,4204,3562,35,33,39,62,98,0
4821,4200,3558,-4,-2,-2,10240,0.02,-0.09,0.72,0.66,4827,4204,3561,35,33,39,62,98,0
4823,4201,3560,-6,-4,-3,10240,0.02,-0.09,0.72,0.66,4827,4203,3561,35,33,39,62,98,0
4827,4204,3561,-4,-2,-2,10240,0.02,-0.09,0.72,0.66,4827,4203,3561,35,33,39,62,98,0
4833,4208,3566,-1,0,0,10240,0.02,-0.09,0.72,0.66,4827,4204,3562,35,33,39,62,98,0
4841,4217,3572,3,4,3,10240,0.02,-0.09,0.72,0.66,4828,4204,3562,35,33,39,62,98,0
4853,4225,3581,11,9,8,10240,0.02,-0.09,0.72,0.66,4828,4205,3563,35,33,39,62,98,0
4864,4231,3585,19,15,13,10240,0.02,-0.09,0.72,0.66,4830,4206,3563,35,33,39,62,98,0
4867,4241,3587,27,23,18,10240,0.02,-0.09,0.72,0.66,4831,4207,3564,35,33,39,62,98,0
4868,4244,3588,32,28,21,10240,0.02,-0.09,0.72,0.66,4832,4208,3565,35,33,39,62,98,0
4866,4238,3587,34,31,22,10240,0.02,-0.09,0.72,0.66,4833,4209,3566,35,33,39,62,98,0
4865,4235,3587,34,31,22,10240,0.02,-0.09,0.72,0.66,4834,4210,3566,35,33,39,62,98,0
4865,4232,3586,32,27,21,10240,0.02,-0.09,0.72,0.66,4835,4211,3567,36,33,35,62,98,0
4864,4230,3585,30,23,19,10240,0.02,-0.09,0.80,0.76,4836,4211,3568,36,33,35,62,98,0
4848,4220,3577,25,18,16,10240,0.02,-0.09,0.80,0.76,4837,4212,3568,36,33,35,62,98,0
4835,4210,3568,16,11,11,10240,0.02,-0.09,0.80,0.76,4837,4211,3568,36,33,35,62,98,0
4822,4200,3559,5,3,4,10240,0.02,-0.09,0.80,0.76,4836,4211,3568,36,33,35,62,98,0
4811,4190,3553,-7,-6,-3,10240,0.02,-0.09,0.80,0.76,4835,4210,3567,36,33,35,62,98,0
4802,4182,3546,-18,-14,-10,10240,0.02,-0.09,0.80,0.76,4834,4209,3566,36,33,35,62,98,0
4787,4168,3535,-29,-24,-18,10240,0.02,-0.09,0.80,0.76,4833,4208,3565,36,33,35,62,98,0
4784,4165,3531,-37,-32,-24,10240,0.02,-0.09,0.80,0.76,4831,4207,3564,36,33,35,62,98,0
4780,4161,3529,-43,-38,-29,10240,0.02,-0.09,0.80,0.76,4829,4205,3563,36,33,35,62,98,0
4776,4158,3527,-48,-43,-33,10240,0.02,-0.09,0.80,0.76,4828,4204,3562,36,33,35,62,98,0
4775,4157,3525,-49,-44,-34,10240,0.02,-0.09,0.80,0.76,4826,4202,3561,36,33,35,62,98,0
4775,4156,3525,-50,-44,-34,10240,0.02,-0.09,0.80,0.76,4824,4200,3559,36,33,35,62,98,0
4772,4155,3523,-50,-44,-35,10240,0.02,-0.09,0.80,0.76,4822,4199,3558,36,33,35,62,98,0
4767,4152,3522,-51,-44,-35,10240,0.02,-0.09,0.80,0.76,4821,4197,3557,36,33,35,62,98,0
4764,4149,3519,-52,-45,-35,10240,0.02,-0.09,0.80,0.76,4819,4196,3556,36,33,35,62,98,0
4762,4147,3519,-53,-45,-35,10240,0.02,-0.09,0.80,0.76,4817,4194,3555,36,33,35,62,98,0
4759,4145,3517,-55,-46,-36,10240,0.02,-0.09,0.80,0.76,4815,4193,3553,36,33,35,62,98,0
4759,4146,3516,-55,-46,-36,10240,0.02,-0.09,0.80,0.76,4813,4191,3552,36,33,35,62,98,0
4760,4146,3518,-54,-45,-35,10240,0.02,-0.09,0.80,0.76,4811,4189,3551,36,33,35,62,98,0
4763,4148,3519,-52,-44,-34,10240,0.02,-0.09,0.80,0.76,4810,4188,3550,36,33,35,62,98,0
4766,4151,3521,-48,-41,-32,10240,0.02,-0.09,0.80,0.76,4808,4187,3549,36,33,35,62,98,0
4769,4154,3523,-44,-37,-29,10240,0.02,-0.09,0.80,0.76,4807,4186,3548,36,33,35,62,98,0
4772,4156,3525,-40,-34,-26,10240,0.02,-0.09,0.80,0.76,4806,4185,3547,36,33,35,62,98,0
4775,4159,3526,-36,-30,-24,10240,0.02,-0.09,0.80,0.76,4805,4184,3547,36,33,35,62,98,0
4779,4163,3529,-31,-26,-21,10240,0.02,-0.09,0.80,0.76,4804,4183,3546,36,33,35,62,98,0
4780,4163,3529,-28,-23,-19,10240,0.02,-0.09,0.80,0.76,4803,4183,3545,36,33,35,62,98,0
4782,4167,3530,-24,-20,-17,10240,0.02,-0.09,0.80,0.76,4802,4182,3545,36,33,35,62,98,0
4785,4169,3533,-21,-17,-14,10240,0.02,-0.09,0.80,0.76,4802,4182,3544,36,33,35,62,98,0
4785,4169,3534,-19,-15,-13,10240,0.02,-0.09,0.80,0.76,4801,4181,3544,36,33,35,62,98,0
4785,4168,3533,-17,-13,-11,10240,0.02,-0.09,0.80,0.76,4801,4181,3544,36,33,35,62,98,0
4785,4170,3534,-16,-12,-10,10240,0.02,-0.09,0.80,0.76,4800,4180,3543,36,33,35,62,98,0
4787,4169,3534,-15,-11,-9,10240,0.02,-0.09,0.80,0.76,4800,4180,3543,36,33,35,62,98,0
4787,4170,3535,-14,-11,-9,10240,0.02,-0.09,0.80,0.76,4799,4180,3543,36,33,35,62,98,0
4786,4169,3533,-13,-10,-9,10240,0.02,-0.09,0.80,0.76,4799,4179,3543,36,33,35,62,98,0
4786,4169,3534,-12,-10,-8,10240,0.02,-0.09,0.80,0.76,4798,4179,3542,36,33,35,62,98,0
4783,4167,3533,-13,-10,-8,10240,0.02,-0.09,0.80,0.76,4798,4179,3542,38,33,35,62,98,0
4782,4165,3532,-13,-11,-9,10240,0.02,-0.09,0.80,0.76,4797,4178,3542,38,34,34,62,98,0
4782,4165,3531,-14,-12,-9,10240,-0.11,-0.09,0.85,0.83,4797,4178,3541,38,34,34,62,98,0
4784,4168,3534,-14,-11,-9,10240,-0.11,-0.09,0.85,0.83,4796,4177,3541,38,34,34,62,98,0
4788,4171,3536,-12,-10,-8,10240,-0.11,-0.09,0.85,0.83,4796,4177,3541,38,34,34,62,98,0
4790,4174,3539,-10,-7,-6,10240,-0.11,-0.09,0.85,0.83,4796,4177,3541,38,34,34,62,98,0
4791,4173,3538,-7,-5,-4,10240,-0.11,-0.09,0.85,0.83,4796,4177,3541,38,34,34,62,98,0
4791,4173,3538,-6,-4,-3,10240,-0.11,-0.09,0.85,0.83,4796,4177,3541,38,34,34,62,98,0
4791,4175,3538,-5,-3,-2,10240,-0.11,-0.09,0.85,0.83,4795,4177,3540,38,34,34,62,98,0
4794,4177,3540,-3,-2,-2,10240,-0.11,-0.09,0.85,0.83,4795,4177,3540,38,34,34,62,98,0
4795,4177,3541,-2,-1,-1,10240,-0.11,-0.09,0.85,0.83,4795,4177,3541,38,34,34,62,98,0
4795,4177,3541,-1,0,0,10240,-0.11,-0.09,0.85,0.83,4795,4177,3541,38,34,34,62,98,0
4794,4176,3540,0,0,0,10240,-0.11,-0.09,0.85,0.83,4795,4177,3540,38,34,34,62,98,0
4796,4179,3541,0,0,0,10240,-0.11,-0.09,0.85,0.83,4795,4177,3541,38,34,34,62,98,0
4800,4181,3544,1,1,0,10240,-0.11,-0.09,0.85,0.83,4795,4177,3541,38,34,34,62,98,0
4798,4180,3542,1,2,1,10240,-0.11,-0.09,0.85,0.83,4796,4177,3541,38,34,34,62,98,0
4794,4177,3539,1,2,0,10240,-0.11,-0.09,0.85,0.83,4796,4177,3541,38,34,34,62,98,0
4792,4174,3538,0,1,0,10240,-0.11,-0.09,0.85,0.83,4795,4177,3540,38,34,34,62,98,0
4789,4172,3536,-2,-1,-1,10240,-0.11,-0.09,0.85,0.83,4795,4177,3540,38,34,34,62,98,0
4786,4169,3533,-5,-3,-3,10240,-0.11,-0.09,0.85,0.83,4795,4176,3540,38,34,34,62,98,0
4784,4168,3532,-7,-5,-5,10240,-0.11,-0.09,0.85,0.83,4795,4176,3540,38,34,34,62,98,0
4783,4166,3532,-9,-7,-6,10240,-0.11,-0.09,0.85,0.83,4794,4176,3540,38,34,34,62,98,0
4786,4168,3533,-9,-8,-7,10240,-0.11,-0.09,0.85,0.83,4794,4176,3539,38,34,34,62,98,0
4789,4170,3536,-8,-7,-6,10240,-0.11,-0.09,0.85,0.83,4794,4175,3539,38,34,34,62,98,0
4790,4172,3537,-7,-6,-4,10240,-0.11,-0.09,0.85,0.83,4794,4175,3539,38,34,34,62,98,0
4791,4173,3537,-4,-4,-3,10240,-0.11,-0.09,0.85,0.83,4793,4175,3539,38,34,34,62,98,0
4789,4171,3536,-3,-3,-2,10240,-0.11,-0.09,0.85,0.83,4793,4175,3539,38,34,34,62,98,0
4798,4173,3537,-1,-2,-2,10240,-0.11,-0.09,0.85,0.83,4793,4175,3539,38,34,34,62,98,0
4802,4183,3545,1,0,0,10240,-0.11,-0.09,0.85,0.83,4794,4175,3539,38,34,34,62,98,0
4805,4185,3548,5,2,2,10240,-0.11,-0.09,0.85,0.83,4794,4176,3539,38,34,34,62,98,0
4806,4186,3546,8,6,4,10240,-0.11,-0.09,0.85,0.83,4795,4176,3540,38,34,34,62,98,0
4801,4181,3544,9,8,6,10240,-0.11,-0.09,0.85,0.83,4795,4176,3540,38,34,34,62,98,0
4797,4179,3541,7,6,5,10240,-0.11,-0.09,0.85,0.83,4795,4176,3540,38,34,34,62,98,0
4780,4164,3529,1,1,0,10240,-0.11,-0.09,0.85,0.83,4794,4176,3539,38,34,34,62,98,0
4777,4160,3527,-5,-4,-4,10240,-0.11,-0.09,0.85,0.83,4794,4175,3539,38,34,34,62,98,0
4776,4159,3526,-11,-10,-8,10240,-0.11,-0.09,0.85,0.83,4793,4175,3539,38,34,34,62,98,0
4769,4153,3521,-17,-16,-13,10240,-0.11,-0.09,0.85,0.83,4792,4174,3538,38,34,34,62,98,0
4752,4140,3511,-24,-21,-17,10240,-0.11,-0.09,0.85,0.83,4791,4173,3537,38,34,34,62,98,0
4746,4135,3507,-30,-26,-21,10240,-0.11,-0.09,0.85,0.83,4790,4172,3536,38,34,34,62,98,0
4751,4139,3509,-35,-30,-24,10240,-0.11,-0.09,0.85,0.83,4788,4170,3535,38,34,34,62,98,0
4752,4140,3512,-38,-32,-25,10240,-0.11,-0.09,0.85,0.83,4787,4169,3534,38,34,34,62,98,0
4757,4145,3514,-36,-30,-24,10240,-0.11,-0.09,0.85,0.83,4786,4169,3534,38,34,34,62,98,0
4758,4144,3514,-32,-27,-21,10240,-0.11,-0.09,0.85,0.83,4785,4168,3533,38,34,34,62,98,0
4754,4140,3512,-30,-26,-20,10240,-0.11,-0.09,0.85,0.83,4784,4167,3532,38,34,34,62,98,0
4754,4140,3511,-28,-25,-20,10240,-0.11,-0.09,0.85,0.83,4783,4166,3532,38,34,34,62,98,0
4759,4145,3515,-27,-24,-19,10240,-0.11,-0.09,0.85,0.83,4782,4165,3531,38,34,34,62,98,0
4765,4149,3519,-24,-22,-17,10240,-0.11,-0.09,0.85,0.83,4782,4165,3531,38,34,34,62,98,0
4770,4154,3522,-20,-18,-14,10240,-0.11,-0.09,0.85,0.83,4781,4164,3530,38,34,34,62,98,0
4779,4160,3528,-13,-12,-9,10240,-0.11,-0.09,0.85,0.83,4781,4164,3530,38,34,34,62,98,0
4783,4164,3530,-7,-7,-5,10240,-0.11,-0.09,0.85,0.83,4781,4164,3530,38,34,34,62,98,0
4784,4165,3531,-2,-3,-2,10240,-0.11,-0.09,0.85,0.83,4781,4164,3530,38,34,34,62,98,0
4786,4167,3532,1,0,0,10240,-0.11,-0.09,0.85,0.83,4782,4164,3531,38,34,34,62,98,0
4789,4170,3534,4,2,1,10240,-0.11,-0.09,0.85,0.83,4782,4165,3531,38,34,34,62,98,0
4789,4170,3534,5,3,2,10240,-0.11,-0.09,0.85,0.83,4782,4165,3531,38,34,34,62,98,0
4790,4172,3535,6,5,2,10240,-0.11,-0.09,0.85,0.83,4782,4165,3531,38,34,34,62,98,0
4793,4173,3537,8,6,4,10240,-0.11,-0.09,0.85,0.83,4783,4165,3531,38,34,34,62,98,0
4793,4173,3537,8,6,4,10240,-0.11,-0.09,0.85,0.83,4783,4166,3531,38,34,34,62,98,0
4793,4174,3538,9,7,5,10240,-0.11,-0.09,0.85,0.83,4783,4166,3531,38,34,34,62,98,0
4792,4174,3537,9,7,6,10240,-0.11,-0.09,0.85,0.83,4784,4166,3532,38,34,34,62,98,0
4794,4176,3539,9,8,6,10240,-0.11,-0.09,0.85,0.83,4784,4166,3532,38,34,34,62,98,0
4799,4179,3541,10,9,7,10240,-0.11,-0.09,0.85,0.83,4784,4167,3532,38,34,34,62,98,0
4800,4182,3544,12,11,8,10240,-0.11,-0.09,0.85,0.83,4785,4167,3533,38,34,34,62,98,0
4804,4186,3546,14,13,10,10240,-0.11,-0.09,0.85,0.83,4786,4168,3533,38,34,34,62,98,0
4805,4187,3547,16,15,11,10240,-0.11,-0.09,0.85,0.83,4786,4169,3534,38,34,34,62,98,0
4806,4187,3547,17,17,12,10240,-0.11,-0.09,0.85,0.83,4787,4169,3534,38,34,34,62,98,0
4805,4186,3547,18,17,13,10240,-0.11,-0.09,0.85,0.83,4788,4170,3534,38,34,34,62,98,0
4802,4183,3545,17,16,12,10240,-0.11,-0.09,0.85,0.83,4788,4170,3535,42,38,35,62,98,0
4800,4181,3543,15,14,11,10240,-0.11,-0.09,0.92,0.89,4788,4171,3535,42,38,35,62,98,0
4796,4181,3542,12,12,9,10240,-0.11,-0.09,0.92,0.89,4789,4171,3535,42,38,35,62,98,0
4797,4178,3541,10,10,7,10240,-0.11,-0.09,0.92,0.89,4789,4171,3535,42,38,35,62,98,0
4795,4177,3540,8,8,6,10240,-0.11,-0.09,0.92,0.89,4789,4171,3536,42,38,35,62,98,0
4795,4176,3539,6,6,5,10240,-0.11,-0.09,0.92,0.89,4789,4172,3536,42,38,35,62,98,0
4795,4176,3539,6,5,4,10240,-0.11,-0.09,0.92,0.89,4790,4172,3536,42,38,35,62,98,0
4799,4180,3542,6,5,4,10240,-0.11,-0.09,0.92,0.89,4790,4172,3536,42,38,35,62,98,0
4805,4186,3547,8,7,5,10240,-0.11,-0.09,0.92,0.89,4790,4172,3536,42,38,35,62,98,0
4806,4187,3548,11,10,7,10240,-0.11,-0.09,0.92,0.89,4791,4173,3537,42,38,35,62,98,0
4806,4188,3548,13,12,9,10240,-0.11,-0.09,0.92,0.89,4791,4173,3537,42,38,35,62,98,0
4806,4187,3548,14,14,10,10240,-0.11,-0.09,0.92,0.89,4792,4174,3538,42,38,35,62,98,0
4804,4186,3547,14,13,10,10240,-0.11,-0.09,0.92,0.89,4792,4174,3538,42,38,35,62,98,0
4803,4184,3546,12,12,9,10240,-0.11,-0.09,0.92,0.89,4793,4175,3538,42,38,35,62,98,0
4800,4183,3545,10,10,8,10240,-0.11,-0.09,0.92,0.89,4793,4175,3538,42,38,35,62,98,0
4799,4181,3543,8,8,7,10240,-0.11,-0.09,0.92,0.89,4793,4175,3538,42,38,35,62,98,0
4797,4181,3542,6,7,5,10240,-0.11,-0.09,0.92,0.89,4793,4175,3539,42,38,35,62,98,0
4797,4180,3542,5,6,4,10240,-0.11,-0.09,0.92,0.89,4793,4175,3539,42,38,35,62,98,0
4796,4179,3540,4,5,3,10240,-0.11,-0.09,0.92,0.89,4793,4176,3539,42,38,35,62,98,0
4797,4180,3541,3,4,2,10240,-0.11,-0.09,0.92,0.89,4794,4176,3539,42,38,35,62,98,0
4799,4182,3543,3,4,2,10240,-0.11,-0.09,0.92,0.89,4794,4176,3539,42,38,35,62,98,0
4798,4182,3542,3,4,2,10240,-0.11,-0.09,0.92,0.89,4794,4176,3539,42,38,35,62,98,0
4796,4179,3541,3,4,2,10240,-0.11,-0.09,0.92,0.89,4794,4176,3539,42,38,35,62,98,0
4793,4177,3539,2,4,2,10240,-0.11,-0.09,0.92,0.89,4794,4176,3539,42,38,35,62,98,0
4792,4177,3539,0,2,1,10240,-0.11,-0.09,0.92,0.89,4794,4176,3539,42,38,35,62,98,0
4792,4176,3539,0,1,0,10240,-0.11,-0.09,0.92,0.89,4794,4176,3539,42,38,35,62,98,0
4792,4177,3538,-1,0,0,10240,-0.11,-0.09,0.92,0.89,4794,4176,3539,42,38,35,62,98,0
4791,4175,3538,-2,0,0,10240,-0.11,-0.09,0.92,0.89,4794,4176,3539,42,38,35,62,98,0
4787,4171,3534,-3,-1,-1,10240,-0.11,-0.09,0.92,0.89,4793,4176,3539,42,38,35,62,98,0
4782,4167,3529,-5,-3,-4,10240,-0.11,-0.09,0.92,0.89,4793,4176,3539,42,38,35,62,98,0
4779,4165,3529,-8,-6,-6,10240,-0.11,-0.09,0.92,0.89,4793,4175,3538,42,38,35,62,98,0
4778,4164,3527,-11,-8,-8,10240,-0.11,-0.09,0.92,0.89,4792,4175,3538,42,38,35,62,98,0
4777,4162,3527,-13,-10,-10,10240,-0.11,-0.09,0.92,0.89,4792,4175,3537,42,38,35,62,98,0
4777,4162,3527,-14,-11,-10,10240,-0.11,-0.09,0.92,0.89,4791,4174,3537,42,38,35,62,98,0
4778,4163,3528,-14,-11,-10,10240,-0.11,-0.09,0.92,0.89,4791,4174,3537,42,38,35,62,98,0
4777,4162,3527,-13,-11,-9,10240,-0.11,-0.09,0.92,0.89,4790,4173,3537,42,38,35,62,98,0
4776,4163,3527,-13,-11,-9,10240,-0.11,-0.09,0.92,0.89,4790,4173,3536,42,38,35,62,98,0
4776,4161,3526,-13,-11,-9,10240,-0.11,-0.09,0.92,0.89,4789,4173,3536,42,38,35,62,98,0
4772,4159,3524,-14,-11,-10,10240,-0.11,-0.09,0.92,0.89,4789,4172,3535,42,38,35,62,98,0
4765,4153,3519,-16,-13,-11,10240,-0.11,-0.09,0.92,0.89,4788,4172,3535,42,38,35,62,98,0
4763,4150,3517,-19,-16,-13,10240,-0.11,-0.09,0.92,0.89,4787,4171,3534,42,38,35,62,98,0
4760,4149,3516,-22,-18,-15,10240,-0.11,-0.09,0.92,0.89,4786,4170,3534,42,38,35,62,98,0
4757,4146,3514,-25,-21,-17,10240,-0.11,-0.09,0.92,0.89,4785,4169,3533,42,38,35,62,98,0
4753,4142,3510,-27,-22,-19,10240,-0.11,-0.09,0.92,0.89,4784,4168,3532,42,38,35,62,98,0
4749,4140,3507,-29,-24,-20,10240,-0.11,-0.09,0.92,0.89,4783,4167,3531,42,38,35,62,98,0
4748,4138,3507,-31,-26,-22,10240,-0.11,-0.09,0.92,0.89,4782,4167,3531,42,38,35,62,98,0
4746,4137,3505,-33,-27,-23,10240,-0.11,-0.09,0.92,0.89,4781,4166,3530,42,38,35,62,98,0
4745,4136,3504,-34,-28,-24,10240,-0.11,-0.09,0.92,0.89,4779,4165,3529,42,38,35,62,98,0
4742,4133,3502,-34,-29,-25,10240,-0.11,-0.09,0.92,0.89,4778,4163,3528,42,38,35,62,98,0
4736,4128,3497,-36,-30,-26,10240,-0.11,-0.09,0.92,0.89,4777,4162,3527,42,38,35,62,98,0
4735,4129,3498,-37,-31,-27,10240,-0.11,-0.09,0.92,0.89,4775,4161,3526,42,38,35,62,98,0
4735,4126,3495,-39,-32,-28,10240,-0.11,-0.09,0.92,0.89,4774,4160,3525,42,38,35,62,98,0
4733,4127,3495,-40,-33,-29,10240,-0.11,-0.09,0.92,0.89,4773,4159,3524,42,38,35,62,98,0
4732,4126,3495,-39,-32,-28,10240,-0.11,-0.09,0.92,0.89,4771,4158,3523,42,38,35,62,98,0
4729,4123,3493,-39,-33,-29,10240,-0.11,-0.09,0.92,0.89,4770,4157,3522,42,36,33,62,98,0
4728,4121,3491,-40,-33,-29,10240,-0.11,-0.09,0.92,0.94,4768,4155,3521,42,36,33,62,98,0
4724,4117,3489,-40,-34,-29,10240,-0.11,-0.09,0.92,0.94,4767,4154,3520,42,36,33,62,98,0
4723,4115,3488,-41,-35,-30,10240,-0.11,-0.09,0.92,0.94,4765,4153,3519,42,36,33,62,98,0
4723,4116,3488,-41,-36,-30,10240,-0.11,-0.09,0.92,0.94,4764,4152,3518,42,36,33,62,98,0
4725,4117,3490,-41,-36,-29,10240,-0.11,-0.09,0.92,0.94,4763,4150,3517,42,36,33,62,98,0
4726,4118,3490,-39,-34,-28,10240,-0.11,-0.09,0.92,0.94,4762,4149,3516,42,36,33,62,98,0
4728,4121,3492,-36,-31,-26,10240,-0.11,-0.09,0.92,0.94,4760,4148,3515,42,36,33,62,98,0
4730,4123,3494,-33,-29,-24,10240,-0.11,-0.09,0.92,0.94,4759,4148,3514,42,36,33,62,98,0
4731,4124,3495,-31,-26,-22,10240,-0.11,-0.09,0.92,0.94,4758,4147,3514,42,36,33,62,98,0
4734,4125,3496,-28,-24,-19,10240,-0.11,-0.09,0.92,0.94,4758,4146,3513,42,36,33,62,98,0
4738,4128,3499,-24,-21,-17,10240,-0.11,-0.09,0.92,0.94,4757,4146,3513,42,36,33,62,98,0
4740,4131,3500,-21,-19,-15,10240,-0.11,-0.09,0.92,0.94,4756,4145,3512,42,36,33,62,98,0
4742,4133,3502,-18,-16,-13,10240,-0.11,-0.09,0.92,0.94,4756,4145,3512,42,36,33,62,98,0
4742,4134,3503,-15,-13,-11,10240,-0.11,-0.09,0.92,0.94,4756,4144,3512,42,36,33,62,98,0
4738,4131,3500,-15,-12,-10,10240,-0.11,-0.09,0.92,0.94,4755,4144,3511,42,36,33,62,98,0
4739,4131,3500,-15,-11,-10,10240,-0.11,-0.09,0.92,0.94,4754,4143,3511,42,36,33,62,98,0
4741,4133,3501,-14,-11,-10,10240,-0.11,-0.09,0.92,0.94,4754,4143,3511,42,36,33,62,98,0
4742,4134,3503,-14,-11,-9,10240,-0.11,-0.09,0.92,0.94,4754,4143,3510,42,36,33,62,98,0
4743,4134,3502,-12,-9,-9,10240,-0.11,-0.09,0.92,0.94,4753,4142,3510,42,36,33,62,98,0
4742,4134,3503,-11,-8,-8,10240,-0.11,-0.09,0.92,0.94,4753,4142,3510,42,36,33,62,98,0
4744,4135,3503,-10,-8,-7,10240,-0.11,-0.09,0.92,0.94,4753,4142,3510,42,36,33,62,98,0
4746,4137,3504,-9,-7,-6,10240,-0.11,-0.09,0.92,0.94,4752,4142,3509,42,36,33,62,98,0
4748,4139,3506,-7,-5,-5,10240,-0.11,-0.09,0.92,0.94,4752,4142,3509,42,36,33,62,98,0
4748,4139,3506,-5,-4,-4,10240,-0.11,-0.09,0.92,0.94,4752,4142,3509,42,36,33,62,98,0
4745,4136,3505,-5,-4,-3,10240,-0.11,-0.09,0.92,0.94,4752,4141,3509,42,36,33,62,98,0
4743,4134,3503,-5,-4,-4,10240,-0.11,-0.09,0.92,0.94,4751,4141,3509,42,36,32,62,98,0
4739,4130,3499,-7,-6,-5,10240,-0.11,-0.09,0.95,0.97,4751,4141,3509,40,35,32,62,98,0
4734,4127,3497,-11,-9,-7,10240,-0.11,-0.09,0.95,0.97,4751,4140,3508,40,35,32,62,98,0
4732,4124,3495,-13,-11,-10,10240,-0.11,-0.09,0.95,0.97,4750,4140,3508,40,35,32,62,98,0
4725,4122,3493,-17,-14,-12,10240,-0.11,-0.09,0.95,0.97,4749,4139,3507,40,35,32,62,98,0
4725,4118,3489,-20,-16,-14,10240,-0.11,-0.09,0.95,0.97,4748,4138,3507,40,35,32,62,98,0
4722,4115,3487,-22,-19,-16,10240,-0.11,-0.09,0.95,0.97,4747,4138,3506,40,35,32,62,98,0
4723,4115,3488,-24,-20,-17,10240,-0.11,-0.09,0.95,0.97,4747,4137,3505,40,35,32,62,98,0
4724,4117,3489,-23,-21,-17,10240,-0.11,-0.09,0.95,0.97,4746,4136,3505,40,35,32,62,98,0
4727,4119,3490,-22,-20,-16,10240,-0.11,-0.09,0.95,0.97,4745,4136,3504,40,35,32,62,98,0
4728,4121,3491,-20,-18,-15,10240,-0.11,-0.09,0.95,0.97,4745,4135,3504,40,35,32,62,98,0
4728,4121,3493,-18,-16,-13,10240,-0.11,-0.09,0.95,0.97,4744,4135,3504,40,35,32,62,98,0
4729,4121,3492,-16,-14,-12,10240,-0.11,-0.09,0.95,0.97,4744,4134,3503,40,35,32,62,98,0
4728,4121,3492,-15,-13,-11,10240,-0.11,-0.09,0.95,0.97,4743,4134,3503,40,35,32,62,98,0
4727,4120,3491,-15,-13,-11,10240,-0.11,-0.09,0.95,0.97,4742,4133,3502,40,35,32,62,98,0
4724,4118,3489,-15,-13,-11,10240,-0.11,-0.09,0.95,0.97,4742,4133,3502,40,35,32,62,98,0
4725,4119,3490,-16,-13,-11,10240,-0.11,-0.09,0.95,0.97,4741,4132,3502,40,35,32,62,98,0
4726,4120,3491,-16,-13,-11,10240,-0.11,-0.09,0.95,0.97,4741,4132,3501,40,35,32,62,98,0
4724,4118,3489,-16,-13,-11,10240,-0.11,-0.09,0.95,0.97,4740,4132,3501,40,35,32,62,98,0
4724,4116,3489,-15,-13,-11,10240,-0.11,-0.09,0.95,0.97,4740,4131,3500,40,35,32,62,98,0
4726,4120,3490,-15,-13,-10,10240,-0.11,-0.09,0.95,0.97,4739,4131,3500,40,35,32,62,98,0
4729,4123,3493,-13,-11,-10,10240,-0.11,-0.09,0.95,0.97,4739,4130,3500,40,35,32,62,98,0
4732,4124,3494,-11,-9,-8,10240,-0.11,-0.09,0.95,0.97,4739,4130,3500,40,35,32,62,98,0
4734,4128,3496,-8,-6,-6,10240,-0.11,-0.09,0.95,0.97,4739,4130,3499,40,35,32,62,98,0
4736,4129,3497,-6,-4,-4,10240,-0.11,-0.09,0.95,0.97,4738,4130,3499,40,35,32,62,98,0
4735,4126,3496,-4,-3,-3,10240,-0.11,-0.09,0.95,0.97,4738,4130,3499,40,35,32,62,98,0
4732,4124,3494,-4,-3,-3,10240,-0.11,-0.09,0.95,0.97,4738,4130,3499,40,35,32,62,98,0
4729,4122,3493,-5,-4,-4,10240,-0.11,-0.09,0.95,0.97,4738,4129,3499,40,35,32,62,98,0
4726,4119,3490,-7,-6,-5,10240,-0.11,-0.09,0.95,0.97,4737,4129,3499,40,35,32,62,98,0
4723,4116,3488,-10,-9,-7,10240,-0.11,-0.09,0.95,0.97,4737,4129,3498,40,35,32,62,98,0
4716,4110,3484,-13,-12,-9,10240,-0.11,-0.09,0.95,0.97,4736,4128,3498,40,35,32,62,98,0
4716,4110,3483,-16,-14,-11,10240,-0.11,-0.09,0.95,0.97,4736,4127,3497,40,35,32,62,98,0
4714,4108,3482,-18,-16,-13,10240,-0.11,-0.09,0.95,0.97,4735,4127,3497,40,35,32,62,98,0
4714,4108,3482,-20,-18,-14,10240,-0.11,-0.09,0.95,0.97,4734,4126,3496,40,35,32,62,98,0
4715,4110,3483,-20,-17,-14,10240,-0.11,-0.09,0.95,0.97,4734,4126,3496,40,35,32,62,98,0
4717,4111,3484,-19,-16,-13,10240,-0.11,-0.09,0.95,0.97,4733,4125,3495,40,35,32,62,98,0
4720,4114,3486,-17,-14,-11,10240,-0.11,-0.09,0.95,0.97,4733,4125,3495,40,35,32,62,98,0
4719,4112,3486,-15,-13,-10,10240,-0.11,-0.09,0.95,0.97,4732,4124,3495,40,35,32,62,98,0
4721,4114,3486,-13,-11,-9,10240,-0.11,-0.09,0.95,0.97,4732,4124,3495,40,35,32,62,98,0
4722,4116,3487,-11,-10,-8,10240,-0.11,-0.09,0.95,0.97,4731,4124,3494,40,35,32,62,98,0
4717,4111,3483,-11,-10,-9,10240,-0.11,-0.09,0.95,0.97,4731,4123,3494,40,35,32,62,98,0
4716,4110,3483,-12,-10,-9,10240,-0.11,-0.09,0.95,0.97,4730,4123,3494,40,35,32,62,98,0
4716,4110,3483,-12,-11,-9,10240,-0.11,-0.09,0.95,0.97,4730,4122,3493,40,35,32,62,98,0
4719,4113,3484,-13,-11,-10,10240,-0.11,-0.09,0.95,0.97,4730,4122,3493,40,35,32,62,98,0
4719,4114,3485,-12,-10,-9,10240,-0.11,-0.09,0.95,0.97,4729,4122,3493,40,35,32,62,98,0
4715,4110,3484,-12,-10,-8,10240,-0.11,-0.09,0.95,0.97,4729,4122,3492,40,35,32,62,98,0
4714,4109,3480,-12,-10,-9,10240,-0.11,-0.09,0.95,0.97,4728,4121,3492,40,35,32,62,98,0
4711,4107,3480,-13,-11,-10,10240,-0.11,-0.09,0.95,0.97,4728,4121,3492,40,35,32,62,98,0
4708,4104,3476,-16,-13,-11,10240,-0.11,-0.09,0.95,0.97,4727,4120,3491,40,35,32,62,98,0
4706,4101,3474,-17,-15,-13,10240,-0.11,-0.09,0.95,0.97,4726,4119,3490,40,35,32,62,98,0
4701,4098,3473,-20,-17,-15,10240,-0.11,-0.09,0.95,0.97,4725,4119,3490,40,35,32,62,98,0
4700,4097,3471,-22,-19,-16,10240,-0.11,-0.09,0.95,0.97,4725,4118,3489,40,35,32,62,98,0
4700,4095,3471,-23,-20,-17,10240,-0.11,-0.09,0.95,0.97,4724,4117,3489,40,35,32,62,98,0
4698,4093,3470,-24,-21,-17,10240,-0.11,-0.09,0.95,0.97,4723,4116,3488,40,35,32,62,98,0
4697,4092,3469,-24,-22,-18,10240,-0.11,-0.09,0.95,0.97,4722,4116,3487,40,35,32,62,98,0
4698,4092,3469,-24,-23,-18,10240,-0.11,-0.09,0.95,0.97,4721,4115,3487,40,35,32,62,98,0
4698,4093,3470,-23,-22,-17,10240,-0.11,-0.09,0.95,0.97,4720,4114,3486,40,35,32,62,98,0
4700,4094,3471,-22,-21,-16,10240,-0.11,-0.09,0.95,0.97,4720,4113,3486,40,35,32,62,98,0
4701,4096,3471,-20,-20,-15,10240,-0.11,-0.09,0.95,0.97,4719,4113,3485,40,35,32,62,98,0
4701,4096,3471,-19,-18,-14,10240,-0.11,-0.09,0.95,0.97,4719,4112,3485,40,35,32,62,98,0
4702,4097,3473,-18,-16,-13,10240,-0.11,-0.09,0.95,0.97,4718,4112,3484,40,35,32,62,98,0
4704,4098,3474,-16,-15,-12,10240,-0.11,-0.09,0.95,0.97,4718,4111,3484,40,35,32,62,98,0
4705,4100,3475,-15,-13,-11,10240,-0.11,-0.09,0.95,0.97,4717,4111,3484,40,35,32,62,98,0
4706,4101,3476,-13,-12,-9,10240,-0.11,-0.09,0.95,0.97,4717,4111,3483,40,35,32,62,98,0
4708,4102,3476,-11,-10,-8,10240,-0.11,-0.09,0.95,0.97,4716,4110,3483,40,35,32,62,98,0
4707,4102,3477,-10,-9,-7,10240,-0.11,-0.09,0.95,0.97,4716,4110,3483,40,35,32,62,98,0
4709,4104,3478,-8,-8,-6,10240,-0.11,-0.09,0.95,0.97,4716,4110,3483,40,35,32,62,98,0
4710,4104,3479,-7,-7,-5,10240,-0.11,-0.09,0.95,0.97,4716,4110,3483,40,35,32,62,98,0
4710,4104,3478,-7,-6,-5,10240,-0.11,-0.09,0.95,0.97,4716,4109,3483,40,35,32,62,98,0
4708,4103,3477,-6,-5,-4,10240,-0.11,-0.09,0.95,0.97,4715,4109,3482,40,35,32,62,98,0
4706,4101,3476,-7,-6,-5,10240,-0.11,-0.09,0.95,0.97,4715,4109,3482,40,35,32,62,98,0
4704,4099,3475,-8,-7,-5,10240,-0.11,-0.09,0.95,0.97,4715,4109,3482,40,35,32,62,98,0
4705,4101,3475,-9,-7,-6,10240,-0.11,-0.09,0.95,0.97,4714,4108,3482,40,35,32,62,98,0
4705,4101,3475,-9,-8,-6,10240,-0.11,-0.09,0.95,0.97,4714,4108,3481,40,35,32,62,98,0
4704,4100,3474,-9,-8,-6,10240,-0.11,-0.09,0.95,0.97,4714,4108,3481,40,35,32,62,98,0
4703,4099,3473,-9,-7,-7,10240,-0.11,-0.09,0.95,0.97,4713,4108,3481,40,35,32,62,98,0
4702,4098,3473,-10,-8,-7,10240,-0.11,-0.09,0.95,0.97,4713,4107,3481,40,35,32,62,98,0
4702,4096,3472,-10,-9,-7,10240,-0.11,-0.09,0.95,0.97,4713,4107,3480,40,35,32,62,98,0
4701,4096,3471,-10,-10,-8,10240,-0.11,-0.09,0.95,0.97,4712,4107,3480,40,35,32,62,98,0
4700,4095,3471,-11,-10,-8,10240,-0.11,-0.09,0.95,0.97,4712,4106,3480,40,35,32,62,98,0
4699,4096,3471,-11,-10,-8,10240,-0.11,-0.09,0.95,0.97,4711,4106,3479,40,35,32,62,98,0
4699,4095,3470,-11,-10,-8,10240,-0.11,-0.09,0.95,0.97,4711,4105,3479,40,35,32,62,98,0
4699,4093,3471,-11,-10,-8,10240,-0.11,-0.09,0.95,0.97,4710,4105,3479,40,35,32,62,98,0
4697,4093,3469,-12,-11,-8,10240,-0.11,-0.09,0.95,0.97,4710,4105,3479,40,35,32,62,98,0
4697,4093,3470,-12,-11,-8,10240,-0.11,-0.09,0.95,0.97,4710,4104,3478,40,35,32,62,98,0
4699,4094,3470,-11,-11,-8,10240,-0.11,-0.09,0.95,0.97,4709,4104,3478,40,35,32,62,98,0
4702,4096,3472,-10,-10,-8,10240,-0.11,-0.09,0.95,0.97,4709,4104,3478,40,35,32,62,98,0
4703,4099,3475,-9,-8,-6,10240,-0.11,-0.09,0.95,0.97,4709,4103,3478,40,35,32,62,98,0
4703,4099,3474,-7,-6,-5,10240,-0.11,-0.09,0.95,0.97,4709,4103,3478,40,35,32,62,98,0
4703,4097,3474,-6,-5,-4,10240,-0.11,-0.09,0.95,0.97,4708,4103,3477,40,35,32,62,98,0
4703,4098,3474,-5,-4,-3,10240,-0.11,-0.09,0.95,0.97,4708,4103,3477,40,35,32,62,98,0
4706,4100,3476,-4,-4,-2,10240,-0.11,-0.09,0.95,0.97,4708,4103,3477,40,35,32,62,98,0
4707,4102,3477,-3,-3,-1,10240,-0.11,-0.09,0.95,0.97,4708,4103,3477,40,35,32,62,98,0
4705,4101,3475,-2,-2,-1,10240,-0.11,-0.09,0.95,0.97,4708,4103,3477,40,35,32,62,98,0
4702,4099,3474,-3,-2,-1,10240,-0.11,-0.09,0.95,0.97,4708,4103,3477,40,35,32,62,98,0
4702,4099,3473,-4,-2,-2,10240,-0.11,-0.09,0.95,0.97,4708,4102,3477,40,35,32,62,98,0
4703,4099,3474,-4,-3,-3,10240,-0.11,-0.09,0.95,0.97,4707,4102,3477,40,35,32,62,98,0
4702,4099,3474,-5,-3,-3,10240,-0.11,-0.09,0.95,0.97,4707,4102,3477,40,35,32,62,98,0
4701,4098,3472,-5,-3,-3,10240,-0.11,-0.09,0.95,0.97,4707,4102,3477,40,35,32,62,98,0
4698,4096,3470,-6,-4,-4,10240,-0.11,-0.09,0.95,0.97,4707,4102,3476,40,35,32,62,98,0
4697,4094,3470,-7,-5,-5,10240,-0.11,-0.09,0.95,0.97,4706,4102,3476,40,35,32,62,98,0
4698,4095,3470,-8,-6,-5,10240,-0.11,-0.09,0.95,0.97,4706,4101,3476,40,35,32,62,98,0
4700,4096,3472,-8,-6,-5,10240,-0.11,-0.09,0.95,0.97,4706,4101,3476,40,35,32,62,98,0
4701,4097,3472,-7,-5,-5,10240,-0.11,-0.09,0.95,0.97,4706,4101,3476,40,35,32,62,98,0
4703,4099,3475,-5,-4,-3,10240,-0.11,-0.09,0.95,0.97,4706,4101,3476,40,35,32,62,98,0
4704,4099,3474,-4,-3,-2,10240,-0.11,-0.09,0.95,0.97,4706,4101,3476,40,35,32,62,98,0
4704,4101,3475,-3,-2,-2,10240,-0.11,-0.09,0.95,0.97,4706,4101,3476,40,35,32,65,98,0
4706,4102,3477,-1,0,0,10240,-0.11,-0.09,0.95,0.97,4706,4101,3476,40,35,32,65,98,0
4707,4102,3478,0,0,0,10240,-0.11,-0.09,0.95,0.97,4706,4101,3476,40,35,32,65,98,0
4707,4103,3477,0,1,0,10240,-0.11,-0.09,0.95,0.97,4706,4101,3476,40,35,32,65,98,0
4707,4102,3478,0,1,1,10240,-0.11,-0.09,0.95,0.97,4706,4101,3476,40,35,32,65,98,0
4706,4102,3476,0,1,1,10240,-0.11,-0.09,0.95,0.97,4706,4101,3476,40,35,32,65,98,0
4704,4100,3477,0,0,1,10240,-0.11,-0.09,0.95,0.97,4706,4101,3476,40,35,32,65,98,0
4700,4096,3472,-1,-1,0,10240,-0.11,-0.09,0.95,0.97,4705,4101,3476,40,35,32,65,98,0
4696,4093,3470,-4,-3,-2,10240,-0.11,-0.09,0.95,0.97,4705,4101,3475,40,35,32,65,98,0
4696,4093,3470,-6,-5,-3,10240,-0.11,-0.09,0.95,0.97,4705,4100,3475,40,35,32,65,98,0
4697,4092,3469,-7,-7,-5,10240,-0.11,-0.09,0.95,0.97,4705,4100,3475,40,35,32,65,98,0
4696,4093,3469,-8,-7,-5,10240,-0.11,-0.09,0.95,0.97,4704,4100,3475,40,35,32,65,98,0
4693,4091,3468,-9,-7,-6,10240,-0.11,-0.09,0.95,0.97,4704,4100,3475,40,35,32,65,98,0
4691,4089,3465,-9,-8,-7,10240,-0.11,-0.09,0.95,0.97,4703,4099,3474,40,35,32,65,98,0
4690,4088,3464,-11,-9,-8,10240,-0.11,-0.09,0.95,0.97,4703,4099,3474,40,35,32,65,98,0
4690,4088,3464,-12,-10,-9,10240,-0.11,-0.09,0.95,0.97,4703,4099,3474,40,35,32,65,98,0
4689,4088,3464,-12,-10,-9,10240,-0.11,-0.09,0.95,0.97,4702,4098,3473,40,35,32,65,98,0
4689,4088,3464,-13,-10,-9,10240,-0.11,-0.09,0.95,0.97,4702,4098,3473,40,35,32,65,98,0
4691,4089,3465,-12,-10,-9,10240,-0.11,-0.09,0.95,0.97,4701,4098,3473,40,35,32,65,98,0
4692,4091,3467,-11,-8,-8,10240,-0.11,-0.09,0.95,0.97,4701,4097,3473,40,35,32,65,98,0
4694,4093,3468,-9,-7,-6,10240,-0.11,-0.09,0.95,0.97,4701,4097,3472,40,35,32,65,98,0
4695,4092,3469,-8,-6,-5,10240,-0.11,-0.09,0.95,0.97,4701,4097,3472,40,35,32,65,98,0
4694,4092,3468,-7,-5,-4,10240,-0.11,-0.09,0.95,0.97,4700,4097,3472,40,35,32,65,98,0
4693,4091,3466,-6,-5,-4,10240,-0.11,-0.09,0.95,0.97,4700,4097,3472,40,35,32,65,98,0
4692,4089,3466,-6,-5,-4,10240,-0.11,-0.09,0.95,0.97,4700,4096,3472,40,35,32,65,98,0
4690,4087,3464,-7,-6,-6,10240,-0.11,-0.09,0.95,0.97,4700,4096,3472,40,35,32,65,98,0
4690,4088,3464,-8,-7,-6,10240,-0.11,-0.09,0.95,0.97,4699,4096,3471,40,35,32,65,98,0
4685,4083,3460,-10,-9,-8,10240,-0.11,-0.09,0.95,0.97,4699,4095,3471,40,35,32,65,98,0
4685,4083,3460,-11,-10,-9,10240,-0.11,-0.09,0.95,0.97,4698,4095,3471,40,35,32,65,98,0
4685,4083,3460,-12,-11,-9,10240,-0.11,-0.09,0.95,0.97,4698,4095,3470,40,35,32,65,98,0
4688,4085,3462,-12,-11,-10,10240,-0.11,-0.09,0.95,0.97,4698,4094,3470,40,35,32,65,98,0
4691,4087,3465,-10,-10,-8,10240,-0.11,-0.09,0.95,0.97,4697,4094,3470,40,35,32,65,98,0
4693,4090,3467,-8,-8,-6,10240,-0.11,-0.09,0.95,0.97,4697,4094,3470,40,35,32,65,98,0
4693,4090,3466,-6,-6,-4,10240,-0.11,-0.09,0.95,0.97,4697,4094,3469,40,35,32,65,98,0
4695,4092,3468,-4,-4,-3,10240,-0.11,-0.09,0.95,0.97,4697,4094,3469,40,35,32,65,98,0
4699,4096,3471,-2,-2,-1,10240,-0.11,-0.09,0.95,0.97,4697,4094,3470,40,35,32,65,98,0
4702,4099,3473,0,0,0,10240,-0.11,-0.09,0.95,0.97,4697,4094,3470,40,35,32,65,98,0
4702,4099,3474,2,2,1,10240,-0.11,-0.09,0.95,0.97,4697,4094,3470,40,35,32,65,98,0
4702,4098,3473,4,4,2,10240,-0.11,-0.09,0.95,0.97,4698,4094,3470,40,35,32,65,98,0
4702,4099,3473,4,4,3,10240,-0.11,-0.09,0.95,0.97,4698,4094,3470,40,35,32,65,98,0
4701,4099,3471,4,4,2,10240,-0.11,-0.09,0.95,0.97,4698,4095,3470,40,35,32,65,98,0
4700,4098,3472,3,4,2,10240,-0.11,-0.09,0.95,0.97,4698,4095,3470,40,35,32,65,98,0
4700,4097,3471,2,3,1,10240,-0.11,-0.09,0.95,0.97,4698,4095,3470,40,35,32,65,98,0
4702,4098,3473,2,3,1,10240,-0.11,-0.09,0.95,0.97,4698,4095,3470,40,35,32,65,98,0
4701,4098,3472,2,2,2,10240,-0.11,-0.09,0.95,0.97,4698,4095,3470,40,35,32,65,98,0
4698,4095,3471,2,2,1,10240,-0.11,-0.09,0.95,0.97,4698,4095,3470,40,35,32,63,98,0
4696,4093,3469,1,1,1,10240,-0.11,-0.09,0.95,0.97,4698,4095,3470,40,35,32,63,98,0
4694,4092,3467,0,0,0,10240,-0.11,-0.09,0.95,0.97,4698,4095,3470,40,35,32,63,98,0
4695,4090,3466,-2,-2,-1,10240,-0.11,-0.09,0.95,0.97,4698,4095,3470,40,35,32,63,98,0
4696,4092,3468,-2,-3,-2,10240,-0.11,-0.09,0.95,0.97,4698,4095,3470,40,35,32,63,98,0
4695,4092,3469,-3,-3,-2,10240,-0.11,-0.09,0.95,0.97,4698,4094,3470,40,35,32,63,98,0
4696,4092,3469,-2,-3,-2,10240,-0.11,-0.09,0.95,0.97,4698,4094,3470,40,35,32,63,98,0
4696,4092,3470,-2,-2,-1,10240,-0.11,-0.09,0.95,0.97,4698,4094,3470,40,35,32,63,98,0
4695,4093,3469,-2,-1,0,10240,-0.11,-0.09,0.95,0.97,4697,4094,3470,40,35,32,63,98,0
4697,4094,3470,-1,-1,0,10240,-0.11,-0.09,0.95,0.97,4697,4094,3470,40,35,32,63,98,0
4698,4095,3471,0,0,0,10240,-0.11,-0.09,0.95,0.97,4697,4094,3470,40,35,32,63,98,0
4700,4096,3472,0,0,0,10240,-0.11,-0.09,0.95,0.97,4698,4094,3470,40,35,32,63,98,0
4700,4096,3472,1,1,1,10240,-0.11,-0.09,0.95,0.97,4698,4094,3470,40,35,32,63,98,0
4699,4095,3472,1,1,1,10240,-0.11,-0.09,0.95,0.97,4698,4094,3470,40,35,32,63,98,0
4700,4096,3471,1,1,1,10240,-0.11,-0.09,0.95,0.97,4698,4095,3470,40,35,32,63,98,0
4700,4098,3473,1,1,2,10240,-0.11,-0.09,0.95,0.97,4698,4095,3470,40,35,32,63,98,0
4700,4097,3472,1,1,2,10240,-0.11,-0.09,0.95,0.97,4698,4095,3470,40,35,32,63,98,0
4700,4098,3473,2,2,2,10240,-0.11,-0.09,0.95,0.97,4698,4095,3470,40,35,32,63,98,0
4697,4095,3470,1,2,2,10240,-0.11,-0.09,0.95,0.97,4698,4095,3470,40,35,32,63,98,0
4698,4096,3471,0,1,1,10240,-0.11,-0.09,0.95,0.97,4698,4095,3470,40,35,32,63,98,0
4701,4097,3473,1,1,1,10240,-0.11,-0.09,0.95,0.97,4698,4095,3471,40,35,32,63,98,0
4703,4099,3475,1,1,1,10240,-0.11,-0.09,0.95,0.97,4698,4095,3471,40,35,32,63,98,0
4703,4100,3474,3,3,2,10240,-0.11,-0.09,0.95,0.97,4698,4095,3471,40,35,32,63,98,0
4703,4099,3475,4,3,3,10240,-0.11,-0.09,0.95,0.97,4698,4095,3471,40,35,32,63,98,0
4703,4098,3474,4,4,3,10240,-0.11,-0.09,0.95,0.97,4699,4095,3471,40,35,32,63,98,0
4700,4096,3471,3,3,2,10240,-0.11,-0.09,0.95,0.97,4699,4095,3471,40,35,32,63,98,0
4699,4094,3471,2,1,1,10240,-0.11,-0.09,0.95,0.97,4699,4095,3471,40,35,32,63,98,0
4699,4094,3471,1,0,0,10240,-0.11,-0.09,0.95,0.97,4699,4095,3471,40,35,32,63,98,0
4695,4092,3470,0,-1,0,10240,-0.11,-0.09,0.95,0.97,4699,4095,3471,40,35,32,63,98,0
4697,4092,3470,-1,-2,0,10240,-0.11,-0.09,0.95,0.97,4698,4095,3471,40,35,32,63,98,0
4694,4090,3468,-2,-3,-1,10240,-0.11,-0.09,0.95,0.97,4698,4095,3471,40,35,32,63,98,0
4693,4089,3467,-3,-4,-2,10240,-0.11,-0.09,0.95,0.97,4698,4095,3471,40,35,32,63,98,0
4692,4088,3467,-4,-5,-3,10240,-0.11,-0.09,0.95,0.97,4698,4095,3471,40,35,32,63,98,0
4695,4091,3469,-4,-5,-3,10240,-0.11,-0.09,0.95,0.97,4698,4094,3470,40,35,32,63,98,0
4698,4094,3471,-3,-4,-2,10240,-0.11,-0.09,0.95,0.97,4698,4094,3471,40,35,32,63,98,0
4698,4094,3472,-2,-2,-1,10240,-0.11,-0.09,0.95,0.97,4698,4094,3471,40,35,32,63,98,0
4700,4095,3471,0,0,0,10240,-0.11,-0.09,0.95,0.97,4698,4094,3471,40,35,32,63,98,0
4700,4095,3472,1,0,0,10240,-0.11,-0.09,0.95,0.97,4698,4095,3471,40,35,32,63,98,0
4700,4096,3473,1,0,1,10240,-0.11,-0.09,0.95,0.97,4698,4095,3471,40,35,32,63,98,0
4699,4095,3472,1,0,1,10240,-0.11,-0.09,0.95,0.97,4698,4095,3471,40,35,32,63,98,0
4700,4096,3472,1,0,1,10240,-0.11,-0.09,0.95,0.97,4698,4095,3471,40,35,32,63,98,0
4699,4096,3473,1,0,1,10240,-0.11,-0.09,0.95,0.97,4698,4095,3471,40,35,32,63,98,0
4698,4094,3469,1,0,0,10240,-0.11,-0.09,0.95,0.97,4698,4095,3471,40,35,32,63,98,0
4696,4093,3468,0,0,0,10240,-0.11,-0.09,0.95,0.97,4698,4095,3471,40,35,32,63,98,0
4694,4091,3467,-1,-1,-1,10240,-0.11,-0.09,0.95,0.97,4698,4094,3470,40,35,32,63,98,0
4696,4093,3468,-2,-1,-2,10240,-0.11,-0.09,0.95,0.97,4698,4094,3470,40,35,32,63,98,0
4696,4093,3469,-2,-1,-2,10240,-0.11,-0.09,0.95,0.97,4698,4094,3470,40,35,32,63,98,0
4694,4092,3468,-3,-1,-2,10240,-0.11,-0.09,0.95,0.97,4698,4094,3470,40,35,32,63,98,0
4694,4091,3468,-3,-1,-1,10240,-0.11,-0.09,0.95,0.97,4698,4094,3470,40,35,32,63,98,0
4692,4089,3466,-3,-2,-2,10240,-0.11,-0.09,0.95,0.97,4697,4094,3470,40,35,32,63,98,0
4690,4088,3464,-5,-4,-3,10240,-0.11,-0.09,0.95,0.97,4697,4094,3470,40,35,32,63,98,0
4688,4085,3462,-6,-5,-5,10240,-0.11,-0.09,0.95,0.97,4697,4093,3470,40,35,32,63,98,0
4686,4084,3461,-8,-7,-6,10240,-0.11,-0.09,0.95,0.97,4697,4093,3469,40,35,32,63,98,0
4684,4082,3459,-9,-8,-8,10240,-0.11,-0.09,0.95,0.97,4696,4093,3469,40,35,32,63,98,0
4680,4078,3455,-12,-10,-10,10240,-0.11,-0.09,0.95,0.97,4696,4092,3469,40,35,32,63,98,0
4681,4079,3455,-13,-11,-11,10240,-0.11,-0.09,0.95,0.97,4695,4092,3468,40,35,32,63,98,0
4680,4078,3455,-14,-12,-12,10240,-0.11,-0.09,0.95,0.97,4695,4091,3468,40,35,32,63,98,0
4680,4079,3455,-14,-13,-13,10240,-0.11,-0.09,0.95,0.97,4694,4091,3467,40,35,32,63,98,0
4682,4080,3457,-13,-12,-12,10240,-0.11,-0.09,0.95,0.97,4694,4091,3467,40,35,32,63,98,0
4684,4082,3458,-12,-11,-11,10240,-0.11,-0.09,0.95,0.97,4693,4090,3467,40,35,32,63,98,0
4685,4082,3458,-10,-9,-9,10240,-0.11,-0.09,0.95,0.97,4693,4090,3466,40,35,32,63,98,0
4684,4082,3459,-9,-8,-8,10240,-0.11,-0.09,0.95,0.97,4693,4090,3466,40,35,32,63,98,0
4683,4082,3458,-8,-8,-8,10240,-0.11,-0.09,0.95,0.97,4692,4090,3466,40,35,32,63,98,0
4685,4083,3459,-8,-7,-7,10240,-0.11,-0.09,0.95,0.97,4692,4089,3466,40,35,32,63,98,0
4687,4086,3460,-7,-6,-6,10240,-0.11,-0.09,0.95,0.97,4692,4089,3465,40,35,32,63,98,0
4689,4086,3463,-6,-5,-5,10240,-0.11,-0.09,0.95,0.97,4692,4089,3465,40,35,32,63,98,0
4691,4088,3464,-4,-3,-3,10240,-0.11,-0.09,0.95,0.97,4692,4089,3465,40,35,32,63,98,0
4689,4085,3463,-3,-2,-2,10240,-0.11,-0.09,0.95,0.97,4692,4089,3465,40,35,32,63,98,0
4691,4089,3464,-2,-2,-1,10240,-0.11,-0.09,0.95,0.97,4692,4089,3465,40,35,32,63,98,0
4691,4088,3465,-1,-1,-1,10240,-0.11,-0.09,0.95,0.97,4692,4089,3465,40,35,32,63,98,0
4689,4086,3463,-2,-2,-1,10240,-0.11,-0.09,0.95,0.97,4692,4089,3465,40,35,32,63,98,0
4688,4085,3462,-2,-2,-1,10240,-0.11,-0.09,0.95,0.97,4691,4089,3465,40,35,32,63,98,0
4687,4084,3462,-2,-3,-2,10240,-0.11,-0.09,0.95,0.97,4691,4089,3465,40,35,32,63,98,0
4686,4084,3460,-3,-4,-3,10240,-0.11,-0.09,0.95,0.97,4691,4088,3465,40,35,32,63,98,0
4683,4081,3458,-5,-5,-4,10240,-0.11,-0.09,0.95,0.97,4691,4088,3464,40,35,32,63,98,0
4681,4081,3456,-6,-5,-5,10240,-0.11,-0.09,0.95,0.97,4691,4088,3464,40,35,32,63,98,0
4678,4078,3454,-8,-7,-7,10240,-0.11,-0.09,0.95,0.97,4690,4088,3464,40,35,32,63,98,0
4676,4075,3452,-11,-9,-8,10240,-0.11,-0.09,0.95,0.97,4690,4087,3463,40,35,32,63,98,0
4674,4074,3450,-12,-10,-10,10240,-0.11,-0.09,0.95,0.97,4689,4087,3463,40,35,32,63,98,0
4673,4073,3450,-14,-12,-11,10240,-0.11,-0.09,0.95,0.97,4689,4086,3463,40,35,32,63,98,0
4673,4073,3449,-15,-12,-12,10240,-0.11,-0.09,0.95,0.97,4688,4086,3462,40,35,32,63,98,0
4674,4073,3450,-15,-12,-12,10240,-0.11,-0.09,0.95,0.97,4688,4085,3462,40,35,32,63,98,0
4673,4073,3451,-14,-12,-12,10240,-0.11,-0.09,0.95,0.97,4687,4085,3461,40,35,32,63,98,0
4674,4073,3450,-14,-12,-11,10240,-0.11,-0.09,0.95,0.97,4687,4085,3461,40,35,32,63,98,0
4675,4075,3451,-13,-11,-10,10240,-0.11,-0.09,0.95,0.97,4686,4084,3461,40,35,32,63,98,0
4680,4078,3454,-11,-9,-9,10240,-0.11,-0.09,0.95,0.97,4686,4084,3460,40,35,32,63,98,0
4682,4079,3457,-8,-8,-7,10240,-0.11,-0.09,0.95,0.97,4686,4084,3460,40,35,32,63,98,0
4684,4082,3458,-5,-5,-5,10240,-0.11,-0.09,0.95,0.97,4686,4084,3460,40,35,32,63,98,0
4686,4083,3459,-3,-3,-3,10240,-0.11,-0.09,0.95,0.97,4686,4084,3460,40,35,32,63,98,0
4685,4084,3460,-1,-2,-1,10240,-0.11,-0.09,0.95,0.97,4686,4084,3460,40,35,32,63,98,0
4685,4083,3459,-1,-1,-1,10240,-0.11,-0.09,0.95,0.97,4686,4084,3460,40,35,32,63,98,0
4686,4085,3462,0,0,0,10240,-0.11,-0.09,0.95,0.97,4686,4084,3460,40,35,32,63,98,0
4686,4086,3461,0,0,0,10240,-0.11,-0.09,0.95,0.97,4686,4084,3460,40,35,32,63,98,1
2938,3298,7304,-422,-189,929,10240,-0.11,-0.09,0.95,0.97,4628,4058,3588,40,35,32,63,98,1
2223,2982,8885,-1003,-449,2209,10240,-0.11,-0.09,0.95,0.97,4547,4022,3765,40,35,32,63,98,1
2224,2984,8887,-1565,-700,3447,10240,-0.11,-0.09,0.95,0.97,4470,3987,3936,40,35,32,63,98,1
2224,2984,8890,-2107,-943,4644,10240,-0.11,-0.09,0.95,0.97,4395,3954,4101,40,35,32,63,98,1
2226,2988,8896,-2209,-986,4873,10240,-0.11,-0.09,0.95,0.97,4323,3922,4261,40,35,32,63,98,1
2226,2989,8896,-2135,-952,4714,10240,-0.11,-0.09,0.95,0.97,4253,3890,4415,40,35,32,63,98,1
2224,2990,8888,-2064,-918,4557,10240,-0.11,-0.09,0.95,0.97,4185,3860,4564,40,35,32,63,98,1
2216,2982,8853,-1997,-888,4396,10240,-0.11,-0.09,0.95,0.97,4120,3831,4707,40,35,32,63,98,1
2211,2976,8834,-1934,-861,4235,10240,-0.11,-0.09,0.95,0.97,4056,3803,4845,40,35,32,63,98,1
2208,2969,8817,-1874,-838,4074,10240,-0.11,-0.09,0.95,0.97,3994,3775,4977,40,35,32,63,98,1
2209,2966,8808,-1815,-816,3919,10240,-0.11,-0.09,0.95,0.97,3935,3748,5105,40,35,32,63,98,1
2208,2962,8799,-1756,-793,3775,10240,-0.11,-0.09,0.95,0.97,3877,3722,5228,40,35,32,63,98,1
2206,2955,8786,-1699,-772,3638,10240,-0.11,-0.09,0.95,0.97,3822,3696,5347,40,35,32,63,98,1
2207,2955,8786,-1643,-749,3509,10240,-0.11,-0.09,0.95,0.97,3768,3671,5461,40,35,32,63,98,1
2206,2954,8789,-1589,-727,3388,10240,-0.11,-0.09,0.95,0.97,3716,3648,5572,40,35,32,63,98,1
2207,2955,8796,-1536,-705,3274,10240,-0.11,-0.09,0.95,0.97,3665,3624,5680,40,35,32,63,98,1
2207,2959,8804,-1484,-680,3169,10240,-0.11,-0.09,0.95,0.97,3617,3602,5784,40,35,32,63,98,1
2212,2965,8817,-1434,-655,3071,10240,-0.11,-0.09,0.95,0.97,3570,3581,5885,40,35,32,63,98,1
2211,2965,8818,-1385,-630,2975,10240,-0.11,-0.09,0.95,0.97,3525,3560,5983,40,35,32,63,98,1
2210,2965,8819,-1338,-607,2882,10240,-0.11,-0.09,0.95,0.97,3481,3541,6077,40,35,32,63,98,1
2211,2968,8826,-1292,-585,2791,10240,-0.11,-0.09,0.95,0.97,3439,3522,6169,40,35,32,63,98,1
2213,2974,8839,-1249,-563,2703,10240,-0.11,-0.09,0.95,0.97,3398,3503,6258,40,35,32,63,98,1
2217,2979,8847,-1206,-541,2620,10240,-0.11,-0.09,0.95,0.97,3358,3486,6344,40,35,32,63,98,1
2217,2979,8848,-1164,-520,2540,10240,-0.11,-0.09,0.95,0.97,3320,3469,6428,40,35,32,63,98,1
2217,2981,8851,-1123,-499,2461,10240,-0.11,-0.09,0.95,0.97,3283,3453,6508,40,35,32,63,98,1
2220,2985,8861,-1084,-480,2385,10240,-0.11,-0.09,0.95,0.97,3248,3437,6587,40,35,32,63,98,1
2220,2986,8864,-1047,-462,2309,10240,-0.11,-0.09,0.95,0.97,3214,3422,6663,40,35,32,63,98,1
2222,2990,8873,-1011,-444,2238,10240,-0.11,-0.09,0.95,0.97,3181,3408,6736,40,35,32,63,98,1
2221,2989,8869,-977,-427,2168,10240,-0.11,-0.09,0.95,0.97,3149,3394,6808,40,35,32,63,98,1
2223,2991,8876,-944,-412,2099,10240,-0.11,-0.09,0.95,0.97,3118,3380,6876,40,35,32,63,98,1
2224,2992,8880,-911,-396,2033,10240,-0.11,-0.09,0.95,0.97,3088,3367,6943,40,35,32,63,98,1
2224,2994,8882,-880,-382,1968,10240,-0.11,-0.09,0.95,0.97,3059,3355,7008,40,35,32,63,98,1
2223,2988,8853,-850,-370,1898,10240,-0.11,-0.09,0.95,0.97,3031,3343,7069,40,35,32,63,98,1
2220,2981,8833,-822,-360,1825,10240,-0.11,-0.09,0.95,0.97,3004,3331,7128,40,35,32,63,98,1
2219,2976,8819,-796,-352,1749,10240,-0.11,-0.09,0.95,0.97,2978,3319,7185,40,35,32,63,98,1
2221,2976,8814,-770,-344,1674,10240,-0.11,-0.09,0.95,0.97,2953,3307,7239,40,35,32,63,98,1
2220,2966,8801,-746,-338,1606,10240,-0.11,-0.09,0.95,0.97,2929,3296,7291,40,35,32,63,98,1
2218,2961,8785,-721,-332,1540,10240,-0.11,-0.09,0.95,0.97,2905,3285,7341,40,35,32,63,98,1
2217,2957,8781,-698,-325,1480,10240,-0.11,-0.09,0.95,0.97,2882,3274,7389,40,35,32,63,98,1
2217,2960,8787,-676,-318,1424,10240,-0.11,-0.09,0.95,0.97,2860,3263,7435,40,35,32,63,98,1
2217,2961,8792,-654,-309,1374,10240,-0.11,-0.09,0.95,0.97,2838,3253,7481,40,35,32,63,98,1
2220,2963,8803,-631,-298,1333,10240,-0.11,-0.09,0.95,0.97,2818,3244,7525,40,35,32,63,98,1
2218,2964,8805,-610,-286,1294,10240,-0.11,-0.09,0.95,0.97,2798,3234,7567,40,35,32,63,98,1
2219,2965,8806,-589,-275,1256,10240,-0.11,-0.09,0.95,0.97,2778,3225,7609,40,35,32,63,98,1
2219,2965,8811,-569,-265,1218,10240,-0.11,-0.09,0.95,0.97,2760,3217,7649,40,35,32,63,98,1
2220,2969,8819,-550,-255,1182,10240,-0.11,-0.09,0.95,0.97,2742,3208,7688,40,35,32,63,98,1
2223,2974,8834,-530,-244,1149,10240,-0.11,-0.09,0.95,0.97,2724,3201,7726,40,35,32,63,98,1
2223,2975,8835,-512,-234,1118,10240,-0.11,-0.09,0.95,0.97,2708,3193,7763,40,35,32,63,98,1
2223,2975,8840,-494,-223,1088,10240,-0.11,-0.09,0.95,0.97,2692,3186,7799,40,35,32,63,98,1
2224,2979,8842,-476,-214,1057,10240,-0.11,-0.09,0.95,0.97,2676,3179,7833,40,35,32,63,98,1
2225,2982,8850,-460,-204,1026,10240,-0.11,-0.09,0.95,0.97,2661,3172,7867,40,35,32,63,98,1
2227,2985,8858,-444,-195,997,10240,-0.11,-0.09,0.95,0.97,2646,3166,7900,40,35,32,63,98,1
2227,2985,8858,-428,-186,969,10240,-0.11,-0.09,0.95,0.97,2633,3160,7932,40,35,32,63,98,1
2226,2987,8858,-413,-178,940,10240,-0.11,-0.09,0.95,0.97,2619,3154,7963,40,35,32,63,98,1
2227,2989,8866,-399,-170,913,10240,-0.11,-0.09,0.95,0.97,2606,3149,7993,40,35,32,63,98,1
2226,2992,8870,-386,-163,885,10240,-0.11,-0.09,0.95,0.97,2593,3144,8023,40,35,32,63,98,1
2224,2984,8853,-374,-158,854,10240,-0.11,-0.09,0.95,0.97,2581,3138,8050,40,35,32,63,98,1
2221,2978,8832,-362,-155,819,10240,-0.11,-0.09,0.95,0.97,2569,3133,8076,40,35,32,63,98,1
2215,2966,8812,-353,-155,779,10240,-0.11,-0.09,0.95,0.97,2557,3127,8101,40,35,32,63,98,1
2212,2958,8797,-345,-158,735,10240,-0.11,-0.09,0.95,0.97,2546,3122,8124,40,234,32,63,98,1
2213,2957,8793,-336,-159,696,10240,-0.11,-0.09,0.95,0.97,2535,3116,8146,40,234,32,63,98,1
2208,2941,8767,-328,-163,657,10240,-0.11,-0.09,0.95,0.97,2524,3110,8167,40,234,32,63,98,1
2207,2938,8761,-319,-164,623,10240,-0.11,-0.09,0.95,0.97,2513,3105,8187,40,234,32,63,98,1
2207,2938,8762,-310,-164,594,10240,-0.11,-0.09,0.95,0.97,2503,3099,8206,40,234,32,63,98,1
2207,2938,8767,-301,-163,568,10240,-0.11,-0.09,0.95,0.97,2493,3094,8225,40,234,32,63,98,1
2208,2940,8776,-290,-158,551,10240,-0.11,-0.09,0.95,0.97,2483,3089,8243,40,234,32,63,98,1
2210,2943,8786,-280,-151,539,10240,-0.11,-0.09,0.95,0.97,2474,3084,8261,40,234,32,63,98,1
2212,2944,8786,-269,-145,526,10240,-0.11,-0.09,0.95,0.97,2466,3079,8279,40,234,32,63,98,1
2212,2945,8788,-259,-138,514,10240,-0.11,-0.09,0.95,0.97,2457,3075,8296,40,234,32,63,98,1
2211,2949,8794,-250,-131,501,10240,-0.11,-0.09,0.95,0.97,2449,3070,8312,40,234,32,63,98,1
2214,2952,8804,-241,-125,489,10240,-0.11,-0.09,0.95,0.97,2441,3066,8329,40,234,32,63,98,1
2215,2957,8816,-232,-117,480,10240,-0.11,-0.09,0.95,0.97,2434,3063,8345,40,234,32,63,98,1
2213,2959,8819,-224,-110,471,10240,-0.11,-0.09,0.95,0.97,2426,3059,8361,40,234,32,63,98,1
2214,2960,8826,-216,-104,463,10240,-0.11,-0.09,0.95,0.97,2419,3056,8376,40,234,32,63,98,1
2215,2965,8837,-208,-97,456,10240,-0.11,-0.09,0.95,0.97,2412,3053,8392,40,234,32,63,98,1
2217,2970,8849,-201,-91,448,10240,-0.11,-0.09,0.95,0.97,2406,3050,8407,40,234,32,63,98,1
2215,2964,8850,-194,-86,441,10240,-0.11,-0.09,0.95,0.97,2400,3047,8422,40,234,32,63,98,1
2214,2958,8844,-187,-84,430,10240,-0.11,-0.09,0.95,0.97,2393,3044,8436,40,234,32,63,98,1
2216,2963,8857,-181,-82,421,10240,-0.11,-0.09,0.95,0.97,2387,3042,8450,40,234,32,63,98,1
2218,2964,8864,-174,-80,411,10240,-0.11,-0.09,0.95,0.97,2382,3039,8463,40,234,32,63,98,1
2219,2965,8872,-167,-78,402,10240,-0.11,-0.09,0.95,0.97,2376,3037,8477,40,234,32,63,98,1
2214,2966,8849,-162,-73,390,10240,-0.11,-0.09,0.95,0.97,2371,3034,8489,40,234,32,63,98,1
2211,2963,8832,-158,-71,371,10240,-0.11,-0.09,0.95,0.97,2366,3032,8501,40,234,32,63,98,1
2209,2958,8820,-155,-70,348,10240,-0.11,-0.09,0.95,0.97,2360,3029,8512,40,234,32,63,98,1
2209,2958,8817,-152,-69,323,10240,-0.11,-0.09,0.95,0.97,2355,3027,8522,40,234,32,63,98,1
2212,2961,8821,-147,-68,305,10240,-0.11,-0.09,0.95,0.97,2351,3025,8532,40,234,32,63,98,1
2217,2969,8833,-141,-64,295,10240,-0.11,-0.09,0.95,0.97,2346,3023,8542,40,234,32,63,98,1
2220,2975,8842,-134,-58,291,10240,-0.11,-0.09,0.95,0.97,2342,3021,8552,40,234,32,63,98,1
2220,2975,8847,-127,-52,288,10240,-0.11,-0.09,0.95,0.97,2338,3020,8562,40,234,32,63,98,1
2220,2975,8853,-120,-47,287,10240,-0.11,-0.09,0.95,0.97,2334,3018,8571,40,234,32,63,98,1
2222,2981,8861,-115,-42,284,10240,-0.11,-0.09,0.95,0.97,2330,3017,8581,40,234,32,63,98,1
2224,2984,8874,-110,-39,282,10240,-0.11,-0.09,0.95,0.97,2327,3016,8591,40,234,32,63,98,1
2223,2985,8874,-106,-35,279,10240,-0.11,-0.09,0.95,0.97,2323,3015,8600,40,234,32,63,98,1
2224,2987,8880,-101,-31,277,10240,-0.11,-0.09,0.95,0.97,2320,3014,8609,40,234,32,63,98,1
2225,2987,8884,-97,-28,273,10240,-0.11,-0.09,0.95,0.97,2317,3013,8619,40,234,32,63,98,1
2227,2992,8891,-93,-25,268,10240,-0.11,-0.09,0.95,0.97,2314,3012,8628,40,234,32,63,98,1
2227,2995,8901,-89,-22,265,10240,-0.11,-0.09,0.95,0.97,2311,3012,8637,40,234,32,63,98,1
2229,2996,8903,-85,-19,262,10240,-0.11,-0.09,0.95,0.97,2308,3011,8646,40,234,32,63,98,1
2230,2996,8908,-81,-16,259,10240,-0.11,-0.09,0.95,0.97,2305,3011,8654,40,234,32,63,98,1
2231,3000,8913,-77,-14,256,10240,-0.11,-0.09,0.95,0.97,2303,3010,8663,40,234,32,63,98,1
2234,3008,8920,-73,-10,252,10240,-0.11,-0.09,0.95,0.97,2301,3010,8672,40,234,32,63,98,1
2236,3008,8933,-69,-7,251,10240,-0.11,-0.09,0.95,0.97,2299,3010,8680,40,234,32,63,98,1
2234,3010,8929,-66,-3,247,10240,-0.11,-0.09,0.95,0.97,2296,3010,8689,40,234,32,63,98,1
2235,3009,8932,-62,-1,244,10240,-0.11,-0.09,0.95,0.97,2294,3010,8697,40,234,32,63,98,1
2237,3012,8941,-59,0,241,10240,-0.11,-0.09,0.95,0.97,2292,3010,8705,40,234,32,63,98,1
2236,3012,8944,-57,0,235,10240,-0.11,-0.09,0.95,0.97,2291,3010,8713,40,234,32,63,98,1
2232,3008,8915,-56,0,224,10240,-0.11,-0.09,0.95,0.97,2289,3010,8719,40,234,32,63,98,1
2230,3002,8895,-56,-1,208,10240,-0.11,-0.09,0.95,0.97,2287,3010,8725,40,217,32,63,98,1
2229,2998,8884,-56,-5,187,10240,-0.11,-0.09,0.95,0.97,2285,3010,8731,40,217,32,63,98,1
2228,2994,8874,-56,-9,164,10240,-0.11,-0.09,0.95,0.97,2283,3009,8735,40,217,32,63,98,1
2229,2986,8863,-55,-14,146,10240,-0.11,-0.09,0.95,0.97,2281,3008,8740,40,217,32,63,98,1
2226,2982,8847,-54,-18,129,10240,-0.11,-0.09,0.95,0.97,2279,3008,8743,40,217,32,63,98,1
2226,2979,8840,-52,-22,115,10240,-0.11,-0.09,0.95,0.97,2277,3007,8746,40,217,32,63,98,1
2223,2978,8839,-52,-26,102,10240,-0.11,-0.09,0.95,0.97,2276,3006,8750,40,217,32,63,98,1
2226,2981,8851,-51,-26,96,10240,-0.11,-0.09,0.95,0.97,2274,3005,8753,40,217,32,63,98,1
2229,2987,8860,-48,-24,96,10240,-0.11,-0.09,0.95,0.97,2272,3004,8757,40,217,32,63,98,1
2229,2988,8864,-46,-21,98,10240,-0.11,-0.09,0.95,0.97,2271,3004,8760,40,217,32,63,98,1
2228,2985,8861,-43,-18,100,10240,-0.11,-0.09,0.95,0.97,2270,3003,8763,40,217,32,63,98,1
2226,2984,8862,-42,-17,100,10240,-0.11,-0.09,0.95,0.97,2268,3002,8767,40,217,32,63,98,1
2225,2985,8864,-42,-17,97,10240,-0.11,-0.09,0.95,0.97,2267,3002,8770,40,217,32,63,98,1
2226,2990,8873,-41,-16,96,10240,-0.11,-0.09,0.95,0.97,2265,3001,8773,40,217,32,63,98,1
2228,2990,8882,-39,-14,98,10240,-0.11,-0.09,0.95,0.97,2264,3001,8777,40,217,32,63,98,1
2226,2989,8882,-38,-12,100,10240,-0.11,-0.09,0.95,0.97,2263,3001,8781,40,217,32,63,98,1
2225,2990,8881,-37,-11,100,10240,-0.11,-0.09,0.95,0.97,2262,3000,8784,40,217,32,63,98,1
2226,2992,8888,-36,-10,101,10240,-0.11,-0.09,0.95,0.97,2260,3000,8787,40,217,32,63,98,1
2230,3001,8896,-34,-7,101,10240,-0.11,-0.09,0.95,0.97,2259,3000,8791,40,217,32,63,98,1
2231,3003,8907,-31,-3,103,10240,-0.11,-0.09,0.95,0.97,2258,3000,8795,40,217,32,63,98,1
2232,3002,8904,-29,0,106,10240,-0.11,-0.09,0.95,0.97,2258,3000,8798,40,217,32,63,98,1
2233,3004,8912,-26,2,108,10240,-0.11,-0.09,0.95,0.97,2257,3000,8802,40,217,32,63,98,1
2234,3007,8916,-24,3,109,10240,-0.11,-0.09,0.95,0.97,2256,3001,8806,40,217,32,63,98,1
2235,3010,8920,-23,5,109,10240,-0.11,-0.09,0.95,0.97,2255,3001,8810,40,217,32,63,98,1
2232,3004,8893,-22,5,102,10240,-0.11,-0.09,0.95,0.97,2254,3001,8813,40,217,32,63,98,1
2230,2997,8873,-22,3,89,10240,-0.11,-0.09,0.95,0.97,2254,3001,8815,40,170,32,63,98,1
2227,2991,8858,-23,0,72,10240,-0.11,-0.09,0.95,0.97,2253,3001,8816,577,170,32,63,98,1
2227,2988,8851,-24,-5,53,10240,-0.11,-0.09,0.95,0.97,2252,3000,8817,577,170,32,63,98,1
2227,2983,8843,-24,-10,39,10240,-0.11,-0.09,0.95,0.97,2251,3000,8818,577,170,32,63,98,1
2224,2974,8825,-25,-16,27,10240,-0.11,-0.09,0.95,0.97,2250,2999,8818,577,170,32,63,98,1
2224,2973,8820,-25,-19,17,10240,-0.11,-0.09,0.95,0.97,2249,2998,8818,577,170,32,63,98,1
2224,2970,8818,-24,-23,8,10240,-0.11,-0.09,0.95,0.97,2248,2997,8818,577,170,32,63,98,1
2225,2974,8830,-24,-24,5,10240,-0.11,-0.09,0.95,0.97,2248,2996,8819,577,170,32,63,98,1
2227,2980,8844,-23,-22,9,10240,-0.11,-0.09,0.95,0.97,2247,2996,8820,577,170,32,63,98,1
2228,2981,8847,-21,-19,15,10240,-0.11,-0.09,0.95,0.97,2246,2995,8821,577,170,32,63,98,1
2224,2979,8840,-20,-17,20,10240,-0.11,-0.09,0.95,0.97,2246,2995,8821,577,170,32,63,98,1
2228,2981,8850,-19,-14,24,10240,-0.11,-0.09,0.95,0.97,2245,2994,8822,577,170,32,63,98,1
2226,2982,8853,-18,-13,25,10240,-0.11,-0.09,0.95,0.97,2244,2994,8823,577,170,32,63,98,1
2231,2988,8865,-17,-11,29,10240,-0.11,-0.09,0.95,0.97,2244,2993,8825,577,170,32,63,98,1
2231,2992,8875,-15,-7,36,10240,-0.11,-0.09,0.95,0.97,2244,2993,8826,577,170,32,63,98,1
