46824,276874,405406,1,-24,1038
46918,276988,405470,2,-13,1038
46941,277029,405588,0,-13,1040
46896,277218,405580,0,-17,1044
47062,277176,405714,-7,-12,1044
47052,277259,405734,7,-12,1037
47062,277309,405842,7,-21,1033
47094,277342,405858,-9,-21,1033
47162,277430,406057,-3,-21,1037
47122,277488,406020,-3,-23,1023
47233,277533,406000,0,-15,1023
47267,277682,406115,-5,-18,1035
47240,277686,406119,2,-18,1032
47301,277772,406255,2,-12,1035
47297,277750,406322,2,-21,1035
47372,277828,406312,3,-21,1035
47457,278009,406421,3,-16,1013
47467,278013,406469,0,-12,1013
47470,278068,406563,-9,-12,1026
47533,278247,406647,-9,-16,1017
47496,278148,406565,-6,-15,1027
47600,278275,406637,0,-18,1027
47553,278184,406635,-8,-18,1026
47634,278330,406816,-8,-24,1021
47648,278425,406836,2,-21,1021
47665,278448,406856,1,-21,1021
47625,278409,406870,1,-26,1050
47741,278504,407014,0,-16,1050
47740,278507,407046,-9,-16,1018
47741,278524,406994,-9,-25,1033
47765,278556,406984,-5,-21,1033
47788,278472,406915,-11,-21,1054
47788,278455,406961,-11,-12,1043
47813,278461,406904,-6,-22,1043
47786,278367,406802,-4,-22,1030
47618,277936,406497,-4,-19,1035
47471,277565,406330,-8,-13,1047
47292,277340,406127,-9,-19,1047
47177,277079,405893,-3,-19,1024
47107,276901,405589,-3,-14,1030
46831,276522,405384,3,-20,1030
46782,276379,405311,3,-20,1010
46600,276253,405280,3,-15,1024
46634,276078,405226,-6,-14,1024
46566,276088,405191,3,-14,1044
46451,275903,405097,3,-13,1040
46450,275842,405184,-2,-16,1040
46402,275824,405163,-4,-16,1033
46392,275890,405256,-8,-24,1023
46389,275843,405397,-8,-21,1043
46540,276034,405414,-6,-20,1043
46436,276136,405579,-4,-20,1041
46509,276173,405656,-4,-19,1035
46464,276255,405685,3,-20,1035
46518,276474,405897,-6,-20,1029
46555,276552,406016,-6,-22,1040
46553,276645,406062,2,-21,1040
46638,276706,406153,-4,-21,1024
46691,276714,406239,-4,-15,1040
46690,276890,406349,3,-20,1040
46646,276958,406439,-8,-18,1026
46642,277016,406588,-8,-18,1018
46678,277148,406650,3,-20,1026
46738,277246,406612,3,-18,1026
46833,277355,406839,6,-18,1020
46792,277388,406920,6,-21,1030
46851,277424,406869,1,-14,1030
46802,277581,406967,0,-14,1035
46880,277555,407029,0,-12,1007
46897,277687,407182,-5,-13,1007
46996,277851,407217,10,-13,1029
47055,277931,407324,10,-14,1024
47087,277943,407376,-4,-12,1024
47109,278033,407449,-2,-12,1024
47120,278210,407609,-2,-18,1027
47079,278261,407623,-7,-22,1005
47121,278301,407611,-3,-18,1005
47135,278295,407716,-6,-18,1020
47264,278403,407668,-6,-18,1043
47257,278534,407776,4,-15,1043
47334,278515,407880,0,-15,1046
47336,278610,407898,0,-14,1035
47406,278638,407865,6,-15,1050
47359,278674,407941,-12,-15,1050
47441,278765,408013,-12,-23,1024
47477,278820,408146,3,-19,1044
47560,278801,408103,6,-19,1044
47537,278927,408105,-3,-19,1018
47560,278880,408211,-3,-21,1008
47622,279034,408314,-4,-17,1008
47587,279098,408332,-6,-17,1059
47659,279132,408352,-6,-18,1047
47670,279121,408348,7,-16,1047
47664,279215,408419,3,-16,1041
47695,279318,408567,3,-15,1030
47848,279287,408554,8,-16,1030
47750,279372,408632,-2,-22,1026
47800,279401,408678,-2,-22,1020
47834,279446,408619,-2,-19,1020
47869,279512,408721,-4,-21,1030
47884,279612,408692,6,-21,1033
47952,279648,408760,6,-15,1024
48020,279590,408753,2,-18,1024
47926,279547,408819,1,-18,1040
48030,279716,408885,1,-11,1021
47953,279778,409005,-3,-24,1021
48086,279776,409008,4,-24,1033
48102,279818,408971,4,-20,1010
48152,279769,408934,3,-16,1010
48096,279827,408950,-9,-16,1037
48163,279810,408929,-9,-17,1052
48027,279576,408798,-3,-27,1013
47936,279362,408620,8,-21,1013
47853,279139,408444,0,-21,1040
47736,278853,408292,0,-20,1032
47657,278640,407801,4,-12,1032
47283,277996,407557,5,-12,1026
47177,277831,407473,5,-18,1029
47119,277692,407310,3,-20,1029
47059,277475,407328,-6,-20,1030
46993,277444,407214,-6,-15,1014
46866,277182,407126,-7,-21,1024
46897,277091,407106,6,-21,1024
46696,277110,407097,-8,-25,1038
46679,277035,407015,-8,-15,1035
46649,276895,407083,-5,-12,1035
46675,277047,407157,1,-12,1021
46708,277099,407115,1,-15,1032
46728,277159,407260,-2,-16,1032
46761,277250,407447,3,-16,1029
46702,277459,407555,3,-16,1032
46772,277488,407709,-3,-24,1032
46809,277644,407884,-9,-24,1030
46855,277731,407888,-8,-16,1035
46838,277727,407967,-8,-24,1035
46828,277946,408051,-5,-19,1032
47020,278075,408265,-5,-19,1017
47009,278110,408264,-5,-19,1038
47008,278177,408383,-5,-15,1038
47039,278194,408437,-3,-15,1037
47047,278341,408569,-3,-23,1041
46992,278439,408584,1,-14,1041
47094,278541,408774,-3,-14,1027
47105,278588,408804,-3,-19,1033
47221,278730,408869,-6,-23,1033
47247,278864,409066,-9,-23,1044
47247,278912,409020,-9,-14,1023
47257,278984,409134,-3,-15,1037
47290,279099,409209,-13,-15,1037
47303,279080,409304,-3,-22,1017
47361,279258,409429,-3,-21,1054
47378,279323,409378,1,-20,1054
47390,279374,409553,-9,-20,1023
47423,279353,409511,-9,-23,1043
47592,279540,409612,0,-16,1043
47544,279650,409726,5,-16,1017
47557,279641,409711,5,-21,1033
47608,279682,409734,3,-19,1033
47562,279742,409797,-9,-10,1021
47683,279811,409868,-9,-10,1026
47742,279955,409973,-5,-24,1026
47782,280016,410015,-8,-24,1033
47803,279987,410039,3,-23,1029
47797,279965,410043,3,-23,1021
47823,280070,410082,-5,-24,1021
47860,280155,410190,0,-24,1026
47829,280197,410129,0,-19,1041
47922,280236,410248,-2,-12,1041
47947,280248,410207,2,-12,1032
48037,280311,410301,2,-18,1037
48016,280436,410447,6,-18,1040
48061,280468,410347,3,-21,1040
48035,280539,410361,3,-21,1047
48131,280582,410446,4,-20,1029
48131,280559,410462,-9,-20,1029
48119,280685,410594,-4,-20,1032
48150,280679,410499,-4,-19,1032
48222,280748,410654,-7,-16,1032
48122,280751,410646,-4,-16,1032
48086,280851,410627,-4,-22,1037
48190,280777,410719,-3,-20,1037
48113,280928,410775,-3,-20,1038
48267,280906,410725,-3,-15,1024
48282,281003,410756,3,-14,1024
48294,280962,410807,1,-14,1021
48426,280992,410839,-3,-16,1044
48494,281004,410815,-3,-15,1056
48450,281048,410789,-6,-21,1056
48440,280924,410859,0,-21,1050
48349,280994,410840,0,-20,1026
48316,280875,410704,0,-18,1026
48316,280787,410519,-5,-18,1035
48049,280141,410250,-5,-21,1043
47941,279852,410071,-14,-19,1043
47848,279544,409814,0,-19,1059
47667,279255,409615,-4,-20,1032
47568,278949,409200,-4,-18,1032
47317,278562,409045,2,-18,1035
47219,278395,408906,2,-15,1035
47131,278242,408800,-5,-21,1043
47153,278176,408812,3,-12,1043
47009,278094,408676,5,-12,1027
46935,277970,408682,5,-13,1013
46855,277839,408610,1,-15,1013
46851,277871,408654,1,-15,1029
46907,277902,408712,1,-12,1023
46884,277994,408869,4,-18,1023
46857,277963,408877,0,-18,1020
46885,277997,408994,0,-20,1024
46910,278192,409074,0,-24,1024
46982,278216,409185,-8,-24,1033
46822,278413,409310,-8,-9,1023
46992,278540,409393,3,-17,1030
46993,278555,409449,-2,-18,1030
47094,278711,409576,0,-18,1035
47001,278668,409644,0,-18,1027
47085,278792,409862,-6,-18,1027
47145,278932,409939,-5,-18,1030
47102,279017,409979,-5,-22,1029
47138,279080,410071,-6,-18,1029
47154,279156,410118,-3,-18,1027
47242,279287,410268,-3,-20,1027
47233,279339,410315,-3,-20,1027
47258,279386,410330,-6,-21,1033
47250,279555,410457,-6,-21,1035
47336,279521,410484,0,-21,1035
47290,279664,410706,1,-20,1035
47386,279853,410657,4,-20,1035
47479,279934,410743,4,-19,1024
47503,279950,410857,3,-15,1024
47514,280069,410885,0,-15,1041
47553,280241,411144,0,-19,1029
47644,280280,411096,-3,-26,1029
47665,280246,411134,-3,-26,1032
47645,280351,411215,-3,-18,1040
47706,280422,411251,3,-26,1029
47675,280481,411185,3,-26,1029
47782,280607,411285,5,-15,1017
47827,280568,411347,5,-20,1023
47788,280620,411401,-5,-18,1023
47846,280718,411414,3,-18,1023
47933,280738,411479,3,-11,1023
47879,280747,411464,0,-17,1023
47892,280823,411528,-4,-17,1044
47936,280836,411539,-4,-13,1020
47989,280918,411525,-7,-21,1020
47976,280951,411639,-3,-17,1030
48020,281007,411667,0,-17,1040
47997,281013,411570,0,-14,1047
48142,281157,411664,5,-14,1047
48127,281038,411630,1,-17,1032
48137,281182,411763,1,-15,1032
48161,281244,411812,6,-15,1032
48160,281304,411868,5,-15,1026
48219,281300,411843,5,-16,1026
48292,281424,411927,-7,-17,1026
48271,281421,411999,0,-17,1020
48288,281494,411966,0,-21,1030
48430,281485,412010,-5,-14,1030
48406,281587,412110,-5,-14,1030
48398,281625,412170,-5,-15,1017
48402,281679,412173,3,-18,1017
48401,281835,412215,7,-18,1035
48502,281730,412232,3,-20,1027
48518,281808,412198,3,-18,1038
48611,281805,412210,0,-13,1038
48550,281879,412377,-2,-13,1029
48629,281895,412227,-2,-16,1038
48553,281804,412273,-5,-22,1038
48530,281737,412238,-5,-22,1033
48506,281718,412190,-5,-13,1030
48497,281587,412155,0,-14,1030
48372,281404,411804,-9,-18,1029
48184,280738,411520,-9,-18,1026
48034,280508,411240,3,-18,1026
47775,280139,411044,-3,-23,1029
47757,279921,410908,-4,-23,1030
47613,279730,410400,-4,-19,1037
47361,279313,410394,2,-21,1037
47237,279116,410334,-4,-21,1035
47206,278981,410228,-4,-19,1011
47138,278907,410145,2,-13,1011
47103,278930,410177,4,-13,1044
47036,278760,410116,4,-25,1040
46977,278746,410194,4,-21,1040
47009,278736,410195,-9,-21,1007
46988,278840,410279,-9,-21,1038
46938,278951,410295,3,-23,1024
47021,278847,410390,-7,-22,1024
46963,278973,410489,2,-22,1029
46985,279057,410609,2,-14,1029
47019,279164,410654,-5,-13,1029
47034,279302,410835,0,-13,1026
47038,279378,410854,0,-19,1032
47106,279489,411026,3,-18,1032
47050,279511,410978,6,-18,1029
47082,279586,411121,6,-21,1038
47090,279713,411230,-5,-21,1038
47110,279820,411333,-8,-21,1024
47186,279971,411459,-8,-17,1041
47226,279988,411517,0,-21,1041
47149,280043,411543,0,-15,1030
47253,280123,411720,0,-15,1011
47301,280303,411684,0,-18,1029
47327,280277,411772,-4,-13,1029
47286,280391,411796,-7,-13,1017
47342,280500,411845,-7,-15,1029
47357,280710,412163,2,-22,1029
47454,280777,412035,0,-22,1044
47410,280727,412102,0,-21,1008
47513,280820,412197,-2,-17,1008
47531,280863,412231,-11,-23,1037
47555,281094,412270,-11,-23,1037
47593,281087,412294,4,-21,1043
47642,281074,412357,3,-18,1043
47589,281124,412425,-6,-18,1013
47648,281228,412361,-6,-24,1035
47687,281276,412457,-4,-15,1035
47690,281344,412500,-5,-15,1024
47698,281457,412557,-5,-12,1026
47747,281497,412690,-9,-15,1026
47816,281576,412607,0,-15,1057
47804,281658,412725,0,-22,1033
47784,281612,412640,-2,-15,1033
47819,281661,412659,-2,-15,1037
47868,281698,412746,2,-15,1018
47945,281799,412719,2,-22,1020
47889,281912,412881,2,-16,1020
47955,281916,412923,-6,-16,1008
48002,281937,412838,-6,-14,1032
48089,282050,412846,0,-23,1032
48038,282047,412907,-8,-23,1008
48024,282112,412958,-8,-13,1030
48079,282226,413070,-4,-13,1030
48071,282297,413038,0,-13,1033
48173,282336,413113,0,-20,1032
48156,282368,413039,-15,-23,1032
48167,282413,413110,-7,-23,1040
48168,282526,413225,-7,-18,1021
48272,282506,413120,-4,-21,1030
48247,282598,413096,2,-13,1030
48235,282625,413129,-4,-13,1030
48303,282668,413114,-4,-18,1041
48335,282828,413207,-6,-19,1041
48385,282811,413234,-9,-19,1023
48263,282780,413219,-9,-15,1021
48384,282760,413208,0,-17,1021
48347,282778,413195,-5,-17,1013
48328,282762,413307,-5,-17,1032
48407,282911,413241,5,-22,1032
48432,282804,413229,-2,-22,1023
48384,282805,413172,-2,-19,1021
48366,282667,413087,-2,-16,1040
48270,282497,412849,1,-12,1040
48130,282088,412606,0,-12,1023
47958,281763,412338,0,-17,1041
47785,281512,412192,0,-15,1041
47639,281210,411967,-4,-15,1041
47506,281017,411571,-4,-18,1029
47328,280575,411504,-8,-26,1029
47191,280367,411378,3,-26,1011
47128,280189,411212,3,-24,1024
47068,280014,411105,-2,-21,1024
46942,280055,411112,-2,-19,1018
46851,279920,411095,-9,-19,1001
46882,279885,410993,-9,-20,1053
46807,279874,410987,1,-24,1053
46771,279851,411133,3,-24,1033
46846,280081,411240,3,-15,1021
46874,280211,411443,-6,-15,1021
46909,280371,411468,-7,-15,1020
46879,280402,411603,-7,-18,1029
46913,280415,411652,0,-18,1018
46884,280618,411896,0,-18,1018
46888,280767,411953,1,-16,1038
46958,280763,411969,1,-23,1038
47010,280838,412018,-3,-27,1027
46968,281002,412047,-4,-27,1004
47000,281042,412133,-4,-17,999
47112,281156,412210,0,-15,999
47047,281270,412254,-6,-15,1023
47056,281337,412324,-6,-19,1029
47081,281356,412454,-4,-12,1029
47141,281583,412639,2,-12,1023
47150,281633,412598,2,-18,1030
47169,281701,412694,1,-7,1030
47259,281702,412745,-5,-7,1030
47277,281858,412907,-5,-18,1010
47300,282027,412952,0,-17,1010
47388,282138,413098,5,-21,1021
47390,282221,413164,-3,-21,1038
47457,282300,413214,-3,-21,1026
47430,282415,413332,-13,-10,1026
47468,282440,413399,5,-10,1035
47534,282544,413464,5,-19,1026
47575,282615,413535,-10,-15,1026
47615,282687,413481,-4,-15,1029
47580,282651,413566,-4,-18,1032
47695,282791,413601,-5,-13,1035
47609,282906,413758,-7,-13,1035
47754,282988,413836,-11,-19,1040
47731,283051,413847,-11,-21,1054
47813,283095,413880,-2,-20,1054
47811,283221,414046,-3,-20,1035
47979,283247,414069,-3,-17,1008
47919,283335,414029,-3,-15,1008
47973,283451,414160,-4,-15,1020
47973,283459,414188,-4,-19,1023
47977,283552,414300,4,-21,1023
48111,283687,414264,5,-21,1023
48137,283721,414374,6,-18,1035
48144,283756,414374,6,-18,1035
48123,283805,414428,0,-15,1016
48182,283875,414512,0,-15,1033
48051,283943,414556,-8,-17,1024
48299,284031,414568,-6,-24,1024
48252,284079,414536,0,-24,1032
48292,284063,414650,0,-10,1017
48359,284216,414604,-3,-23,1017
48391,284181,414673,-2,-23,1062
48550,284170,414688,-2,-13,1016
48424,284295,414774,-9,-12,1016
48417,284364,414875,-6,-18,1023
48443,284422,414830,-6,-18,1020
48589,284524,414913,0,-17,1020
48598,284540,414922,5,-17,1035
48586,284595,415039,5,-24,1035
48625,284603,415023,4,-18,1029
48623,284648,415001,-6,-14,1029
48721,284714,415240,0,-14,1046
48714,284704,415141,0,-21,1018
48731,284754,415223,1,-17,1018
48719,284692,415175,-2,-17,1021
48779,284751,415192,-2,-30,1007
48803,284748,415135,-6,-13,1007
48720,284493,414971,-6,-20,1018
48624,284274,414768,-6,-20,1029
48539,284045,414607,1,-18,1029
48369,283614,414304,-14,-18,1035
48173,283432,413995,-3,-21,1037
47914,282880,413786,-3,-21,1049
47691,282614,413624,1,-13,1049
47581,282354,413444,-10,-13,1023
47611,282150,413332,-10,-18,1038
47426,282098,413230,3,-21,1038
47297,281884,413084,-5,-21,1017
47321,281739,412988,-5,-18,1035
47260,281789,413017,2,-21,1035
47254,281672,412936,-12,-21,1038
47306,281680,413039,3,-23,1026
47233,281697,413050,3,-21,1046
47182,281753,413120,-3,-21,1046
47233,281773,413208,-3,-15,1041
47237,281842,413315,-3,-21,1050
47282,281920,413536,-4,-17,1050
47353,282221,413612,0,-17,1035
47336,282312,413682,0,-8,1020
47355,282277,413704,-6,-21,1020
47520,282461,413852,-12,-21,1046
47397,282526,414056,-12,-15,1050
47461,282659,414051,-4,-18,1050
47494,282732,414115,-11,-18,1005
47477,282691,414151,-11,-16,1023
47557,282850,414306,-10,-27,1023
47526,283011,414354,-7,-27,1023
47561,283078,414363,-7,-24,1029
47622,283123,414457,-7,-15,1007
47669,283156,414573,-4,-21,1007
47666,283323,414654,-10,-21,1030
47753,283356,414775,-10,-14,1030
47812,283606,414884,-3,-21,1030
47817,283637,414894,-7,-21,1017
47897,283788,415103,-7,-18,1030
47909,283780,415108,-4,-20,1030
47901,283962,415165,-3,-19,1027
48030,284036,415399,-3,-19,1027
48031,284165,415365,-3,-14,1027
48109,284263,415473,-3,-23,1027
48073,284218,415421,-11,-23,1046
48103,284395,415677,-11,-21,1024
48173,284415,415600,-8,-16,1024
48201,284537,415685,-4,-16,1033
48246,284537,415698,-4,-11,1035
48176,284668,415773,-5,-15,1035
48203,284678,415832,-6,-15,1010
48290,284786,415805,-6,-10,1033
48360,284807,415924,-8,-15,1033
48342,284890,416044,-5,-15,1035
48393,284918,415991,-5,-18,1035
48407,285052,416165,-9,-22,1020
48329,285112,416224,-9,-15,1020
48567,285163,416256,4,-15,1016
48589,285180,416179,4,-18,1026
48587,285288,416362,-3,-12,1026
48564,285382,416313,-6,-12,1035
48696,285508,416396,-6,-7,1013
48657,285502,416472,0,-18,1013
48725,285529,416505,2,-27,1043
48816,285570,416565,-3,-27,1032
48867,285602,416588,-3,-14,1035
48740,285771,416525,-10,-14,1035
48840,285749,416590,-6,-14,1026
48895,285759,416744,-6,-11,1029
48895,285833,416859,-5,-18,1029
48905,285811,416704,-11,-18,1030
48986,285914,416849,-11,-20,1020
49062,286078,416901,-7,-15,1020
49075,286023,416975,-10,-15,1043
49069,286056,416991,-10,-12,1024
49133,286141,417048,0,-23,1024
49137,286235,417062,-6,-23,1044
49200,286274,417100,-6,-16,1023
49197,286282,417204,-3,-15,1023
49171,286291,417150,-8,-7,1027
49246,286262,417182,-10,-7,1046
49272,286434,417153,-10,-18,1013
49250,286243,417094,-4,-18,1013
49182,286041,416976,-3,-18,1023
49086,285852,416886,-3,-15,1043
48939,285576,416650,6,-17,1043
48754,285410,416383,-4,-17,1020
48606,284773,415991,-4,-28,1020
48443,284497,415847,-5,-17,1046
48351,284258,415671,-6,-17,1046
48174,284003,415536,-6,-21,1035
48119,283826,415421,-5,-18,1035
47938,283637,415246,-2,-18,1043
47870,283496,415162,-11,-20,1008
47872,283393,415089,-11,-14,1021
47806,283284,414981,2,-18,1021
47882,283349,415040,-9,-18,1035
47751,283346,415043,-9,-11,1033
47772,283367,415114,-5,-16,1033
47794,283471,415154,-9,-16,1027
47748,283525,415209,-9,-20,1013
47826,283696,415442,-18,-24,1013
47846,283847,415619,-12,-24,1032
47909,283933,415678,-12,-17,1011
47873,284001,415657,-6,-20,1023
47892,284077,415785,-8,-19,1023
47896,284323,416003,-3,-19,1014
47958,284422,416036,-3,-14,1004
47984,284531,416120,-7,-21,1004
48038,284539,416201,-3,-21,1026
48019,284596,416200,-3,-22,1035
48101,284776,416294,-9,-25,1035
48152,284896,416402,-6,-25,1010
48174,285035,416547,-6,-18,1014
48322,285133,416639,0,-16,1030
48232,285182,416669,-6,-16,1030
48266,285275,416832,-9,-14,1017
48265,285474,416826,-9,-14,1024
48341,285435,416911,-3,-17,1024
48414,285535,416992,-4,-17,1044
48397,285554,416997,-4,-16,1026
48417,285662,417209,0,-24,1026
48469,285854,417254,2,-24,1038
48539,285857,417243,2,-25,1037
48611,285918,417275,4,-23,1037
48568,286075,417359,0,-23,1020
48639,286104,417493,0,-23,1043
48689,286333,417642,-3,-18,1043
48682,286380,417681,0,-18,1059
48745,286435,417716,-5,-13,1035
48799,286421,417732,-5,-24,1021
48862,286557,417853,-3,-21,1021
48693,286535,417905,-7,-21,1026
48854,286619,417803,-7,-18,1024
48898,286699,417923,-9,-19,1024
48936,286718,417970,-10,-19,1038
48962,286886,417946,-10,-18,1035
48921,286925,417923,-3,-24,1035
49008,286895,418076,0,-24,1024
48987,287018,418185,0,-17,1038
49045,287028,418193,-6,-19,1038
49127,287096,418181,1,-12,1032
49184,287205,418273,1,-12,1033
49136,287210,418318,3,-21,1041
49215,287295,418393,-9,-14,1041
49174,287252,418360,-12,-14,1033
49223,287275,418448,-12,-13,1030
49305,287429,418567,-10,-14,1030
49396,287546,418571,-3,-14,1004
49310,287623,418580,-3,-21,1035
49369,287593,418620,-13,-18,1035
49421,287644,418701,-6,-18,1018
49374,287683,418769,-9,-24,1021
49488,287709,418769,-9,-14,1021
49509,287799,418834,-12,-15,1011
49557,287832,418858,-3,-15,1032
49525,287882,418876,-3,-21,1030
49555,287984,419031,1,-18,1030
49662,288018,418987,-2,-18,1029
49608,287989,418994,-2,-24,1043
49675,288021,418974,-2,-15,1043
49720,287967,418940,-3,-15,1052
49607,288100,418977,-3,-18,1018
49712,287930,418831,-9,-16,1018
49648,287848,418887,-2,-18,1024
49614,287673,418710,-3,-18,1030
49559,287474,418512,-3,-14,1035
49460,287218,418403,0,-14,1035
49047,286434,417864,-3,-16,1038
48941,286156,417596,-3,-18,1029
48718,285902,417302,-4,-15,1029
48492,285616,417141,-15,-15,1017
48497,285433,417001,-15,-15,1032
48244,285064,416693,-6,-21,1032
48215,285024,416640,0,-21,1002
48058,284852,416606,0,-21,1035
48074,284724,416465,-3,-16,1035
48016,284780,416664,-8,-16,1008
47857,284700,416470,-8,-19,1041
47882,284764,416525,-5,-15,1041
47882,284830,416445,-6,-15,1035
47830,284762,416495,-5,-14,1026
47812,285002,416601,-5,-16,1021
47887,285050,416867,6,-13,1021
47865,285112,416848,-3,-13,1021
47969,285154,416847,-3,-15,1018
47965,285332,417054,-5,-26,1018
47958,285544,417148,-12,-26,1035
47990,285578,417263,-12,-18,1021
48040,285668,417327,0,-18,1021
48021,285737,417404,-5,-18,1032
48177,285937,417515,-5,-21,1029
48159,285936,417554,-3,-23,1029
48103,286083,417708,0,-23,1049
48112,286168,417790,-2,-23,1038
48196,286228,417826,-2,-18,1023
48232,286335,417848,-2,-18,1023
48219,286497,418023,-6,-18,1030
48256,286603,418056,-6,-15,1035
48304,286706,418121,0,-21,1035
48332,286745,418176,-5,-21,1054
48345,286799,418260,-5,-20,1038
48432,286953,418527,-11,-18,1038
48510,287113,418506,-11,-18,1040
48560,287174,418616,-11,-21,1044
48543,287272,418623,0,-25,1044
48588,287271,418687,-3,-15,1044
48601,287349,418738,-2,-15,1029
48630,287503,418861,-2,-15,1029
48713,287659,418905,-9,-18,1029
48752,287733,419027,-4,-18,1041
48807,287778,418999,-4,-12,1027
48813,287845,419128,-7,-15,1027
48786,287936,419109,-2,-15,1020
48916,287994,419187,-3,-19,1032
48879,288012,419159,-3,-12,1032
48939,288076,419262,-6,-17,1032
48976,288242,419351,-6,-17,1018
49033,288291,419394,-12,-19,1027
49023,288360,419405,-9,-12,1027
49061,288374,419400,-6,-12,1046
49031,288465,419507,-6,-15,1037
49109,288453,419491,3,-23,1037
49178,288569,419616,-6,-23,1026
49186,288608,419689,-6,-18,1033
49211,288661,419645,-2,-12,1033
49242,288687,419643,-9,-15,1035
49245,288729,419731,-9,-15,1017
49322,288876,419836,-8,-12,1017
49325,288917,419861,-3,-12,1040
49381,288966,419932,-15,-21,1035
49341,288982,419933,-15,-16,1041
49383,289149,420001,1,-20,1041
49462,289142,420066,-3,-20,1037
49438,289231,420183,-3,-15,1013
49505,289224,420069,-2,-18,1013
49578,289229,420156,-2,-18,1010
49579,289271,420116,-2,-22,1035
49518,289401,420303,3,-18,1030
49642,289473,420305,-6,-18,1030
49651,289453,420324,-6,-22,1035
49660,289454,420311,-6,-18,1035
49711,289569,420339,-10,-19,1050
49785,289663,420433,3,-19,1037
49756,289551,420403,3,-18,1023
49670,289494,420320,-2,-13,1023
49645,289473,420345,-6,-13,1035
49580,289359,420150,-6,-17,1038
49583,289165,420185,1,-24,1038
49281,288571,419646,-8,-24,1016
49167,288242,419398,-8,-19,1032
49012,287935,419204,0,-19,1032
48820,287719,419132,-6,-19,1035
48714,287561,419009,-6,-21,1013
48518,287060,418563,3,-17,1013
48326,286855,418505,1,-15,1029
48311,286701,418482,2,-15,1018
48225,286602,418339,2,-14,1026
48188,286569,418443,2,-9,1026
47948,286366,418194,3,-9,1035
48032,286266,418213,3,-15,1027
47984,286316,418243,-6,-10,1027
47915,286348,418310,-3,-10,1050
47956,286491,418282,-3,-22,1027
47882,286481,418343,-6,-14,1027
47943,286483,418478,-4,-14,1032
47926,286639,418637,-4,-9,1038
47920,286775,418677,-7,-15,1023
47968,286866,418800,-4,-15,1023
47990,286965,418919,-4,-15,1047
47955,287077,419039,-4,-15,1030
48032,287157,419166,-2,-15,1030
48030,287332,419299,-4,-15,1026
48061,287452,419353,-4,-18,1030
48019,287469,419511,-8,-15,1030
48107,287596,419638,-5,-15,1033
48174,287675,419735,-5,-15,1030
48198,287794,419757,-5,-18,1030
48286,287972,419951,-7,-19,1008
48304,288074,419999,-7,-19,1024
48280,288151,420097,-3,-15,1035
48351,288272,420204,0,-18,1035
48345,288331,420239,0,-18,1050
48317,288553,420449,0,-14,1037
48425,288593,420485,-6,-13,1037
48491,288545,420530,-2,-13,1035
48482,288702,420625,-2,-12,1035
48540,288793,420666,0,-14,1035
48504,288909,420837,0,-14,1030
48537,289041,420885,0,-21,1023
48802,289200,420975,-6,-22,1023
48734,289269,421089,-3,-14,1024
48736,289286,421015,4,-14,1013
48867,289435,421196,4,-15,1026
48922,289491,421309,-7,-21,1026
48879,289618,421334,-6,-21,1029
48878,289657,421364,-6,-15,1029
48988,289784,421360,-3,-14,1029
48879,289932,421426,0,-14,1023
48970,289977,421566,0,-20,1017
49013,290059,421627,-3,-20,1017
49109,290030,421617,-3,-20,1035
49112,290139,421685,-6,-21,1016
49200,290221,421724,-6,-15,1030
49187,290297,421765,-2,-21,1030
49271,290333,421789,-2,-21,1024
49237,290409,421854,-2,-15,1027
49249,290454,421910,-3,-12,1027
49287,290497,422008,-11,-12,1008
49365,290561,421974,-11,-16,1049
49348,290747,422080,3,-18,1049
49327,290654,422042,0,-18,1032
49433,290727,422090,0,-19,1027
49442,290872,422136,1,-21,1027
49440,290979,422243,-6,-21,1021
49436,290839,422127,-6,-17,1032
49524,291008,422247,-7,-15,1032
49503,290976,422260,-5,-12,1017
49577,291056,422284,3,-12,1030
49557,291257,422366,3,-15,1033
49597,291233,422444,0,-12,1033
49598,291140,422386,-7,-12,1017
49688,291299,422481,-7,-21,1014
49742,291446,422604,-5,-18,1014
49733,291410,422632,1,-18,1046
49830,291484,422566,-6,-24,1041
49741,291513,422606,-6,-17,1041
49707,291572,422548,-4,-21,1023
49793,291437,422607,0,-21,1014
49768,291437,422627,0,-12,1017
49718,291079,422388,-4,-14,1017
49522,290771,422002,-6,-14,1020
49388,290480,421789,-6,-17,1035
49212,290195,421696,-6,-13,1035
49012,289886,421549,-5,-13,1029
48787,289222,420969,-5,-18,1023
48643,288975,420741,-5,-14,1023
48463,288748,420522,-15,-14,1038
48442,288578,420533,-15,-23,1020
48343,288569,420527,-3,-21,1020
48265,288290,420332,-3,-21,1037
48199,288239,420193,-6,-17,1043
48141,288073,420123,-6,-16,1013
48163,288093,420093,3,-14,1013
48145,288023,420137,3,-14,1027
48085,288017,420203,3,-15,1008
48163,288125,420287,-7,-22,1008
48065,288174,420278,0,-22,1029
48173,288267,420347,0,-22,1049
48160,288228,420394,1,-12,1049
48041,288462,420562,-2,-12,1035
48207,288613,420605,-2,-15,1020
48299,288596,420679,-8,-18,1020
48289,288779,420784,2,-18,1043
48236,288819,420927,-8,-18,1016
48408,288959,421014,-8,-18,1018
48391,289096,421080,3,-12,1018
48449,289138,421213,3,-12,1043
48438,289228,421206,3,-19,1044
48416,289289,421300,-6,-13,1044
48550,289491,421468,-9,-13,1035
48621,289553,421500,-9,-19,1018
48527,289693,421542,-8,-12,1044
48637,289721,421603,-5,-12,1044
48635,289828,421751,-5,-15,1040
48587,289938,421804,4,-15,1041
48748,290023,421819,-9,-10,1041
48776,290119,421915,-5,-10,1035
48785,290148,422032,-5,-17,1029
48851,290233,422124,2,-18,1029
48966,290364,422209,-3,-18,1029
49000,290457,422185,-3,-14,1037
48898,290493,422240,-10,-16,1037
49046,290608,422389,-2,-16,1032
49056,290674,422493,1,-12,1023
49093,290850,422509,1,-10,1023
49045,290820,422504,0,-18,1026
49171,290868,422617,0,-18,1018
49148,290886,422673,-4,-25,1037
49202,290986,422692,-2,-21,1037
49237,291152,422759,-12,-21,1017
49331,291217,422903,-12,-11,1024
49352,291208,422808,-4,-16,1024
49340,291287,422849,-6,-16,1026
49392,291364,422975,-6,-16,1026
49466,291431,422996,-7,-18,1026
49357,291493,423067,0,-18,1011
49522,291447,423107,0,-14,1021
49597,291560,423065,-6,-14,1021
49627,291593,423254,-8,-14,1023
49564,291834,423250,-7,-14,1032
49689,291834,423327,-7,-19,1027
49678,291834,423312,3,-8,1027
49687,291824,423364,-6,-8,1032
49706,291896,423461,-6,-24,1020
49720,292088,423451,-3,-14,1020
49868,292030,423655,-4,-14,1029
49812,292093,423549,-4,-16,1014
49913,292185,423657,-4,-21,1014
49928,292235,423678,0,-21,1053
49988,292247,423744,0,-9,1035
50024,292253,423736,3,-11,1035
50053,292341,423740,-9,-11,1035
50005,292423,423706,-9,-11,1021
50089,292400,423717,-9,-21,1026
50120,292571,423944,-6,-12,1026
50178,292481,423890,-5,-12,1035
50198,292505,423953,-5,-11,1027
50289,292626,424003,1,-21,1027
50257,292635,424035,-4,-21,1035
50233,292644,424173,-4,-9,1040
50312,292565,423847,-8,-16,1040
50271,292460,423908,-2,-16,1032
50189,292356,423789,-2,-8,1041
50154,292208,423675,-3,-11,1035
50088,291997,423577,-2,-20,1035
49783,291286,423003,-3,-20,1014
49666,290984,422740,-3,-19,1037
49544,290656,422524,-9,-8,1037
49367,290380,422280,-2,-8,1029
49302,290097,422183,-2,-15,1037
49010,289729,421790,-3,-18,1037
48907,289562,421692,3,-18,1026
48824,289365,421450,-4,-13,1029
48824,289195,421440,-4,-15,1029
48833,289235,421489,2,-15,1038
48669,289059,421218,2,-18,1030
48635,288959,421233,7,-26,1029
48621,289016,421286,2,-21,1029
48605,289024,421234,-6,-21,1049
48640,289036,421406,-6,-19,1041
48625,289210,421501,-9,-13,1041
48692,289248,421514,-7,-13,1035
48747,289318,421699,-7,-27,1014
48766,289330,421802,-2,-15,1014
48769,289497,421760,-3,-15,1041
48799,289687,422002,-3,-24,1038
48795,289743,422055,1,-16,1038
48874,289836,422089,-8,-16,1035
48906,289902,422232,-8,-14,1035
48943,289989,422351,-3,-10,1047
48844,290134,422423,1,-16,1047
49059,290204,422478,5,-16,1033
49022,290282,422553,5,-18,1026
49063,290341,422605,3,-15,1026
49074,290445,422690,-2,-15,1010
49148,290567,422821,-2,-16,1017
49222,290732,422882,-2,-23,1017
49252,290746,423004,-10,-18,1038
49294,290758,422999,-7,-18,1047
49331,290851,423158,-7,-16,1035
49391,291049,423169,-3,-16,1035
49365,291020,423252,-7,-20,999
49503,291140,423440,-7,-21,1026
49490,291205,423300,-3,-15,1026
49447,291330,423455,0,-15,1032
49558,291325,423486,0,-15,1029
49573,291405,423534,-3,-15,1029
49578,291491,423697,0,-15,1026
49663,291546,423697,0,-15,1023
49676,291565,423700,-2,-16,1047
49668,291618,423841,-12,-16,1047
49789,291766,423827,-10,-12,1007
49792,291803,423914,-10,-15,1007
49828,291954,423907,4,-13,1029
49863,291946,423971,-5,-13,1023
49893,292001,424091,-5,-19,1029
49938,292180,424115,7,-13,1029
49951,292186,424067,-5,-13,1023
49995,292181,424268,-5,-12,1035
49964,292183,424280,-8,-17,1035
49908,292293,424359,-4,-17,1038
50057,292379,424362,-4,-18,1013
50092,292482,424320,-8,-12,1013
50139,292477,424393,-6,-12,1035
50142,292438,424373,-6,-18,1023
50268,292662,424510,-4,-15,1023
50245,292611,424460,-2,-6,1033
50266,292696,424520,-3,-6,1046
50334,292747,424595,-3,-18,1032
50261,292773,424556,-7,-7,1032
50285,292727,424622,-9,-7,1026
50336,292762,424594,-9,-27,1035
50370,292929,424676,-9,-21,1035
50422,292841,424677,7,-21,1035
50487,292968,424734,7,-20,1029
50518,292978,424949,3,-17,1032
50526,293095,424759,-13,-17,1032
50575,293080,424863,-8,-20,1040
50629,293120,424918,-8,-16,1035
50635,293119,424936,1,-15,1035
50628,293253,425021,4,-15,1024
50718,293215,424956,4,-15,1062
50739,293247,425011,5,-15,1062
50763,293246,424984,3,-15,1026
50783,293203,424949,3,-16,1020
50746,293292,424988,-9,-14,1020
50698,293058,424723,-3,-14,1030
50645,292881,424642,-3,-15,1023
50567,292662,424494,-12,-15,1023
50470,292403,424231,-2,-19,1041
50199,292140,424135,-2,-19,1023
49985,291515,423636,-5,-18,1023
49905,291278,423448,-8,-12,1023
49780,290979,423186,-6,-12,1032
49519,290725,423159,-6,-16,1032
49472,290620,423050,-7,-14,1032
49235,290260,422816,1,-14,1010
49217,290067,422577,1,-16,1023
49128,290014,422467,-11,-14,1023
49234,290064,422536,-9,-14,1040
49132,290179,422577,-9,-18,1021
49203,290166,422643,0,-11,1005
49136,290156,422652,-4,-11,1005
49107,290179,422634,-4,-18,1020
49182,290219,422678,-4,-15,1020
49176,290354,422825,-8,-18,1020
49256,290529,423040,-4,-18,1004
49222,290548,423021,-4,-23,1040
49270,290690,423161,-3,-18,1040
49265,290757,423246,-8,-18,1038
49436,290992,423477,-8,-21,1050
49312,291019,423485,5,-17,1050
49476,291078,423586,-3,-17,1044
49554,291225,423620,1,-11,1024
49518,291308,423788,1,-11,1032
49527,291439,423868,-6,-12,1032
49634,291604,423927,-6,-12,1038
49724,291626,424097,-6,-17,1037
49614,291715,424107,-8,-10,1037
49738,291724,424231,-10,-10,1029
49778,291837,424250,-10,-18,1014
49806,291969,424361,2,-23,1014
49883,292156,424418,-4,-23,1024
49903,292178,424543,-4,-12,1040
49860,292238,424568,-3,-15,1032
49892,292316,424685,-6,-13,1032
50047,292396,424778,-6,-13,1038
50004,292525,424802,-6,-14,1024
50093,292575,424783,-5,-27,1024
50186,292615,424922,-3,-27,1017
50091,292726,424996,-3,-11,1026
50209,292812,425106,-12,-16,1026
50167,292874,425216,0,-16,1023
50200,292951,425222,0,-17,1016
50263,292971,425191,-4,-18,1016
50273,293068,425201,-6,-18,1033
50314,293224,425372,-6,-16,1041
50423,293290,425407,-6,-13,1041
50381,293260,425446,-7,-13,1027
50457,293325,425502,-13,-13,1029
50458,293349,425450,-13,-22,1035
50476,293580,425643,-6,-19,1035
50529,293510,425533,-3,-19,1027
50658,293563,425683,-3,-19,1023
50634,293652,425797,-4,-19,1023
50635,293782,425738,-6,-19,1059
50648,293850,425755,-6,-12,1030
50734,293859,425893,-4,-18,1030
50846,293896,425920,-9,-18,1027
50746,293984,426018,-9,-21,1026
50798,294062,425976,-2,-12,1026
50833,294112,426136,-6,-12,1027
50885,294175,426197,-9,-12,1014
50903,294223,426224,-9,-23,1027
50978,294244,426235,-8,-15,1027
50967,294335,426236,-4,-15,1026
50988,294482,426443,-4,-16,1029
51078,294432,426396,-16,-13,1029
51052,294490,426452,-9,-13,1018
51066,294490,426376,-9,-12,1035
51107,294607,426506,-6,-15,1035
51150,294742,426585,-9,-15,1043
51176,294716,426613,-8,-15,1030
51241,294763,426600,-8,-14,1021
51201,294791,426546,-3,-18,1021
51295,294814,426676,-3,-18,1032
51363,294937,426661,-3,-16,1021
51328,294926,426622,1,-13,1021
51346,294799,426630,-4,-13,1030
51335,294849,426615,-4,-12,1014
51245,294696,426575,1,-15,1014
51257,294676,426466,-7,-15,1026
51058,294072,425989,-7,-13,1043
50882,293794,425732,-6,-11,1043
50876,293466,425617,-5,-11,1011
50696,293128,425454,-5,-15,1021
50533,292976,425326,-4,-18,1021
50465,292321,424817,-11,-14,1030
50052,292453,424630,1,-14,1026
49955,292625,424504,1,-14,1033
49948,292830,424392,-7,-9,1033
49847,293006,424378,-3,-9,1029
49811,292921,424158,-3,-12,1032
49690,293004,424046,-3,-12,1032
49693,293157,424037,-13,-12,1030
49708,293253,424080,-13,-20,1043
49640,293279,424180,-6,-19,1049
49569,293362,424208,-6,-17,1049
49694,293465,424283,-6,-17,1033
49745,293637,424252,0,-12,1035
49698,293697,424350,-9,-9,1035
49725,293871,424424,-3,-9,1016
49876,294175,424611,-3,-19,1033
49854,294101,424670,-7,-13,1033
49826,294205,424673,1,-13,1018
49954,294334,424764,1,-12,1030
49956,294504,424828,-5,-18,1030
49993,294676,425125,-6,-18,1040
50057,294836,425092,-6,-16,1017
50101,294862,425168,-3,-18,1021
50071,294967,425252,0,-18,1021
50155,295028,425358,0,-19,1037
50195,295188,425485,-3,-16,1018
50240,295338,425573,-11,-21,1018
50198,295446,425646,-6,-21,1017
50295,295539,425730,-6,-14,1027
50360,295629,425711,-3,-16,1027
50362,295722,425775,1,-16,1032
50406,295751,425850,1,-19,1014
50393,295840,425920,7,-18,1014
50451,295995,425919,-8,-18,1030
50562,296039,426036,-8,-18,1030
50613,296284,426158,-13,-11,1030
50581,296246,426113,-2,-15,1026
50642,296314,426109,-4,-15,1017
50627,296353,426172,-4,-18,1030
50696,296443,426253,-6,-12,1030
50673,296564,426275,-2,-12,1040
50816,296551,426400,-2,-16,1043
50761,296619,426370,4,-14,1043
50773,296713,426443,-12,-14,1035
50847,296760,426444,-12,-15,1035
50835,296870,426579,-6,-14,1035
50889,297003,426600,-6,-14,1027
50928,296999,426632,-6,-9,1027
50946,297053,426649,-5,-13,1038
50927,297019,426690,-13,-18,1038
51004,297164,426758,-3,-18,1047
51039,297270,426816,-3,-18,1035
51075,297274,426773,-6,-16,1035
51124,297365,426847,-7,-16,1054
51116,297464,426852,-7,-16,1035
51139,297664,427099,-11,-13,1035
51188,297593,427018,-3,-13,1023
51175,297724,427085,-3,-14,1024
51291,297763,427194,-7,-18,1024
51314,297904,427155,-2,-18,1024
51297,298079,427224,0,-21,1043
51390,298037,427333,0,-19,1011
51399,298070,427358,-6,-21,1011
51398,298168,427439,-6,-21,1038
51455,298261,427519,-6,-22,1013
51463,298335,427635,-5,-15,1013
51526,298545,427564,-15,-15,1033
51534,298492,427581,-15,-12,1037
51633,298580,427658,-6,-13,1037
51633,298569,427777,-4,-14,1023
51653,298702,427821,-6,-14,1032
51624,298803,427844,-6,-16,1023
51665,298743,427831,-9,-10,1023
51694,298807,427765,-5,-10,1024
51694,298703,427759,-5,-20,1029
51691,298777,427895,-6,-21,1029
51777,298739,427802,-6,-21,1033
51636,298475,427532,-6,-17,1040
51592,298376,427472,-5,-15,1040
51444,298124,427193,-10,-15,1018
51312,297907,427062,-10,-20,996
51248,297302,426623,-9,-14,1035
51019,297070,426417,-4,-14,1035
50824,296665,426110,-2,-12,1046
50636,296441,425946,-2,-11,1033
50498,296330,425906,1,-24,1033
50322,295957,425592,-12,-24,1040
50247,295856,425481,-12,-20,1014
50217,295824,425368,-10,-18,1014
50141,295746,425344,-11,-18,1026
50154,295771,425341,-11,-18,1020
50199,295809,425345,-6,-10,1020
50081,295733,425273,-5,-10,1040
50099,295852,425341,-9,-18,1024
50072,295744,425396,-9,-21,1024
50052,295918,425530,-13,-19,1066
50098,296095,425658,-13,-19,1029
50170,296207,425814,-9,-15,1038
50194,296292,425846,-3,-17,1038
50228,296413,425888,-3,-17,1030
50199,296468,425970,-3,-16,1018
50233,296552,426227,-11,-9,1018
50294,296825,426253,-9,-9,1024
50379,296853,426236,-9,-20,1021
50366,296892,426293,-11,-12,1021
50349,296998,426414,-18,-13,1046
50440,297123,426579,-18,-13,1041
50441,297279,426577,6,-17,1035
50498,297294,426611,-12,-17,1035
50448,297327,426734,-9,-20,1026
50560,297407,426755,-9,-13,1027
50631,297689,426934,-6,-15,1027
50689,297662,426872,-9,-15,1040
50595,297734,426968,-9,-16,1035
50682,297800,427114,-2,-22,1035
50699,297862,427154,-16,-22,1052
50731,298128,427225,-16,-11,1024
50752,298067,427224,-4,-17,1017
50842,298062,427319,-6,-17,1017
50857,298187,427330,-5,-18,1053
50900,298324,427530,-5,-17,1053
50951,298383,427553,-7,-13,1018
50878,298403,427537,-3,-13,1017
51011,298412,427538,-3,-15,1035
51000,298488,427598,-6,-19,1035
51119,298617,427685,-10,-19,1037
51055,298651,427699,-10,-11,1024
51116,298731,427793,-5,-20,1024
51119,298787,427908,-3,-20,1023
51087,298938,427843,-3,-12,1018
51112,298918,427924,3,-12,1018
51176,298969,428081,-11,-12,1018
51249,299010,427971,-2,-15,1004
51293,299074,427980,-2,-14,1030
51365,299176,428146,0,-9,1030
51402,299162,428057,-8,-9,1035
51326,299363,428225,-8,-15,1040
51384,299323,428218,-3,-16,1040
51410,299361,428324,-7,-16,1014
51466,299389,428299,-7,-12,1018
51483,299443,428321,1,-12,1018
51428,299506,428384,-7,-12,1046
51519,299603,428518,-7,-15,1017
51634,299563,428478,-4,-16,1017
51618,299702,428516,2,-16,1037
51645,299725,428628,2,-18,1024
51747,299784,428653,-3,-13,1041
51648,299959,428722,-9,-19,1041
51729,300011,428787,-9,-19,1033
51759,300011,428795,-9,-15,1032
51741,300047,428844,-6,-13,1032
51786,300152,428998,-13,-13,1017
51904,300243,428988,-13,-12,1013
51866,300267,429075,-3,-10,1013
51964,300320,429077,-17,-10,1017
51959,300362,429036,-17,-13,1030
51928,300473,429238,-6,-22,1030
51994,300470,429132,-3,-22,1052
51922,300411,429098,-3,-9,1038
51913,300348,429068,-6,-18,1021
51852,300228,429024,-6,-18,1021
51768,299994,428888,-5,-18,1024
51637,299607,428507,-5,-20,1043
51421,299323,428258,-16,-15,1043
51327,299016,427984,-12,-15,1033
51227,298598,427782,-12,-9,1047
51089,298447,427621,-7,-18,1047
50975,297942,427282,-14,-18,1040
50719,297783,427088,-14,-9,1044
50574,297634,426984,7,-12,1044
50492,297589,426907,-11,-16,1018
50382,297488,426818,0,-16,1027
50457,297519,426721,0,-19,1043
50266,297409,426572,-9,-17,1043
50292,297332,426519,-9,-17,1038
50205,297378,426455,-9,-12,1023
50255,297457,426557,-6,-12,1023
50328,297523,426730,1,-12,1041
50309,297675,426747,-13,-19,1041
50374,297785,426792,-13,-18,1041
50373,297846,426825,-3,-18,1021
50371,297989,426947,-3,-14,1035
50495,298070,427098,-5,-21,1020
50599,298324,427248,-11,-16,1020
50566,298332,427223,-11,-16,1047
50624,298469,427359,-11,-9,1010
50617,298582,427418,-9,-21,1010
50646,298694,427613,-6,-21,1043
50684,298748,427660,-6,-15,1038
50801,298890,427679,-4,-16,1038
50693,299021,427722,-3,-16,1027
50774,299068,427751,-4,-16,1044
50690,299333,428088,-4,-18,1041
50839,299482,428064,-3,-19,1041
50846,299511,428101,-9,-19,1027
50911,299533,428149,-9,-10,1027
50924,299674,428276,-4,-18,1027
51038,299767,428424,-3,-18,1016
51117,299887,428354,-3,-12,1017
50993,300009,428433,-5,-16,1017
51085,300063,428485,-7,-16,1037
51156,300175,428524,-7,-18,1018
51164,300274,428707,-6,-19,1018
51236,300414,428722,-3,-19,1033
51240,300385,428649,-3,-12,1016
51303,300487,428716,-2,-21,1021
51283,300608,428892,-3,-12,1021
51313,300669,429072,-2,-12,1047
51441,300819,429092,-2,-9,1035
51446,300807,429096,-16,-17,1035
51400,300961,429202,-7,-17,1037
51532,300987,429145,-7,-20,1021
51498,301078,429279,-6,-17,1021
51522,301137,429258,-7,-17,1021
51551,301234,429275,-7,-17,1030
51602,301260,429375,-4,-20,1030
51714,301374,429440,-7,-20,1043
51643,301443,429396,-7,-16,1014
51685,301492,429424,0,-19,1021
51688,301499,429459,0,-16,1021
51670,301444,429469,-3,-16,1027
51706,301427,429534,-3,-18,1026
51733,301559,429577,-9,-10,1026
51806,301570,429569,-4,-10,1035
51839,301620,429613,-4,-19,1021
51833,301617,429668,-9,-16,1021
51924,301634,429658,-3,-16,1038
51906,301747,429703,-4,-11,1023
51882,301761,429704,-4,-21,1023
51957,301865,429711,-4,-17,1029
51986,301841,429754,-4,-17,1024
51978,301839,429785,-17,-20,1035
52027,301977,429810,-3,-18,1035
52038,301950,429880,-5,-18,1032
52100,302009,429846,-5,-15,1016
52103,302006,429884,-12,-20,1016
52094,302044,429960,-6,-20,1033
52137,302104,429947,-6,-15,1032
52212,301997,429823,0,-16,1032
52114,302011,429847,-5,-20,1032
52085,302071,429809,-5,-20,1017
52161,301991,429776,-9,-9,1027
52088,301849,429705,0,-9,1027
51909,301458,429254,-15,-24,1026
51714,301144,428990,-15,-23,1044
51620,300864,428738,-10,-23,1044
51508,300697,428610,-3,-23,1033
51440,300526,428496,-3,-21,1011
51286,300417,428153,-9,-18,1011
51060,299956,428064,-3,-18,1016
50944,299894,427917,-3,-15,1041
50860,299679,427766,-11,-13,1041
50771,299607,427660,-15,-13,1033
50710,299535,427589,-15,-20,1041
50678,299465,427605,-12,-14,1041
50630,299499,427575,-9,-20,1026
50652,299468,427638,-10,-20,1032
50632,299490,427657,-10,-16,1040
50669,299591,427775,-3,-13,1040
50672,299668,427809,-6,-13,1021
50694,299854,427984,-6,-21,1047
50689,299945,428101,-6,-15,1047
50703,300005,428140,-5,-15,1041
50737,300146,428380,-5,-16,1010
50765,300383,428453,-7,-17,1010
50888,300492,428495,-8,-17,1032
50911,300487,428618,-8,-6,1024
50908,300569,428686,-4,-14,1035
50903,300794,428930,-3,-13,1035
50986,300819,428938,-10,-13,1035
51048,300899,429055,-10,-11,1040
51051,300950,429125,-7,-21,1040
51089,301013,429101,-14,-21,1026
51195,301141,429288,-14,-19,1027
51157,301270,429324,-9,-17,1027
51258,301382,429421,-9,-17,1008
51211,301528,429506,-9,-14,1035
51299,301534,429625,-6,-19,1035
51335,301692,429634,-5,-19,1047
51364,301759,429720,-9,-12,1033
51402,301836,429844,-9,-19,1018
51433,301876,429842,-3,-18,1018
51533,301889,429942,0,-18,1035
51530,301997,430139,0,-12,1029
51612,302037,430049,0,-26,1029
51557,302169,430023,-8,-26,1043
51634,302249,430086,-8,-11,1023
51622,302287,430109,-8,-23,1023
51656,302391,430368,0,-23,1013
51645,302407,430253,0,-21,1026
51754,302455,430233,-6,-17,1026
51753,302496,430372,-3,-27,1044
51816,302550,430407,-4,-27,1049
51824,302624,430416,-4,-18,1020
51802,302539,430342,-14,-15,1020
51860,302673,430421,-8,-15,1035
51895,302717,430521,-8,-7,1050
51944,302748,430482,-8,-21,1050
51958,302744,430653,-9,-21,1029
52003,302884,430620,-9,-16,1016
52010,302944,430668,-8,-16,1016
52057,302898,430677,-12,-16,1041
52062,302948,430628,-12,-17,1027
52088,302982,430725,-4,-16,1037
51924,303027,430653,4,-16,1037
52150,303049,430672,-3,-16,1035
52186,303116,430788,-3,-13,1044
52155,303149,430761,-14,-15,1044
52263,303206,430910,-4,-15,1020
52254,303218,430851,-4,-16,1020
52274,303200,430865,-2,-16,1026
52327,303167,430822,-7,-16,1026
52281,303243,430836,-6,-21,1038
52263,303311,430948,-6,-17,1038
52359,303369,430893,-6,-15,999
52382,303291,430851,-3,-15,1032
52309,303285,430796,-3,-18,1044
52451,303290,430813,-12,-22,1044
52332,303335,430811,-10,-22,1026
52276,303132,430791,-10,-12,1035
52298,303000,430548,-11,-10,1035
52191,302809,430463,-10,-10,1027
52134,302626,430270,-10,-16,1023
52040,302435,430090,-7,-14,1005
51955,302279,429606,-7,-14,1005
51672,301765,429391,-5,-13,1050
51535,301448,429227,-5,-15,1020
51432,301278,429145,-6,-13,1020
51354,300957,428945,-7,-13,1017
51278,300927,428752,-7,-12,1018
51136,300728,428633,1,-12,1018
51060,300625,428560,2,-12,1016
51012,300504,428414,2,-21,1030
50991,300465,428380,2,-24,1030
50937,300545,428405,-10,-24,1040
50932,300546,428436,-10,-23,999
50949,300566,428505,-10,-15,999
50901,300556,428556,-8,-15,1037
50914,300670,428620,-8,-12,1016
50927,300755,428825,-7,-17,1038
51062,300938,428897,-4,-18,1038
51130,301078,429016,-13,-18,1033
51115,301153,429053,-13,-12,1032
51137,301256,429122,-14,-19,1032
51134,301422,429355,-9,-19,1016
51160,301559,429383,-9,-19,1027
51272,301748,429467,-9,-18,1027
51206,301750,429413,-11,-18,1047
51214,301863,429586,-11,-15,1033
51418,302037,429762,0,-22,1033
51439,302171,429784,-3,-22,1017
51421,302271,429831,-3,-11,1032
51427,302389,429941,-3,-13,1049
51551,302468,430054,-9,-15,1049
51611,302650,430230,-4,-15,1047
51629,302753,430273,-4,-21,1014
51542,302698,430202,-8,-16,1014
51591,302813,430278,-9,-16,1030
51671,302996,430333,-9,-15,1017
51709,303018,430443,3,-13,1049
51776,303128,430522,-9,-13,1049
51719,303252,430490,-3,-24,1030
51751,303329,430668,-3,-15,1030
51762,303309,430678,-12,-20,1050
51765,303541,430782,-6,-20,1023
51831,303510,430692,-6,-24,1035
51925,303594,430774,-7,-21,1035
52017,303617,430727,-7,-21,1035
51985,303642,430798,-7,-12,1035
51975,303846,430857,-4,-22,1035
52006,303890,431040,-6,-22,1030
52110,303960,431075,-6,-13,1038
52104,303978,431078,-6,-15,999
52146,304066,431163,-7,-15,999
52138,304211,431206,-3,-20,1040
52181,304266,431217,-3,-17,1053
52226,304357,431221,-6,-15,1053
52209,304407,431267,-10,-15,1033
52271,304379,431366,-10,-12,1027
52211,304590,431436,-9,-18,1027
52162,304644,431470,-7,-18,1032
52349,304616,431409,-7,-21,1041
52399,304789,431449,-5,-14,1041
52395,304861,431534,-8,-14,1033
52416,304938,431609,-8,-16,1017
52476,304978,431650,-13,-15,1017
52555,305064,431631,-15,-15,1024
52563,305194,431620,-15,-21,1018
52514,305097,431684,-6,-18,1035
52541,305218,431736,-2,-18,1035
52611,305228,431819,-8,-18,1023
52654,305256,431868,-8,-18,1014
52611,305210,431797,0,-18,1014
52575,305305,431777,-6,-18,1030
52774,305301,431915,-6,-16,1041
52554,305285,431825,-5,-16,1041
52671,305198,431747,4,-17,1018
52606,305088,431591,4,-17,1041
52520,304928,431476,-3,-10,1041
52411,304693,431296,-13,-10,1040
52378,304180,430865,-14,-16,1037
52085,303925,430628,-14,-21,1021
51942,303590,430388,-3,-19,1021
51818,303282,430126,-16,-19,1016
51755,303117,429934,-16,-20,1047
51562,302958,429679,-5,-18,1047
51345,302468,429418,-11,-18,1041
51298,302403,429435,-11,-14,1029
51253,302399,429373,-9,-16,1011
51176,302239,429301,-2,-15,1011
51089,302223,429134,-2,-15,1035
50990,302079,429108,-15,-15,1017
51009,302099,429065,-9,-14,1017
50919,302049,429101,-6,-14,1046
50901,302150,429079,-6,-18,1043
50889,302172,429279,-15,-8,1043
50987,302321,429391,-3,-8,1008
51033,302407,429382,-3,-15,1020
50997,302527,429473,-6,-13,1020
51075,302577,429556,-6,-13,1041
51112,302889,429770,-6,-18,1047
51150,302930,429816,-9,-18,1041
51128,303051,429863,-13,-18,1041
51217,303117,429985,-5,-21,1008
51197,303208,430090,-5,-13,1029
51199,303351,430199,-6,-21,1029
51312,303430,430250,-9,-21,1037
51283,303517,430329,-9,-18,1020
51316,303671,430475,-6,-11,1020
51422,303727,430482,-14,-11,1035
51463,303886,430646,-14,-20,1053
51472,303918,430772,-6,-15,1053
51462,304036,430850,-5,-24,1030
51559,304090,430837,-5,-24,1032
51642,304246,430933,-7,-9,1032
51619,304327,431140,-6,-9,1020
51724,304406,431224,-10,-16,1026
51637,304556,431177,-10,-17,1021
51752,304572,431251,-4,-16,1021
51798,304621,431326,-6,-16,1035
51821,304678,431500,-6,-14,1020
51918,304884,431537,-6,-16,1020
51890,304944,431434,-8,-16,1016
51938,305079,431668,-8,-19,1030
51910,305157,431698,-2,-18,1030
52067,305294,431879,-10,-18,1023
52089,305259,431852,-10,-22,1030
52082,305341,431924,-3,-17,1030
52157,305371,431889,-8,-19,1011
52072,305436,431962,-6,-19,1018
52122,305471,432036,-6,-17,1044
52171,305512,432119,-8,-15,1044
52203,305635,432169,-14,-15,1035
52263,305702,432150,-14,-23,1041
52207,305780,432146,-8,-20,1041
52253,305942,432326,-6,-20,1004
52359,305919,432457,-14,-14,1020
52480,306000,432507,-14,-15,1020
52465,306093,432582,-5,-15,1030
52484,306081,432613,-5,-15,1043
52503,306206,432684,-3,-15,1040
52608,306280,432807,-8,-20,1040
52562,306402,432832,-5,-20,1037
52623,306368,432812,-5,-16,1037
52633,306467,432869,-5,-13,1037
52726,306562,432948,-13,-13,1049
52727,306580,432926,-13,-16,1024
52693,306657,432914,-7,-8,1024
52799,306591,432965,-9,-8,1013
52758,306749,432962,-5,-12,1013
52707,306745,433084,-5,-5,1013
52654,306752,433098,4,-16,1020
52915,306771,433090,5,-16,1041
52872,306726,432969,5,-20,1037
52872,306702,433055,0,-21,1037
52808,306602,432859,-8,-21,1026
52856,306303,432745,-8,-23,1044
52586,306029,432423,-8,-13,1044
52406,305627,432144,-3,-13,1027
52246,305299,431921,-3,-26,1035
52118,305017,431736,-9,-10,1035
51967,304859,431246,0,-10,1032
51648,304182,431060,-4,-12,1043
51555,304030,430880,-4,-15,1035
51435,303855,430704,-11,-23,1035
51332,303710,430692,-8,-23,1035
51300,303572,430638,-8,-14,1035
51193,303491,430514,-4,-20,1035
51143,303461,430593,-8,-20,1027
51202,303509,430650,-8,-19,1033
51146,303382,430651,-4,-12,1033
51057,303317,430654,-18,-12,1043
51087,303433,430699,-18,-19,1032
51142,303501,430759,-11,-27,1032
51020,303552,430785,-8,-27,1043
51098,303724,430906,-9,-12,1035
51128,303956,431267,-9,-20,1018
51213,304013,431269,0,-21,1018
51278,304098,431320,-7,-21,1027
51242,304200,431384,-7,-5,1021
51221,304311,431478,0,-15,1021
51269,304505,431582,-2,-15,1011
51368,304471,431648,-2,-18,1017
51309,304516,431744,-4,-16,1017
51361,304560,431790,-11,-16,1033
51389,304612,431930,-11,-15,1032
51372,304796,431976,-12,-21,1032
51417,304853,432134,-13,-15,1037
51398,305019,432198,-4,-15,1030
51568,305065,432240,-4,-21,1032
51572,305174,432316,-6,-18,1032
51625,305322,432407,-3,-18,1020
51679,305363,432613,-3,-16,1038
51717,305428,432573,-9,-17,1038
51731,305542,432751,-6,-17,1037
51788,305684,432776,-6,-19,1038
51779,305801,433007,0,-18,1038
51891,305885,433094,-9,-18,1023
51847,306009,433032,-9,-14,1021
51939,306012,433118,-13,-21,1035
51967,306119,433270,-4,-9,1035
51975,306313,433354,-2,-9,1024
52086,306376,433475,-2,-14,1047
52138,306435,433492,0,-13,1047
52134,306499,433453,-7,-13,1030
52157,306489,433498,-7,-15,1026
52206,306575,433627,-14,-17,1026
52272,306732,433679,-10,-17,1041
52279,306783,433765,-10,-17,1038
52364,306856,433800,-16,-18,1038
52385,306945,433857,-3,-18,1024
52438,307070,433984,-11,-15,1032
52379,307047,433973,-11,-19,1020
52465,307200,433961,-15,-7,1020
52478,307169,434015,-10,-7,1035
52547,307229,434159,-10,-18,1032
52533,307321,434265,-11,-15,1032
52644,307348,434236,-11,-15,1029
52610,307377,434218,-11,-21,1013
52630,307528,434265,-11,-24,1017
52746,307554,434402,-9,-24,1017
52716,307582,434455,-7,-19,1018
52809,307666,434504,-7,-17,1018
52850,307736,434540,-3,-21,1035
52802,307812,434600,-9,-21,1029
52925,307733,434571,-9,-18,1016
52846,307892,434638,-13,-17,1016
52716,307948,434780,-6,-17,1023
53026,307888,434648,-6,-14,1014
52992,307899,434629,-10,-17,1014
53008,307934,434760,-6,-17,1027
53076,308025,434707,-6,-22,1023
53142,307899,434622,-4,-14,1030
53033,307760,434560,-9,-14,1030
52936,307570,434460,-9,-15,1047
52829,307390,434234,-9,-16,1024
52639,307046,434133,2,-19,1024
52579,306784,433528,-6,-19,1017
52145,306084,433248,-6,-17,1008
52078,305761,433068,-9,-17,1008
51933,305539,432788,-7,-17,1033
51822,305344,432649,-7,-15,1043
51695,305125,432372,-4,-16,1043
51464,304705,432207,-7,-16,1030
51437,304560,432118,-8,-18,1021
51314,304482,432079,-8,-16,1046
51344,304434,432045,-7,-16,1046
51259,304315,432035,-7,-23,1010
51202,304163,431909,-15,-15,1030
51187,304179,431932,-4,-15,1030
51190,304208,432013,-11,-15,1024
51265,304384,432109,-11,-16,1040
51215,304588,432317,-9,-21,1040
51209,304603,432233,-8,-21,1027
51317,304646,432355,-8,-17,1014
51345,304710,432498,-10,-13,1014
51369,304785,432578,-9,-13,1032
51396,305073,432644,-9,-10,1040
51385,304979,432805,-7,-15,1040
51380,305105,432911,-6,-20,1026
51430,305199,432894,-11,-20,1035
51541,305340,433038,-11,-10,1021
51591,305422,433167,-3,-7,1021
51498,305536,433285,-2,-7,1038
51614,305488,433268,-2,-17,1033
51658,305602,433361,-3,-18,1033
51653,305727,433449,-7,-18,1038
51737,305730,433534,-8,-15,1020
51729,305849,433583,-8,-14,1020
51778,306125,433708,-8,-14,1037
51737,306131,433720,-9,-10,1021
51812,306175,433865,-9,-5,1029
51819,306330,434045,-9,-18,1029
51966,306433,434050,-8,-18,1001
51925,306413,434118,-8,-12,1044
52058,306552,434142,-11,-12,1044
52079,306627,434105,0,-12,1030
52126,306767,434407,0,-13,1029
52214,306818,434389,-7,-10,1049
52197,306858,434412,1,-10,1049
52209,306924,434389,-6,-18,1016
52366,306995,434453,-6,-19,1033
52290,307046,434611,1,-15,1033
52472,307248,434686,-7,-15,1041
52426,307300,434821,-7,-18,1021
52423,307267,434792,-8,-15,1021
52453,307282,434799,-12,-15,1060
52478,307480,434892,-12,-12,1033
52480,307505,434879,-3,-18,1033
52620,307568,434941,-5,-18,1038
52621,307536,434978,-5,-15,1047
52672,307617,435045,-6,-18,1047
52656,307760,435183,-10,-18,1020
52775,307743,435156,-10,-16,1018
52793,307820,435201,-10,-15,1029
52822,307879,435232,-7,-15,1029
52837,307904,435219,-10,-15,1029
52876,307974,435457,-10,-17,1037
52911,308059,435354,-3,-21,1037
52862,308073,435349,-7,-21,1030
52932,308178,435445,-7,-15,1024
52953,308153,435447,-8,-15,1037
53001,308278,435584,-8,-15,1037
52985,308316,435619,-8,-15,1027
53126,308432,435609,-7,-17,1032
53134,308449,435695,0,-24,1032
53191,308462,435716,-14,-24,1024
53179,308549,435791,-14,-19,1010
53259,308580,435802,-5,-17,1010
53249,308582,435756,-7,-17,1004
53298,308526,435757,-7,-18,1033
53303,308535,435787,-3,-7,1033
53212,308486,435733,-9,-7,1026
53223,308374,435393,-4,-13,1043
53058,307897,435175,-4,-10,1043
52881,307580,435066,-6,-23,1027
52763,307349,434787,-6,-23,1024
52690,306945,434515,-6,-10,1024
52444,306630,433984,-11,-15,1024
52216,305988,433848,-7,-15,1008
52032,305700,433643,-7,-20,1030
51926,305523,433416,-2,-14,1030
51950,305437,433305,-7,-14,1001
51758,305335,433209,-7,-18,1024
51671,305050,433103,-6,-13,1024
51634,304943,433019,2,-13,1020
51640,304856,432967,2,-15,1038
51579,304890,432947,-3,-18,1038
51507,304971,432975,-16,-18,1030
51569,304908,433173,-13,-18,1033
51489,305012,433182,-13,-15,1024
51571,305083,433262,-13,-18,1024
51633,305171,433354,-6,-18,1016
51676,305466,433524,-6,-16,1035
51690,305445,433576,2,-18,1035
51753,305595,433748,-9,-18,1035
51706,305693,433815,-9,-21,1017
51642,305659,433838,0,-22,1017
51804,305730,434028,-3,-22,1033
51789,305940,434022,-6,-18,1020
51777,305896,434140,-6,-18,1041
51832,305918,434147,-4,-20,1041
51889,306020,434203,-6,-20,1040
51852,306171,434297,-6,-13,1037
51896,306214,434373,-9,-18,1037
52065,306406,434604,-15,-18,1043
52045,306486,434568,-15,-15,1032
52062,306559,434598,5,-15,1032
52134,306747,434916,-11,-15,1032
52126,306770,434805,-14,-15,1030
52218,306864,434875,-14,-24,1030
52239,306908,435004,0,-15,1026
52271,307046,434959,0,-15,1029
52289,307220,435055,-8,-12,1032
52355,307196,435222,-14,-16,1032
52379,307229,435258,-10,-16,1030
52519,307373,435294,-10,-18,1038
52535,307427,435299,-9,-18,1038
52535,307551,435489,-3,-18,1027
52569,307642,435470,-3,-22,1032
52573,307637,435525,-15,-18,1032
52546,307710,435498,-3,-18,1035
52655,307880,435673,-3,-17,1033
52654,307866,435658,-3,-14,1033
52638,308013,435779,-18,-20,1032
52801,308081,435823,-5,-20,1027
52734,308078,435772,-5,-18,1024
52945,308134,435948,-5,-18,1024
52856,308224,435959,-13,-18,1023
52885,308292,435940,-13,-22,1027
52929,308278,435916,-10,-15,1027
53022,308422,436026,-12,-15,1033
53001,308448,436084,-12,-13,1021
53018,308510,436152,-11,-20,1021
53091,308579,436135,-8,-20,1021
53039,308600,436177,-8,-15,1041
53135,308666,436279,-6,-21,1041
53171,308622,436239,-9,-13,1037
53160,308797,436243,-8,-13,1021
53155,308897,436348,-8,-15,1017
53334,308925,436368,-9,-11,1017
53277,308975,436373,1,-11,1040
53279,308936,436384,1,-10,1023
53417,309123,436469,-6,-17,1023
53416,309162,436529,-6,-17,1027
53414,309149,436471,-6,-12,1027
53384,309191,436501,-9,-19,1027
53448,309225,436538,-8,-19,1029
53428,309265,436487,-8,-21,1033
53508,309320,436467,-7,-15,1057
53483,309202,436428,-8,-22,1057
53470,309059,436371,-14,-22,1026
53416,309062,436364,-14,-17,1049
53414,308870,436098,-16,-15,1049
53267,308653,435731,-2,-15,1035
52920,308067,435461,-2,-19,1035
52857,307766,435174,-7,-14,1035
52744,307433,434960,-14,-14,1027
52514,307119,434779,-14,-12,1014
52465,306930,434304,-10,-20,1037
52180,306535,434152,-5,-20,1037
52111,306337,434132,-5,-10,1018
52076,306258,434090,1,-18,1043
51975,306118,433965,-12,-13,1043
51926,306143,433728,-8,-13,1030
51855,305987,433714,-8,-20,1017
51787,305857,433687,-4,-16,1017
51784,305931,433711,-3,-16,1030
51785,306036,433786,-3,-14,1023
51712,306197,433837,-14,-9,1023
51824,306166,433879,-9,-9,1023
51801,306233,434011,-6,-16,1029
51865,306367,434117,-6,-18,1029
51880,306416,434164,-2,-16,1049
51938,306571,434431,-17,-16,1033
51966,306768,434373,-17,-15,1021
51999,306871,434452,-6,-21,1021
51955,306952,434605,-12,-21,1020
51977,306968,434659,-12,-19,1007
52014,307063,434659,-12,-18,1007
52151,307184,434775,-14,-18,1053
52148,307317,434944,-14,-11,1029
52191,307391,434924,-5,-12,1029
52119,307367,434986,-4,-12,1044
52234,307574,435170,-4,-20,1011
52232,307636,435146,-6,-15,1020
52289,307785,435260,-6,-20,1020
52351,307827,435362,-9,-20,1021
52358,307981,435423,-9,-15,1035
52403,308183,435586,-6,-25,1035
52543,308156,435607,-6,-25,1017
52515,308246,435783,-6,-15,1041
52578,308305,435666,0,-24,1041
52613,308388,435794,-6,-24,1062
52531,308546,435726,-6,-20,996
52674,308780,435936,-6,-16,1046
52689,308738,435932,-13,-16,1046
52750,308871,436075,-13,-16,1035
52754,308869,436100,-2,-12,1027
52708,308851,436121,-9,-23,1027
52846,309136,436251,-4,-23,1046
52930,309149,436216,-4,-21,1038
52917,309196,436316,-5,-11,1038
52908,309260,436295,-6,-11,1024
52983,309414,436354,-6,-15,1035
53052,309460,436453,-6,-18,1027
52976,309522,436509,-6,-18,1027
53155,309526,436524,-6,-10,1021
53083,309603,436541,-6,-21,1021
53058,309755,436642,-3,-14,1038
53211,309901,436665,-13,-14,1044
53213,309919,436677,-13,-18,1040
53229,309962,436718,-3,-18,1040
53248,309983,436769,-6,-18,1027
53311,310145,436949,-6,-17,1049
53260,310180,436919,-5,-18,1049
53361,310188,436937,-5,-18,1021
53400,310251,436999,-5,-14,1035
53413,310273,437045,-11,-23,1024
53493,310470,437100,0,-23,1024
53482,310592,437148,-6,-18,1032
53534,310558,437133,-6,-27,1033
53550,310681,437213,-9,-17,1033
53604,310645,437149,-12,-17,1030
53539,310692,437145,-12,-12,1035
53705,310846,437307,-21,-27,1035
53698,310918,437405,-6,-27,1035
53783,310908,437272,-6,-16,1027
53847,310920,437372,-3,-16,1027
53771,310875,437312,-4,-16,1030
53818,310917,437284,-13,-12,1021
53768,310774,437184,-13,-9,1021
53683,310556,437041,-15,-9,1023
53597,310286,436896,-15,-21,1018
53444,310002,436632,-14,-20,1047
53230,309812,436152,-16,-13,1047
52906,309080,435832,-10,-13,1035
52845,308853,435650,-10,-16,1044
52692,308585,435427,-11,-23,1044
52610,308311,435190,-4,-23,1024
52507,308213,434935,-4,-13,1033
52334,307973,434882,-6,-21,1033
52276,307825,434801,-14,-21,1041
52199,307805,434810,-3,-17,1038
52146,307747,434689,-3,-20,1038
51884,307787,434850,-6,-18,1020
52020,307750,434723,-6,-18,1035
52065,307807,434821,-6,-15,1037
52100,307845,434877,-7,-25,1037
52019,307872,434940,-8,-25,1033
52171,308042,435131,-8,-14,1032
52208,308184,435184,-18,-17,1032
52082,308224,435185,-17,-17,1035
52179,308443,435351,-17,-12,1002
52211,308385,435402,-3,-21,1002
52206,308580,435526,-6,-21,1038
52282,308669,435629,-6,-22,1030
52357,308809,435794,-12,-18,1030
52291,308891,435849,-9,-20,1018
52352,308941,435893,-12,-20,1043
52411,309083,436101,-12,-18,1035
52386,309121,436044,-15,-16,1035
52505,309253,436189,-10,-16,1037
52484,309304,436223,-10,-22,1021
52539,309370,436249,-5,-17,1021
52574,309573,436531,-3,-17,1038
52731,309640,436565,-2,-20,1021
52691,309720,436530,-2,-19,1021
52736,309816,436631,-14,-22,1030
52782,309890,436642,-14,-22,1013
52888,310032,436748,-9,-30,1041
52876,310163,436824,-13,-22,1041
52906,310184,436942,-12,-22,1023
52887,310286,437008,-12,-12,1033
52984,310329,436981,-5,-16,1033
53011,310529,437143,-11,-16,1032
53003,310631,437224,-11,-9,1041
53096,310658,437305,-18,-16,1008
53143,310788,437317,-6,-16,1008
53176,310816,437440,-6,-21,1023
53153,310818,437492,-9,-18,1026
53200,310869,437488,-9,-15,1026
53254,310862,437588,-2,-15,1021
53293,311027,437584,-2,-19,1038
53292,311056,437640,-7,-19,1038
53396,311134,437564,-13,-19,1027
53391,311225,437740,-13,-14,1038
53476,311308,437698,-4,-14,1038
53546,311364,437791,-9,-14,1033
53514,311369,437840,-9,-20,1035
53483,311425,437820,-6,-7,1035
53434,311438,437909,-5,-7,1026
53579,311489,437953,-4,-21,1027
53586,311538,437885,-4,-10,1052
53618,311621,438029,-4,-18,1052
53691,311620,438116,-10,-18,1016
53707,311708,438022,-10,-18,1054
53771,311688,437974,-10,-12,1054
53808,311694,438017,-12,-12,1017
53799,311826,438065,-12,-14,1021
53756,311806,438038,-5,-18,1021
53911,311896,438116,-8,-18,1007
53855,311805,438142,-8,-19,1027
53880,311828,438125,-10,-16,1027
53856,311851,438145,-9,-14,1011
53975,311859,438213,-7,-14,1030
53923,311838,438140,-7,-12,1023
53902,311811,438113,-3,-18,1023
53900,311644,437999,-6,-18,1023
53804,311607,437882,-6,-15,1024
53795,311343,437748,-5,-14,1024
53692,311140,437371,-9,-14,1033
53419,310496,437058,-9,-20,1021
53202,310205,436871,1,-15,1046
53127,309942,436588,-15,-9,1046
53030,309631,436400,-15,-9,1026
52862,309422,436020,-18,-15,1029
52627,309024,435925,-14,-13,1029
52590,308808,435808,-5,-13,1037
52490,308722,435719,-5,-14,1030
52437,308620,435544,2,-21,1030
52351,308690,435687,-4,-21,1017
52347,308475,435442,-4,-21,1032
52299,308443,435351,-9,-9,1032
52309,308465,435483,-9,-9,1032
52285,308541,435498,-9,-7,1056
52340,308573,435586,0,-18,1056
52351,308726,435759,-6,-18,1024
52455,308789,435834,-6,-22,1023
52377,308885,435916,-12,-22,1030
52504,308974,435925,-4,-19,1030
52509,309212,436177,-7,-19,1029
52528,309235,436237,-7,-19,1030
52626,309286,436237,-6,-21,1030
52491,309349,436377,-4,-21,1032
52592,309389,436411,-4,-24,1040
52609,309528,436640,-11,-17,1027
52601,309633,436599,-13,-17,1027
52685,309753,436648,-13,-18,1023
52716,309811,436669,-9,-18,1023
52731,309796,436771,-8,-16,1035
52732,310039,437011,-9,-16,1018
52888,310114,436941,-9,-10,1032
52884,310199,437057,-6,-18,1032
52941,310275,437114,0,-18,1037
52996,310305,437240,0,-13,1040
53082,310457,437313,1,-17,1040
53120,310551,437399,-9,-17,1026
53090,310559,437438,-9,-16,1024
53169,310729,437469,-6,-18,1024
53154,310692,437531,-13,-18,1024
53195,310796,437640,-13,-19,1044
53300,310917,437678,-21,-15,1038
53246,311023,437768,-7,-24,1038
53303,311023,437864,-4,-24,1035
53343,311038,437838,-4,-21,1020
53351,311169,437980,-5,-24,1020
53361,311248,438001,-3,-24,1038
53498,311339,438026,-3,-18,1035
53467,311365,437980,-5,-20,1035
53540,311390,438021,-12,-20,1029
53537,311514,438130,-12,-13,1021
53625,311589,438217,-13,-22,1049
53654,311727,438281,-6,-22,1049
53670,311734,438304,-5,-19,1037
53651,311836,438370,-5,-17,1024
53751,311817,438412,-8,-13,1024
53751,311960,438440,-9,-13,1011
53806,311910,438515,-9,-23,1030
53786,311927,438394,-7,-24,1030
53827,312068,438531,-8,-24,1024
53852,312175,438685,-8,-14,1032
53909,312303,438782,-6,-20,1032
53981,312266,438704,-8,-20,1035
53960,312193,438716,-8,-19,1024
53991,312258,438764,-7,-18,1024
54081,312272,438783,-15,-18,1023
54152,312500,438818,2,-16,1023
54067,312547,438877,2,-16,1040
54202,312441,438923,-3,-16,1040
54131,312497,438903,-10,-16,1043
54218,312523,439090,-10,-19,1020
54265,312587,438941,-14,-15,1020
54275,312640,439031,-9,-15,1037
54290,312630,438944,-9,-15,1040
54283,312609,438999,-13,-15,1041
54260,312540,438859,-9,-15,1041
54249,312466,438726,-9,-11,1020
54209,312125,438575,0,-22,1046
53947,311682,438197,-9,-11,1046
53793,311402,437894,-14,-11,1032
53698,310999,437691,-14,-13,1020
53500,310694,437218,-4,-21,1020
53194,310050,436922,-3,-21,1030
53020,309764,436722,-3,-9,1032
52910,309522,436446,-9,-12,1032
52832,309333,436296,-6,-12,1035
52743,309225,436318,-11,-24,1037
52650,308948,435989,-11,-20,1037
52577,308888,435898,-6,-20,1024
52549,308858,435873,-11,-13,1026
52456,308763,435993,-11,-21,1032
52464,308789,435937,-14,-15,1032
52336,308771,435840,-6,-15,1035
52369,308815,435952,-6,-13,1005
52474,308989,436060,-6,-21,1005
52435,309028,436072,-10,-21,1035
52499,309231,436223,-10,-13,1038
52433,309292,436434,-8,-24,1033
52527,309403,436466,-10,-14,1033
52570,309472,436524,-10,-14,1043
52593,309510,436576,-4,-23,1032
52524,309526,436806,-13,-9,1032
52620,309738,436766,-6,-9,1041
52690,309838,436830,-6,-12,1020
52665,309861,436907,-6,-15,1020
52699,309855,436905,-6,-15,1033
52714,310157,437186,-6,-15,1033
52868,310129,437277,-7,-21,1033
52848,310196,437274,-9,-21,1030
52911,310289,437372,-9,-15,1049
52842,310378,437452,-14,-16,1049
52886,310568,437450,-6,-16,1027
53051,310584,437624,-3,-21,1035
53003,310670,437707,-3,-21,1004
53117,310728,437760,-6,-15,1004
53091,310812,437816,-9,-15,1033
53150,310878,437950,-9,-18,1030
53188,311032,437961,-3,-22,1030
53328,311049,438004,-5,-22,1021
53267,311211,438069,-5,-12,1016
53294,311169,438101,0,-15,1016
53283,311307,438206,-11,-15,1023
53230,311369,438324,-11,-12,1033
53494,311514,438361,3,-17,1027
53454,311429,438313,-3,-17,1027
53470,311517,438430,-3,-14,1021
53510,311637,438489,-3,-20,1018
53587,311671,438581,-14,-12,1018
53577,311706,438485,-3,-12,1035
53602,311863,438640,-3,-30,1041
53663,311830,438612,-6,-14,1041
53717,311909,438711,-9,-14,1014
53750,312036,438884,-9,-19,1033
53723,312043,438837,-7,-18,1046
53789,312062,438766,-9,-18,1046
53819,312131,438815,-13,-18,1037
53796,312209,438939,-13,-24,1037
53819,312113,438870,-11,-15,1029
53856,312206,438890,-6,-15,1030
53977,312290,438928,-6,-19,1046
53994,312319,438950,-9,-21,1046
54012,312378,439062,-4,-21,1043
53992,312563,439079,-4,-18,1030
54067,312415,439048,-13,-14,1030
54028,312531,439099,-8,-14,1026
54063,312489,439078,-8,-13,1035
54112,312525,439149,-6,-21,1023
54125,312581,439176,0,-21,1023
54165,312582,439149,1,-15,1018
54244,312639,439222,1,-24,1029
54198,312738,439218,-9,-24,1029
54268,312662,439271,-9,-24,1029
54268,312665,439128,-9,-10,1026
54234,312578,439100,-6,-18,1026
54245,312429,439029,0,-18,1032
54143,312306,438810,0,-21,1008
53966,311936,438623,-4,-18,1008
53972,311787,438180,-9,-15,1033
53639,311052,437937,-9,-15,1030
53423,310726,437513,-6,-19,1030
53297,310342,437263,-11,-19,1026
53075,310088,437063,-6,-17,1023
53002,309970,437017,-6,-21,1024
52710,309422,436492,-6,-20,1024
52724,309258,436367,-7,-20,1021
52610,309151,436363,-7,-15,1027
52554,309079,436216,-11,-19,1027
52496,309082,436308,-8,-19,1026
52477,308865,436175,-8,-19,1016
52439,308924,436081,-4,-24,1016
52364,308878,436049,-6,-24,1014
52371,309020,436140,-6,-15,1033
52418,309029,436224,2,-15,1030
52437,309083,436334,-8,-21,1030
52431,309221,436460,-3,-21,1032
52571,309312,436529,-3,-12,1027
52531,309418,436634,-2,-18,1027
52519,309507,436754,-3,-18,1030
52536,309650,436803,-3,-17,1016
52630,309735,436991,-6,-13,1016
52658,309837,437051,-3,-13,1020
52605,309887,437081,-3,-12,1023
52572,310062,437335,-6,-16,1038
52745,310077,437302,-10,-16,1038
52761,310187,437339,3,-26,1024
52749,310173,437404,3,-19,1013
52839,310289,437434,-9,-16,1013
52880,310439,437555,-14,-16,1035
52836,310558,437700,-14,-16,1018
52863,310666,437783,-11,-18,1018
52845,310681,437690,-6,-18,1035
52962,310769,437855,-6,-12,1033
53025,310808,438013,-3,-12,1033
53025,311019,438170,-9,-21,1040
53084,311034,438131,-9,-21,1020
53133,311104,438207,-5,-17,1020
53145,311246,438274,-13,-17,1017
53193,311281,438448,-9,-13,1057
53099,311387,438424,-9,-21,1026
53334,311442,438456,-7,-14,1026
53390,311541,438558,1,-14,1033
53358,311655,438576,1,-11,1029
53422,311703,438789,-5,-23,1029
53543,311761,438708,-16,-23,1021
53487,311822,438801,-16,-16,1010
53566,311881,438899,-3,-24,1010
53571,311898,438898,-15,-16,1027
53569,311947,438869,-15,-16,1038
53645,312057,438993,-9,-18,999
53635,312153,439018,-4,-12,999
53668,312147,438996,-11,-12,1035
53686,312171,439097,-11,-17,1017
53755,312337,439199,-8,-21,1017
53733,312364,439186,-6,-21,1026
53866,312356,439264,-6,-15,1046
53841,312445,439214,-3,-22,1046
53917,312510,439265,-3,-22,1037
53849,312634,439343,-21,-15,1018
54031,312730,439389,-21,-23,1018
53976,312636,439387,-2,-17,1027
53975,312664,439338,-4,-17,1004
54010,312684,439482,-4,-25,1035
54038,312773,439481,-7,-17,1035
54169,312784,439568,-9,-17,1014
54181,312912,439687,-9,-21,1029
54242,312890,439604,-6,-13,1029
54228,313053,439667,-8,-13,1026
54281,313048,439672,-8,-15,1044
54228,313096,439735,-16,-15,1044
54295,313093,439781,-15,-15,1032
54353,313154,439788,-15,-24,1035
54312,313141,439666,-10,-15,1035
54355,313064,439686,-5,-22,1030
54333,312955,439581,-15,-22,1026
54134,312628,439390,-15,-14,1029
54142,312364,439138,-4,-20,1029
53992,312008,438844,-3,-20,1038
53794,311701,438614,-3,-18,1046
53647,311447,438032,-13,-21,1046
53359,310754,437731,-9,-21,1020
53252,310472,437495,-6,-18,1013
53083,310208,437294,-6,-19,1013
52899,309971,437147,-3,-19,1013
52877,309986,437098,-3,-16,1046
52603,309590,436796,-9,-22,1020
52629,309472,436739,-12,-15,1020
52650,309394,436765,-4,-15,1056
52554,309330,436708,-4,-23,1027
52488,309333,436712,-7,-14,1027
52370,309255,436629,-6,-14,1035
52467,309238,436683,-6,-23,1044
52418,309361,436711,-9,-15,1007
52454,309459,436779,-8,-21,1007
52544,309555,437067,-8,-21,1023
52558,309660,437087,-3,-13,1038
52575,309758,437241,-10,-22,1038
52581,309828,437236,6,-22,1020
52683,309982,437387,6,-15,1037
52648,310163,437536,-15,-12,1037
52744,310206,437501,3,-12,1035
52690,310231,437597,3,-15,1054
52769,310285,437602,3,-18,1054
52845,310344,437834,-9,-18,1030
52831,310576,437827,-5,-17,1020
52868,310585,437987,-5,-16,1020
52848,310597,438050,-12,-18,1035
52957,310719,438032,-9,-18,1033
52971,310812,438214,-9,-20,1035
52969,310989,438292,-9,-18,1035
53095,311108,438455,-11,-18,1035
53160,311178,438475,-11,-21,1026
53122,311174,438605,-18,-20,1026
53117,311325,438615,-7,-20,1020
53248,311490,438814,-7,-17,1044
53132,311633,438862,-15,-18,1044
53277,311723,438896,-6,-18,1026
53358,311757,438915,-6,-19,1014
53348,311751,439054,-8,-20,1014
53424,311897,439167,-6,-18,1014
53452,312036,439167,-4,-18,1008
53550,312124,439246,-4,-16,1033
53564,312088,439277,-2,-18,1033
53567,312215,439337,-6,-18,1029
53607,312321,439488,-6,-19,1026
53603,312386,439377,-6,-15,1026
53702,312452,439523,-6,-15,1010
53688,312519,439568,-6,-18,1016
53671,312463,439557,-3,-25,1030
53747,312642,439641,0,-17,1030
53723,312688,439688,0,-17,1011
53884,312728,439812,-6,-17,1016
53847,312827,439845,-6,-18,1016
53934,312923,439876,-9,-18,1041
53887,313017,439936,-9,-16,1047
54082,313138,440106,-13,-16,1047
54006,313071,440051,-12,-16,1014
54004,313127,440098,-12,-18,1016
54040,313226,440112,-9,-18,1016
54101,313261,440165,-9,-18,1011
54117,313398,440328,-9,-22,1029
54194,313382,440299,-6,-23,1029
54217,313441,440269,0,-23,1049
54216,313492,440287,0,-9,1018
54288,313518,440351,0,-15,1038
54340,313660,440546,-21,-15,1038
54383,313662,440486,-12,-15,1001
54423,313745,440572,-12,-20,1035
54338,313806,440676,-7,-20,1035
54415,313879,440698,-7,-20,1032
54426,313910,440838,-7,-9,1029
54476,313888,440771,4,-19,1024
54521,313878,440656,-6,-19,1024
54477,313874,440585,-14,-21,1035
54416,313691,440529,-14,-8,1035
54187,313608,440186,-12,-14,1017
54029,312882,439850,-12,-14,1021
53870,312504,439667,-12,-21,1020
53757,312196,439388,-4,-20,1020
53503,311907,439089,0,-20,1038
53402,311666,438903,0,-16,1026
53120,311163,438561,-7,-15,1026
53051,310916,438444,0,-15,1014
53001,310757,438233,0,-15,1040
52935,310674,438157,-8,-18,1027
52842,310581,438229,-13,-18,1027
52748,310384,437930,-13,-21,1027
52666,310379,437897,-9,-21,1035
52706,310274,437963,-6,-14,1035
52714,310296,437946,-9,-14,1026
52644,310385,438117,-9,-12,1032
52626,310420,438062,-14,-21,1032
52604,310489,438152,-8,-21,1035
52645,310497,438308,-8,-18,1033
52676,310652,438309,-6,-17,1033
52793,310887,438678,-10,-17,1026
52826,310962,438683,-13,-21,1027
52830,311120,438786,-13,-16,1027
52836,311188,438828,-5,-14,1038
52871,311303,438834,-6,-14,1023
52902,311368,439036,-6,-14,1050
52938,311503,439115,-2,-15,1050
53022,311478,439135,-9,-15,1033
52905,311605,439322,-9,-15,1038
53027,311708,439431,-6,-21,1038
53069,311759,439500,-6,-21,1035
53134,311905,439553,-6,-18,1041
53111,312000,439658,-12,-20,1041
53095,312009,439746,-10,-20,1033
53088,312099,439828,-10,-17,1032
53238,312386,440022,-6,-18,1032
53215,312428,440062,-11,-18,1029
53317,312561,440082,-6,-24,1020
53430,312582,440197,-6,-16,1010
53369,312647,440249,-6,-25,1010
53420,312750,440297,-6,-25,1023
53553,312820,440526,-6,-17,1029
53560,312906,440570,-10,-17,1029
53454,312966,440631,-9,-17,1041
53587,313096,440561,-9,-24,1020
53653,313098,440769,-15,-9,1017
53692,313272,440671,-5,-9,1017
53678,313192,440781,-9,-18,1038
53756,313322,440758,-9,-21,1038
53766,313423,440815,-6,-14,1038
53810,313567,440963,-8,-14,1043
53751,313571,441055,-8,-15,1029
53921,313600,440961,-3,-28,1029
53932,313689,441087,-8,-28,1037
53943,313703,441114,-8,-18,1017
53978,313840,441156,-6,-18,1017
54113,313910,441309,-2,-18,1014
54065,313927,441352,-8,-17,1030
54106,313996,441375,-8,-16,1030
54058,314082,441414,-6,-26,1020
54154,314174,441420,-9,-26,1024
54194,314291,441523,-9,-20,1010
54295,314363,441538,-6,-14,1010
54277,314354,441685,-5,-14,1029
54270,314412,441709,-5,-20,1038
54373,314386,441600,-15,-15,1038
54338,314585,441718,-6,-15,1040
54287,314554,441724,-6,-18,1040
54420,314634,441769,-9,-16,1017
54422,314756,441753,-7,-16,1017
54511,314684,441863,-9,-14,1040
54454,314692,441956,-9,-13,1040
54481,314720,441969,-2,-20,1037
54535,314831,441955,-8,-20,1026
54579,314791,442009,-8,-19,1027
54573,314832,441970,-9,-9,1027
54567,314923,441929,-3,-9,1029
54538,314636,441872,-3,-24,1018
54467,314450,441675,-6,-13,1018
54365,314241,441490,-11,-13,1047
54288,313902,441222,-11,-23,1014
54096,313604,441021,-6,-14,1014
53772,312893,440405,0,-14,1020
53629,312577,440124,-7,-20,1027
53481,312246,439906,-7,-17,1027
53349,311937,439827,-6,-20,1027
53270,311869,439634,-15,-20,1035
53061,311478,439319,-15,-11,1032
52974,311296,439191,-10,-19,1032
52869,311227,439235,-8,-19,1030
52865,311179,439109,-8,-18,1010
52843,311022,439039,-9,-19,1010
52789,310961,439074,-16,-19,1013
52668,310953,439120,-16,-18,1029
52738,310910,439099,-4,-21,1029
52679,310989,439097,-9,-21,1029
52737,311043,439329,-3,-21,1005
52862,311235,439386,-3,-15,1016
52786,311259,439459,-9,-24,1016
52859,311401,439571,-4,-24,1041
52831,311464,439621,-4,-14,1026
52815,311629,439779,-8,-17,1026
52903,311700,439922,-3,-17,1033
52921,311754,439872,-3,-18,1040
53023,311840,440078,0,-13,1040
52968,311921,440093,-3,-13,1041
52969,311892,440162,-3,-15,1035
53037,312040,440238,-6,-22,1035
53070,312179,440307,4,-10,1030
53126,312207,440325,-2,-10,1023
53141,312333,440412,-2,-18,1037
53157,312520,440548,-5,-13,1037
53286,312582,440637,-6,-13,1040
53324,312628,440758,-6,-9,1032
53374,312717,440855,-7,-25,1032
53276,312770,440855,-6,-25,1008
53445,312851,440982,-6,-11,1032
53381,313022,441083,-13,-21,1032
53476,313045,441079,-9,-21,1038
53490,313135,441073,-9,-18,1018
53546,313225,441211,-10,-19,1040
53505,313267,441355,-6,-18,1040
53568,313370,441351,-9,-18,1035
53638,313427,441469,-9,-12,1038
53572,313377,441363,-7,-15,1038
53641,313533,441518,-8,-15,1033
53676,313560,441569,-8,-17,1038
53658,313583,441699,-5,-26,1032
53790,313696,441626,0,-26,1032
53793,313794,441646,-14,-15,1020
53852,313807,441656,-14,-20,1020
53876,313930,441790,-4,-16,1018
53876,314045,441853,-9,-16,1035
54008,314057,441848,-9,-18,1033
53976,314066,441877,-10,-21,1033
53928,314066,441887,-3,-21,1035
53978,314149,441964,-3,-18,1037
54109,314289,441981,-12,-20,1037
54016,314302,442066,-11,-20,1029
54123,314281,442067,-11,-26,1030
54118,314369,442083,-12,-15,1030
54192,314420,442164,-6,-15,1024
54107,314504,442267,-6,-19,1029
54200,314531,442199,-6,-15,1038
54307,314623,442203,-7,-20,1038
54230,314588,442163,-4,-20,1050
54341,314700,442324,-4,-17,1035
54364,314760,442405,-10,-12,1035
54342,314871,442408,-9,-12,1046
54359,314786,442459,-9,-21,1026
54443,314825,442494,-13,-15,1026
54470,314890,442520,-9,-21,1018
54429,314898,442520,-9,-21,1035
54527,314945,442495,-5,-21,1035
54505,314910,442560,-9,-21,1016
54512,314841,442457,-7,-15,1035
54441,314745,442337,-7,-19,1033
54334,314658,442254,3,-15,1033
54156,314039,441734,-14,-15,1026
54120,313775,441486,-14,-9,1021
53870,313388,441214,-9,-18,1021
53708,313123,441031,-8,-18,1027
53597,312865,440969,-8,-8,1035
53349,312291,440362,-9,-17,1035
53246,312022,440202,-11,-17,1023
53033,311903,440135,-11,-19,1021
52957,311790,440019,-6,-15,1021
52993,311777,440116,-9,-18,1037
52900,311535,439876,-6,-18,1021
52851,311480,439882,-6,-16,1029
52758,311431,439950,-9,-17,1029
52769,311409,439821,-6,-17,1040
52729,311452,439913,-6,-17,1023
52753,311498,440034,-3,-13,1023
52776,311654,440147,-6,-13,1043
52831,311702,440121,-6,-20,1029
52814,311797,440242,-6,-21,1029
52861,312013,440451,0,-16,1014
52962,312019,440486,0,-16,1035
52947,312181,440648,-9,-21,1041
53033,312260,440673,0,-18,1041
53052,312322,440786,-9,-18,1024
53110,312536,440867,-9,-20,1011
53183,312529,441041,-6,-19,1011
53143,312630,441091,-3,-19,1040
53143,312711,441271,-3,-24,1035
53215,312769,441281,1,-25,1035
53223,312943,441385,-5,-25,1030
53282,313036,441503,-15,-18,1018
53351,313172,441500,-15,-16,1018
53351,313271,441681,-6,-16,1032
53388,313318,441665,-10,-15,1030
53462,313395,441844,-10,-21,1014
53345,313470,441827,-10,-12,1014
53508,313574,441839,-2,-12,1018
53492,313581,441983,-2,-18,1026
53611,313685,442001,-10,-18,1026
53560,313745,442166,-6,-18,1020
53667,313842,442219,-6,-23,1029
53719,313882,442274,-12,-20,1032
53794,313973,442200,-10,-20,1032
53706,314052,442237,-10,-15,1032
53783,314227,442372,-9,-15,1027
53850,314242,442438,-10,-21,1027
53861,314374,442547,-14,-21,1027
53811,314288,442527,-14,-18,1027
53885,314374,442605,-14,-20,1027
53985,314475,442699,-2,-20,1017
53846,314584,442779,-2,-15,1026
54014,314524,442715,-9,-12,1026
54056,314608,442740,-8,-12,1032
54084,314709,442812,-8,-20,1024
54106,314809,442952,-9,-15,1023
54200,314981,442922,-3,-15,1023
54174,314899,442919,-3,-14,1020
54150,314980,442959,-14,-11,1023
54208,315026,443044,-12,-21,1023
54249,315118,443089,-6,-21,1040
54315,315111,443228,-6,-16,1020
54365,315252,443267,-4,-18,1020
54340,315277,443256,-2,-18,1023
54452,315311,443314,-2,-15,1021
54443,315388,443322,-2,-13,1002
54423,315447,443410,-5,-23,1002
54546,315560,443455,-5,-23,1037
54580,315592,443511,-13,-14,1026
54515,315619,443590,0,-17,1026
54478,315642,443622,-8,-17,1033
54510,315720,443713,-8,-19,1027
54644,315736,443631,-6,-14,1027
54675,315888,443602,-6,-14,1044
54658,315739,443587,-6,-14,1041
54713,315810,443629,-15,-14,1041
54643,315851,443707,-6,-14,1017
54544,315525,443359,-6,-22,1021
54522,315266,443211,-8,-15,1017
54382,314981,443030,-3,-18,1017
54342,314757,442735,-3,-18,1037
54235,314558,442578,0,-15,1029
53837,313887,442097,-5,-19,1029
53741,313634,441825,1,-19,1023
53619,313296,441711,1,-21,1043
53422,313107,441558,-12,-21,1043
53400,313079,441495,-6,-21,1016
53277,312766,441193,-6,-22,1037
53168,312702,441188,-6,-15,1047
53130,312568,441113,-6,-15,1047
53077,312514,441067,-10,-19,1026
53095,312797,441090,-10,-16,1026
52980,312930,441174,-9,-13,1027
53043,312969,441157,-6,-13,1030
53038,312995,441216,-6,-13,1047
53030,313057,441262,-9,-10,1047
53004,313282,441459,-13,-10,1037
53157,313380,441626,-13,-18,1024
53126,313494,441624,-6,-21,1024
53177,313585,441786,-12,-21,1020
53257,313639,441924,-12,-27,1035
53238,313900,441956,-3,-21,1035
53316,314052,442154,-13,-21,1035
53422,314049,442317,-22,-18,1029
53379,314132,442304,-22,-19,1020
53535,314267,442400,-14,-18,1020
53470,314379,442641,-3,-18,1053
53553,314469,442665,-3,-12,1024
53458,314497,442675,-4,-11,1024
53525,314612,442796,-17,-11,1029
53635,314666,442859,-17,-22,1014
53607,314766,442923,-9,-17,1014
53551,314782,443081,-11,-16,1023
53697,314995,443131,-11,-16,1054
53676,315044,443154,-8,-22,1054
53764,315113,443259,-9,-22,1032
53842,315242,443458,-9,-12,1024
53910,315385,443603,-9,-23,1020
53910,315463,443500,-4,-27,1020
53939,315486,443634,-4,-27,1018
53990,315577,443663,-4,-15,1038
53930,315696,443737,-15,-21,1038
54045,315733,443788,-3,-21,1018
54038,315826,443807,-3,-21,1023
54028,315923,443905,-3,-18,1023
54125,315975,443941,-6,-18,1020
54086,316072,443969,-6,-18,1029
54095,316106,444077,-6,-21,1029
54195,316129,444066,-7,-21,1023
54186,316210,444128,-12,-21,1016
54183,316193,444213,-12,-10,1024
54267,316338,444201,-6,-17,1024
54259,316403,444166,-8,-17,1032
54281,316395,444261,-8,-15,1046
54305,316426,444284,-10,-15,1046
54312,316495,444322,-9,-15,1029
54303,316534,444287,-3,-17,1033
54412,316477,444401,-3,-16,1033
54434,316619,444396,0,-16,1024
54514,316635,444450,0,-15,1018
54449,316608,444447,-6,-21,1035
54467,316680,444469,-6,-15,1035
54582,316794,444481,-8,-15,1049
54529,316766,444512,-8,-21,1020
54552,316836,444666,-3,-19,1020
54566,316852,444543,-4,-19,1024
54588,316902,444601,-4,-18,1018
54665,316907,444629,-5,-15,1018
54676,316946,444655,-3,-15,1027
54675,316941,444662,-3,-21,1049
54674,316865,444548,-7,-16,1049
54606,316901,444660,-3,-16,1023
54686,317044,444517,1,-20,1035
54605,316580,444279,1,-25,1017
54472,316344,444102,-6,-23,1017
54373,316177,443894,-6,-23,1026
54183,315876,443672,-6,-15,1016
54146,315632,443445,-18,-24,1016
53870,314964,442843,-11,-24,1016
53650,314748,442680,-11,-22,1029
53597,314545,442526,-10,-14,1029
53449,314331,442335,-10,-14,1027
53422,314192,442269,-8,-21,1023
53208,314005,442113,-8,-10,1035
53150,313825,442145,-11,-19,1035
53093,313768,442070,-6,-19,1049
53073,313747,441978,-6,-16,1029
53067,313736,442076,-15,-18,1029
52984,313729,441998,0,-18,1032
52962,313808,441956,0,-18,1033
52989,313764,442067,-18,-18,1033
53103,313867,442181,-3,-21,1018
53117,314115,442355,-3,-21,1029
53083,314154,442400,-8,-21,1035
53211,314267,442546,-10,-21,1035
53246,314269,442686,-7,-21,1029
53300,314502,442768,-7,-21,1027
53286,314662,442908,-5,-19,1027
53345,314731,442883,-6,-19,1035
53382,314813,442953,-6,-22,1026
53429,314837,443079,-13,-18,1026
53482,314901,443137,-18,-18,1017
53442,315033,443320,-18,-22,1020
53534,315208,443370,1,-18,1020
53605,315309,443371,-3,-18,1032
53581,315339,443481,-3,-18,1030
53600,315400,443559,-11,-15,1050
53678,315494,443699,-7,-19,1050
53510,315585,443799,-9,-19,1043
53760,315729,443769,-9,-17,1047
53735,315664,443781,-16,-14,1047
53741,315708,443864,-11,-14,1020
53825,315849,443987,-11,-13,1018
53817,315826,443953,-10,-21,1018
53856,315883,443964,-6,-21,1030
53868,316015,443983,-6,-12,1027
53878,315991,444052,-15,-15,1020
54004,316091,444151,-9,-15,1020
53966,316174,444220,-18,-13,1023
54038,316244,444254,-18,-20,1029
54167,316268,444277,-9,-24,1029
54085,316298,444338,-6,-24,1054
54166,316418,444427,-6,-21,1026
54105,316377,444390,0,-12,1026
54247,316418,444386,-10,-12,1037
54183,316546,444418,-10,-22,1023
54227,316565,444424,-7,-18,1040
54203,316533,444436,-14,-18,1040
54366,316697,444483,-14,-18,1030
54243,316613,444524,-4,-24,1016
54364,316649,444504,-5,-23,1016
54319,316725,444481,-8,-23,1016
54335,316689,444615,-8,-24,1020
54366,316739,444510,-13,-19,1020
54336,316648,444593,-5,-19,1018
54384,316715,444492,-5,-13,1040
54342,316684,444500,-13,-17,1040
54402,316835,444646,3,-17,1020
54450,316959,444635,3,-23,1027
54583,316873,444669,-10,-17,1027
54569,316949,444668,-8,-17,1049
54563,316955,444755,-3,-20,1020
54620,317013,444665,-3,-18,1043
54604,317056,444768,-13,-18,1043
54554,317038,444830,-2,-18,1037
54676,317008,444660,-2,-18,1035
54603,316974,444673,-11,-22,1035
54671,317022,444645,-9,-22,1040
54583,316912,444432,-9,-18,1043
54434,316416,444203,-13,-16,1043
54316,316106,443921,-6,-12,1030
54161,315880,443706,-6,-12,1010
54096,315582,443376,-4,-15,1010
53949,315386,443252,-13,-15,1018
53611,314782,442810,-17,-24,1018
53488,314536,442642,-17,-22,1030
53468,314316,442513,-3,-21,1030
53272,314127,442268,-9,-21,1020
53264,314045,442275,-9,-21,1035
53078,313764,442073,-8,-22,1035
53049,313753,441886,-3,-22,1027
52975,313592,441880,-3,-18,1040
52970,313605,441923,0,-19,1040
52942,313670,441958,-18,-19,1017
52928,313596,441963,-18,-23,1026
52880,313684,442090,-12,-20,1026
52958,313702,442240,-10,-17,1002
52918,313893,442266,-14,-17,1040
52994,314152,442505,-14,-29,1023
52984,314174,442647,-8,-17,1023
52957,314202,442687,-6,-17,1044
53033,314369,442782,-6,-21,1024
52975,314365,442780,-9,-18,1024
53129,314508,442904,-6,-18,1065
53190,314653,443054,-10,-26,1046
53150,314766,443145,-10,-21,1046
53213,314864,443223,-9,-15,1018
53179,314909,443187,-5,-15,1046
53236,314912,443360,-5,-21,1011
53328,315174,443537,-5,-23,1011
53391,315223,443569,-15,-23,1027
53341,315316,443696,-15,-15,1016
53415,315321,443713,-10,-15,1016
53425,315486,443748,-6,-15,1026
53427,315666,443925,-6,-24,1020
53562,315826,444011,-3,-15,1020
53505,315769,443996,-14,-15,1044
53559,315809,444009,-14,-12,1033
53572,315906,444161,-6,-24,1033
53672,316097,444246,-7,-13,1026
53704,316146,444311,-15,-13,1033
53770,316190,444333,-15,-24,1021
53775,316204,444434,-4,-17,1021
53799,316404,444489,-9,-17,1021
53872,316425,444488,-9,-20,1033
53878,316454,444575,-9,-14,1033
53960,316554,444640,-15,-14,1023
53947,316551,444643,-15,-14,1014
53947,316723,444705,-12,-13,1014
53864,316674,444723,-10,-13,1017
54061,316709,444714,-17,-18,1027
54092,316801,444879,-17,-19,1018
54059,316813,444830,-2,-21,1018
54110,316924,444884,-6,-21,1020
54196,317060,444827,-6,-25,1026
54129,317027,444752,-9,-19,1026
54148,317018,444793,-6,-19,1037
54157,317061,444832,-6,-23,1040
54264,317036,444895,-8,-24,1030
54338,317212,444926,-9,-24,1030
54305,317155,444950,-9,-24,1008
54263,317261,444944,-7,-19,1026
54320,317313,444962,-6,-17,1026
54310,317352,445048,-12,-17,1032
54341,317422,445114,-12,-16,1032
54413,317510,445085,-11,-23,1032
54439,317469,445107,-9,-23,1020
54475,317540,445199,-9,-18,1027
54478,317589,445247,-13,-17,1027
54486,317607,445252,-10,-17,1050
54522,317563,445221,-10,-21,1035
54593,317592,445219,-7,-16,1035
54528,317542,445096,-9,-19,1018
54503,317543,444980,-10,-19,1024
54494,317367,444795,-10,-18,1020
54312,316921,444514,1,-23,1020
54187,316654,444312,-9,-23,1041
53992,316360,444074,-9,-20,1035
53894,316090,443806,-13,-22,1035
53671,315964,443669,-12,-22,1029
53466,315317,443228,-12,-14,999
53309,315167,443028,-10,-21,999
53250,314987,442828,-7,-18,999
53133,314807,442714,-7,-18,1032
53184,314713,442779,-12,-17,1037
52966,314389,442574,-16,-23,1037
52980,314430,442563,-15,-23,1024
52880,314340,442444,-15,-21,1027
52871,314325,442478,-3,-16,1027
52813,314342,442534,-9,-16,1035
52816,314359,442536,-9,-22,1008
52810,314404,442585,-8,-15,1008
52854,314527,442741,-10,-21,1035
52819,314496,442807,-3,-21,1032
52882,314630,443105,-3,-14,1037
52953,314810,442971,-3,-23,1037
53009,314977,443087,-3,-23,1018
52972,315062,443125,-3,-8,1017
53020,314985,443200,-9,-17,1017
52932,315218,443599,-13,-17,1035
53049,315226,443399,-13,-17,1029
53032,315316,443498,-6,-18,1029
53090,315341,443529,-17,-18,1035
53154,315421,443605,-17,-21,1043
53150,315696,443683,-18,-23,1043
53273,315683,443810,-9,-25,1027
53192,315717,443758,-5,-25,1024
53235,315838,443854,-5,-19,1026
53270,315873,443920,0,-20,1026
53389,315920,444035,-11,-20,1033
53376,316087,444116,-11,-19,1021
53418,316126,444105,-6,-21,1021
53448,316229,444136,-4,-21,1049
53478,316211,444271,-4,-24,1032
53515,316376,444392,-13,-22,1032
53426,316397,444281,-7,-22,1032
53644,316526,444358,-7,-21,1002
53652,316531,444456,-2,-9,1013
53649,316597,444338,-6,-9,1013
53628,316745,444592,-16,-22,1033
53790,316716,444617,-16,-23,1032
53731,316823,444551,-15,-16,1032
53905,316791,444640,-3,-16,1043
53763,316879,444586,-3,-16,1033
53858,317090,444791,-8,-19,1033
53883,317030,444830,-9,-19,1037
53945,317118,444792,-9,-19,1020
53951,317034,444774,-5,-12,1046
54040,317147,444798,-10,-12,1046
54014,317215,444879,3,-19,1026
53922,317342,444873,3,-18,1026
54098,317262,444968,-11,-21,1027
54083,317396,444993,-3,-21,1026
54108,317360,444996,-3,-21,1029
54099,317408,445036,-10,-26,1029
54213,317576,445220,-8,-26,1047
54184,317596,445146,-8,-21,1040
54220,317623,445156,-18,-21,1040
54303,317608,445195,-3,-21,1035
54247,317712,445181,-3,-21,1032
54380,317759,445223,1,-17,1032
54403,317614,445223,1,-17,1049
54294,317731,445174,-17,-22,1024
54384,317798,445243,-17,-18,1032
54463,317816,445217,-4,-21,1032
54455,317957,445230,-8,-21,1014
54491,317813,445284,-8,-19,1026
54526,317923,445275,-6,-17,1026
54534,317884,445292,-9,-17,1026
54481,317835,445304,-9,-19,1030
54457,318024,445155,-11,-20,1030
54493,317521,444975,-9,-20,1023
54407,317341,444895,-10,-20,1016
54201,316964,444522,-10,-21,1016
54135,316647,444299,-9,-21,1010
53954,316450,443763,-9,-21,1035
53709,315806,443547,-9,-24,1040
53542,315610,443353,-10,-18,1040
53478,315395,443215,-10,-18,1023
53367,315226,442990,-10,-18,1035
53247,315030,442891,-12,-24,1035
53103,314744,442633,-7,-24,1037
53068,314700,442669,-14,-18,1035
53024,314615,442602,-14,-17,1035
53036,314588,442638,-9,-15,1014
52994,314481,442589,-9,-15,1037
52938,314456,442590,-9,-15,1035
52881,314465,442609,-9,-24,1035
52964,314541,442621,-9,-24,1027
52984,314596,442821,-9,-16,1032
52981,314714,442878,-8,-21,1032
52990,314897,443054,-6,-21,1026
53092,315043,443199,-6,-22,1041
53070,315148,443266,-5,-18,1041
53089,315196,443293,0,-18,1035
53132,315357,443496,0,-21,1035
53181,315396,443544,-11,-24,1026
53170,315457,443515,-4,-21,1026
53247,315566,443668,-9,-21,1035
53280,315674,443742,-9,-18,1030
53342,315900,443917,-15,-21,1030
53435,315855,443969,-9,-21,1029
53352,315915,444036,-9,-18,1020
53390,315975,444004,-6,-23,1020
53450,316062,444028,-7,-23,1026
53493,316161,444338,-7,-18,1032
53563,316379,444347,-9,-20,1032
53649,316456,444459,-6,-20,1024
53657,316529,444527,-9,-14,1027
53690,316556,444468,-9,-24,1018
53737,316601,444734,-6,-21,1018
53811,316784,444695,5,-21,1027
53917,316831,444755,5,-18,1016
53855,316905,444850,-8,-13,1016
54020,316937,444830,-15,-13,1023
53974,317089,444952,-15,-13,1027
53996,317154,445058,-15,-21,1027
54078,317093,445076,3,-18,1027
54081,317183,445071,-12,-18,1021
54123,317263,445100,-12,-21,1035
54132,317417,445217,-2,-14,1035
54123,317402,445314,-9,-14,1035
54211,317425,445370,-9,-17,1027
54210,317439,445382,-9,-22,1027
54210,317592,445300,-7,-22,1035
54255,317592,445366,-7,-18,1021
54185,317717,445468,0,-22,1021
54418,317615,445538,-8,-22,1024
54482,317733,445613,-8,-14,1013
54399,317779,445560,-16,-21,1013
54423,317802,445594,-8,-21,1026
54520,317914,445643,-8,-16,1043
54494,317874,445573,-4,-19,1021
54548,317843,445548,-9,-18,1021
54536,317917,445708,-14,-18,1030
54619,317917,445797,-14,-22,1040
54672,318187,445873,-10,-23,1040
54712,318092,445827,-6,-23,1023
54689,318128,445901,-6,-18,1010
54675,318141,445804,-5,-22,1010
54804,318280,445974,-11,-22,1038
54895,318333,445981,-11,-20,1026
54879,318343,446009,-7,-17,1026
54790,318392,445972,-7,-22,1024
54867,318408,445981,-6,-22,1038
54884,318398,445997,-6,-23,1014
54965,318495,446093,-5,-15,1014
54920,318369,446009,4,-15,1030
54918,318264,445942,4,-9,1033
54848,318109,445812,-8,-17,1033
54852,317977,445583,-11,-17,1026
54757,317876,445264,-11,-24,1035
54573,317268,445076,-3,-22,1035
54408,316912,444739,-9,-22,1016
54243,316586,444479,-9,-20,1017
54116,316340,444347,-5,-17,1024
53863,316222,444113,-9,-24,1024
53772,315688,443778,-9,-24,1024
53652,315443,443651,-9,-15,1040
53624,315298,443500,-4,-16,1040
53554,315223,443449,-14,-16,1018
53491,315107,443489,-14,-18,1011
53396,314859,443223,-12,-23,1011
53314,314876,443215,0,-23,1027
53273,314827,443169,-8,-18,999
53252,314778,443267,-8,-23,999
53273,314833,443322,-2,-17,1033
53294,314919,443311,-10,-17,1017
53341,314980,443488,-10,-18,1044
53303,315066,443542,-3,-20,1044
53367,315235,443682,-14,-20,1029
53430,315369,443906,-14,-18,1032
53556,315459,443969,-9,-19,1032
53543,315588,444065,-15,-19,1032
53542,315618,444235,-15,-22,1023
53599,315704,444197,-15,-17,1041
53585,315901,444321,-6,-17,1041
53716,316025,444431,-6,-18,1033
53760,316066,444539,-6,-17,1043
53721,316170,444589,-6,-18,1043
53829,316196,444635,-2,-18,1023
53821,316390,444719,-2,-29,1027
53873,316442,444824,-11,-22,1027
53892,316554,444900,-7,-22,1020
53963,316596,444878,-7,-21,1021
53956,316653,445075,-4,-22,1021
54034,316783,445163,1,-18,1044
54072,316821,445198,-15,-18,1020
54086,316847,445282,-15,-24,1020
54126,316966,445367,-9,-24,1029
54177,316993,445341,-7,-24,1008
54186,317146,445471,-7,-21,1023
54128,317138,445560,-8,-15,1023
54286,317143,445565,-6,-15,1018
54254,317316,445584,-6,-21,1010
54310,317352,445584,-13,-26,1010
54339,317467,445786,-9,-26,1030
54387,317454,445805,-9,-23,1027
54316,317489,445761,-6,-22,1007
54430,317607,445793,-6,-22,1007
54491,317701,445822,-6,-25,1029
54447,317676,445941,-6,-20,1018
54543,317829,446016,-9,-13,1018
54620,317827,446054,-15,-13,1026
54608,317883,446047,-15,-10,1011
54632,317962,446188,-9,-15,1011
54610,318004,446272,-3,-15,1043
54657,318029,446214,-3,-16,1027
54724,318015,446193,-3,-24,1027
54817,318008,446242,-6,-25,1016
54693,318090,446244,-6,-25,1030
54831,318160,446220,-10,-16,1030
54847,318383,446393,-9,-16,1023
54961,318257,446387,-15,-20,1037
54898,318300,446352,-15,-23,1041
54895,318324,446454,-4,-23,1041
54967,318397,446481,-8,-23,1030
55058,318414,446635,-8,-20,1046
55079,318493,446573,-12,-22,1046
55033,318467,446518,-3,-22,1027
55081,318523,446580,-3,-14,1027
55097,318575,446625,-21,-17,1027
55189,318731,446800,-9,-20,1052
55169,318698,446787,-15,-20,1010
55279,318649,446710,-15,-22,1014
55249,318718,446738,-3,-13,1014
55257,318768,446812,-9,-13,1023
55243,318749,446704,-9,-26,1043
55219,318568,446680,-15,-22,1043
55186,318457,446452,-7,-22,1035
55087,318250,446298,-7,-15,1030
55017,317989,446092,-9,-16,1030
54899,317882,445581,-9,-16,1030
54595,317014,445345,-9,-21,1033
54431,316810,445109,-10,-21,1030
54263,316496,444878,-10,-21,1030
54187,316306,444674,-10,-14,1053
54045,316083,444569,-6,-24,1016
53833,315782,444290,0,-14,1016
53811,315601,444153,-6,-14,1043
53757,315523,444078,-6,-18,1020
53672,315403,444028,-6,-19,1020
53614,315409,444013,-8,-19,1021
53581,315156,443940,-8,-15,1040
53668,315278,444008,0,-11,1040
53631,315275,444010,-15,-11,1033
53570,315350,444111,-15,-24,1016
53597,315359,444328,-8,-21,1016
53682,315564,444347,-6,-18,1027
53678,315624,444515,-8,-18,1018
53726,315732,444527,-8,-15,1035
53715,315780,444580,-7,-15,1035
53789,316039,444874,-9,-15,1029
53858,316116,444823,-9,-18,1038
53885,316180,445066,-3,-17,1038
53927,316212,445066,-16,-17,1032
53857,316332,445081,-16,-21,1013
53864,316531,445166,-15,-15,1021
53934,316607,445302,-10,-15,1021
54049,316620,445404,-10,-15,1030
54076,316802,445531,-13,-19,1017
54080,316757,445514,-15,-21,1017
54123,316930,445601,-7,-21,1035
54160,316974,445735,-7,-15,1038
54175,317043,445828,-16,-23,1038
54266,317176,445832,-12,-23,1043
54281,317301,445899,-12,-17,1024
54294,317427,446139,-17,-20,1024
54323,317539,446057,-6,-20,1014
54436,317482,446162,0,-20,1040
54470,317647,446136,0,-9,1026
54464,317636,446256,0,-15,1026
54472,317831,446321,-8,-15,1026
54494,317787,446356,-8,-17,1020
54500,317900,446437,-8,-18,1020
54561,317978,446528,-10,-18,1026
54575,318017,446496,-10,-21,1024
54643,318001,446611,-9,-27,1024
54625,318063,446570,-13,-27,1027
54666,318173,446615,-13,-17,1030
54709,318210,446676,-3,-25,1021
54661,318210,446700,-2,-25,1021
54807,318315,446769,-2,-15,1041
54702,318375,446800,-8,-18,1005
54842,318396,446788,-4,-18,1005
54899,318408,446815,-8,-18,1024
54864,318467,446869,-8,-17,1033
54901,318679,446933,-15,-16,1033
54961,318691,446960,-8,-16,1029
55027,318690,446961,-8,-21,1032
55085,318771,447059,-9,-17,1029
55047,318805,447146,-13,-17,1029
55081,318821,447093,-13,-17,1033
55122,318850,447114,-9,-20,1040
55161,318858,447198,-3,-23,1040
55189,318972,447319,-19,-23,1027
55252,318997,447194,-19,-22,1033
55149,318966,447296,1,-16,1033
55285,319097,447312,-14,-16,1033
55317,319102,447327,-14,-22,1016
55350,319149,447491,-3,-25,1016
55393,319199,447358,-12,-25,1027
55371,319194,447362,-12,-18,1010
55391,319315,447544,4,-15,1033
55440,319274,447476,-16,-15,1033
55485,319332,447367,-16,-12,1023
55504,319228,447466,-7,-24,1040
55404,319171,447426,2,-12,1040
55448,319245,447212,0,-12,1032
55296,318876,447059,0,-16,1016
55189,318544,446739,-14,-21,1016
55122,318258,446536,-12,-21,1026
54897,317869,446279,-12,-25,1024
54760,317673,446072,-16,-19,1024
54474,317036,445575,-5,-16,1029
54473,316792,445278,-5,-16,1011
54279,316634,445195,-3,-20,1020
54182,316460,445041,0,-20,1020
54120,316370,445063,-10,-18,1029
53982,316025,444724,-10,-19,1027
53973,316119,444772,-9,-20,1027
53914,316022,444706,-6,-20,1033
53863,315926,444703,-6,-19,1033
53876,315856,444659,-6,-18,1033
53817,315958,444704,-15,-18,1027
53907,315959,444786,-15,-23,1035
53944,316004,444802,-14,-22,1035
53940,316039,444868,-5,-14,1029
53963,316290,445090,-5,-14,1014
54031,316319,445182,-21,-20,1021
53915,316355,445303,-14,-16,1021
54091,316528,445291,-6,-16,1032
54043,316563,445437,-6,-21,1032
54117,316721,445610,-9,-18,1032
54179,316862,445661,-9,-18,1024
54170,316838,445662,-9,-27,1029
54222,316937,445801,-12,-24,1029
54249,317131,445743,-15,-24,1020
54275,317135,446031,-16,-25,1040
54331,317253,446127,-16,-17,1040
54389,317426,446120,-6,-22,1016
54495,317442,446148,-3,-22,1011
54388,317534,446310,-3,-22,1020
54458,317710,446402,-7,-19,1020
54536,317728,446330,-9,-19,1023
54552,317790,446452,-9,-18,1023
54566,317783,446437,-10,-21,1023
54691,317844,446476,-15,-21,1023
54733,318006,446700,-15,-21,1038
54774,318074,446732,-15,-27,1037
54734,318098,446758,-8,-27,1037
54798,318142,446872,-8,-23,1024
54804,318243,446895,-9,-15,1024
54848,318352,446973,-7,-18,1033
54856,318409,446995,-12,-18,1029
54919,318460,447078,-12,-19,1029
54985,318547,447144,-5,-21,1029
54965,318515,447099,-13,-21,1016
54945,318669,447217,-13,-24,1017
54877,318596,447063,-15,-22,1017
55015,318677,447194,-5,-22,1016
55020,318653,447221,-5,-24,1021
55098,318652,447280,-11,-15,1024
55097,318793,447317,-5,-21,1024
55207,318926,447323,-5,-21,1004
55238,318978,447391,-5,-17,1037
55194,318977,447451,-6,-12,1037
55269,318971,447452,-15,-12,1043
55286,319051,447515,-15,-20,1029
55275,319128,447554,-6,-24,1029
55376,319074,447455,-13,-24,1018
55329,319103,447532,-13,-21,1044
55369,319210,447596,-7,-12,1044
55362,319186,447567,-6,-18,1044
55426,319344,447772,-7,-18,1033
55499,319322,447724,-7,-20,1033
55513,319379,447817,-10,-18,1027
55507,319407,447702,-10,-18,1014
55488,319448,447807,-10,-18,1035
55555,319512,447760,-13,-18,1035
55678,319566,447908,2,-18,1021
55641,319650,447842,2,-21,1023
55623,319574,447935,-13,-18,1023
55652,319550,447867,0,-18,1043
55670,319580,447741,0,-15,1020
55565,319248,447549,-9,-20,1041
55512,319126,447420,-5,-20,1041
55358,318916,447243,-5,-18,1017
55280,318686,447062,0,-15,1050
55197,318517,446667,-14,-15,1050
54917,317723,446289,-6,-15,1037
54771,317461,446024,-6,-27,1041
54632,317345,445793,-4,-14,1041
54614,317060,445669,-18,-14,1030
54471,316896,445551,-18,-20,1021
54254,316586,445194,-15,-24,1021
54180,316470,445141,-8,-24,1035
54232,316381,445139,-8,-19,1041
54122,316233,445079,-12,-19,1027
54094,316326,445052,-2,-19,1027
54118,316244,444982,-2,-18,1026
54126,316207,444972,-3,-22,1027
54113,316238,445144,-11,-18,1027
54183,316305,445135,-3,-18,1016
54194,316449,445339,-3,-25,1011
54214,316621,445407,-6,-19,1011
54201,316698,445510,-4,-19,1021
54227,316800,445628,-4,-15,1027
54300,316877,445746,-20,-18,1027
54287,317067,445922,-12,-18,1033
54416,317169,446020,-12,-30,1014
54416,317079,445985,-9,-24,1014
54395,317267,446134,-9,-12,1035
54482,317275,446126,-5,-12,1035
54553,317457,446179,-5,-24,1017
54588,317560,446303,-4,-18,1017
54565,317597,446340,-10,-18,1032
54640,317689,446442,-10,-20,1010
54700,317862,446553,-18,-21,1010
54681,317865,446619,-10,-21,1018
54799,318017,446708,-6,-17,1023
54806,318093,446823,-6,-24,1023
54881,318134,446866,-15,-24,1030
54815,318211,446830,-15,-21,1024
54905,318259,446969,-15,-17,1030
54958,318365,447052,-9,-27,1030
54992,318414,447034,-13,-27,1024
55005,318551,447111,-13,-17,1027
55033,318571,447115,-5,-16,1027
55058,318667,447247,-6,-16,1035
55150,318636,447259,-6,-18,1017
55106,318708,447290,-11,-18,1027
55131,318834,447391,-7,-15,1027
55185,318814,447354,-7,-15,1032
55169,318895,447465,-7,-19,1024
55151,318854,447504,-5,-17,1024
55286,318912,447458,-4,-17,1024
55297,318909,447504,-4,-18,1044
55371,319069,447464,-15,-23,1044
55268,319180,447639,-6,-23,1035
55386,319124,447678,-6,-19,1014
55453,319214,447594,-5,-16,1014
55459,319214,447608,-8,-16,1043
55491,319273,447668,-10,-21,1041
55507,319335,447735,-10,-15,1041
55548,319450,447781,-6,-18,1032
55592,319344,447775,-9,-18,1026
55575,319437,447764,-9,-11,1035
55596,319413,447832,-14,-19,1035
55607,319361,447830,-14,-19,1030
55695,319560,447835,-14,-13,1030
55711,319496,447943,-6,-15,1030
55765,319521,447929,-9,-15,1021
55701,319575,447958,-9,-15,1035
55812,319598,448011,-12,-13,1035
55747,319698,448051,-6,-21,1018
55867,319674,448061,-6,-21,1035
55829,319673,448031,-15,-25,1024
55846,319731,448036,-5,-17,1024
55904,319722,448126,-7,-17,1027
55864,319773,448093,-7,-21,1026
55845,319695,448034,-7,-22,1026
55840,319593,447913,-3,-22,1024
55853,319551,447922,-3,-20,1011
55843,319380,447683,-10,-13,1011
55576,319385,447573,-17,-13,1038
55556,318717,447095,-17,-15,1029
55341,318398,446835,-6,-19,1029
55211,318062,446495,-6,-19,1030
55137,317695,446177,-6,-15,1035
54939,317479,446079,-6,-17,1029
54668,316968,445587,2,-18,1029
54519,316811,445488,-8,-18,1038
54444,316656,445442,-8,-17,1035
54426,316541,445278,-10,-15,1035
54396,316557,445153,-9,-15,1017
54199,316193,445058,-9,-25,1023
54197,316139,444967,-10,-27,1023
54169,316139,444966,-4,-27,1041
54080,316181,444936,-10,-15,1020
54105,316231,444966,-10,-23,1020
54187,316509,444857,-10,-17,1026
54159,316591,445058,-9,-17,1017
54191,316651,445048,-9,-23,1047
54180,316756,445203,3,-16,1047
54283,317018,445401,-2,-16,1021
54270,317108,445451,-2,-15,1035
54389,317148,445472,-13,-21,1035
54350,317267,445575,-8,-21,1033
54399,317340,445548,-6,-15,1035
54444,317475,445702,-6,-18,1011
54438,317679,445840,-9,-18,1011
54538,317670,445980,-9,-15,1026
54561,317861,446038,-5,-25,1021
54607,317903,446133,-10,-24,1021
54698,318077,446239,-5,-24,1026
54725,318185,446250,-5,-25,1027
54678,318203,446380,-10,-16,1027
54761,318371,446416,-4,-16,1032
54726,318376,446451,-4,-19,1047
54830,318557,446591,-3,-28,1047
54849,318598,446658,-8,-28,1035
54915,318733,446694,-8,-14,1029
54879,318695,446735,-8,-21,1016
55014,318739,446801,-9,-17,1016
55011,318952,446906,-11,-17,1032
55096,319018,446893,-11,-21,1013
55105,319035,446884,-11,-18,1013
55050,319030,446877,-6,-18,1023
55112,319083,446978,-6,-12,1023
55089,319228,447069,-15,-24,1023
55078,319211,447137,-10,-24,1044
55159,319198,447026,-10,-21,1037
55212,319297,447133,-6,-20,1037
55197,319349,447068,-14,-20,1041
55254,319452,447175,-14,-18,1047
55295,319551,447243,0,-12,1021
55357,319551,447287,-12,-20,1021
55401,319542,447346,-8,-20,1033
55403,319530,447333,-8,-22,1037
55460,319585,447357,-6,-18,1037
55416,319781,447328,-14,-18,1038
55465,319787,447453,-14,-17,1030
55474,319751,447327,-6,-24,1030
55529,319791,447502,-15,-24,1030
55556,319868,447492,-15,-16,1021
55616,319880,447556,-6,-18,1021
55594,319965,447516,-16,-24,1004
55658,319921,447534,-6,-24,1040
55696,320001,447595,-6,-22,1017
55674,320072,447590,-9,-21,1017
55721,320234,447691,-9,-21,1033
55753,320134,447717,-9,-28,1021
55779,320202,447711,-13,-18,1021
55836,320277,447790,-12,-18,1037
55845,320273,447851,-12,-23,1035
55858,320455,447895,-8,-18,1032
55899,320424,447894,-17,-18,1032
55995,320370,447837,-17,-19,1030
55985,320373,447873,-9,-21,1018
55945,320366,447842,-9,-18,1018
55830,320468,447845,-13,-18,1020
55881,320242,447683,-13,-18,1026
55846,320025,447438,-3,-17,1026
55803,319735,447260,-3,-17,1030
55606,319438,447047,-3,-24,1008
55579,319264,446827,-10,-16,1008
55194,318671,446213,-11,-20,1018
55017,318353,445884,-18,-20,1023
54904,318093,445730,-18,-13,1038
54867,317913,445545,-6,-13,1038
54709,317797,445489,-13,-13,1017
54524,317510,445282,-13,-18,1035
54495,317486,445177,-12,-19,1035
54433,317464,444997,-12,-19,1032
54328,317322,444979,-12,-21,1013
54331,317320,445116,-11,-18,1013
54298,317267,444913,-11,-18,1027
54286,317295,444972,-10,-18,1046
54328,317371,445049,-10,-24,1046
54288,317487,445048,-10,-18,1007
54310,317661,445283,-10,-18,1029
54373,317825,445326,-5,-19,1029
54361,317952,445409,-6,-21,1029
54465,318037,445555,-7,-21,1024
54505,318154,445588,-7,-18,1021
54457,318309,445630,-15,-16,1021
54580,318429,445857,-6,-16,1027
54711,318501,445921,-6,-23,1033
54646,318686,445973,-6,-21,1024
54664,318713,446096,-3,-12,1024
54739,318835,446263,-3,-12,1023
54814,318994,446324,-9,-9,1013
54819,319162,446398,-5,-19,1013
54782,319162,446412,-15,-19,1014
54873,319263,446495,-15,-21,1030
54948,319345,446611,-11,-9,1030
54984,319405,446710,-3,-9,1024
54977,319467,446652,-3,-24,1032
55001,319572,446824,-13,-22,1032
55020,319655,446795,-8,-22,1017
55071,319785,446893,-8,-19,1016
55094,319929,446929,-5,-21,1018
55191,319874,446979,-3,-20,1018
55167,319933,446988,-3,-20,1023
55174,320052,447127,-6,-23,1008
55176,320120,447235,-8,-15,1008
55072,320160,447232,-15,-15,1038
55343,320190,447240,-15,-16,1052
55293,320136,447229,-15,-15,1052
55381,320275,447300,-15,-15,1037
55368,320306,447339,-15,-20,1026
55467,320303,447409,-14,-19,1026
55335,320326,447443,-10,-18,1018
55352,320397,447370,-10,-18,1035
55434,320470,447413,-6,-20,1035
55423,320528,447469,-4,-15,1035
55495,320608,447568,-6,-15,1030
55411,320578,447558,-6,-15,1037
55498,320596,447513,-8,-12,1037
55608,320690,447603,-12,-12,1030
55597,320731,447683,-12,-19,1011
55606,320818,447639,-11,-18,1011
55681,320850,447621,0,-18,1026
55695,320868,447689,0,-19,1024
55770,320877,447709,-12,-21,1024
55734,321038,447790,-2,-21,1014
55774,321079,447827,-7,-22,1037
55813,321077,447856,-7,-30,1035
55833,321121,447874,-10,-16,1035
55843,321156,447870,-4,-16,1029
55880,321163,447904,-4,-18,1021
55886,321328,448014,-11,-23,1021
55988,321295,448012,-9,-23,1021
55947,321224,448000,-9,-10,1056
55913,321264,447954,-2,-27,1056
55993,321282,447980,-6,-27,1033
55896,321296,448079,-6,-19,1035
56038,321248,447914,1,-21,1035
56029,321265,447937,-18,-15,1024
55957,321167,447863,-3,-15,1026
56005,321040,447795,-3,-21,1041
55959,320870,447679,-3,-20,1041
55729,320447,447267,-11,-20,1027
55689,320225,446983,-11,-18,1016
55508,319973,446747,-6,-17,1016
55368,319734,446437,-14,-17,1030
55198,319437,446233,-18,-24,1029
54937,319099,445814,-18,-22,1029
54815,318957,445658,-14,-22,1027
54770,318971,445456,-14,-19,1021
54672,319096,445379,-7,-24,1044
54585,319261,445390,-10,-24,1044
54541,319209,445158,-12,-24,1029
54453,319237,445068,-12,-13,1035
54408,319267,445053,-5,-18,1035
54434,319271,445089,-11,-18,1024
54446,319411,445239,-11,-19,1005
54399,319544,445208,-16,-21,1005
54470,319611,445237,-13,-21,1023
54426,319736,445282,-13,-19,1018
54504,319842,445405,-9,-10,1018
54516,319979,445481,-3,-10,1016
54558,320109,445674,-5,-23,1044
54555,320246,445749,-5,-19,1026
54617,320402,445791,-12,-23,1026
54762,320481,445952,-9,-23,1057
54704,320614,446084,-9,-18,1029
54749,320810,446099,-5,-17,1029
54766,320832,446197,-7,-17,1016
54823,320971,446284,-7,-21,1038
54864,321061,446408,-10,-22,1026
54800,321156,446448,-12,-22,1026
54941,321286,446589,-12,-17,1026
54976,321458,446643,-6,-22,1029
54945,321435,446670,-12,-22,1029
55022,321489,446769,-15,-22,1023
55051,321704,446870,-15,-12,1018
55041,321742,446911,-6,-21,1018
55075,321798,446938,-13,-21,1030
55120,321777,447046,-13,-19,1017
55139,321839,446965,-9,-23,1017
55165,322021,447209,-7,-23,1023
55108,322186,447290,-7,-18,1032
55253,322240,447294,-4,-22,1018
55268,322260,447339,-12,-22,1018
55395,322305,447344,-12,-21,1018
55381,322455,447442,-6,-26,1017
55479,322567,447651,-4,-17,1017
55403,322605,447528,-2,-17,1037
55462,322699,447661,-2,-15,1037
55441,322680,447614,-12,-18,1037
55478,322781,447632,-11,-18,1030
55579,322832,447657,-11,-15,1026
55563,322738,447598,-14,-16,1026
55592,322913,447750,-17,-16,1037
55606,322896,447853,-17,-25,1027
55617,322973,447887,-9,-14,1027
55573,322988,447900,-9,-26,1032
55653,322980,447879,-4,-26,1021
55696,323004,447898,-4,-14,1013
55731,323055,447891,1,-18,1013
55733,323161,448010,-16,-18,1029
55727,323109,448011,-16,-11,1035
55752,323151,447937,-10,-16,1035
55740,323215,448034,-6,-16,1038
55818,323272,448063,-6,-20,1021
55881,323272,448134,-15,-15,1021
55952,323346,448170,-3,-15,1027
55880,323321,448082,-3,-21,1054
55973,323391,448212,-6,-17,1016
55931,323422,448181,-9,-18,1016
55996,323447,448163,-6,-18,1033
55852,323608,448198,-6,-16,1029
56036,323507,448267,-12,-18,1029
56087,323537,448378,-6,-18,1035
56000,323535,448313,-6,-17,1035
56082,323617,448270,-11,-17,1035
56118,323497,448290,-9,-17,1017
56055,323477,448121,-9,-23,1014
55995,323414,448170,-9,-19,1014
55959,323274,448048,-4,-19,1029
55941,323211,447949,-8,-17,1035
55958,323058,447730,-8,-21,1030
55671,322542,447285,0,-10,1030
55565,322351,447123,-4,-10,1035
55440,322044,446832,-4,-24,1032
55330,321829,446699,-5,-21,1032
55139,321662,446565,-2,-21,1027
54958,321290,446082,-2,-21,1024
54859,321190,445922,-15,-16,1024
54743,321065,445856,-12,-16,1035
54673,320991,445765,-12,-21,1030
54665,321061,445924,-15,-16,1026
54510,320797,445706,-4,-25,1026
54546,320714,445597,-7,-25,1018
54568,320764,445704,-7,-19,1037
54517,320794,445644,-13,-21,1037
54463,320912,445761,-9,-21,1029
54556,321080,445907,-9,-18,1038
54563,321099,446045,-4,-22,1033
54639,321261,445997,-8,-19,1033
54618,321331,446125,-8,-19,1035
54672,321423,446364,-12,-18,1018
54759,321684,446478,-10,-19,1018
54734,321721,446624,-7,-19,1020
54864,321858,446646,-7,-20,1026
54894,321875,446774,-4,-19,1026
54997,322023,446912,-8,-19,1018
55032,322265,447056,-8,-19,1026
54996,322277,447081,-5,-19,1026
55031,322321,447085,-13,-19,1046
55023,322373,447108,-13,-17,1032
55097,322576,447363,-8,-17,1032
55107,322584,447249,-4,-17,1052
55182,322640,447324,-4,-12,1018
55240,322824,447491,-8,-20,1035
55176,322788,447465,-8,-15,1035
55303,322952,447579,-9,-15,1023
55241,323064,447707,-9,-16,1024
55390,323070,447798,-10,-27,1024
55356,323147,447715,-12,-27,1038
55338,323211,447738,-12,-13,1035
55378,323344,447847,-8,-18,1035
55357,323347,447847,-10,-21,1035
55440,323356,447914,-10,-21,1024
55492,323397,448024,-9,-27,1024
55472,323433,447930,-14,-14,1030
55548,323498,448042,-15,-14,1033
55592,323600,448141,-15,-24,1023
55551,323574,448048,-7,-15,1023
55579,323672,448160,-12,-15,1035
55645,323711,448216,-12,-15,1016
55642,323728,448231,-9,-21,1016
55684,323842,448336,-14,-21,1018
55716,323817,448269,-14,-25,1023
55751,323854,448295,-8,-19,1023
55732,323818,448291,-6,-19,1017
55746,323924,448325,-6,-18,1023
55754,324063,448464,-12,-27,1029
55838,324132,448562,-11,-15,1029
55894,324126,448514,-8,-15,1043
55941,324170,448514,-8,-22,1029
55916,324210,448526,-7,-20,1029
55925,324294,448585,-15,-20,1008
55890,324261,448655,-15,-22,999
56031,324352,448586,-14,-21,1016
55960,324325,448654,-9,-21,1016
56007,324318,448655,-9,-15,1014
55962,324457,448869,-9,-27,1044
56025,324467,448724,-4,-18,1044
56132,324468,448710,0,-18,1049
56127,324512,448766,0,-26,1044
56186,324518,448765,-10,-15,1044
56137,324576,448847,-11,-15,1047
56154,324590,448739,-11,-20,1024
56196,324516,448788,-9,-21,1024
56179,324579,448823,-15,-21,1023
56196,324504,448661,-8,-12,1041
56189,324508,448744,-8,-17,1041
56087,324319,448450,-11,-18,1020
56013,324138,448271,-12,-18,1016
55978,323861,448110,-12,-19,1024
55762,323690,447946,-11,-19,1024
55679,323396,447816,-2,-19,1035
55479,323030,447274,-2,-15,1038
55373,322723,447010,-6,-18,1038
55161,322527,446876,-6,-18,1027
55092,322286,446645,-6,-24,1054
55005,322266,446703,-9,-21,1032
54934,321933,446279,-12,-21,1032
54902,321856,446361,-12,-21,1017
54770,321731,446199,-4,-25,1018
54755,321637,446067,-6,-15,1018
54648,321760,446197,-9,-15,1021
54653,321701,446034,-9,-22,1026
54538,321790,446142,-15,-21,1026
54657,321943,446193,-6,-21,1024
54586,322157,446201,-6,-15,1047
54699,322269,446366,-7,-19,1047
54678,322589,446520,-8,-19,1017
54799,322673,446606,-7,-21,1043
54808,322815,446686,-7,-24,1043
54891,322895,446783,-9,-24,1023
54886,323155,447007,-9,-24,1032
54832,323156,446940,-8,-18,1037
54946,323303,447066,-7,-25,1037
55014,323368,447194,-11,-25,1017
55009,323499,447219,-11,-18,1027
55037,323605,447310,-5,-10,1027
55132,323786,447459,-14,-10,1038
55155,323884,447543,-14,-20,1026
55161,324063,447646,-14,-17,1026
55169,324088,447694,-6,-17,1029
55251,324238,447765,-6,-18,1030
55321,324361,447876,-6,-15,1030
55275,324312,447765,-7,-17,1033
55357,324416,447899,-12,-17,1026
55444,324548,447936,-12,-20,1027
55405,324555,448030,-14,-19,1027
55292,324688,448066,-15,-19,1018
55458,324627,448163,-15,-15,1029
55481,324793,448218,-5,-18,1029
55546,324785,448142,-6,-18,1018
55460,324931,448164,-6,-20,1024
55603,325104,448285,-12,-23,1035
55694,325053,448291,-2,-23,1035
55603,325074,448341,-2,-19,1044
55609,325097,448312,-5,-20,1024
55676,325251,448395,-9,-18,1024
55732,325308,448535,-8,-18,1037
55752,325313,448510,-8,-18,1016
55754,325319,448567,-12,-15,1016
55719,325331,448610,-8,-15,1023
55797,325440,448592,-8,-21,1038
55787,325513,448712,-7,-25,1038
55853,325588,448727,-12,-25,1018
55850,325678,448767,-12,-21,1037
55879,325658,448770,-14,-28,1037
55924,325729,448792,-15,-23,1030
55903,325831,448905,-5,-23,1029
55993,325799,448965,-5,-18,1035
55984,325923,448904,-2,-24,1035
56026,325930,448900,-6,-24,1017
55978,325876,448952,-6,-12,1021
56055,326059,448980,-8,-12,1021
56072,326105,449042,-17,-12,1024
56121,326050,449026,-9,-18,1023
56109,326096,449012,-9,-18,1023
56128,326118,449048,-4,-18,1016
56216,326209,449092,-15,-18,1040
56171,326215,449145,-15,-17,1007
56164,326227,449127,-7,-22,1007
56293,326279,449102,-14,-22,1004
56195,326337,449109,-14,-18,1043
56191,326258,449085,-4,-15,1043
56218,326082,448831,-4,-15,1035
56140,325900,448706,-4,-15,1016
56012,325827,448553,-17,-18,1016
55928,325587,448325,-10,-18,1037
55825,325381,448263,-10,-21,1033
55585,324867,447673,-5,-21,1033
55456,324565,447315,-11,-20,1032
55239,324326,447253,-15,-20,1023
55161,324286,447007,-15,-15,1041
55045,324224,447048,-6,-12,1041
54834,323892,446645,-13,-12,1021
54826,323852,446610,-13,-16,1011
54763,323761,446469,-7,-14,1011
54705,323670,446478,-14,-14,1010
54594,323769,446360,-9,-18,1035
54550,323718,446228,-9,-28,1035
54583,323801,446357,-11,-28,1027
54579,324004,446359,-11,-21,1008
54554,324099,446444,-7,-19,1029
54585,324176,446612,-17,-14,1029
54591,324462,446796,-2,-14,1013
54652,324643,446904,-2,-19,1016
54694,324772,446952,-17,-18,1016
54652,324812,446946,-7,-18,1018
54732,324985,447158,-7,-18,1032
54666,325174,447200,-6,-23,1032
54829,325232,447351,-12,-18,1046
54850,325406,447521,0,-18,1017
54887,325476,447530,0,-24,1024
54958,325615,447642,-9,-18,1024
55018,325823,447823,-3,-18,1018
55022,325818,447807,-3,-21,1029
55005,325923,447886,-18,-18,1029
55097,326052,447908,-9,-18,1027
55104,326208,448152,-9,-20,1035
55192,326366,448211,-4,-22,1035
55132,326467,448240,-5,-22,1029
55158,326486,448288,-5,-12,1029
55239,326574,448287,-3,-21,1037
55346,326760,448463,-18,-21,1037
55157,326832,448630,-18,-19,1041
55313,326925,448607,-12,-25,1035
55317,327005,448635,-6,-26,1035
55398,327117,448690,-15,-26,1016
55521,327137,448690,-15,-21,1032
55492,327363,448897,-15,-18,1032
55534,327401,448858,-11,-18,1024
55498,327334,448894,-11,-21,1030
55522,327465,448843,-11,-22,1030
55566,327526,448989,-9,-16,1024
55584,327713,449068,-16,-16,1040
55601,327729,449096,-16,-15,1021
55669,327789,449092,-15,-15,1021
55604,327862,449193,-12,-15,1027
55658,327888,449157,-12,-25,1013
55766,327989,449264,5,-22,1013
55734,328112,449320,-11,-22,1020
55770,328107,449371,-11,-18,1030
55819,328246,449481,-13,-18,1030
55875,328277,449466,-16,-18,1030
55886,328411,449582,-16,-18,1038
55852,328529,449614,-5,-18,1044
55935,328663,449683,-6,-18,1044
55936,328650,449696,-3,-18,1024
55888,328584,449764,-3,-18,1029
55951,328847,449822,-15,-19,1029
56019,328791,449774,-8,-19,1054
56059,328961,449865,-8,-24,1024
56050,329035,449904,-2,-21,1024
56127,329010,449911,-9,-21,1018
56123,329258,449958,-9,-21,1023
56159,329280,450079,-7,-20,1017
56203,329437,450157,-13,-20,1017
56249,329348,450230,-13,-24,1033
56132,329313,450096,-10,-24,1013
56246,329449,450110,-5,-17,1013
56183,329403,450121,-14,-17,1038
56235,329349,450109,-14,-27,1043
56164,329251,449976,-14,-15,1043
56103,329164,449801,-7,-15,1027
55979,328889,449633,-7,-18,1040
55713,328535,449086,-4,-26,1040
55578,328300,448966,-7,-19,1026
55450,328074,448660,-5,-19,1035
55363,327822,448473,-5,-22,1035
55194,327669,448372,-12,-22,1033
54999,327236,447943,-11,-21,1008
54883,327090,447785,-11,-24,1018
54809,326948,447651,-13,-15,1018
54740,326864,447576,-15,-15,1047
54628,327000,447551,-15,-21,1035
54543,326833,447475,-17,-18,1035
54494,326832,447422,-8,-18,1033
54435,326837,447493,-8,-17,1032
54470,326902,447554,-15,-18,1032
54472,326908,447660,-18,-18,1023
54495,327182,447651,-18,-18,1030
54534,327266,447780,-19,-20,1018
54578,327302,447845,-5,-21,1018
54645,327427,447935,-13,-21,1043
54652,327491,448150,-13,-21,1007
54559,327630,448269,-9,-16,1007
54677,327855,448340,-11,-16,1014
54717,327958,448320,-11,-22,1052
54784,328000,448487,-6,-19,1014
54836,328153,448611,-9,-12,1014
54911,328234,448804,-9,-12,1035
55019,328429,448892,-7,-18,1033
54898,328523,448860,-17,-14,1033
54964,328490,448966,-7,-14,1032
54984,328751,449165,-7,-17,1026
55064,328849,449191,-21,-21,1026
55066,328855,449246,-12,-21,1035
55095,328984,449281,-12,-18,1029
55195,329044,449365,-9,-17,1029
55189,329108,449464,-13,-17,1016
55120,329291,449491,-13,-15,1026
55246,329321,449583,-11,-17,1026
55238,329301,449588,-15,-17,1024
55284,329410,449570,-15,-18,1018
55309,329477,449675,-10,-18,1037
55421,329562,449813,-9,-24,1037
55371,329539,449723,-6,-24,1029
55338,329583,449807,-6,-21,1044
55327,329735,449815,-9,-16,1044
55398,329678,449892,-6,-16,1035
55382,329848,449987,-6,-21,1033
55474,329865,449938,-14,-16,1033
55555,329908,449943,-6,-16,1017
55590,330032,450026,-6,-20,1011
55556,330034,450104,-6,-20,1032
55674,330108,450133,-8,-21,1032
55604,330127,450134,-2,-21,1030
55630,330264,450170,-2,-18,1040
55628,330146,450167,-6,-12,1040
55604,330160,450243,-8,-12,1035
55733,330305,450332,-8,-27,1020
55737,330338,450373,-15,-22,1020
55819,330398,450328,-16,-22,1035
55865,330481,450426,-16,-23,1027
55797,330399,450445,-12,-17,1026
55968,330560,450433,-10,-17,1026
55942,330528,450423,-10,-18,1010
55951,330538,450494,-15,-14,1020
55898,330586,450434,-6,-18,1020
55968,330662,450488,-12,-18,1038
56006,330766,450577,-12,-16,1021
56127,330701,450627,-9,-20,1021
56096,330740,450630,-8,-20,1029
56093,330770,450561,-8,-17,1032
56156,330852,450651,-9,-27,1032
56092,330836,450601,-10,-16,1018
56222,330848,450689,-10,-16,1038
56261,330870,450569,-5,-24,1016
56210,330835,450606,-6,-18,1016
56216,330739,450378,-11,-18,1032
56133,330563,450490,-11,-19,1037
55969,330254,449952,-13,-16,1037
55813,330032,449660,-10,-16,1029
55719,329740,449524,-10,-20,1018
55547,329415,449224,-12,-21,1018
55426,329310,449184,-15,-18,1023
55063,328598,448533,-15,-18,1024
55021,328385,448300,-13,-24,1020
54867,328241,448195,-5,-20,1020
54878,328083,448062,-10,-20,1026
54729,328089,447909,-10,-14,1001
54576,327753,447675,-6,-10,1001
54549,327748,447662,-6,-10,1030
54508,327706,447591,-6,-14,1037
54375,327761,447552,3,-20,1037
54364,327697,447641,-17,-20,1017
54408,327814,447737,-17,-24,1023
54463,327898,447805,-14,-14,1023
54487,327927,447867,-18,-14,1043
54519,327982,447922,-7,-12,1029
54534,328151,448120,-7,-17,1043
54507,328346,448210,-3,-18,1043
54676,328448,448322,-15,-18,1016
54699,328483,448370,-15,-19,1040
54728,328596,448507,-14,-18,1040
54794,328700,448616,-17,-18,1029
54935,328792,448790,-17,-20,1037
54888,328881,448804,-11,-16,1037
54881,328952,448898,-11,-21,1026
55001,329050,449009,-18,-21,1033
54965,329227,449108,-18,-15,1017
55068,329231,449277,-9,-16,1017
55032,329316,449212,-11,-16,1049
55067,329417,449218,-11,-21,1029
55111,329425,449373,-6,-14,1029
55104,329577,449361,-7,-14,1032
55067,329564,449433,-7,-15,1052
55216,329715,449441,-6,-16,1052
55289,329690,449471,-5,-16,1044
55240,329759,449559,-5,-16,1033
55302,329818,449564,-18,-22,1014
55333,330006,449644,-15,-22,1014
55324,329918,449606,-15,-23,1037
55369,330057,449682,-15,-24,1018
55385,330071,449695,-12,-19,1018
55398,330077,449740,-15,-19,1044
55453,330227,449866,-15,-23,1037
55529,330248,449843,-19,-17,1037
55521,330259,449831,-7,-17,1024
55565,330365,449928,-7,-18,1033
55617,330297,449985,-7,-18,1033
55543,330522,450034,-9,-18,1021
55630,330545,450070,-9,-18,1020
