70463,449447,480964,26,-32,1038
70354,449360,481082,20,-28,1038
70334,449534,481068,27,-28,1040
70242,449412,480964,27,-26,1026
70206,449401,481012,25,-27,1026
70215,449337,480996,23,-27,1023
70183,449346,481000,23,-23,1023
70161,449443,481030,21,-27,1023
70239,449528,481058,23,-27,1010
70343,449639,481105,23,-26,1032
70455,449780,481225,40,-33,1032
70564,449874,481275,30,-33,1041
70638,449962,481333,30,-29,1032
70878,450084,481365,29,-35,1032
70990,450202,481437,28,-24,1024
71010,450222,481364,28,-24,1021
71071,450313,481375,27,-27,1021
71192,450451,481453,21,-30,1017
71249,450470,481445,29,-30,1027
71365,450508,481527,29,-32,1044
71438,450623,481466,21,-33,1044
71406,450668,481527,16,-33,1041
71515,450601,481478,16,-31,1026
71620,450727,481577,35,-24,1026
71717,450799,481471,20,-24,1040
71811,450877,481545,20,-30,1020
71875,450916,481548,25,-27,1020
71930,451126,481776,24,-27,1020
72079,451001,481632,24,-25,1032
72028,451072,481632,24,-32,1032
72133,450991,481600,30,-32,1033
72203,451117,481638,30,-24,1027
72231,451200,481778,24,-32,1027
72304,451371,481732,25,-25,1050
72530,451377,481735,25,-25,1035
72600,451432,481756,21,-27,1035
72658,451532,481692,15,-27,1020
72755,451587,481747,15,-21,1021
72851,451798,481747,24,-27,1032
72918,451639,481768,20,-27,1032
72949,451680,481823,20,-25,1032
73003,451704,481705,17,-30,1018
73075,451803,481776,24,-38,1018
73121,451809,481740,23,-38,1033
73215,451914,481738,23,-33,1027
73312,451903,481871,28,-24,1027
73301,451928,481768,26,-24,1037
73414,451908,481790,26,-28,1033
73362,452048,481790,34,-31,1033
73519,452050,481795,23,-31,1035
73598,452113,481803,23,-30,1035
73649,452074,481733,30,-26,1035
73685,452141,481831,31,-26,1035
73694,452188,481937,31,-30,1035
73894,452271,481869,26,-40,1035
73918,452250,481890,27,-40,1050
73970,452297,481795,27,-27,1026
74059,452390,481833,24,-27,1026
74071,452557,481966,28,-27,1026
74046,452336,481908,28,-27,1014
73795,452262,481845,24,-26,1014
73644,452131,481793,27,-26,1047
73430,451939,481719,27,-33,1032
72942,451911,481611,26,-30,1026
72543,451392,481410,24,-30,1026
72216,451231,481346,21,-30,1024
72012,451050,481324,21,-24,1029
71781,450939,481216,24,-24,1029
71638,450708,481319,26,-24,1050
71088,450579,481016,26,-26,1030
70960,450552,480979,25,-28,1030
70833,450400,480942,25,-28,1024
70697,450360,480940,25,-30,1029
70689,450321,480985,27,-28,1029
70351,450178,480778,21,-28,1047
70353,450093,480777,21,-34,1030
70303,450144,480766,18,-24,1030
70119,450078,480774,30,-24,1038
70094,449980,480940,28,-28,1040
70080,449960,480747,28,-27,1040
70094,449984,480755,27,-27,1018
70095,450021,480725,27,-28,1030
70176,450149,480822,36,-30,1032
70238,450411,480964,21,-30,1032
70482,450390,480909,21,-25,1026
70596,450545,480913,18,-27,1026
70676,450612,480948,30,-27,1026
70784,450715,481104,27,-27,1024
70852,450922,481125,27,-28,1018
71044,450911,481257,30,-25,1018
71129,451010,481189,23,-25,1026
71203,451024,481192,23,-25,1032
71282,451092,481281,27,-33,1032
71370,451163,481363,20,-33,1044
71369,451279,481311,20,-35,1032
71450,451377,481427,27,-32,1032
71547,451365,481477,27,-32,1049
71628,451408,481522,27,-33,1047
71651,451620,481545,25,-33,1047
71730,451669,481586,30,-33,1038
71842,451798,481596,17,-26,1024
71956,451771,481631,17,-33,1024
72015,451874,481601,25,-28,1032
72133,452058,481777,25,-28,1035
72270,452071,481789,19,-36,1035
72332,452023,481703,39,-36,1035
72415,452157,481785,31,-32,1026
72515,452159,481790,31,-36,1027
72603,452292,481899,26,-32,1027
72656,452363,481835,24,-32,1033
72783,452384,481874,24,-33,1016
72771,452459,481913,30,-27,1016
72939,452483,481934,36,-27,1010
72938,452642,481959,36,-32,1035
72868,452711,482004,29,-36,1035
73213,452677,481891,24,-36,1018
73259,452725,481948,24,-36,1047
73284,452827,482026,21,-27,1047
73353,452849,481993,27,-27,1027
73455,453004,482012,27,-39,1052
73578,452981,482003,27,-37,1052
73547,453088,482027,24,-37,1052
73566,453041,481953,24,-26,1047
73599,453074,482022,24,-31,1041
73745,453299,482107,34,-31,1041
73721,453269,482012,34,-21,1041
73853,453330,482041,30,-33,1030
73994,453330,482074,24,-25,1030
73993,453401,481983,24,-25,1035
74096,453506,482105,18,-27,1046
74245,453585,482160,36,-26,1046
74193,453543,482100,29,-26,1030
74250,453682,482096,29,-34,1033
74307,453744,482197,18,-21,1033
74270,453734,482096,21,-21,1046
73924,453364,481978,21,-25,1029
73590,453165,481871,28,-33,1029
73313,452948,481938,23,-33,1041
73041,452768,481802,23,-30,1033
72748,452548,481613,27,-24,1033
72296,452281,481540,26,-24,1027
72061,452068,481487,26,-32,1035
71723,452002,481381,27,-30,1035
71643,451823,481343,18,-30,1020
71310,451982,481340,18,-26,1020
71135,451614,481304,25,-31,1029
70993,451535,481210,27,-31,1029
70855,451501,481165,27,-28,1024
70769,451398,481164,23,-21,1024
70735,451543,481189,24,-32,1026
70582,451241,481107,24,-32,1027
70463,451306,481104,27,-23,1027
70444,451256,481109,30,-27,1032
70409,451330,481156,18,-27,1032
70472,451341,481244,18,-23,1043
70440,451337,481151,20,-25,1043
70571,451477,481311,27,-25,1026
70679,451608,481316,27,-32,1041
70873,451669,481391,31,-26,1041
70919,451818,481457,24,-26,1026
71074,452047,481477,24,-37,1032
71247,452101,481591,24,-26,1032
71312,452250,481599,25,-26,1005
71421,452217,481671,25,-24,1044
71432,452435,481836,28,-31,1044
71619,452555,481794,27,-31,1024
71717,452629,481893,27,-27,1032
71753,452605,481848,18,-27,1032
71755,452843,481957,27,-35,1026
71835,452973,482129,26,-35,1046
72082,453016,482062,26,-34,1040
72113,452941,482020,35,-34,1040
72165,453101,482112,35,-32,1046
72306,453170,482192,24,-26,1046
72287,453341,482160,26,-21,1047
72535,453309,482224,26,-21,1027
72568,453416,482159,24,-34,1033
72642,453461,482237,24,-24,1033
72660,453508,482286,26,-24,1010
72796,453652,482367,26,-24,1026
73013,453796,482333,26,-27,1026
73010,453891,482409,24,-27,1050
73106,453931,482446,24,-27,1014
73194,453953,482361,21,-33,1014
73228,453953,482487,24,-33,1023
73193,454009,482500,24,-24,1024
73441,454050,482460,25,-30,1024
73549,454081,482446,29,-30,1033
73560,454208,482532,29,-30,1007
73684,454249,482534,24,-32,1007
73783,454384,482480,25,-32,1032
73876,454430,482493,25,-25,1035
73944,454488,482573,29,-24,1030
73997,454514,482491,20,-24,1030
74093,454667,482652,24,-26,1032
74126,454579,482571,24,-25,1032
74191,454696,482579,21,-25,1024
74226,454783,482632,21,-26,1016
74235,454743,482643,33,-30,1029
74346,454937,482869,24,-21,1029
74210,454961,482796,23,-21,1035
74568,454981,482751,23,-24,1032
74707,455127,482793,21,-29,1032
74742,455097,482722,31,-29,1037
74804,455249,482755,31,-30,1027
74908,455326,482931,20,-32,1027
74895,455358,482831,17,-32,1041
75012,455369,482888,17,-27,1020
75017,455401,482892,24,-32,1020
75069,455393,482861,24,-32,1032
75013,455461,482751,24,-27,1026
74563,455071,482675,33,-30,1026
74377,454940,482626,21,-30,1007
74085,454664,482634,21,-24,1033
73785,454472,482420,25,-30,1033
73532,454315,482255,28,-33,1007
72923,453905,482170,28,-33,1023
72774,453706,482018,24,-29,1023
72536,453609,481975,28,-20,1037
72333,453530,482007,28,-20,1029
72244,453475,481875,30,-20,1040
71909,453115,481813,30,-27,1040
71747,453022,481754,36,-27,1038
71676,453051,481757,36,-33,1024
71592,452919,481608,21,-26,1024
71499,452967,481754,23,-26,1024
71350,452884,481663,23,-35,1035
71301,452879,481706,27,-27,1035
71270,452857,481790,29,-27,1030
71298,452892,481720,29,-24,1026
71296,453095,481919,27,-33,1026
71469,452960,481782,24,-33,1035
71475,453058,481769,24,-30,1035
71580,453283,481972,28,-27,1035
71749,453299,481923,30,-27,1035
71845,453370,482013,30,-29,1037
72016,453624,482188,27,-29,1037
72095,453678,482311,27,-29,1029
72111,453744,482227,27,-30,1038
72251,453782,482257,24,-24,1035
72330,453959,482460,30,-24,1035
72415,453909,482450,30,-22,1007
72584,454025,482384,27,-27,1011
72561,454121,482452,26,-23,1011
72718,454265,482654,25,-23,1018
72796,454386,482726,25,-28,1030
72814,454380,482623,25,-33,1030
72944,454576,482717,29,-33,1046
73012,454563,482758,29,-26,1013
73092,454570,482757,24,-27,1013
73100,454675,482852,27,-27,1035
73312,454826,482758,27,-31,1047
73327,454810,482744,35,-27,1047
73349,454856,482800,26,-27,1044
73482,454824,482871,26,-27,1040
73536,455109,482818,27,-28,1040
73749,455223,483009,28,-28,1023
73768,455314,482963,28,-26,1040
73803,455278,483009,24,-27,1040
73937,455390,482993,21,-28,1023
74026,455487,483118,23,-28,1021
74111,455549,483088,23,-30,1018
74168,455630,483119,27,-30,1018
74295,455701,483076,27,-28,1035
74282,455758,483093,23,-28,1035
74396,455901,483204,32,-27,1046
74505,455961,483309,32,-27,1029
74541,456035,483309,24,-25,1021
74644,456014,483282,29,-33,1021
74627,456085,483312,23,-33,1040
74733,456218,483457,23,-30,1027
74657,456241,483364,19,-31,1027
74845,456308,483387,21,-31,1047
74953,456367,483368,21,-27,1037
74931,456397,483509,24,-27,1037
75035,456497,483544,21,-27,1033
75226,456560,483494,21,-27,1040
75265,456580,483559,19,-24,1040
75333,456664,483571,16,-24,1035
75270,456648,483572,16,-35,1033
75397,456700,483583,20,-36,1033
75473,456767,483683,24,-36,1033
75241,456721,483571,24,-29,1026
75171,456554,483593,19,-23,1030
75014,456474,483495,27,-23,1030
74799,456378,483467,23,-25,1038
74403,455988,483258,23,-39,1026
73918,455676,483137,39,-39,1026
73717,455526,483067,39,-17,1023
73466,455354,482923,18,-24,1021
73183,455248,482885,24,-15,1021
73189,455253,482806,27,-15,1032
72743,454849,482716,27,-21,1016
72578,454678,482622,21,-27,1016
72504,454599,482584,21,-27,1014
72405,454708,482589,21,-29,1029
72339,454640,482570,21,-27,1029
72230,454589,482615,30,-27,1023
72192,454467,482619,30,-29,1041
72138,454487,482671,27,-37,1041
72110,454427,482610,24,-37,1030
72029,454535,482535,24,-27,1032
72126,454613,482684,29,-29,1032
72104,454682,482670,21,-29,1029
72193,454780,482763,21,-22,1021
72304,454899,482827,16,-30,1021
72324,455006,483002,27,-30,1035
72629,455275,483041,27,-28,1023
72701,455236,482954,16,-35,1023
72798,455433,483028,16,-24,1046
72919,455508,483100,16,-24,1035
72953,455709,483204,18,-23,1035
73064,455691,483241,20,-33,1035
73085,455790,483322,30,-33,1035
73188,455927,483334,30,-30,1018
73302,455923,483400,26,-26,1018
73036,456171,483425,23,-26,1035
73437,456107,483498,23,-32,1047
73464,456230,483592,27,-25,1047
73573,456281,483612,25,-25,1016
73648,456379,483579,25,-34,1049
73750,456253,483706,30,-32,1049
73846,456587,483784,18,-32,1035
73920,456649,483761,18,-30,1033
73917,456694,483752,28,-28,1033
74019,456827,483817,36,-28,1029
74172,456946,483869,36,-27,1059
74330,456968,483917,27,-33,1059
74338,457102,483982,25,-33,1035
74502,457083,483872,27,-25,1027
74550,457099,483860,27,-29,1033
74643,457215,484070,23,-29,1033
74739,457314,483893,23,-27,1035
74768,457356,484001,26,-30,1035
74803,457371,483980,31,-30,1032
74921,457416,484036,21,-30,1047
74936,457658,484226,21,-24,1026
75119,457614,484051,17,-30,1026
75158,457612,484072,32,-30,1044
75197,457670,484001,32,-24,1043
75273,457792,484090,33,-27,1043
75331,457900,484260,30,-27,1037
75420,457889,484165,30,-30,1032
75502,457898,484182,18,-36,1032
75555,458008,484227,27,-36,1035
75626,458061,484263,27,-27,1049
75698,458156,484323,24,-24,1049
75786,458276,484362,20,-24,1054
75851,458258,484393,20,-31,1035
75889,458401,484412,26,-27,1035
75945,458359,484408,24,-27,1033
76006,458516,484466,24,-34,1029
76106,458564,484513,24,-25,1029
76249,458566,484475,26,-25,1030
76228,458614,484466,26,-24,1029
76262,458700,484575,18,-24,1029
76297,458744,484551,30,-24,1026
76290,458501,484436,21,-27,1037
75906,458401,484287,21,-27,1047
75659,458134,484197,27,-31,1047
75359,457913,484125,20,-31,1044
74984,457798,484050,20,-25,1040
74780,457250,483786,23,-23,1040
74176,457002,483695,27,-23,1010
73949,456829,483629,27,-30,1026
73736,456663,483460,30,-36,1026
73559,456669,483520,25,-36,1044
73334,456291,483270,25,-30,1005
72974,456169,483179,35,-24,1005
72788,455934,483006,30,-24,1035
72732,455836,483137,30,-36,1038
72586,455815,483158,26,-24,1038
72415,455646,483034,21,-24,1032
72248,455497,482832,21,-27,1021
72217,455446,482957,27,-33,1029
72132,455353,482859,24,-26,1029
71980,455300,482861,24,-26,1054
72112,455521,482829,25,-33,1054
72104,455156,482841,35,-26,1056
72026,455315,482773,35,-26,1049
72214,455404,482874,25,-32,1054
72352,455473,482898,39,-29,1054
72400,455599,483043,26,-29,1041
72698,455821,483204,26,-22,1023
72748,455884,483124,25,-24,1023
72912,455999,483235,25,-24,1044
72978,456078,483171,25,-36,1033
73047,456202,483255,21,-26,1033
73242,456375,483435,36,-26,1032
73292,456360,483366,36,-24,1027
73362,456345,483465,39,-24,1027
73382,456480,483459,36,-24,1035
73527,456614,483603,36,-15,1027
73601,456725,483604,36,-29,1027
73759,456838,483617,31,-29,1030
73829,456849,483600,31,-24,1020
73933,456818,483573,39,-26,1020
73967,457034,483777,32,-32,1041
74092,457072,483690,33,-32,1059
74147,457133,483711,33,-28,1024
74198,457244,483705,30,-28,1024
74275,457260,483672,30,-28,1027
74327,457523,483741,41,-24,1027
74548,457382,483775,30,-24,1037
74646,457501,483771,30,-29,1023
74598,457465,483762,30,-24,1040
74754,457491,483706,33,-20,1040
74878,457575,483952,36,-20,1035
74916,457672,483894,36,-21,1027
74978,457737,483893,33,-24,1027
75113,457845,483906,30,-24,1043
75161,457826,483998,30,-30,1052
75319,457914,484032,34,-21,1052
75361,457997,483992,47,-21,1023
75402,458040,484067,47,-20,1021
75488,458100,484097,27,-29,1021
75477,458090,484060,39,-29,1020
75632,458268,484205,39,-30,1032
75803,458304,484268,36,-23,1032
75872,458354,484192,40,-23,1014
75884,458413,484254,40,-27,1029
75976,458507,484252,32,-16,1029
76039,458659,484459,30,-16,1032
76194,458659,484286,31,-24,1033
76209,458680,484449,31,-26,1040
76374,458777,484468,30,-26,1040
76385,458794,484410,45,-21,1014
76506,459037,484513,45,-22,1005
76566,458959,484436,39,-24,1005
76625,458931,484419,37,-24,1041
76688,459017,484532,37,-32,1023
76691,459066,484496,23,-21,1023
76670,459010,484560,42,-21,1020
76342,458830,484409,42,-30,1017
76136,458689,484298,48,-27,1017
75821,458426,484169,32,-27,1021
75542,458238,484048,32,-24,1018
75231,458082,484011,43,-28,1018
74717,457576,483834,37,-28,1046
74432,457307,483832,37,-18,1038
74193,457166,483670,45,-20,1038
73979,457080,483640,39,-20,1037
73822,457079,483581,39,-24,1024
73752,456876,483496,35,-29,1040
73446,456690,483523,43,-29,1040
73199,456701,483432,43,-31,1040
73121,456738,483394,40,-24,1040
72952,456580,483442,40,-28,1040
72912,456471,483408,40,-28,1023
72776,456379,483350,39,-28,1023
72722,456370,483344,28,-20,1035
72554,456273,483352,30,-20,1038
72493,456383,483427,30,-28,1038
72471,456407,483441,44,-27,1038
72669,456429,483475,39,-27,1041
72856,456508,483503,39,-24,1047
72858,456663,483493,38,-32,1047
72994,456747,483531,42,-32,1035
73191,457030,483731,42,-31,1001
73360,457175,483864,34,-26,1001
73402,457178,483901,38,-26,1037
73561,457398,483847,38,-19,1023
73617,457407,483888,36,-24,1023
73695,457596,483939,39,-24,1046
73643,457454,483896,39,-26,1016
73807,457637,483990,36,-26,1035
73916,457741,484097,36,-26,1035
73931,457689,484083,32,-29,1038
73992,457890,484225,32,-17,1027
74147,457935,484203,42,-17,1027
74235,457994,484183,42,-31,1024
74311,458035,484275,40,-24,1033
74334,458078,484317,40,-31,1033
74429,458219,484281,34,-31,1046
74508,458303,484315,34,-22,1024
74580,458342,484372,33,-21,1024
74765,458403,484504,33,-21,1018
74755,458377,484489,33,-24,1035
74851,458531,484523,30,-22,1035
75047,458698,484538,30,-22,1016
75078,458777,484619,30,-27,1010
75128,458801,484547,29,-30,1010
75165,458765,484530,45,-30,1017
75156,459038,484758,45,-22,1013
75410,458944,484690,31,-31,1013
75467,459049,484635,31,-31,1033
75512,459001,484750,31,-25,1030
75708,459122,484801,32,-17,1030
75738,459288,484893,30,-17,1018
75797,459288,485016,30,-21,1008
75905,459394,485052,30,-30,1035
75945,459483,485047,30,-30,1035
76084,459563,485152,30,-24,1035
76101,459746,485237,40,-27,1033
76188,459760,485242,40,-28,1033
76254,459808,485216,39,-28,1026
76373,459859,485221,39,-28,1040
76510,459963,485396,36,-31,1040
76485,460011,485390,42,-31,1024
76644,460024,485373,42,-25,1018
76684,460099,485406,48,-26,1018
76723,460144,485407,31,-26,1040
76811,460166,485456,31,-30,1020
76877,460391,485604,36,-25,1020
76944,460301,485475,35,-25,1017
76856,460282,485430,35,-15,1014
76938,460266,485507,32,-18,1014
76840,460214,485474,36,-18,1024
76727,460302,485499,36,-28,1030
76267,459725,485228,37,-30,1030
75859,459438,485021,35,-30,1026
75608,459224,484924,35,-32,1026
75317,459033,484974,29,-24,1038
74984,458833,484752,39,-24,1038
74424,458368,484464,39,-32,1035
74318,458147,484524,38,-27,1035
74078,458040,484368,25,-24,1024
73810,457930,484343,36,-24,1030
73706,457902,484329,36,-28,1020
73349,457575,484048,32,-25,1020
73286,457525,484238,40,-25,1032
73090,457542,484219,40,-36,1054
73054,457414,484186,32,-27,1054
72886,457358,484250,39,-27,1024
72932,457315,484201,39,-24,1029
72700,457343,484133,40,-27,1029
72723,457309,484238,39,-27,1024
72703,457404,484236,39,-27,1032
72802,457498,484334,31,-25,1032
72870,457612,484419,37,-25,1021
72991,457670,484469,37,-27,1016
73097,457794,484472,31,-21,1016
73205,457907,484506,41,-21,1030
73358,458139,484620,42,-23,1023
73408,458276,484715,42,-28,1023
73629,458287,484804,35,-26,1032
73565,458357,484722,35,-26,1026
73662,458341,484758,29,-21,1035
73787,458545,484899,36,-24,1035
73720,458765,485010,29,-24,1029
73940,458811,484957,29,-30,1027
74035,458810,485105,35,-31,1027
74143,458821,484963,34,-31,1030
74210,458998,485076,34,-31,1038
74321,459213,485182,33,-21,1038
74328,459067,485098,30,-21,1040
74428,459136,485218,30,-22,1038
74454,459213,485200,34,-22,1038
74580,459353,485345,38,-22,1026
74650,459444,485415,38,-22,1043
74832,459493,485379,33,-25,1043
74866,459531,485487,39,-25,1037
74921,459659,485509,39,-22,1030
75041,459785,485497,36,-28,1021
75028,459937,485637,34,-28,1021
75188,460030,485637,28,-26,1011
75358,460018,485709,28,-27,1026
75342,460119,485795,32,-27,1026
75456,460144,485777,32,-30,1023
75533,460269,485879,38,-29,1035
75580,460324,485837,36,-30,1035
75721,460453,485994,29,-30,1024
75733,460421,486018,29,-21,1043
75798,460571,486067,32,-27,1043
75847,460734,486118,33,-27,1030
76038,460687,486110,33,-33,1026
76039,460743,486183,38,-27,1026
76151,460900,486256,36,-27,1047
76155,460909,486207,36,-22,1033
76209,461043,486244,40,-21,1033
76405,461197,486352,46,-21,1032
76487,461261,486401,46,-21,1026
76495,461256,486446,35,-21,1026
76591,461275,486473,27,-21,1041
76637,461361,486537,27,-26,1035
76734,461424,486476,36,-24,1041
76715,461477,486473,37,-24,1041
76720,461525,486549,39,-24,1033
76732,461476,486454,39,-24,1033
76733,461524,486486,35,-24,1052
76236,461175,486360,35,-23,1043
75943,461054,486262,36,-28,1027
75670,460843,486115,42,-27,1027
75302,460662,486131,35,-27,1046
75172,460553,486260,35,-29,1013
74577,460090,485837,40,-25,1013
74355,459970,485793,42,-25,1035
74143,459709,485722,42,-27,1026
73914,459592,485629,40,-21,1026
73763,459583,485711,36,-21,1032
73562,459432,485630,36,-30,1037
73479,459285,485620,30,-29,1037
73329,459211,485420,41,-29,1027
73165,459124,485504,41,-28,1035
73118,459280,485507,38,-24,1035
72909,459092,485457,38,-22,1032
72926,459036,485518,38,-22,1040
72892,459021,485468,32,-24,1040
72913,459069,485571,43,-24,1052
72914,459113,485662,43,-18,1024
73106,459341,485674,34,-24,1024
73212,459421,485718,39,-22,1035
73323,459576,485686,38,-22,1013
73392,459647,485855,38,-31,1037
73489,459849,485895,39,-18,1037
73364,459943,486051,29,-18,1032
73702,459977,486042,29,-25,1037
73766,460043,486144,37,-27,1037
73863,460241,486106,40,-27,1030
73870,460290,486111,40,-21,1018
74066,460470,486255,29,-24,1018
74149,460489,486369,35,-24,1016
74209,460598,486333,35,-30,1033
74223,460530,486353,38,-30,1033
74332,460702,486425,38,-30,1023
74386,460847,486432,38,-21,1018
74469,460893,486514,29,-28,1026
74478,460877,486497,31,-28,1026
74610,460954,486534,31,-27,1035
74685,461063,486725,39,-22,1033
74646,461169,486640,39,-22,1033
74871,461219,486643,39,-30,1026
75021,461355,486660,37,-31,1050
75105,461407,486719,35,-21,1050
75120,461625,486835,39,-21,1007
75304,461570,486872,39,-26,1008
75313,461594,486953,42,-30,1008
75429,461660,486828,39,-30,1030
75482,461763,486944,39,-27,1018
75480,461871,486969,34,-27,1018
75504,461995,487012,43,-27,1016
75708,462004,487046,43,-27,1040
75718,462047,487069,40,-41,1040
75817,462151,487146,34,-41,1033
75854,462210,487246,34,-25,1021
75897,462244,487177,41,-23,1021
76094,462435,487293,39,-30,1018
76094,462343,487161,39,-30,1021
76155,462411,487305,36,-27,1021
76172,462537,487271,39,-18,1014
76314,462607,487364,39,-18,1007
76452,462533,487401,32,-29,1007
76503,462703,487398,41,-22,1032
76472,462791,487408,30,-22,1043
76622,462840,487485,30,-18,1029
76690,462936,487528,38,-25,1029
76801,462964,487556,34,-25,1035
76796,462994,487565,34,-34,1032
76794,463012,487593,37,-27,1032
76676,462900,487452,40,-27,1016
76328,462987,487515,40,-28,1044
76017,462483,487279,36,-23,1044
75746,462165,487093,39,-23,1023
75334,461872,487053,39,-27,1037
75007,461729,486861,32,-24,1037
74755,461499,486873,38,-24,1013
74131,461046,486620,38,-27,1035
73872,460928,486508,30,-27,1035
73551,460576,486420,36,-26,1046
73387,460499,486345,36,-26,1040
73251,460496,486341,42,-23,1040
72860,460091,486095,36,-23,1037
72744,460017,485993,36,-19,1030
72570,459894,485984,28,-27,1021
72457,459744,485969,37,-29,1021
72342,459729,486166,29,-29,1026
72133,459558,485891,29,-20,1040
72081,459572,485851,33,-24,1040
72038,459485,485849,36,-24,1021
72008,459485,485901,36,-28,1014
72046,459779,486087,39,-28,1014
72153,459678,485903,41,-28,1043
72260,459802,485955,41,-23,1032
72510,459897,486123,36,-36,1032
72472,459996,486085,38,-36,1047
72659,460293,486114,38,-23,1016
72928,460279,486243,32,-30,1023
73035,460337,486327,40,-30,1023
73084,460535,486317,40,-22,1007
73125,460576,486397,37,-25,1007
73168,460645,486462,43,-25,1035
73273,460657,486466,39,-24,1027
73372,460768,486457,39,-28,1027
73356,460789,486528,39,-33,1040
73427,460911,486619,37,-33,1041
73563,461062,486749,37,-28,1011
73426,461142,486665,51,-28,1011
73801,461188,486741,42,-28,1035
73809,461288,486751,42,-31,1029
73955,461360,486798,32,-28,1029
74040,461501,486999,37,-28,1041
74166,461497,486954,37,-24,1037
74304,461572,486955,29,-30,1037
74334,461723,487060,39,-30,1020
74445,461770,487123,39,-26,1043
74499,461969,487168,32,-35,1043
74520,462031,487273,39,-35,1035
74741,462129,487170,39,-24,1005
74797,462217,487316,34,-26,1005
74845,462327,487409,42,-26,1046
74878,462338,487412,39,-29,1033
74798,462376,487392,39,-31,1033
75123,462398,487411,33,-27,1026
75204,462576,487462,33,-27,1023
75275,462710,487485,42,-27,1035
75291,462781,487486,42,-32,1035
75487,462861,487620,36,-32,1035
75487,462827,487484,36,-27,1017
75530,462777,487539,36,-24,1017
75659,462835,487548,37,-24,1040
75632,463031,487528,37,-27,1029
75753,463197,487680,32,-27,1029
75838,463077,487626,36,-27,1014
75900,463101,487650,36,-36,1020
75991,463290,487856,42,-27,1020
76051,463291,487862,37,-27,1035
76087,463412,487844,37,-30,1033
76175,463412,487792,31,-27,1026
76260,463405,487809,37,-27,1026
76376,463529,487903,37,-25,1033
76340,463619,487887,29,-27,1035
76409,463646,487907,35,-27,1035
76477,463630,487939,35,-30,1035
76345,463560,487908,39,-18,1030
76272,463503,487873,32,-27,1030
76052,463410,487724,35,-27,1020
75869,463229,487661,35,-24,1035
75129,462735,487397,30,-27,1035
74726,462534,487330,31,-27,1040
74440,462235,487128,31,-31,1016
74090,461913,487069,30,-31,1016
73703,461871,487111,30,-31,1032
73372,461418,486776,30,-30,1023
73154,461264,486710,38,-25,1023
72987,461070,486688,32,-25,1060
72833,461012,486531,32,-30,1037
72724,460978,486671,36,-25,1037
72286,460658,486441,45,-25,1014
72153,460714,486446,45,-26,1035
72051,460671,486384,32,-32,1035
71828,460595,486336,35,-29,1035
71816,460709,486390,35,-29,1035
71742,460375,486203,36,-21,1035
71646,460318,486240,41,-21,1029
71634,460301,486125,41,-35,1035
71597,460400,486248,38,-27,1024
71721,460562,486501,40,-23,1024
71906,460697,486481,32,-23,1044
71972,460842,486598,32,-27,1007
72147,461007,486544,37,-23,1007
72331,461167,486721,41,-23,1030
72337,461492,486892,41,-36,1026
72517,461465,486748,36,-28,1026
72666,461629,486855,39,-28,1020
72693,461694,486982,39,-28,1023
72841,461769,487041,40,-29,1023
72894,461935,487092,39,-29,1033
72978,461973,487083,39,-24,1032
73045,462087,487112,32,-30,1032
73120,462225,487137,24,-30,1032
73191,462204,487120,24,-24,1050
73317,462294,487386,35,-25,1050
73416,462422,487379,38,-24,1026
73506,462551,487343,38,-24,1037
73493,462525,487333,39,-28,1021
73682,462567,487349,24,-27,1021
73715,462747,487550,36,-27,1052
73759,462872,487553,36,-23,1032
73941,462928,487578,37,-28,1032
74037,463027,487639,27,-28,1021
74117,463149,487672,27,-24,1023
74096,463283,487848,38,-28,1023
74296,463340,487821,39,-28,1005
74405,463421,487913,39,-32,1021
74400,463457,487900,36,-30,1021
74585,463507,487860,36,-30,1024
74620,463765,488092,36,-24,1046
74725,463840,488026,40,-30,1046
74797,463844,488080,33,-30,1024
74915,463922,488162,33,-27,1035
74985,463884,488172,30,-22,1050
75069,464085,488351,28,-22,1050
74915,464172,488287,34,-21,1033
75115,464244,488231,34,-28,999
75214,464311,488336,33,-28,999
75345,464438,488381,33,-29,1032
75367,464420,488376,35,-24,1030
75488,464549,488349,27,-20,1030
75633,464652,488408,36,-20,1023
75687,464735,488538,36,-25,1030
75617,464719,488463,30,-31,1030
75712,464828,488488,36,-31,1047
75859,464932,488507,36,-32,1026
75855,464850,488502,30,-25,1026
75994,464880,488518,41,-25,1032
76036,465043,488490,41,-21,1032
76076,465049,488514,36,-27,1032
76177,465097,488585,35,-27,1020
75988,465036,488657,35,-30,1035
75818,464882,488522,28,-21,1035
75624,464738,488457,27,-21,1010
75311,464616,488382,36,-25,1043
75015,464536,488133,36,-22,1043
74319,463914,487951,39,-28,1014
74086,463659,487847,39,-28,1060
73704,463313,487683,37,-30,1037
73535,463271,487719,38,-27,1037
73301,463083,487595,39,-27,1029
72854,462605,487384,39,-33,1035
72709,462569,487308,35,-33,1035
72433,462394,487254,37,-33,1041
72353,462221,487147,37,-25,1035
72213,462427,487332,38,-27,1035
71913,462031,487052,37,-27,1033
71955,461942,486922,37,-24,1026
71749,461743,486936,37,-25,1026
71660,461737,486909,36,-25,1035
71684,461865,486972,36,-24,1033
71583,461867,486910,38,-26,1033
71670,461715,486973,27,-26,1027
71614,461772,486974,33,-28,1044
71726,461889,487014,33,-30,1043
71861,462074,487157,38,-30,1043
72196,462292,487273,38,-21,1038
72288,462479,487272,33,-31,1038
72359,462535,487320,35,-31,1026
72431,462655,487362,35,-26,1035
72579,462807,487586,33,-34,1050
72750,463118,487624,39,-21,1050
72938,463147,487720,41,-21,1041
72812,463077,487734,41,-28,1030
72943,463237,487773,38,-30,1030
73091,463478,487967,40,-30,1035
73182,463580,487973,40,-32,1038
73246,463640,487979,31,-26,1038
73358,463668,487968,35,-26,1041
73460,463793,488016,35,-23,1035
73412,464055,488137,28,-25,1035
73626,464131,488163,30,-25,1014
73746,464138,488295,30,-30,1026
73821,464149,488203,36,-20,1030
73956,464230,488320,28,-20,1030
73969,464461,488451,28,-24,1016
74132,464582,488500,38,-24,1016
74275,464702,488528,37,-27,1032
74262,464751,488490,37,-27,1050
74354,464824,488584,29,-27,1050
74439,464943,488770,32,-25,1014
74567,465077,488863,34,-25,1026
74608,465205,488883,34,-28,1030
74746,465277,488836,36,-31,1030
74817,465387,488882,41,-31,1027
74876,465420,489013,41,-32,1030
74990,465552,488984,39,-28,1030
75071,465514,489005,27,-28,1040
75166,465667,489030,27,-28,1038
75232,465708,489016,30,-30,1038
75214,465828,489142,32,-30,1046
75325,465911,489142,32,-30,1037
75510,465963,489233,38,-27,1037
75471,465991,489149,39,-27,1037
75530,466039,489227,39,-30,1027
75590,466183,489284,33,-29,1027
75491,466373,489352,38,-29,1035
75804,466349,489311,32,-27,1033
75833,466312,489331,32,-30,1033
75960,466380,489312,32,-32,1029
75998,466567,489306,32,-32,1049
75981,466645,489401,37,-29,1027
76054,466627,489445,31,-23,1027
76185,466690,489432,36,-23,1040
76138,466693,489417,36,-27,1033
76109,466638,489398,39,-27,1033
76027,466693,489413,30,-27,1043
75503,466110,489126,30,-28,1035
75191,465869,489054,27,-30,1035
74881,465586,488899,30,-30,1035
74581,465245,488797,30,-24,1040
74273,465078,488526,36,-31,1040
73652,464664,488371,30,-31,1038
73668,464483,488282,30,-27,1038
73540,464356,488295,30,-25,1038
73417,464158,488207,29,-25,1035
73181,464166,488121,29,-24,1037
73066,463905,488032,29,-25,1021
72885,463788,487988,40,-25,1021
72811,463704,487931,27,-29,1043
72737,463693,487869,27,-28,1043
72675,463753,487971,34,-28,1032
72619,463620,487985,34,-30,1046
72495,463499,487871,34,-31,1030
72543,463427,487967,39,-28,1030
72516,463590,487869,28,-28,1043
72573,463875,488013,28,-25,1054
72687,463849,488113,33,-30,1054
72896,463966,488120,35,-30,1027
72998,464106,488187,35,-32,1037
73130,464134,488161,29,-30,1037
73273,464392,488335,33,-30,1056
73469,464495,488404,33,-24,1024
73547,464612,488426,36,-24,1024
73616,464612,488411,34,-24,1026
73723,464707,488546,34,-25,1040
73718,464873,488599,31,-27,1040
73871,464885,488621,38,-28,1029
73933,465046,488680,39,-28,1037
74058,465058,488768,39,-25,1037
74193,465196,488721,40,-25,1024
74166,465279,488827,32,-25,1040
74427,465358,488865,32,-20,1035
74447,465483,488972,37,-20,1035
74548,465640,489002,36,-25,1024
74587,465740,488982,36,-40,1032
74570,465882,489269,36,-27,1032
74812,465961,489148,35,-27,1030
74855,465939,489206,35,-29,1038
75062,466026,489268,30,-24,1038
75059,466141,489270,37,-24,1026
75157,466302,489455,37,-23,1030
75317,466341,489380,31,-23,1030
75318,466471,489412,36,-23,1024
75378,466486,489448,36,-28,1030
75493,466525,489457,36,-29,1030
75507,466668,489558,38,-29,1030
75648,466680,489549,38,-19,1027
75675,466822,489559,36,-24,1027
75758,466856,489605,36,-26,1030
75804,466975,489734,36,-26,1023
75973,466968,489740,33,-32,1023
75969,467026,489696,33,-32,1056
75972,467100,489694,33,-24,1035
76168,467210,489731,40,-27,1037
76230,467208,489796,38,-28,1037
76218,467277,489889,36,-28,1041
76418,467379,489986,36,-30,1044
76533,467502,490061,34,-27,1044
76535,467461,489929,35,-27,1035
76616,467585,490091,35,-24,1002
76748,467773,490208,39,-32,1002
76803,467756,490094,36,-32,1040
76858,467861,490113,36,-33,1021
76845,467811,490035,32,-31,1021
76734,467754,490073,40,-31,1020
76636,467781,490098,40,-22,1020
76338,467344,489888,34,-30,1020
75937,467104,489695,33,-30,1016
75507,466746,489538,33,-24,1027
75205,466549,489428,33,-28,1027
74968,466332,489394,36,-28,1038
74593,465803,489060,36,-29,1035
74141,465643,488828,21,-28,1043
73893,465393,488864,28,-28,1043
73727,465312,488774,30,-26,1040
73625,465075,488710,30,-27,1021
73471,465151,488612,26,-30,1021
73174,464827,488625,30,-30,1040
72991,464702,488616,30,-36,1032
72940,464635,488489,33,-27,1032
72902,464684,488342,37,-27,1049
72802,464617,488443,37,-32,1023
72665,464477,488491,33,-25,1023
72650,464344,488411,33,-25,1041
72587,464425,488414,33,-29,1016
72590,464434,488462,34,-34,1016
72648,464602,488557,30,-34,1024
72810,464728,488543,30,-32,1017
72976,464812,488603,33,-27,1017
73100,465016,488701,35,-24,1020
73234,465160,488893,35,-24,1017
73412,465340,489055,32,-30,1053
73688,465628,489113,29,-30,1053
73721,465619,489091,29,-23,1010
73918,465711,489136,36,-31,1017
73942,465748,489164,27,-27,1017
73939,466023,489273,39,-27,1038
74097,465983,489271,39,-20,1038
74174,466028,489363,33,-29,1038
74278,466106,489423,33,-29,1038
74388,466216,489456,33,-27,1027
74508,466411,489458,36,-21,1027
74582,466447,489524,33,-21,1027
74595,466457,489620,33,-26,1054
74707,466552,489535,37,-38,1054
74733,466640,489591,38,-38,1021
74907,466751,489782,38,-27,1030
74973,466937,489771,29,-28,1030
75090,466850,489780,38,-18,1026
75200,467115,489811,38,-18,1040
75309,467135,489934,36,-22,1040
75332,467216,489919,34,-22,1030
75584,467339,490048,31,-33,1037
75629,467371,490074,31,-25,1037
75696,467510,490129,41,-28,1029
75700,467520,490227,31,-28,1038
75829,467584,490230,31,-24,1038
75946,467712,490178,38,-28,1038
75943,467700,490160,34,-28,1018
76037,467751,490198,34,-36,1023
76084,467774,490126,30,-29,1023
76154,467991,490179,36,-29,1026
76310,467916,490147,36,-31,1021
76335,467971,490154,35,-31,1021
76396,467986,490254,36,-31,1035
76535,468021,490183,36,-36,1041
76489,468099,490217,36,-25,1041
76612,468220,490211,32,-25,1040
76674,468238,490286,32,-27,1026
76715,468268,490267,35,-27,1029
76713,468290,490336,35,-27,1029
76832,468468,490378,36,-24,1020
76912,468485,490467,36,-27,1057
77014,468537,490574,39,-27,1057
77092,468612,490457,39,-30,1024
77151,468622,490491,32,-21,1043
77126,468769,490639,30,-21,1043
77242,468713,490497,24,-21,1020
77136,468673,490419,24,-27,1024
77077,468532,490393,33,-19,1024
76802,468334,490276,33,-19,1037
76560,468143,490231,33,-29,1026
76250,467565,489796,36,-24,1026
75545,467254,489673,33,-24,1032
75239,467000,489585,33,-28,1057
74826,466757,489561,28,-22,1057
74587,466622,489311,36,-22,1033
74416,466176,489199,36,-24,1014
73935,465915,489067,32,-24,1014
73804,465772,488909,34,-30,1035
73600,465591,488777,34,-30,1023
73492,465518,488881,35,-28,1023
73301,465290,488850,35,-28,1035
73091,465239,488671,33,-22,1033
72955,465138,488606,33,-33,1040
72880,465048,488619,36,-33,1040
72767,465135,488620,36,-30,1041
72791,465045,488577,36,-33,1037
72660,464994,488562,36,-30,1037
72655,464948,488590,30,-30,1044
72580,465005,488530,30,-27,1017
72671,465078,488622,37,-29,1017
72829,465232,488813,30,-29,1030
73045,465470,488772,30,-26,1014
73272,465683,488920,30,-27,1014
73449,465662,488965,35,-27,1035
73561,465921,489011,35,-28,1033
73638,466215,489227,39,-25,1033
73890,466224,489177,37,-25,1033
73932,466401,489292,37,-26,1030
73986,466418,489318,36,-27,1030
74071,466617,489420,30,-27,1020
74197,466801,489571,30,-27,1044
74356,466719,489497,36,-27,1044
74331,466899,489524,33,-29,1029
74453,467022,489667,33,-29,1049
74556,466928,489686,31,-30,1027
74655,467320,489825,33,-24,1027
74710,467185,489828,33,-24,1029
74918,467275,489842,33,-30,1035
74914,467373,489862,34,-24,1035
75054,467512,490030,28,-24,1035
75033,467723,490098,28,-32,1029
75294,467642,490099,32,-31,1029
75345,467705,490116,30,-31,1057
75468,467813,490122,30,-24,1032
75522,467963,490110,27,-36,1032
75702,467963,490267,30,-36,1038
75760,468098,490208,30,-33,1023
75782,468177,490284,31,-34,1023
75874,468146,490321,33,-34,1040
76044,468311,490303,30,-27,1038
76090,468507,490451,30,-26,1033
76193,468537,490449,38,-26,1033
76188,468579,490464,38,-36,1037
76393,468592,490537,30,-26,1037
76437,468755,490526,31,-28,1026
76500,468902,490776,33,-28,1026
76572,468962,490539,33,-27,1023
76625,469005,490603,35,-27,1023
76717,469053,490722,36,-27,1038
76813,469063,490782,36,-33,1035
76812,469295,490945,34,-21,1035
76932,469211,490706,34,-21,1017
77026,469271,490849,34,-27,1021
77064,469352,490842,36,-27,1021
77124,469359,490753,29,-27,1010
77130,469506,490812,29,-23,1020
77336,469561,490944,25,-29,1020
77353,469526,490888,35,-29,1030
77474,469694,490933,35,-27,1024
77491,469744,490973,30,-30,1033
77545,469739,491020,33,-30,1033
77605,469798,490950,28,-27,1029
77660,469810,491002,28,-28,1029
77558,469685,490906,33,-28,1014
77478,469564,490935,39,-23,1041
77202,469459,490864,39,-27,1038
76826,468956,490560,32,-30,1038
76321,468741,490338,23,-30,1035
75972,468461,490208,23,-27,1023
75582,468133,490052,29,-27,1023
75334,467953,489951,30,-27,1038
75061,467402,489735,30,-29,1035
74548,467194,489645,32,-24,1035
74373,466973,489481,36,-24,1023
74173,466927,489493,36,-23,1032
74028,466915,489449,39,-25,1032
73932,466615,489352,24,-25,1035
73631,466614,489288,24,-24,1024
73561,466447,489227,30,-28,1024
73408,466406,489170,30,-21,1016
73341,466439,489239,39,-21,1035
73106,466313,489216,39,-23,1035
73204,466296,489150,33,-23,1029
73170,466238,489126,33,-32,1013
73170,466326,489186,33,-26,1013
73176,466394,489144,26,-26,1032
73318,466655,489336,36,-24,1014
73409,466676,489272,36,-21,1040
73575,466664,489341,33,-23,1040
73646,466902,489403,27,-23,1026
73850,467080,489492,27,-32,1029
74000,467361,489697,39,-32,1029
74207,467430,489716,33,-32,1037
74399,467602,489782,33,-30,1044
74533,467624,489724,29,-30,1044
74496,467641,489748,30,-30,1004
74575,467894,489908,30,-27,1026
74746,467837,489955,33,-26,1026
74795,468012,489953,34,-26,1017
74817,467960,489939,34,-30,1043
74845,468026,490043,27,-26,1043
74975,468096,490159,39,-26,1035
75080,468307,490173,28,-26,1037
75252,468414,490274,28,-29,1011
75263,468367,490154,35,-29,1011
75331,468533,490208,35,-32,1026
75526,468727,490359,32,-33,1024
75582,468684,490410,27,-23,1024
75679,468840,490486,28,-23,1035
75745,468903,490521,28,-30,1032
75867,469009,490612,30,-28,1032
75857,469277,490659,28,-28,1026
76083,469313,490681,28,-35,1046
76157,469235,490740,31,-27,1046
76230,469332,490726,35,-27,1038
76335,469283,490686,35,-32,1057
76502,469411,490689,34,-27,1057
76449,469500,490747,30,-27,1043
76615,469553,490753,30,-29,1037
76670,469630,490917,28,-28,1037
76632,469637,490748,39,-28,1020
76748,469843,490886,39,-21,1026
76930,469843,490912,31,-30,1026
76966,469912,491037,29,-26,1032
77014,469915,490917,29,-26,1046
77185,470093,491132,27,-27,1046
77145,470155,491193,36,-30,1026
77229,470195,491008,28,-30,1023
77284,470167,491033,28,-27,1043
77430,470167,491065,35,-21,1043
77451,470233,491163,29,-21,1027
77431,470464,491197,29,-26,1035
77573,470399,491090,30,-24,1035
77661,470508,491175,33,-24,1027
77714,470549,491289,33,-27,1007
77870,470568,491207,25,-27,1007
77840,470790,491264,28,-27,1027
77929,470687,491392,28,-21,1024
77972,470652,491222,40,-24,1024
78060,470738,491223,30,-24,1040
78043,470750,491289,30,-31,1024
77888,470663,491300,32,-27,1024
77586,470364,491111,31,-28,1017
77349,470161,491032,31,-28,1023
77046,469977,490798,32,-26,1023
76584,469599,490652,28,-26,1032
76257,469366,490591,28,-28,1020
75782,468790,490249,36,-27,1021
75336,468563,490150,33,-27,1021
75053,468437,490079,28,-27,1035
74884,468147,489981,28,-24,1040
74708,468070,489918,30,-24,1040
74629,467808,489853,30,-24,1017
74243,467661,489729,30,-27,1035
74208,467654,489686,30,-29,1035
74093,467568,489635,33,-29,1023
73941,467519,489670,33,-32,1029
73880,467405,489533,27,-18,1029
73776,467404,489500,28,-18,1013
73654,467327,489491,28,-23,1035
73656,467330,489551,35,-24,1035
73597,467355,489497,21,-30,1024
73533,467475,489613,21,-30,1041
73842,467465,489628,26,-24,1041
73989,467555,489609,27,-24,1026
74082,467796,489727,29,-22,1041
74188,467940,489882,29,-23,1035
74489,468277,490099,36,-30,1035
74626,468282,490095,37,-30,1029
74780,468418,490146,37,-24,1013
74848,468468,490144,33,-28,1013
74986,468583,490090,34,-28,1014
75033,468846,490251,34,-29,1007
75179,468767,490359,30,-30,1007
75224,468922,490301,32,-30,1018
75311,468867,490355,32,-24,1020
75406,468922,490416,36,-27,1020
75524,469223,490609,33,-27,1047
75658,469145,490501,33,-30,1021
75694,469283,490616,25,-27,1035
75787,469306,490667,38,-27,1035
75874,469323,490703,30,-27,1027
75960,469532,490790,30,-23,1033
76145,469565,490881,38,-30,1033
76145,469693,490833,38,-30,1032
76254,469696,490889,32,-26,1017
76390,469887,491000,37,-26,1017
76412,469939,491148,39,-26,1037
76585,470006,491096,39,-24,1033
76637,470106,491212,30,-30,1033
76761,470069,491186,28,-30,1032
76836,470277,491244,28,-27,1023
76808,470613,491494,28,-29,1023
77136,470495,491360,31,-29,1026
77140,470622,491422,31,-24,1027
77188,470553,491392,37,-27,1027
77342,470627,491432,40,-27,1029
77395,470792,491530,40,-30,1027
77401,470806,491469,27,-30,1027
77492,470757,491522,29,-26,1027
77580,470875,491513,29,-26,1018
77583,470902,491469,34,-28,1018
77625,471064,491565,36,-28,1035
77782,471109,491680,30,-23,1030
77870,471158,491694,30,-22,1030
77947,471112,491611,35,-28,1035
77966,471187,491670,31,-28,1024
78028,471275,491844,31,-27,1021
78312,471360,491830,28,-32,1021
78294,471358,491853,36,-32,1035
78345,471493,491817,36,-27,1023
78429,471496,491835,24,-32,1023
78456,471677,491984,34,-32,1035
78353,471488,491772,34,-22,1026
78322,471458,491739,32,-30,1026
78082,471218,491717,31,-30,1032
77840,470989,491661,31,-27,1023
77460,470948,491481,35,-22,1023
76829,470194,491184,33,-22,1020
76472,469902,491044,33,-31,1024
76174,469633,490936,31,-34,1024
75988,469413,490753,36,-23,1037
75709,469207,490785,36,-23,1027
75198,468872,490386,33,-30,1030
75117,468806,490472,41,-30,1030
75033,468630,490385,41,-32,1038
74896,468565,490328,35,-23,1035
74753,468517,490234,37,-27,1035
74570,468392,490208,33,-27,1043
74535,468261,490200,33,-28,1027
74477,468246,490142,30,-24,1027
74320,468181,490145,31,-24,1029
74314,468244,490244,31,-33,1043
74315,468173,490286,40,-29,1043
74378,468323,490274,31,-29,1040
74474,468265,490213,31,-27,1016
74480,468406,490288,32,-24,1016
74660,468611,490437,28,-24,1046
74826,468726,490470,28,-28,1037
75053,468885,490552,37,-28,1037
75111,469006,490537,26,-28,1016
75171,469003,490702,26,-27,1043
75422,469252,490766,41,-28,1043
75322,469467,490850,30,-25,1043
75605,469454,490917,30,-25,1023
75718,469466,490788,29,-27,1023
75865,469596,490963,26,-27,1029
75905,469743,491072,26,-24,1030
76019,469812,491058,30,-34,1029
76013,469848,491036,36,-33,1029
76159,469971,491045,27,-33,1018
76163,469961,491187,27,-35,1026
76303,470004,491142,32,-30,1026
76373,470265,491314,24,-30,1021
76444,470226,491376,24,-28,1011
76578,470295,491354,32,-27,1011
76710,470414,491444,30,-27,1035
76674,470409,491412,30,-26,1041
76874,470562,491480,30,-35,1041
77010,470648,491526,32,-35,1038
77132,470759,491676,32,-30,1032
77146,470777,491604,30,-30,1021
77267,470939,491686,29,-30,1021
77372,471271,491855,29,-32,1029
77551,471097,491885,31,-35,1029
77615,471222,491914,34,-27,1023
77691,471198,491890,34,-27,1052
77741,471247,492024,28,-27,1035
77822,471438,491994,27,-27,1035
77911,471531,492074,23,-27,1035
77952,471588,492052,23,-21,1030
78097,471582,492118,31,-31,1030
78161,471637,492118,26,-31,1035
78248,471732,492275,26,-27,1029
78360,471646,492213,29,-25,1029
78425,471784,492228,27,-25,1033
78427,471891,492238,27,-27,1040
78522,471890,492239,34,-25,1040
78620,472045,492538,27,-25,1024
78805,472009,492330,27,-33,1041
78730,472003,492352,34,-27,1041
78889,472122,492454,35,-27,1050
78904,472187,492459,24,-30,1035
78977,472311,492450,24,-33,1035
79045,472376,492540,30,-33,1027
79093,472373,492518,21,-38,1014
79247,472462,492572,21,-29,1014
79263,472487,492571,27,-36,1027
79317,472534,492604,34,-36,1020
79200,472433,492502,34,-31,1040
79029,472189,492466,31,-34,1040
78824,471993,492282,34,-34,1023
78407,471745,492255,34,-35,1043
78038,471590,492287,38,-32,1043
77385,470896,491773,30,-32,1027
76963,470545,491528,30,-31,1021
76761,470322,491479,27,-27,1021
76442,470091,491384,33,-27,1029
76193,469864,491356,33,-34,1027
75816,469451,491095,40,-24,1027
75569,469331,490928,33,-24,1037
75442,469256,490892,33,-29,1032
75298,469061,490797,32,-29,1035
75183,468988,490898,31,-29,1035
75027,468792,490761,29,-26,1044
74880,468723,490724,29,-26,1044
74778,468663,490677,40,-26,1033
74832,468629,490677,40,-29,1027
74736,468704,490747,21,-34,1014
74733,468578,490707,30,-22,1014
74733,468611,490663,30,-22,1047
74731,468628,490743,30,-30,1035
74880,468769,490830,35,-26,1035
74897,468794,490890,32,-26,1035
75070,469068,491129,32,-27,1040
75370,469250,490959,31,-21,1040
75509,469356,491181,35,-21,1024
75679,469549,491180,35,-27,1030
75781,469639,491378,35,-32,1030
75951,469876,491429,37,-32,1052
76021,469955,491572,37,-28,1050
76184,470044,491563,23,-33,1050
76231,470040,491528,36,-33,1035
76274,470125,491616,37,-21,1032
76364,470254,491653,37,-25,1032
76501,470328,491722,24,-25,1024
76589,470327,491735,24,-28,1024
76625,470371,491728,30,-30,1027
76766,470426,491955,33,-21,1027
76686,470635,491963,30,-21,1021
76921,470663,492011,30,-30,1044
77040,470643,492000,32,-31,1044
77157,470833,492037,34,-31,1038
77204,470935,492139,34,-31,1046
77382,471138,492277,37,-23,1046
77510,471073,492283,36,-23,1017
77540,471186,492306,36,-29,1035
77601,471308,492369,27,-27,1035
77673,471382,492366,31,-27,1024
77817,471457,492403,31,-29,1026
78026,471528,492522,35,-24,1026
78065,471647,492711,35,-27,1024
78081,471632,492681,35,-27,1047
78188,471652,492632,26,-35,1027
78343,471737,492666,33,-35,1027
78381,471854,492685,33,-30,1035
78455,471857,492741,30,-27,1037
78527,471942,492787,30,-29,1037
78587,472017,492772,29,-29,1050
78675,472098,492982,29,-32,1024
78857,472154,492918,41,-28,1024
78937,472258,492889,30,-28,1030
78884,472273,493059,30,-34,1033
78993,472362,493046,36,-35,1033
79068,472560,493084,35,-35,1030
79162,472545,493137,35,-28,1041
79255,472593,493114,31,-29,1041
79295,472555,493110,39,-29,1044
79385,472573,493270,39,-27,1035
79204,472841,493250,31,-27,1035
79532,472678,493273,27,-27,1047
79765,472747,493250,32,-35,1016
79734,472912,493423,32,-30,1016
79830,472947,493448,36,-30,1030
79969,473052,493551,36,-25,1035
79971,473085,493452,35,-23,1021
79975,473062,493519,29,-34,1021
79955,473049,493359,32,-34,1026
79881,472938,493388,32,-32,1029
79771,472987,493370,34,-28,1029
79225,472282,493154,30,-28,1029
78705,472037,492885,30,-28,1023
78356,471740,492795,35,-30,1023
78011,471378,492535,30,-30,1047
77669,471114,492670,30,-27,1017
77085,470544,492135,30,-30,1017
76930,470403,492121,28,-30,1020
76830,470228,491985,28,-32,1049
76570,470100,491973,26,-27,1040
76377,470186,492083,37,-25,1040
76072,469734,491696,37,-25,1035
75975,469671,491652,29,-25,1035
75889,469551,491649,36,-30,1032
75736,469526,491730,36,-30,1037
75622,469624,491737,24,-23,1040
75531,469391,491615,31,-33,1040
75430,469478,491731,38,-33,1027
75419,469424,491664,38,-32,1043
75413,469377,491588,34,-22,1043
75410,469443,491614,39,-22,1040
75486,469476,491764,39,-24,1035
75593,469602,491683,24,-31,1035
75704,469744,491801,30,-31,1018
75802,469895,491824,30,-27,1044
75998,470074,491959,24,-28,1044
75992,470272,492108,28,-28,1030
76341,470332,492139,28,-29,1035
76455,470399,492182,31,-30,1035
76596,470618,492264,39,-30,1002
76703,470693,492450,38,-36,1040
76697,470837,492444,38,-27,1024
76872,470856,492468,29,-27,1024
76851,470960,492455,29,-36,1046
76992,470965,492522,33,-23,1029
76954,471058,492683,31,-28,1029
77106,471135,492551,37,-28,1017
77164,471280,492720,37,-36,1047
77351,471283,492683,28,-25,1047
77349,471341,492672,31,-25,1046
77398,471503,492796,31,-28,1024
77418,471688,492930,29,-36,1024
77669,471722,492901,27,-36,1030
77791,471824,493018,27,-32,1030
77852,471874,493097,27,-30,1030
77895,471975,493003,31,-30,1033
78006,472126,493212,31,-21,1038
78125,472122,493159,30,-24,1038
78153,472171,493202,28,-24,1044
78286,472238,493218,33,-29,1024
78407,472301,493280,33,-23,1024
78473,472669,493513,33,-23,1038
78558,472566,493523,36,-27,1026
78690,472577,493452,36,-34,1026
78768,472633,493524,31,-30,1017
78820,472728,493555,33,-30,1029
78946,472888,493695,33,-35,1024
79091,472923,493687,31,-30,1024
79017,472914,493682,36,-30,1037
79160,472974,493672,36,-30,1044
79207,473081,493674,38,-30,1044
79263,473196,493718,30,-30,1033
79358,473134,493823,30,-31,1026
79380,473212,493816,27,-23,1026
79467,473324,493784,24,-23,1017
79430,473351,493771,24,-31,1024
79584,473490,493971,27,-24,1024
79654,473553,493932,28,-24,1023
79762,473555,493946,28,-32,1038
79804,473608,494008,30,-24,1035
79897,473682,494040,32,-24,1035
79933,473884,494165,31,-30,1018
80037,473863,494089,31,-30,1018
80169,473904,494103,31,-30,1041
80289,474039,494107,34,-30,1046
80313,473951,494073,34,-22,1032
80365,474156,494186,38,-28,1032
80096,473849,494082,27,-28,1026
79876,473644,493920,27,-25,1024
79598,473399,493897,28,-24,1024
79190,473173,493756,32,-24,1027
78884,472938,493640,32,-25,1033
78080,472266,493213,20,-35,1033
77824,472011,493249,38,-35,1027
77504,471834,492988,38,-30,1027
77262,471516,492783,31,-19,1027
77040,471352,492793,30,-19,1026
76636,470980,492624,30,-30,1035
76381,470793,492480,27,-33,1035
76312,470720,492416,31,-30,1029
76110,470573,492386,31,-30,1043
76077,470644,492531,29,-32,1043
75778,470353,492321,34,-32,1056
75698,470305,492335,34,-28,1024
75662,470213,492299,29,-29,1041
75499,470266,492210,38,-26,1041
75467,470402,492402,21,-26,1026
75458,470238,492373,21,-32,1037
75418,470316,492362,27,-21,1037
75532,470340,492275,39,-21,1020
75604,470440,492331,39,-30,1032
75750,470604,492397,34,-25,1032
75942,470824,492477,37,-25,1035
76023,470935,492523,37,-26,1024
76210,471072,492611,15,-32,1024
76273,471240,492723,31,-32,1023
76445,471300,492867,31,-24,1040
76537,471505,492880,34,-27,1040
76583,471450,492875,39,-27,1024
76721,471535,492789,30,-25,1035
76734,471621,492952,30,-25,1035
76820,471718,493029,30,-25,1033
76696,471761,493094,34,-24,1017
76920,471838,493062,34,-29,1040
77095,471830,493132,30,-29,1040
77110,472010,493185,29,-30,1038
77176,472007,493210,29,-30,1037
77349,472219,493235,33,-27,1037
77404,472250,493218,27,-27,1027
77385,472269,493267,27,-28,1040
77480,472400,493363,27,-30,1040
77572,472559,493465,27,-30,1030
77615,472637,493464,27,-30,1021
77802,472642,493492,32,-30,1021
77689,472687,493550,28,-30,1030
77951,472797,493625,28,-29,1001
77982,472851,493624,27,-28,1001
77909,472946,493730,37,-28,1049
78259,472965,493708,37,-34,1035
78296,473054,493742,35,-30,1035
78277,473082,493768,34,-30,1047
78408,473169,493741,30,-36,1053
78548,473208,493866,30,-21,1053
78468,473272,493840,36,-27,1005
78615,473233,493830,36,-27,1024
78601,473385,493910,29,-29,1016
78690,473353,493928,36,-29,1016
78747,473690,493963,35,-29,1040
78879,473605,494051,35,-24,1013
78916,473618,494069,30,-30,1013
78962,473665,494054,29,-30,1024
79001,473668,494122,29,-31,1007
79098,473804,494145,26,-25,1007
79321,473999,494171,37,-25,1027
79221,473964,494112,37,-30,1037
79304,473984,494099,25,-31,1037
79447,474007,494245,33,-31,1029
79486,474150,494232,33,-27,1029
79586,474162,494233,35,-27,1029
79520,474111,494206,30,-27,1024
79522,474091,494258,30,-33,1041
79276,473885,494093,29,-31,1041
79054,473865,493903,36,-30,1027
78405,473253,493735,36,-30,1033
78041,472922,493686,35,-24,1033
77680,472674,493485,32,-35,1037
77404,472405,493260,32,-35,1044
76908,472216,493369,24,-35,1030
76603,471653,492959,27,-25,1030
76379,471496,492886,25,-25,1040
76193,471301,492812,25,-36,1014
76038,471193,492714,36,-30,1014
75946,471174,492728,20,-30,1037
75692,470939,492571,20,-29,1030
75541,470813,492591,31,-24,1030
75503,470824,492579,24,-24,1032
75499,470769,492548,24,-33,1035
75343,470846,492596,29,-32,1035
75245,470735,492522,29,-32,1040
75170,470640,492484,29,-27,1037
75183,470647,492564,30,-31,1037
75184,470725,492414,31,-31,1023
75256,470834,492633,36,-26,1037
75547,470948,492696,36,-31,1046
75583,471124,492720,28,-31,1046
75770,471322,492755,28,-27,1030
75908,471335,492817,32,-29,1043
75964,471652,493165,29,-33,1043
76150,471705,492998,33,-33,1017
76222,471784,493030,33,-27,1032
76267,471825,493152,29,-25,1032
76330,471952,493094,33,-25,1013
76463,472073,493356,33,-26,1030
76538,472052,493220,26,-33,1030
76650,472070,493216,34,-33,1049
76655,472168,493342,34,-29,1020
76723,472208,493283,27,-26,1020
76834,472300,493324,35,-26,1026
76932,472512,493401,35,-37,1049
77035,472533,493441,42,-30,1049
77127,472682,493555,37,-30,1032
77201,472598,493518,26,-27,1035
77229,472833,493660,26,-25,1035
77373,472888,493671,21,-25,1024
77490,473068,493761,21,-26,1030
77546,473075,493779,31,-30,1037
77713,473161,493776,31,-30,1037
77621,473285,493874,32,-24,1040
77802,473314,493950,32,-30,1021
77961,473469,493991,23,-27,1021
77982,473448,494010,34,-27,1032
78056,473503,494013,34,-30,1035
78165,473633,494052,36,-25,1035
78302,473695,494064,27,-25,1035
78396,473700,494154,27,-27,1030
78466,473802,494187,25,-24,1030
78488,473851,494260,21,-24,1026
78579,473990,494366,21,-23,1033
78603,474024,494400,31,-27,1033
78701,474075,494257,24,-27,1035
78722,474122,494414,24,-27,1037
78917,474171,494329,30,-27,1037
78849,474286,494465,31,-27,1023
78864,474393,494559,31,-21,1037
79135,474386,494462,30,-32,1037
79167,474447,494543,38,-27,1023
79128,474452,494496,38,-27,1040
79276,474593,494607,26,-24,1024
79362,474648,494641,35,-29,1024
79384,474566,494653,21,-29,1043
79512,474787,494676,21,-24,1029
79551,474807,494668,38,-31,1029
79596,474883,494728,23,-31,1030
79626,475010,494737,23,-31,1029
79660,474815,494673,33,-27,1029
79453,474646,494664,32,-27,1024
79197,474482,494534,32,-34,1033
78979,474276,494252,38,-35,1033
78644,474102,494159,26,-35,1038
77964,473524,493940,26,-30,1029
77564,473054,493644,36,-29,1029
77193,472780,493527,31,-25,1041
76910,472469,493408,31,-25,1032
76608,472202,493215,35,-30,1032
76042,471819,493080,33,-30,1029
75821,471629,492908,33,-28,1038
75679,471403,492861,27,-32,1038
75538,471242,492804,24,-26,1030
75303,471203,492843,24,-26,1011
75131,470982,492722,24,-31,1023
74951,470799,492655,27,-28,1023
74953,470786,492507,36,-28,1049
74620,470711,492562,36,-21,1024
74509,470789,492536,34,-24,1024
74569,470580,492493,27,-24,1035
74529,470583,492463,27,-31,1024
74547,470577,492553,24,-31,1024
74555,470589,492511,36,-31,1044
74730,470759,492607,36,-30,1046
74867,470914,492766,26,-25,1046
75000,471114,492794,28,-25,1029
75100,471204,492802,28,-21,1035
75246,471397,492920,28,-35,1013
75320,471562,492977,35,-35,1013
75593,471752,493112,35,-31,1033
75686,471788,493101,38,-33,1033
75685,471902,493245,30,-33,1020
75834,471980,493179,25,-30,1037
75940,472108,493388,25,-23,1018
76004,472286,493320,33,-23,1018
76150,472329,493397,31,-23,1040
76136,472341,493387,31,-27,1018
76248,472394,493456,36,-25,1018
76232,472744,493606,31,-25,1005
76458,472568,493527,31,-32,1030
76457,472705,493551,28,-28,1030
76578,472694,493675,34,-28,1043
76648,472821,493620,34,-27,1032
76699,473067,493758,36,-30,1032
76910,473093,493871,36,-30,1035
77009,473080,493903,36,-26,1023
76977,473141,493859,23,-32,1035
77141,473248,493900,24,-32,1035
77215,473355,494069,24,-25,1038
77321,473524,494017,36,-27,1038
77501,473574,494172,33,-27,1018
77607,473540,494166,21,-21,1033
77694,473644,494208,21,-30,1038
77648,473760,494270,33,-31,1038
77792,473863,494224,27,-31,1029
77874,473929,494317,27,-27,1035
77939,474076,494427,37,-19,1035
78014,474120,494433,31,-19,1016
78087,474141,494524,31,-28,1040
78113,474216,494441,35,-30,1040
78222,474219,494558,35,-30,1032
78285,474325,494520,35,-27,1037
78416,474360,494629,31,-30,1037
78465,474451,494683,34,-30,1043
78555,474494,494652,34,-27,1049
78567,474454,494699,30,-24,1043
78655,474652,494690,25,-24,1043
78744,474645,494779,25,-28,1010
78800,474887,494785,34,-35,1038
78922,474934,494848,29,-35,1038
78978,474941,494890,29,-30,1020
79013,475031,494981,30,-27,1026
79090,475024,494866,24,-28,1026
79180,475130,494990,34,-28,1035
79217,475134,494923,34,-27,1010
79268,475118,494929,29,-32,1010
79135,474965,494908,31,-32,1047
78881,474907,494800,31,-25,1026
78643,474731,494746,32,-30,1026
78408,474503,494242,32,-30,1007
77528,473750,494139,32,-27,1056
77157,473451,494001,36,-27,1056
76837,473075,493861,27,-27,1029
76391,472916,493720,27,-24,1037
76204,472539,493353,36,-28,1037
75829,472196,493316,18,-20,1026
75649,472193,493295,18,-20,1035
75438,471884,493144,27,-35,1035
75342,471754,493022,36,-36,1038
75219,471837,493112,29,-36,1035
74950,471480,493058,29,-27,1011
74797,471451,493110,27,-33,1011
74716,471291,492950,33,-33,1027
74617,471294,492925,33,-23,1026
74532,471271,492998,24,-37,1026
74478,471241,493015,28,-37,1050
74463,471314,492940,28,-36,1038
74434,471201,492938,21,-29,1038
74529,471323,492949,29,-29,1032
74505,471643,493154,29,-34,1037
74761,471665,493192,27,-30,1037
74984,471741,493266,39,-30,1024
75161,471963,493348,39,-25,1029
75229,472098,493351,24,-25,1029
75088,472356,493494,42,-25,1035
75584,472502,493539,31,-30,1023
75681,472650,493666,31,-35,1023
75842,472809,493769,40,-35,1032
75835,472798,493742,24,-25,1046
75999,472895,493829,24,-29,1046
76039,473010,493859,29,-27,1041
76083,473185,493932,28,-27,1017
76069,473151,493835,28,-30,1038
76196,473239,493986,29,-33,1038
76233,473440,494106,35,-33,1054
76457,473586,494194,35,-31,1035
76532,473687,494106,25,-26,1035
76671,473735,494275,26,-26,1037
76639,473805,494340,26,-27,1050
76825,473848,494518,27,-34,1050
76986,474049,494413,24,-34,1021
76996,474087,494391,24,-27,1026
77098,474133,494546,28,-21,1026
77194,474186,494584,34,-21,1027
77321,474564,494784,34,-32,1021
77504,474513,494723,30,-27,1021
77482,474484,494681,21,-24,1026
77578,474584,494690,21,-24,1038
77643,474637,494806,33,-27,1038
77743,474822,494906,34,-27,1033
77847,474866,494860,34,-33,1014
77965,474868,494838,38,-30,1043
77968,474913,494940,35,-30,1043
78040,475012,494920,35,-30,1044
78134,475131,495008,35,-30,1040
78271,475182,495126,36,-26,1040
78312,475180,495122,28,-26,1035
78389,475271,495160,28,-31,1041
78471,475331,495209,27,-27,1041
78637,475429,495326,33,-27,1026
78522,475460,495270,33,-30,1038
78688,475506,495194,29,-33,1038
78688,475566,495313,38,-33,1043
78871,475621,495278,38,-34,1044
78847,475739,495417,30,-26,1044
78968,475731,495275,35,-26,1038
79108,475912,495303,27,-24,1030
79174,475890,495375,27,-32,1035
79289,475984,495430,30,-32,1035
79255,475990,495485,30,-24,1030
79341,475996,495392,34,-31,1032
79198,475944,495409,24,-29,1032
79035,475755,495347,27,-29,1020
78772,475541,495165,27,-30,1035
78377,475340,495059,29,-24,1035
78058,474689,494749,27,-24,1032
77313,474482,494590,27,-30,1052
77067,474186,494340,36,-30,1052
76788,473863,494194,32,-30,1037
76577,473726,494245,32,-24,1024
76243,473383,494025,42,-23,1024
75996,473169,494006,30,-23,1026
75786,473023,493813,30,-24,1011
75646,472872,493684,23,-25,1011
75401,472823,493773,31,-30,1014
75440,472845,493647,34,-30,1057
75122,472437,493562,34,-23,1057
75075,472450,493579,27,-23,1013
75009,472373,493572,34,-35,1020
74997,472299,493561,34,-24,1024
74967,472382,493539,36,-26,1024
74915,472324,493552,39,-26,1040
75030,472339,493557,39,-27,1026
75051,472430,493567,27,-32,1026
75093,472508,493658,30,-32,1049
75287,472774,493831,30,-24,1043
75642,473092,493964,24,-22,1043
75698,473196,493914,27,-22,1023
75866,473185,493950,27,-23,1021
76001,473371,494064,32,-24,1021
76078,473547,494199,29,-24,1035
76313,473772,494221,29,-35,1044
76372,473771,494262,31,-29,1044
76488,473849,494223,44,-29,1030
76597,473983,494338,44,-26,1049
76714,474273,494382,30,-27,1049
76889,474194,494525,24,-31,1033
77012,474478,494682,24,-31,1032
77007,474542,494735,41,-28,1032
77173,474638,494748,30,-28,1023
77164,474887,494849,30,-21,1027
77450,474940,494824,41,-32,1020
77595,474938,494952,37,-27,1020
77649,475072,494998,34,-27,1043
77810,475102,495028,34,-21,1026
77866,475180,495236,28,-21,1026
77995,475420,495296,34,-21,1033
78039,475544,495280,34,-20,1037
78121,475626,495346,48,-21,1037
78336,475697,495368,33,-21,1044
78480,475822,495450,33,-22,1035
78679,475937,495429,37,-28,1035
78837,476004,495514,36,-28,1021
78881,476121,495628,36,-22,1020
78933,476112,495570,37,-36,1020
79068,476253,495860,38,-36,1027
79215,476381,495736,38,-30,1020
79262,476351,495737,44,-24,1032
79337,476411,495795,30,-24,1032
79428,476392,495799,30,-34,1057
79403,476586,495892,30,-25,1047
79610,476753,495945,33,-28,1047
79689,476722,495973,37,-28,1021
79728,476754,495981,37,-24,1032
79838,476848,495959,45,-26,1032
79822,477011,496092,37,-26,1024
79955,476950,495974,37,-36,1049
80043,476950,496110,34,-25,1049
80154,477024,496042,30,-25,1038
80212,477074,496104,30,-21,1023
80165,477039,496199,34,-29,1023
80249,477103,496113,35,-29,1024
80125,477008,496037,35,-26,1032
80063,476843,496084,38,-28,1032
79794,476778,495944,31,-27,1023
79505,476651,495874,31,-27,1035
78948,475894,495423,33,-30,1035
78336,475488,495301,31,-28,1038
77950,475235,495002,31,-28,1033
77653,474951,494843,30,-30,1038
77442,474749,494824,36,-26,1038
77301,474241,494621,26,-26,1014
76815,474040,494511,26,-23,1030
76667,473976,494527,28,-21,1030
76459,473872,494327,34,-21,1043
76381,473893,494494,34,-29,1027
76291,473656,494298,44,-27,1027
75990,473545,494264,37,-27,1029
75883,473503,494239,37,-18,1026
75813,473469,494253,51,-25,1026
75665,473470,494221,43,-25,1035
75513,473409,494273,43,-24,1027
75607,473391,494124,35,-27,1027
75718,473463,494161,36,-27,1027
75701,473414,494130,36,-32,1029
75889,473597,494323,42,-25,1029
76051,473842,494331,46,-25,1029
76266,474003,494439,46,-27,1038
76351,474151,494548,40,-18,1038
76523,474203,494615,42,-25,1011
76714,474347,494659,42,-25,1017
76858,474739,494759,34,-25,1027
76977,474732,494871,33,-24,1027
77011,474716,494954,48,-24,1018
77141,474881,495057,48,-21,1049
77122,475009,494997,44,-29,1049
77294,475082,494951,42,-29,1030
77385,475137,495112,42,-25,1026
77491,475228,495046,33,-27,1026
77596,475338,495149,38,-27,1040
77670,475416,495171,38,-28,1030
77716,475494,495190,38,-23,1030
77893,475579,495197,42,-23,1040
78017,475545,495280,42,-18,1016
78045,475592,495249,34,-21,1016
78141,475659,495302,45,-29,1044
78227,475733,495270,45,-29,1013
78296,475795,495388,44,-27,1018
78406,475894,495426,51,-27,1018
78528,475792,495293,51,-28,1038
78545,475827,495288,42,-23,1026
78637,475907,495356,36,-18,1026
78706,475899,495231,52,-18,1020
78796,475758,495117,52,-19,1037
78815,475695,495173,39,-20,1037
78886,475706,495156,48,-20,1038
78987,475864,495191,48,-15,1029
79001,475683,495091,37,-18,1029
79072,475700,495172,28,-18,1017
79165,475732,495058,28,-19,1033
79245,475751,495190,39,-21,1033
79347,476016,495381,34,-21,1035
79381,476058,495300,34,-20,1032
79448,476098,495241,37,-21,1027
79533,476131,495211,36,-9,1027
79487,476127,495350,36,-9,1038
79614,476127,495351,34,-20,1038
79737,476269,495371,37,-21,1035
79787,476431,495451,37,-21,1035
79912,476478,495508,41,-22,1037
79958,476534,495501,39,-16,1037
80085,476630,495633,42,-16,1035
80219,476787,495782,42,-22,1026
80195,476850,495682,43,-21,1026
80343,476860,495738,36,-21,1013
80332,476984,495724,36,-24,1060
80374,477101,495898,33,-24,1060
80221,476786,495674,34,-24,1040
79992,476617,495473,34,-24,1060
79758,476331,495368,33,-30,1060
79311,476039,495187,29,-30,1018
78985,475851,495022,29,-19,1017
78366,475174,494747,38,-24,1017
77922,474769,494575,48,-24,1030
77680,474553,494256,48,-17,1013
77494,474465,494334,36,-20,1013
77260,474214,494289,36,-15,1038
76843,473893,494069,36,-15,1043
76671,473811,493926,42,-18,1043
76396,473603,493825,21,-27,1046
76290,473529,493854,21,-27,1020
76119,473505,493959,37,-21,1033
75885,473081,493763,39,-23,1033
75750,473083,493699,30,-23,1035
75615,472950,493598,30,-21,1035
75461,472878,493472,32,-30,1035
75434,472930,493519,30,-30,1046
75469,472661,493398,30,-21,1040
75341,472656,493359,34,-22,1040
75367,472723,493399,35,-22,1029
75444,472725,493408,35,-19,1017
75474,472782,493485,35,-24,1017
75591,473025,493519,42,-24,1020
75833,473063,493535,42,-27,1027
76021,473266,493610,42,-23,1027
76073,473352,493573,35,-29,1044
76221,473427,493779,35,-29,1007
76174,473588,493897,44,-27,1023
76409,473655,493755,37,-27,1023
76467,473659,493705,40,-31,1030
76517,473625,493811,40,-22,1021
76625,473740,493740,53,-25,1021
76691,473869,493846,39,-25,1044
76742,473832,493852,39,-27,1017
76816,473888,493887,41,-17,1017
76826,473924,493949,49,-17,1021
76942,473971,493954,49,-21,1052
77054,474211,493937,39,-22,1052
77113,474061,494015,46,-22,1023
77207,474192,494014,46,-21,1024
77294,474283,494081,34,-20,1024
77403,474392,494140,39,-20,1023
77528,474565,494261,39,-27,1038
77572,474606,494224,42,-20,1037
77657,474629,494211,36,-20,1037
77897,474651,494332,36,-26,1023
77936,474801,494363,40,-12,1021
77945,474864,494452,41,-12,1021
78127,474886,494459,47,-24,1014
78195,474853,494353,47,-21,1024
78306,474964,494387,44,-24,1024
78277,475050,494476,45,-24,1029
78378,475136,494517,45,-27,1037
78533,475201,494590,52,-24,1037
78654,475227,494551,39,-24,1037
78603,475211,494536,39,-25,1032
78696,475194,494601,38,-21,1032
78594,475492,494682,42,-21,1040
78891,475410,494620,42,-17,1021
78979,475463,494628,40,-24,1021
78969,475443,494782,31,-24,1004
79028,475521,494753,31,-27,1032
79110,475756,494939,48,-15,1032
79215,475691,494829,45,-17,1023
79285,475763,494916,45,-17,1037
79349,475794,494939,46,-15,1037
79344,475919,494987,41,-15,1029
79563,476026,495045,41,-24,1013
79667,476055,495040,47,-19,1013
79658,476000,494971,45,-19,1023
79712,476073,494945,42,-19,1032
79724,476173,495094,42,-26,1024
79746,476249,495207,36,-24,1024
79525,476096,494944,48,-24,1050
79370,475980,494907,48,-19,1020
79086,475899,494854,43,-18,1020
78811,475708,494630,43,-18,1020
78412,475657,494741,43,-24,1026
77742,474928,494339,38,-15,1026
77402,474573,494149,43,-15,1030
77079,474361,493954,43,-21,1037
76862,474110,493898,43,-26,1037
76554,474161,493793,40,-26,1032
76185,473598,493639,42,-22,1023
75935,473497,493472,42,-19,1030
75729,473335,493437,36,-19,1030
75589,473136,493348,36,-24,1017
75515,473013,493454,43,-26,1017
75146,472750,493213,42,-26,1026
75045,472649,493125,47,-27,1008
75014,472536,493041,47,-23,1030
74855,472464,493033,37,-18,1030
74795,472496,493061,42,-18,1023
74577,472377,492975,42,-22,1030
74734,472367,493029,42,-20,1030
74791,472373,492956,44,-20,1023
74927,472465,493000,44,-21,1020
75057,472622,493235,39,-24,1020
75259,472765,493330,41,-24,1035
75507,472992,493414,41,-28,1023
75603,473173,493490,46,-26,1023
75698,473281,493524,44,-26,1027
75914,473524,493693,44,-27,1038
76077,473651,493808,42,-25,1038
76128,473717,493850,50,-25,1035
76179,473779,493927,37,-20,1033
76250,473776,493950,37,-28,1030
76384,474004,494004,42,-28,1030
76246,474036,493996,42,-24,1035
76538,474152,494083,43,-20,1029
76605,474173,494062,40,-25,1029
76703,474279,494123,40,-25,1018
76792,474433,494135,40,-22,1050
76997,474580,494389,39,-21,1050
77004,474630,494407,36,-21,1041
77017,474684,494430,36,-20,1027
77182,474768,494445,46,-23,1027
77230,474844,494447,42,-23,1032
77314,474999,494359,42,-19,1035
77390,474968,494532,50,-20,1035
77508,475045,494476,40,-20,1033
77573,475130,494586,40,-26,1030
77689,475185,494609,39,-22,1017
77775,475379,494787,46,-22,1017
77885,475336,494703,46,-26,1026
77918,475430,494667,36,-24,1047
78017,475492,494764,39,-24,1047
78143,475525,494783,39,-23,1050
78126,475618,494918,39,-20,1032
78287,475727,494938,42,-32,1032
78312,475729,494941,47,-32,1024
78323,475787,495005,47,-24,1029
78449,475856,494956,37,-28,1029
78489,476021,495189,34,-28,1040
78671,476001,495055,34,-24,1063
78699,476051,495197,39,-25,1063
78770,476144,495125,48,-25,1014
78846,476197,495123,48,-24,1047
78700,476516,495239,42,-28,1047
79037,476442,495296,37,-28,1018
79142,476476,495305,37,-26,1035
79200,476500,495383,42,-19,1035
79232,476548,495339,42,-19,1027
79282,476542,495480,40,-19,1037
79223,476432,495325,40,-18,1029
79029,476448,495321,42,-18,1029
78752,476373,495239,42,-24,1030
78546,476203,495178,36,-22,1035
78331,475995,495063,35,-22,1035
77541,475490,494751,46,-24,1021
77278,475225,494574,46,-24,1043
76996,474935,494530,42,-24,1043
76724,474805,494394,37,-24,1010
76539,474584,494497,37,-27,1030
76034,474263,494221,36,-17,1030
75982,474105,494106,36,-17,1030
75786,474020,494071,36,-21,1037
75696,473970,494082,33,-21,1037
75577,473979,494258,42,-21,1035
75265,473675,494002,42,-24,1027
75173,473611,493889,50,-30,1027
75138,473529,493809,41,-30,1023
75058,473524,493771,35,-21,1018
75014,473608,493865,35,-26,1018
75015,473396,493799,43,-26,1016
75107,473511,493848,39,-27,1046
75137,473489,493892,39,-24,1046
75237,473563,493881,33,-29,1035
75335,473665,494006,43,-29,1013
75628,473966,494189,43,-18,1035
75789,474072,494205,44,-30,1035
75836,474139,494331,37,-30,1027
76052,474437,494483,37,-25,1035
76092,474552,494718,47,-17,1035
76036,474741,494658,39,-17,1035
76281,474821,494723,39,-26,1037
76401,474717,494673,42,-19,1037
76402,474893,494850,49,-19,1021
76463,475086,494866,49,-20,1023
76648,475118,494918,42,-24,1020
76689,475124,494875,34,-24,1020
76847,475185,495035,41,-29,1023
76931,475220,495013,41,-18,1023
77006,475408,495197,33,-18,1013
77050,475618,495144,33,-27,1037
77197,475554,495129,39,-23,1033
77239,475689,495239,40,-29,1033
77295,475716,495299,43,-29,1040
77463,475942,495512,43,-21,1038
77355,475980,495381,38,-25,1038
77704,476086,495483,38,-25,1035
77731,476133,495481,38,-24,1043
77806,476153,495551,42,-15,1043
77905,476273,495565,39,-15,1033
78039,476295,495657,39,-25,1020
78041,476360,495727,41,-26,1020
78072,476314,495595,42,-26,1044
78138,476357,495622,42,-27,1043
78170,476501,495735,34,-24,1024
78316,476744,495744,39,-24,1024
78433,476591,495762,39,-26,1027
78504,476655,495761,37,-27,1027
78516,476688,495794,35,-21,1023
78644,476739,495823,35,-21,1002
78709,476850,495889,45,-21,1023
78744,476817,495890,38,-23,1023
78853,477002,495947,35,-23,1016
78901,476910,495913,35,-17,1026
78957,476975,496070,36,-24,1026
79061,477133,496059,41,-24,1020
79136,477122,496069,41,-22,1049
79109,477141,496045,37,-24,1049
79133,477124,496001,42,-24,1043
78949,477086,496055,42,-27,1038
78867,477022,495881,37,-18,1038
78344,476597,495805,36,-18,1049
78046,476311,495605,39,-22,1017
77634,476151,495495,39,-23,1017
77364,475871,495417,47,-23,1017
76941,475784,495424,47,-24,1020
76509,475250,495056,39,-30,1014
76290,475098,495011,37,-30,1014
76137,474888,494903,42,-21,1053
75974,474789,494880,42,-27,1030
75874,474698,494858,39,-27,1030
75512,474364,494717,44,-27,1027
75412,474308,494587,44,-23,1035
75350,474118,494569,38,-23,1035
75175,473993,494458,43,-23,1016
75068,474040,494482,43,-24,1016
75012,473789,494284,39,-23,1016
74921,473599,494247,39,-23,1052
74994,473683,494207,39,-30,1035
75063,473679,494295,47,-34,1035
75101,473689,494472,40,-21,1029
75251,473782,494428,40,-21,1050
75375,473881,494476,41,-21,1050
75528,474007,494622,39,-24,1024
75685,474062,494666,39,-24,1024
75734,474398,494853,40,-24,1024
76005,474477,494889,49,-26,1040
76043,474499,494961,43,-26,1020
76212,474619,494994,43,-25,1017
76339,474698,495047,40,-23,1017
76339,474948,495146,44,-23,1023
76499,474941,495213,44,-27,1037
76623,475061,495268,41,-27,1037
76627,475072,495299,34,-27,1026
76731,475264,495361,34,-23,1038
76778,475376,495424,37,-15,1038
76978,475425,495467,42,-15,1032
77061,475400,495498,42,-27,1030
77115,475553,495521,31,-24,1030
77152,475727,495569,33,-24,1033
77251,475743,495639,44,-24,1027
77347,475892,495742,44,-22,1038
77533,476027,495785,40,-22,1038
77580,476037,495841,40,-24,1033
77640,476032,495844,42,-23,1041
77693,476245,496004,36,-23,1041
77841,476367,495989,41,-24,1018
77977,476364,496120,41,-24,1044
78065,476550,496179,41,-27,1044
78115,476515,496103,33,-27,1020
78215,476680,496185,33,-26,1024
78320,476704,496192,44,-24,1024
78453,476804,496258,33,-24,1033
78428,476855,496181,33,-18,1035
78504,476917,496326,39,-30,1035
78632,477079,496487,31,-30,1023
78589,477090,496487,31,-26,1037
78801,477053,496402,45,-21,1037
78890,477128,496409,36,-21,1044
78938,477308,496539,36,-27,1020
78952,477334,496609,33,-21,1020
78992,477459,496723,39,-21,1023
79281,477483,496684,39,-21,1018
79282,477514,496711,44,-27,1018
79395,477539,496768,37,-27,1021
79419,477628,496704,37,-27,1033
79517,477784,496721,30,-24,1027
79463,477673,496783,45,-15,1027
79267,477616,496701,36,-15,1026
79094,477372,496710,36,-24,1033
78854,477308,496590,39,-27,1033
78611,477225,496399,35,-27,1033
77891,476600,496204,35,-29,1041
77618,476302,496202,32,-30,1041
77202,476146,496014,42,-30,1035
76986,475934,495934,42,-27,1021
76667,475717,495683,37,-28,1021
76212,475332,495619,32,-28,1041
76109,475174,495601,32,-22,1026
75954,474982,495514,36,-27,1026
75696,474860,495450,39,-21,1035
75603,474722,495343,39,-21,1023
75338,474491,495241,36,-30,1035
75186,474434,495243,37,-30,1035
75007,474339,495155,37,-21,1029
74908,474256,495166,36,-23,1038
74799,474264,495123,48,-22,1038
74761,474071,495053,35,-22,1041
74704,473945,495038,35,-21,1029
74685,473898,494967,34,-26,1029
74736,473872,495024,39,-26,1026
74820,474229,495116,39,-29,1018
75105,474186,495204,38,-27,1018
75192,474379,495341,36,-27,1027
75330,474434,495410,36,-30,1041
75425,474552,495454,34,-19,1041
75651,474686,495646,34,-19,1021
75678,474910,495663,34,-30,1027
75903,475044,495726,42,-31,1033
75987,475166,495824,36,-31,1033
76123,475116,495911,36,-23,1035
76180,475330,495984,31,-30,1023
76379,475504,496099,36,-30,1023
76400,475527,496167,36,-23,1035
76495,475588,496219,40,-22,1029
76553,475709,496248,36,-30,1029
76651,475886,496358,39,-30,1029
76736,475968,496348,39,-26,1016
76813,476002,496427,42,-28,1016
76924,476222,496604,36,-28,1035
77074,476208,496600,36,-21,1053
77144,476525,496642,38,-23,1053
77312,476687,496868,42,-23,1035
77403,476695,496839,42,-20,1011
77568,476678,496890,38,-21,1011
77671,476864,496898,39,-21,1024
77678,477076,496960,39,-29,1021
77859,477129,497066,39,-26,1021
77959,477269,497112,37,-24,1020
78029,477311,497151,37,-24,1013
78105,477338,497150,48,-28,1013
78234,477521,497271,37,-28,1032
78357,477597,497401,37,-28,1035
78382,477645,497372,37,-22,1001
78540,477688,497363,35,-23,1001
78517,477813,497478,33,-23,1016
78647,477917,497586,33,-18,1029
78720,477989,497612,39,-18,1029
78894,478104,497659,37,-18,1035
78957,477980,497586,37,-30,1033
78955,478143,497685,39,-29,1033
78995,478256,497783,35,-29,1041
79192,478406,497946,35,-17,1018
79293,478460,497956,28,-24,1018
79307,478461,497940,37,-24,1033
79431,478577,497969,37,-24,1035
79445,478671,497975,32,-27,1035
79565,478777,498186,39,-28,1023
79637,478849,498169,39,-28,1026
79720,478844,498089,29,-31,1026
79839,479026,498140,31,-26,1040
79950,479078,498266,31,-26,1030
79829,479152,498372,42,-16,1027
79865,479041,498354,34,-28,1027
79598,478883,498144,31,-28,1027
79449,478898,498130,31,-23,1038
79163,478797,498131,36,-30,1038
78907,478695,497969,34,-30,1020
78198,478160,497888,34,-19,1047
77767,477974,497857,38,-26,1047
77506,477880,497804,42,-26,1032
77285,477652,497720,42,-30,1030
77015,477562,497629,36,-24,1030
76539,477188,497570,42,-24,1030
76369,477058,497396,42,-20,1018
76101,476918,497403,41,-33,1018
75908,476804,497325,44,-33,1033
75651,476791,497299,44,-24,1010
75423,476584,497153,41,-27,1035
75240,476412,497206,36,-27,1035
75156,476258,497083,36,-20,1035
74996,476286,497075,41,-22,1035
74890,476296,497059,43,-22,1052
74770,475967,496851,41,-22,1024
74685,475969,496902,41,-31,1027
74602,475939,497031,39,-23,1027
74726,475973,496989,37,-23,1017
74747,476276,497058,37,-23,1032
74894,476188,497066,42,-30,1032
75102,476251,497041,35,-30,1037
75186,476302,497143,35,-28,1037
75337,476490,497220,39,-33,1037
75376,476766,497315,35,-33,1017
75609,476753,497411,35,-27,1013
75787,476746,497309,35,-26,1013
75778,476902,497382,38,-26,1038
75849,476951,497503,38,-29,1046
75964,476963,497563,39,-25,1035
76002,477122,497510,39,-25,1035
76045,477204,497560,39,-25,1041
76157,477225,497555,36,-24,1041
76230,477344,497666,33,-27,1044
76418,477472,497761,44,-27,1026
76565,477641,497765,44,-27,1041
76602,477696,497876,37,-27,1041
76657,477703,497810,37,-27,1016
76808,477838,497902,37,-23,1027
76948,477981,498149,39,-29,1027
77028,478046,498205,35,-29,1029
77054,478168,498209,35,-27,1049
77169,478156,498134,36,-29,1049
77295,478225,498217,37,-29,1035
77327,478502,498466,37,-27,1027
77466,478486,498318,32,-27,1027
77575,478500,498412,42,-27,1040
77658,478700,498444,36,-27,1044
77734,478783,498473,36,-30,1044
77848,479094,498501,38,-30,1044
77973,479193,498527,38,-23,1023
78097,479296,498544,38,-24,1023
78035,479447,498655,38,-30,1038
78148,479479,498614,37,-30,1035
78293,479647,498695,37,-26,1035
78381,479857,498739,42,-31,1035
78460,479829,498704,39,-31,1032
78564,480010,498753,39,-26,1037
78621,479974,498851,34,-24,1037
78681,480156,498933,35,-24,1035
78643,480276,498960,35,-22,1029
78867,480246,498998,31,-24,1029
78928,480381,499028,36,-24,1035
79012,480433,498987,36,-32,1040
79095,480494,499092,37,-28,1032
79195,480671,499161,43,-28,1032
79321,480720,499107,43,-24,1018
79469,480841,499259,33,-24,1026
79446,480867,499265,47,-24,1026
79455,481034,499393,47,-23,1035
79504,481091,499320,36,-24,1024
79640,481123,499239,39,-20,1024
79681,481137,499388,37,-20,1014
79673,481151,499410,37,-24,1021
79562,481233,499462,37,-26,1021
79418,481049,499304,42,-26,1041
79118,481028,499225,42,-22,1035
78891,480862,499209,37,-35,1035
78459,480668,499120,28,-35,1038
78227,480631,499109,28,-29,1024
77985,480271,498999,41,-27,1024
77297,480131,498935,42,-27,1021
77006,479938,498809,42,-23,1021
76775,479838,498756,35,-24,1021
76542,479680,498645,36,-30,1020
76412,479774,498572,42,-30,1024
76007,479425,498485,42,-27,1024
75770,479286,498433,36,-27,1033
75640,479289,498438,35,-26,1021
75451,479181,498374,35,-24,1021
75283,479075,498314,34,-24,1037
75072,479049,498349,37,-24,1016
74973,478835,498280,37,-24,1018
74828,478821,498283,43,-25,1018
74837,478881,498290,33,-25,1038
74781,478916,498282,33,-25,1024
74866,478870,498283,35,-34,1024
74913,479032,498323,42,-34,1032
74906,478995,498404,42,-23,1026
75002,479039,498387,36,-27,1026
75169,479251,498575,30,-27,1018
75379,479198,498484,30,-30,1050
75546,479415,498584,39,-24,1050
75668,479526,498587,36,-24,1027
75736,479582,498622,36,-26,1052
75641,479861,498765,43,-27,1052
75983,479872,498761,34,-30,1053
76041,479791,498765,34,-30,1030
76171,479955,498800,43,-30,1030
76213,479934,498817,35,-28,1030
76398,479955,498986,35,-28,1018
76427,480149,498883,25,-18,1038
76537,480303,498939,33,-29,1038
76549,480345,498950,37,-29,1035
76595,480424,499032,37,-27,1029
76816,480554,499087,39,-22,1029
76903,480575,499086,39,-22,1043
76998,480659,499215,39,-18,1029
77150,480787,499153,36,-26,1029
77211,480889,499249,35,-26,1026
77306,480934,499482,35,-23,1029
77424,481094,499363,35,-28,1029
77541,481143,499313,36,-28,1021
77563,481149,499349,36,-19,1038
77676,481290,499286,46,-24,1038
77789,481425,499478,39,-18,1040
77886,481389,499424,39,-18,1016
78010,481560,499480,32,-25,1024
78083,481560,499592,35,-25,1024
78133,481486,499525,35,-23,1035
78194,481864,499535,39,-29,1052
78383,481627,499505,36,-28,1052
78387,481754,499580,38,-28,1029
78527,481829,499574,38,-25,1035
78522,481938,499638,39,-24,1035
78621,481970,499814,36,-24,1018
78717,482074,499792,36,-30,1030
78789,482176,499846,41,-27,1030
78848,482200,499800,35,-27,1018
78890,482228,499908,35,-27,1038
78920,482230,499902,32,-17,1038
78920,482361,499943,27,-17,1013
79199,482479,500023,27,-24,1024
79208,482542,499988,40,-27,1024
79286,482527,499989,37,-27,1018
79357,482546,500081,40,-28,1035
79558,482795,500176,40,-26,1035
79607,482813,500167,40,-22,1033
79666,482855,500123,40,-22,1029
79700,482870,500142,34,-30,1032
79816,483015,500268,30,-22,1032
79754,483066,500249,43,-22,1038
79905,483018,500227,43,-21,1035
80044,483036,500202,37,-28,1035
80026,483148,500266,37,-28,1027
79961,483146,500398,37,-27,1011
79841,483164,500336,41,-27,1011
79858,483090,500358,33,-27,1020
79662,482968,500274,33,-28,1024
79382,482955,500146,43,-17,1024
79176,482877,500102,34,-17,1027
78914,482521,499956,34,-24,1018
78358,482370,499878,45,-21,1018
78190,482284,499926,39,-26,1027
77818,482057,499837,39,-26,1011
77624,482057,499763,27,-32,1011
77463,482073,499639,40,-32,1043
76991,481712,499535,30,-27,1023
76889,481616,499572,30,-28,1023
76631,481501,499444,35,-31,1035
76535,481449,499390,46,-31,1032
76396,481334,499266,46,-25,1018
76117,481122,499246,45,-27,1018
75992,481140,499244,45,-27,1023
75891,480930,499156,45,-21,1032
75812,480987,499237,42,-24,1032
75747,481113,499159,34,-24,1040
75615,480877,499120,34,-26,1032
75614,480836,499109,42,-30,1032
75684,480777,499150,36,-30,1030
75715,480895,499136,36,-23,1027
75862,480960,499253,36,-21,1027
76098,480977,499246,42,-21,1008
76160,481033,499204,42,-27,1029
76212,481113,499250,38,-21,1029
76345,481147,499283,40,-21,1020
76437,481425,499340,40,-22,1033
76642,481355,499272,45,-29,1033
76691,481421,499323,44,-25,1016
76748,481440,499370,42,-25,1018
76772,481407,499466,42,-27,1024
76915,481657,499461,42,-28,1024
77011,481584,499508,32,-28,1013
77037,481699,499533,32,-27,1052
77149,481790,499437,43,-24,1052
77184,481732,499552,42,-24,1026
77351,481855,499678,42,-27,1035
77307,482002,499548,42,-25,1035
77528,481967,499696,37,-25,1032
77617,482017,499662,37,-24,1024
77749,482170,499670,39,-30,1024
77836,482263,499767,33,-30,1014
77884,482285,499822,33,-21,1043
78084,482368,499815,39,-28,1043
78083,482351,499841,41,-28,1049
78194,482449,499770,41,-28,1016
78279,482641,500016,31,-24,1041
78464,482569,499991,30,-24,1041
78473,482837,500008,30,-25,1050
78547,482800,500030,40,-19,1029
78643,482908,500012,46,-22,1029
78758,483153,500058,37,-22,1023
78960,483081,500076,37,-24,1033
78993,483145,500147,36,-23,1033
79094,483111,500208,35,-23,1026
79142,483162,500225,35,-26,1041
79164,483315,500236,35,-26,1041
79354,483364,500293,38,-26,1035
79435,483454,500314,38,-22,1032
79455,483476,500327,39,-24,1032
79504,483455,500259,30,-24,1030
79632,483577,500451,30,-30,1033
79745,483568,500378,46,-31,1033
79794,483651,500441,34,-31,1020
79804,483629,500354,39,-26,1030
79887,483611,500317,39,-28,1030
80019,483860,500449,38,-28,1032
80011,483776,500376,38,-25,1029
80115,483881,500372,36,-22,1035
80220,483907,500432,37,-15,1035
80266,483918,500511,33,-15,1020
80300,484057,500563,33,-35,1032
80494,484151,500560,39,-31,1032
80497,484093,500539,42,-31,1023
80614,484211,500560,42,-21,1035
80683,484221,500582,30,-19,1035
80729,484321,500624,29,-19,1033
80749,484286,500624,29,-30,1032
80657,484322,500616,38,-20,1032
80677,484221,500600,31,-20,1050
80630,484154,500488,31,-22,1027
80381,484252,500573,35,-27,1027
80200,483973,500545,39,-27,1024
79767,483893,500402,39,-27,1029
79596,483753,500316,43,-21,1046
79368,483667,500310,36,-21,1046
79155,483619,500264,31,-26,1017
78944,483632,500164,31,-26,1027
78540,483313,500072,37,-28,1027
78381,483153,500124,36,-28,1010
78126,483147,499948,36,-26,1030
78086,483099,499983,35,-28,1030
77936,483047,499928,38,-28,1044
77575,482743,499951,38,-18,1007
77460,482609,499711,36,-32,1007
77373,482559,499656,30,-32,1029
77200,482473,499684,30,-31,1037
77150,482632,499484,38,-24,1037
76976,482345,499624,36,-24,1035
77018,482351,499649,41,-29,1029
76919,482297,499673,41,-24,1029
76941,482303,499560,35,-24,1041
77042,482519,499635,31,-27,1017
77086,482371,499709,31,-27,1033
77164,482420,499647,36,-27,1033
77248,482416,499633,36,-22,1026
77361,482449,499763,36,-24,1046
77448,482761,499801,39,-27,1046
77588,482681,499761,45,-27,1043
77601,482630,499851,45,-28,1023
77719,482638,499711,45,-29,1023
77750,482840,499843,46,-29,1014
77819,483002,499954,46,-30,1030
78020,482881,499878,40,-30,1030
78033,482955,499863,39,-30,1035
78107,482949,499901,39,-21,1029
78171,482942,499936,42,-28,1029
78224,482985,500037,40,-28,1037
78322,483135,500011,40,-24,1017
78347,483088,499934,30,-31,1017
78483,483202,500065,34,-26,1030
78565,483284,500028,34,-26,1046
78732,483416,500179,39,-21,1046
78836,483443,500196,39,-30,1038
78838,483451,500153,39,-30,1035
78865,483434,500175,39,-21,1038
78941,483509,500119,33,-23,1038
79059,483683,500241,36,-23,1024
79310,483704,500309,36,-22,1017
79324,483672,500239,32,-25,1017
79359,483675,500287,36,-25,1017
79451,483733,500295,36,-27,1033
79419,483876,500517,41,-17,1033
79637,483765,500278,36,-17,1024
79683,483848,500215,36,-20,1010
79744,483938,500285,38,-28,1010
79826,483903,500340,32,-28,1024
79908,484157,500452,32,-31,1035
79958,484142,500423,42,-28,1014
79993,484145,500420,34,-28,1014
80157,484135,500435,34,-27,1011
80202,484184,500495,33,-27,1011
80252,484258,500549,45,-27,1021
80305,484253,500429,45,-20,1027
80361,484219,500479,38,-34,1024
80425,484338,500494,53,-30,1024
80579,484311,500643,34,-30,1038
80646,484477,500684,34,-28,1023
80589,484412,500635,38,-24,1023
80854,484536,500590,35,-24,1054
80820,484543,500560,35,-27,1029
80871,484649,500587,34,-27,1029
80937,484791,500688,28,-27,1029
81043,484662,500743,28,-23,1049
81092,484685,500700,39,-26,1049
81075,484715,500708,38,-26,1024
81144,484651,500657,38,-25,1027
81123,484717,500807,42,-22,1038
81056,484681,500618,37,-28,1038
80732,484499,500624,37,-28,1018
80575,484409,500588,33,-28,1018
80331,484354,500565,35,-24,1035
80134,484302,500579,34,-24,1013
79880,484025,500502,34,-25,1030
79669,483977,500415,39,-24,1030
79447,483815,500434,43,-24,1043
79332,483851,500320,43,-24,1049
79112,483763,500256,42,-20,1049
79072,483578,500310,42,-20,1027
78723,483538,500150,42,-21,1035
78541,483371,500074,32,-24,1035
78439,483267,500040,34,-24,1017
78358,483206,500054,34,-24,1016
78294,483368,500011,40,-29,1016
78005,483026,499939,36,-29,1024
77983,483009,499901,36,-30,1016
77976,482972,499785,36,-29,1011
77951,482962,499772,35,-29,1011
77922,482925,499838,35,-29,1010
77956,482856,499874,37,-21,1010
78090,482903,499818,39,-26,1041
78100,482920,499847,39,-26,1021
78172,482959,499882,40,-28,1037
78250,483154,499911,43,-20,1037
78352,482997,499885,32,-20,1027
78465,483076,499871,32,-27,1040
78436,483240,499925,32,-34,1040
78498,483188,499924,40,-34,1026
78568,483315,500030,40,-22,1052
78711,483257,499983,39,-23,1052
78799,483310,500065,35,-23,1037
78748,483264,499986,35,-25,1035
78815,483241,499991,36,-26,1035
78709,483560,500096,39,-26,1030
79028,483456,500111,39,-36,1043
79062,483469,500057,39,-30,1043
79165,483542,500086,36,-30,1037
79207,483622,500143,36,-24,1037
79430,483603,500217,36,-29,1037
79444,483705,500153,33,-29,1041
79421,483736,500164,31,-27,1053
79523,483800,500263,31,-28,1017
79645,483872,500257,42,-20,1017
79703,483970,500332,42,-20,1014
79818,484001,500206,42,-19,1016
79922,483937,500234,46,-27,1016
79920,484011,500227,38,-27,1035
80016,483932,500420,38,-26,1054
80088,484150,500485,42,-24,1054
80183,484175,500335,37,-24,1027
80275,484161,500352,37,-22,1026
80334,484126,500274,31,-27,1026
80273,484222,500329,43,-27,1037
80377,484398,500478,43,-27,1032
80584,484341,500338,38,-22,1032
80604,484270,500243,39,-25,1030
80688,484293,500330,39,-25,1011
80722,484302,500332,30,-28,1027
80714,484518,500342,46,-28,1027
80820,484402,500276,46,-21,1023
80823,484499,500349,38,-24,1032
80962,484495,500389,36,-27,1032
80974,484497,500355,42,-27,1054
81047,484565,500548,42,-30,1049
81212,484614,500486,42,-27,1049
81251,484651,500529,35,-27,1032
81354,484781,500542,35,-30,1020
81375,484726,500512,30,-27,1020
81371,484804,500530,32,-27,1017
81212,484862,500565,32,-28,1020
81519,484809,500581,43,-27,1020
81641,484945,500599,37,-27,1027
81636,484948,500634,37,-27,1030
81647,485064,500755,36,-27,1030
81868,484996,500699,36,-27,1027
81825,485088,500679,42,-25,1029
81889,485072,500655,42,-27,1029
81866,484962,500593,33,-31,1029
81827,485077,500733,33,-31,1020
81838,484963,500494,33,-25,1029
81461,484816,500444,46,-18,1029
81375,484813,500382,36,-18,1005
81120,484598,500383,36,-24,1027
80801,484570,500417,35,-33,1027
80477,484350,500313,36,-33,1017
80253,484222,500252,36,-23,1035
80012,484067,500130,37,-29,1035
79814,484012,500171,30,-29,1043
79681,483990,500193,30,-24,1020
79576,483792,499937,40,-29,1020
79126,483639,499880,33,-29,1018
78853,483552,499823,33,-27,1030
78816,483402,499825,41,-23,1035
78573,483383,499683,38,-23,1035
78519,483325,499714,40,-26,1018
78220,483043,499661,40,-29,1018
78041,482857,499632,30,-28,1024
77931,482847,499440,30,-28,1049
77953,482800,499454,37,-34,1010
77859,482764,499498,39,-26,1010
77839,482675,499478,37,-26,1023
77849,482711,499387,37,-28,1018
77888,482657,499479,42,-21,1018
77935,482733,499522,38,-21,1021
78033,482808,499464,38,-25,1032
77999,482810,499473,30,-29,1032
78093,482822,499473,38,-29,1027
78194,482877,499470,38,-26,1014
78204,482811,499455,48,-35,1014
78331,483015,499468,32,-35,1026
78441,482906,499455,32,-30,1029
78397,482859,499492,42,-21,1026
78501,483025,499557,30,-21,1026
78600,483035,499488,30,-24,1027
78530,483129,499550,42,-21,1037
78687,483071,499586,44,-21,1037
78736,483111,499504,44,-32,1027
78808,483093,499552,37,-26,1033
78852,483057,499560,39,-24,1033
78995,483242,499585,36,-24,1018
79008,483274,499591,36,-25,1027
79058,483332,499661,35,-23,1027
79131,483200,499705,40,-23,1033
79226,483229,499634,40,-24,1033
79249,483356,499679,36,-31,1033
79307,483352,499698,37,-31,1035
79405,483351,499647,37,-28,991
79479,483326,499716,38,-33,991
79535,483389,499714,37,-33,1017
79608,483544,499699,37,-30,1035
79757,483556,499739,30,-24,1014
79742,483494,499662,36,-24,1014
79774,483603,499689,36,-29,1021
79894,483649,499717,36,-35,1021
79940,483853,499894,35,-35,1016
80140,483736,499757,39,-26,1020
80144,483788,499770,39,-26,1027
80131,483781,499777,33,-24,1027
80190,483742,499767,31,-24,1024
80343,484031,499869,31,-27,1030
80406,483954,499897,36,-22,1030
80480,483972,499849,41,-22,1046
80542,484002,499881,41,-27,1021
80579,483961,499927,30,-28,1021
80645,484144,500024,34,-28,1021
80779,484162,499960,34,-24,1029
80813,484237,499955,40,-19,1029
80844,484195,499943,35,-19,1021
80940,484174,500011,35,-26,1035
80946,484298,499963,42,-25,1030
81164,484457,499974,35,-25,1030
81120,484391,499971,35,-31,1027
81164,484467,499997,29,-30,1044
81253,484525,500061,39,-30,1044
81379,484555,500166,39,-28,1024
81299,484542,500040,37,-23,1038
81461,484638,500118,35,-27,1038
81514,484662,500149,34,-27,1021
81500,484577,500166,34,-31,1024
81447,484711,500185,35,-31,1024
81486,484639,499994,42,-31,1017
81142,484484,499952,42,-29,1018
81006,484360,499926,35,-26,1018
80778,484258,499815,44,-26,1037
80553,484319,499761,44,-18,1035
80334,483991,499875,39,-24,1035
79776,483977,499834,40,-24,1032
79681,483854,499773,40,-30,1035
79416,483758,499733,36,-26,1035
79215,483667,499650,31,-26,1016
78872,483414,499663,42,-24,1027
78683,483333,499477,42,-20,1027
78533,483143,499424,42,-20,1027
78470,483080,499474,42,-20,1047
78183,483117,499352,39,-30,1032
78092,483058,499246,40,-28,1032
77779,482774,499224,37,-28,1007
77642,482721,499200,37,-27,1029
77512,482529,499080,36,-21,1029
77357,482544,499106,35,-21,1020
77316,482684,499079,35,-28,1032
77385,482530,499089,36,-22,1032
77332,482434,499102,29,-22,1043
77401,482505,499115,29,-21,1035
77438,482450,499035,41,-24,1035
77517,482695,499168,30,-24,1030
77611,482688,499132,30,-30,1035
77695,482801,499127,35,-27,1035
77775,482790,499163,26,-27,1035
77846,482682,499137,39,-24,1032
77834,482827,499191,39,-23,1032
77895,482813,499236,36,-28,1008
77932,482954,499257,36,-28,1029
78139,482955,499294,36,-36,1016
78103,483059,499266,34,-18,1016
78161,483192,499366,33,-18,1056
78224,483007,499360,33,-25,1043
78379,483048,499414,44,-21,1043
78465,483171,499522,36,-21,1023
78481,483142,499436,36,-24,1035
78242,483361,499552,32,-18,1035
78637,483284,499491,36,-18,1027
78733,483376,499527,36,-24,1035
78780,483486,499517,36,-26,1035
78835,483436,499599,33,-26,1030
78931,483553,499664,33,-22,1021
79046,483520,499597,35,-28,1035
79070,483549,499592,41,-28,1035
79114,483557,499625,41,-27,1032
79161,483569,499669,38,-18,1040
79323,483792,499718,32,-18,1040
79385,483768,499758,33,-24,1038
79451,483793,499710,33,-24,1052
79525,483798,499769,33,-27,1052
79562,483794,499823,44,-27,1029
79654,483922,499920,44,-26,1029
79807,483899,499799,41,-25,1029
79818,483928,499806,33,-25,1020
79861,483981,499764,33,-27,1040
79913,484057,499849,35,-25,1040
79959,484201,500004,36,-25,1017
80019,484088,499891,36,-31,1033
80129,484186,499873,36,-18,1033
80118,484253,499949,32,-18,1020
80089,484201,499901,36,-24,1030
80138,484319,499878,36,-26,1030
80320,484323,499921,40,-26,1043
80374,484360,499942,36,-24,1037
80400,484398,499989,36,-27,1037
80487,484401,499897,30,-27,1030
80579,484447,500067,32,-27,1027
80690,484520,499970,32,-22,1018
80638,484520,500016,42,-30,1018
80759,484569,500033,38,-30,1049
80825,484526,499967,38,-17,1033
80802,484700,500056,34,-30,1033
80801,484620,500027,45,-30,1032
80798,484583,500034,45,-25,1029
80658,484507,499939,42,-31,1029
80540,484510,499968,25,-31,1037
80349,484400,499899,25,-22,1023
80189,484175,499809,39,-22,1023
79630,484077,499676,37,-26,1011
79369,483992,499638,37,-26,1038
79118,483818,499564,37,-29,1038
78926,483767,499617,42,-29,1029
78747,483439,499496,36,-20,1014
78317,483264,499352,36,-21,1035
78124,483204,499251,36,-19,1035
78069,483112,499287,33,-19,1038
77839,482988,499262,33,-28,1044
77567,482725,499134,39,-30,1044
77460,482618,498973,31,-30,1027
77337,482419,498894,31,-23,1013
77219,482350,498741,44,-24,1013
77171,482451,498753,45,-24,1024
77105,482353,498828,45,-29,1037
76955,482246,498858,39,-27,1037
77007,482191,498791,39,-27,1023
76958,482095,498694,39,-24,1017
77045,482166,498825,46,-27,1017
77247,482362,498879,32,-27,1033
77252,482192,498829,32,-21,1021
77318,482245,498844,36,-31,1021
77423,482392,498841,37,-21,1013
77476,482414,498994,37,-21,1038
77588,482377,498866,37,-24,1033
77601,482352,499007,39,-22,1033
77662,482516,498931,35,-22,1023
77689,482498,498874,35,-21,1032
77791,482469,499007,39,-28,1032
77830,482565,499050,36,-28,1038
77920,482546,499041,36,-22,1037
77907,482552,499007,40,-29,1037
77970,482551,499062,42,-29,1035
78097,482653,499036,42,-18,1024
78163,482749,499167,36,-23,1024
78318,482773,499200,35,-23,1029
78339,482721,499114,35,-23,1024
78449,482771,499160,39,-26,1024
78538,482766,499171,33,-26,1038
78599,483067,499205,33,-21,1032
78699,482880,499102,32,-32,1032
78799,482836,499100,40,-32,1024
78826,482945,499182,36,-25,1020
78899,482929,499174,36,-25,1032
79037,483130,499256,42,-21,1032
79098,483127,499215,36,-21,1037
79123,483057,499265,36,-23,1040
79292,483156,499228,42,-34,1040
79335,483296,499272,45,-34,1033
79334,483343,499428,45,-30,1035
79503,483412,499344,36,-23,1035
79557,483512,499362,51,-23,1032
79686,483552,499478,51,-33,1030
79723,483557,499519,51,-28,1026
79764,483672,499671,39,-28,1026
79894,483694,499560,35,-25,1033
79925,483836,499602,35,-30,1033
79982,483798,499592,40,-30,1024
80008,483933,499622,40,-22,1029
80115,484049,499900,37,-30,1041
80168,483972,499704,36,-24,1041
80296,484077,499763,36,-24,1027
80364,484135,499772,36,-23,1021
80501,484173,499772,36,-27,1021
80517,484427,499909,44,-27,1026
80615,484236,499894,44,-34,1033
80668,484312,499886,35,-23,1033
80735,484344,499876,40,-23,1027
80801,484388,499854,40,-21,1017
80819,484376,499835,42,-27,1017
80803,484328,499836,42,-27,1008
80720,484359,499853,38,-27,1029
80622,484259,499867,38,-21,1029
80452,484210,499822,47,-21,1033
80240,484191,499834,47,-26,1043
79773,483957,499642,39,-23,1021
79539,483800,499700,40,-21,1021
79257,483577,499653,36,-21,1029
79042,483386,499516,36,-28,1035
78784,483309,499558,45,-25,1035
78614,483026,499312,39,-25,1024
78178,482820,499212,39,-21,1035
78080,482708,499107,47,-24,1035
77873,482603,499173,36,-24,1014
77751,482562,499037,36,-22,1032
77662,482209,498848,39,-22,1032
77342,482066,498763,36,-22,1021
77201,481931,498748,36,-23,1013
77074,481825,498697,44,-24,1013
76957,481771,498723,42,-24,1014
76879,481596,498636,39,-24,1023
76769,481589,498578,39,-25,1023
76840,481554,498624,43,-25,1027
76902,481583,498747,43,-25,1037
76976,481566,498649,36,-24,1020
76956,481557,498632,48,-25,1020
77254,481670,498698,49,-25,1033
77349,481738,498822,49,-22,1035
77403,481623,498652,48,-23,1035
77502,481876,498693,40,-23,1026
77706,481982,498893,40,-27,1014
77738,481989,498830,45,-27,1014
77774,481955,498846,45,-27,1027
77871,481916,498870,45,-20,1046
77871,481961,498820,42,-21,1046
77971,481977,498890,41,-24,1017
78099,482149,498921,41,-24,1043
78177,482076,498924,43,-25,1043
78225,482042,498898,33,-25,1026
78334,482064,498857,42,-22,1030
78362,482267,498842,42,-23,1032
78526,482167,498864,33,-24,1032
78570,482298,498942,33,-24,1030
78653,482345,498933,33,-27,1026
78648,482380,498925,39,-31,1026
78749,482393,499121,42,-31,1030
78915,482400,499002,42,-16,1037
78914,482450,498994,50,-18,1037
79009,482562,499000,41,-18,1049
79141,482576,499124,41,-28,1033
79120,482687,499121,42,-27,1033
79375,482678,499171,40,-27,1017
79388,482819,499307,40,-18,1032
79495,482894,499368,40,-25,1032
79532,482975,499314,39,-25,1027
79435,483009,499380,42,-21,1029
79776,483158,499377,42,-22,1029
79787,483139,499387,39,-22,1002
79870,483202,499371,39,-28,1050
79992,483192,499439,42,-20,1024
80037,483354,499574,39,-22,1024
80121,483393,499515,46,-22,1020
80258,483358,499575,46,-19,1027
80232,483454,499641,41,-30,1027
80270,483495,499582,36,-30,1037
80368,483620,499614,36,-27,1033
80503,483608,499712,41,-21,1033
80486,483788,499728,46,-21,1032
80624,483690,499782,46,-25,1021
80634,483757,499817,37,-26,1021
80744,483843,499949,32,-26,1038
80811,483845,499894,32,-32,1044
80834,483914,499834,47,-29,1026
81026,483916,499834,42,-21,1026
81002,483970,499881,42,-21,1027
81054,484241,500170,39,-18,1027
81119,484146,499904,40,-18,1029
81102,484193,499883,40,-24,1040
81136,484072,499867,40,-24,1020
81096,484140,499807,44,-27,1020
81036,484204,499794,42,-27,1023
80729,483856,499831,42,-24,1027
80510,483595,499729,39,-23,1027
80250,483563,499650,48,-23,1024
79971,483393,499549,48,-20,1037
79610,483224,499512,38,-28,1037
79114,482978,499340,43,-28,1026
78928,482758,499280,43,-24,1035
78723,482578,499193,51,-27,1029
78525,482329,499054,40,-27,1029
78306,482307,499009,39,-23,1026
78090,482056,498966,39,-23,1026
77886,481857,498907,42,-23,1043
77800,481732,498830,42,-18,1023
77606,481747,498721,39,-21,1021
77439,481568,498763,40,-25,1021
77356,481336,498541,40,-25,1027
77171,481271,498543,40,-21,1043
77115,481125,498516,45,-31,1043
76974,481100,498418,39,-31,1035
76927,481159,498504,39,-25,1011
77054,480952,498469,43,-18,1011
77052,480940,498403,42,-18,1020
77142,480942,498325,42,-23,1018
77242,480923,498256,43,-25,1018
77288,481100,498354,37,-25,1040
77432,481170,498530,37,-23,1030
77615,481221,498486,42,-21,1030
77679,481286,498501,32,-26,1029
77819,481252,498524,32,-26,1023
77900,481386,498657,37,-26,1032
77852,481541,498670,36,-26,1032
78101,481496,498604,36,-21,1033
78163,481638,498774,38,-24,1027
78211,481711,498744,48,-22,1027
78260,481726,498736,39,-22,1030
78436,481961,498922,39,-30,1020
78478,481864,498755,41,-24,1020
78552,481879,498854,36,-24,1024
78685,481918,498941,36,-27,1029
78699,482021,498960,39,-29,1029
78829,482123,498995,39,-29,1027
78919,482204,499079,39,-24,1017
79045,482235,499164,46,-22,1017
79104,482198,499119,45,-22,1024
79248,482386,499184,45,-18,1035
79327,482593,499203,40,-22,1035
79429,482606,499343,45,-22,1029
79460,482620,499349,45,-21,1040
79601,482815,499362,39,-27,1040
79674,482924,499411,39,-23,1016
79764,482962,499454,39,-23,1035
79875,483052,499619,49,-20,1053
79884,483040,499516,36,-30,1053
79990,483144,499567,39,-30,1038
80152,483160,499597,39,-22,1035
80217,483426,499735,40,-22,1035
80348,483318,499707,40,-22,1024
80342,483415,499733,40,-23,1032
80399,483445,499800,47,-24,1032
80470,483511,499705,48,-24,1021
80288,483665,499825,48,-26,1035
80749,483665,499805,44,-24,1035
80734,483667,499843,39,-29,1033
80804,483766,499891,39,-29,1030
80883,483829,499960,42,-24,1030
80997,483912,500017,42,-24,1030
81104,484002,500074,42,-28,1030
81119,483965,500124,51,-21,1018
81181,483963,500025,43,-24,1018
81232,484052,500142,40,-24,1037
81377,484206,500205,40,-25,1035
81453,484187,500209,36,-24,1035
81509,484345,500159,36,-24,1026
81529,484281,500162,36,-29,1038
81617,484328,500277,46,-20,1038
81638,484391,500517,42,-20,1024
81671,484509,500224,42,-30,1023
81620,484376,500233,41,-31,1023
81531,484315,500256,42,-31,1032
81361,484268,500132,42,-31,1024
81166,484456,500274,42,-18,1024
80679,483988,499991,35,-18,1026
80496,483691,499819,35,-22,1005
80250,483556,499785,40,-21,1005
79905,483424,499790,42,-21,1026
79731,483433,499757,42,-30,1026
79226,482883,499496,43,-24,1024
79004,482667,499320,36,-25,1024
78834,482527,499313,41,-25,1029
78654,482443,499262,41,-20,1033
78552,482315,499183,37,-21,1033
78176,482034,498995,36,-21,1033
78091,481797,498861,36,-29,1046
77988,481750,498866,39,-37,1046
77810,481564,498742,40,-37,1052
77709,481625,498823,40,-26,1026
77511,481421,498737,40,-29,1026
77512,481301,498645,35,-29,1021
77473,481217,498661,35,-22,1043
77434,481147,498619,42,-27,1043
77486,481230,498695,45,-27,1033
77587,481192,498656,32,-29,1029
77760,481202,498612,32,-21,1029
77802,481271,498744,40,-21,1014
77901,481281,498675,39,-27,1021
77975,481528,498870,39,-30,1029
78132,481711,498765,39,-23,1029
78212,481689,498760,42,-23,1027
78297,481819,498869,42,-18,1024
78393,481859,498934,44,-27,1024
78400,482030,498994,47,-27,1026
78316,482061,498999,47,-31,1026
78730,482072,499001,38,-30,1026
78806,482155,499052,45,-30,1033
78926,482149,499037,45,-36,1026
78990,482377,499258,46,-21,1026
79043,482490,499288,38,-21,1050
79190,482462,499305,42,-26,1032
79177,482517,499217,42,-22,1032
79294,482595,499257,42,-22,1049
79331,482657,499313,42,-20,1018
79545,482792,499534,43,-23,1018
79588,482853,499512,41,-22,1018
79733,482977,499556,45,-22,1014
79735,483052,499508,45,-32,1027
79923,483040,499620,46,-21,1027
79940,483161,499662,36,-21,1032
80102,483202,499669,36,-25,1023
80248,483324,499775,44,-39,1023
80219,483302,499897,39,-39,1040
80258,483455,499922,39,-20,1035
80404,483568,499814,39,-26,1035
80481,483596,499868,41,-26,1035
80618,483741,499979,41,-29,1029
80656,483698,499999,40,-29,1029
80768,483740,500046,42,-29,1024
80763,483855,500151,49,-32,1014
80931,484026,500107,49,-28,1014
81012,484023,500150,39,-28,1041
81005,483904,500063,39,-27,1054
81035,483998,500188,39,-26,1021
81118,484275,500261,40,-30,1021
81230,484121,500223,39,-30,1046
81296,484203,500189,39,-21,1024
81398,484239,500297,37,-30,1024
81464,484219,500234,38,-30,1033
81605,484363,500372,38,-25,1049
81601,484426,500264,39,-36,1049
81645,484382,500328,36,-36,1035
81766,484527,500313,36,-18,1024
81844,484578,500359,41,-25,1024
81897,484598,500333,48,-25,1027
81946,484535,500378,48,-20,1020
81857,484579,500333,42,-24,1043
81834,484546,500258,44,-24,1043
81773,484495,500277,44,-23,1024
81618,484429,500290,51,-31,1024
81132,484102,500120,40,-31,1038
80855,483928,500026,40,-30,1017
80724,483803,499928,36,-29,1023
80437,483612,499901,44,-26,1023
80135,483639,499962,43,-26,1043
79719,483099,499652,43,-24,1032
79511,482915,499493,44,-30,1032
79410,482777,499478,42,-30,1035
79249,482689,499317,42,-19,1016
78986,482681,499325,36,-23,1016
78840,482385,499157,38,-23,1035
78646,482181,499072,38,-23,1024
78536,482044,498999,41,-28,1024
78364,481925,498952,42,-28,1021
78304,481977,498983,42,-30,1030
78113,481757,498825,42,-20,1030
78062,481703,498863,41,-20,1035
78125,481646,498792,41,-30,1050
78120,481531,498748,39,-24,1024
78175,481516,498822,36,-24,1024
78251,481608,498826,45,-24,1024
78405,481688,498808,45,-20,1029
78499,481738,498873,41,-22,1029
78631,481752,498842,42,-22,1035
78680,481882,498950,42,-24,1046
78883,481945,498969,38,-24,1046
78955,481983,498943,39,-24,1020
78974,482029,499031,39,-26,1044
78984,482098,499022,32,-25,1044
79228,482212,499152,39,-25,1032
79212,482262,499116,39,-21,1024
79340,482368,499198,39,-27,1024
79433,482439,499286,42,-27,1035
79410,482403,499069,42,-27,1023
79592,482579,499321,42,-26,1023
79511,482585,499321,40,-20,1043
79733,482653,499406,40,-20,1035
79822,482610,499296,42,-24,1014
79924,482793,499385,39,-30,1014
79978,482885,499404,40,-30,1029
80031,482916,499524,40,-24,1027
80227,483000,499514,36,-26,1027
80242,483074,499565,38,-26,1016
80345,483080,499516,38,-24,1020
80410,483178,499613,34,-28,1020
80654,483365,499670,39,-28,1049
80689,483421,499721,39,-27,1029
80720,483397,499719,41,-27,1029
80808,483335,499690,31,-27,1038
80859,483470,499665,31,-22,1024
81020,483500,499822,38,-21,1024
81051,483604,499807,32,-21,1018
81110,483675,499920,47,-24,1035
81189,483678,499826,47,-30,1035
81283,483702,499932,39,-30,1030
81339,483866,499920,38,-24,1023
81351,483811,499915,38,-25,1033
81504,483978,499988,36,-23,1033
81423,483919,499990,39,-23,1030
81553,483977,500006,39,-34,1037
81605,484143,500107,47,-21,1037
81749,484139,500179,37,-21,1041
81810,484055,500177,37,-27,1023
81837,484121,500123,41,-27,1023
81873,484091,500072,40,-27,1021
81963,484355,500094,40,-28,1032
82050,484343,500200,39,-26,1032
82222,484362,500182,39,-27,1035
82188,484381,500350,39,-27,1029
82306,484448,500277,36,-26,1029
82348,484704,500320,48,-26,1041
82419,484564,500222,38,-27,1035
82471,484498,500249,38,-23,1033
82512,484554,500290,42,-26,1033
82526,484536,500251,41,-26,1024
82451,484619,500400,41,-25,1037
82099,484406,500211,48,-27,1037
81937,484262,500080,39,-27,1046
81676,484192,500118,39,-27,1033
81389,483996,500014,42,-24,1033
81117,483934,500099,36,-24,1024
80626,483589,499849,36,-34,1023
80381,483427,499735,34,-27,1023
80092,483234,499672,38,-27,1035
79882,483178,499643,38,-27,1037
79713,482971,499700,41,-21,1037
79315,482640,499428,34,-18,1020
79158,482534,499359,34,-18,1024
78985,482408,499212,47,-24,1040
78825,482262,499244,37,-24,1040
78696,482265,499268,29,-23,1029
78453,481851,499040,29,-28,1020
78377,481811,498927,25,-20,1020
78218,481615,498815,36,-20,1038
78135,481453,498768,36,-30,1059
78122,481544,498774,36,-25,1059
78000,481354,498713,40,-25,1040
78154,481249,498656,40,-29,1024
78199,481273,498654,41,-24,1024
78146,481296,498698,35,-24,1014
78270,481422,498715,35,-16,1033
78454,481538,498851,39,-30,1033
78560,481608,498901,38,-30,1033
78719,481586,498830,38,-25,1033
78830,481677,498952,43,-28,1030
78925,481846,499016,38,-28,1030
78957,481917,498999,31,-28,1014
79144,481943,499137,31,-21,1026
79190,481970,499163,39,-27,1026
79324,481959,499171,39,-27,1033
79391,482184,499174,39,-29,1035
79477,482274,499267,41,-27,1035
79504,482245,499260,41,-27,1029
79623,482258,499330,41,-29,1035
79688,482367,499272,50,-23,1035
79733,482507,499398,48,-23,1037
79914,482667,499451,48,-32,1014
79979,482701,499512,36,-18,1014
80102,482767,499542,36,-25,1020
80198,482742,499560,36,-25,1035
80240,482818,499619,42,-22,1035
80244,482956,499734,40,-22,1033
80477,482949,499731,40,-29,1041
80575,483056,499710,43,-26,1016
80604,483108,499748,46,-24,1016
80781,483197,499797,31,-24,1029
80913,483451,499985,31,-28,1021
80923,483350,499912,40,-30,1021
80969,483380,499997,37,-30,1030
81027,483443,499977,37,-23,1023
81084,483389,499888,37,-24,1023
81208,483617,500043,37,-24,1038
81300,483706,500118,37,-26,1040
81361,483724,500171,34,-27,1040
81480,483881,500166,37,-27,1035
81512,483831,500205,37,-32,1049
81514,484055,500374,42,-22,1049
81688,484015,500250,38,-22,1030
81804,484182,500319,38,-29,1021
81741,484212,500379,41,-23,1021
81836,484087,500396,42,-22,1038
81954,484267,500406,39,-22,1024
82071,484363,500423,39,-23,1023
82155,484351,500492,34,-27,1023
82140,484392,500479,36,-27,1005
82207,484398,500404,36,-27,1011
82277,484674,500515,31,-24,1011
82339,484483,500469,39,-24,1013
82388,484579,500514,39,-23,1032
82362,484566,500559,38,-34,1032
82522,484648,500499,38,-34,1038
82563,484819,500564,38,-24,1033
82650,484730,500630,39,-23,1033
82677,484775,500610,30,-23,1038
82609,484692,500652,47,-22,1040
82644,484695,500573,47,-21,1040
82594,484807,500685,44,-26,1024
82101,484546,500365,44,-26,1023
81923,484339,500457,33,-25,1017
81539,484125,500293,37,-24,1017
81277,484087,500196,32,-24,1026
81078,483663,500208,32,-27,1027
80490,483275,499908,43,-29,1027
80223,483195,499771,33,-29,1035
80081,483061,499758,33,-26,1027
79838,482845,499770,39,-28,1027
79635,482855,499684,35,-28,1033
79346,482481,499356,35,-27,1044
79171,482343,499400,38,-21,1044
78965,482191,499294,33,-21,1032
78826,481976,499240,33,-19,1027
78753,482090,499336,34,-30,1044
78507,481595,498982,38,-30,1044
78312,481489,498890,38,-23,1021
78323,481361,498903,42,-28,1021
78254,481299,498857,36,-28,1037
78178,481355,498832,36,-21,1026
78254,481228,498710,37,-27,1044
78317,481185,498748,37,-23,1044
78297,481157,498765,36,-23,1027
78453,481169,498794,36,-24,1049
78544,481320,498882,41,-28,1049
78841,481432,498930,36,-28,1023
78934,481533,498896,36,-24,1037
79075,481695,499125,38,-21,1037
79196,481739,499119,36,-21,1032
79252,481789,499260,36,-28,1033
79262,481841,499252,39,-26,1033
79423,482010,499249,35,-26,1043
79539,482108,499379,35,-34,1024
79556,481965,499363,42,-28,1024
79632,482199,499476,42,-28,1033
79786,482332,499456,42,-25,1043
79797,482259,499607,39,-30,1043
79883,482396,499526,41,-24,1027
79911,482495,499541,41,-24,1041
80053,482546,499630,41,-34,1038
80086,482581,499741,42,-24,1038
80225,482694,499712,32,-24,1029
80349,482763,499784,32,-27,1020
80494,482800,499804,39,-24,1020
80630,482924,499991,39,-24,1017
80558,483103,500022,39,-23,1017
80765,483154,500001,30,-29,1017
80849,483206,500013,30,-29,1037
80970,483390,500176,30,-30,1041
80998,483445,500073,38,-21,1041
81158,483511,500277,39,-22,1035
81240,483478,500180,39,-22,1030
81249,483473,500244,41,-16,1030
81315,483578,500230,32,-16,1024
81463,483646,500253,39,-23,1033
81518,483782,500345,39,-22,1037
81548,483810,500328,42,-21,1037
81723,483965,500395,36,-21,1033
81739,483913,500426,36,-25,1032
81837,484059,500485,40,-30,1032
81873,484166,500534,40,-30,1023
82083,484221,500632,40,-24,1053
82039,484229,500520,42,-23,1053
82149,484261,500637,42,-23,1027
82236,484254,500655,42,-30,1008
82247,484428,500711,31,-20,1008
82386,484440,500675,36,-20,1033
82424,484470,500767,36,-23,1037
82416,484582,500762,42,-29,1038
82498,484555,500780,41,-29,1038
82538,484768,500907,37,-18,1040
82748,484783,500875,37,-23,1040
82747,484787,500855,36,-25,1035
82801,484811,500845,36,-25,1032
82869,484825,500864,43,-28,1041
82912,484975,500865,36,-17,1041
83072,484979,500987,40,-17,1010
83084,485013,500921,40,-20,1032
83023,485084,501010,42,-34,1032
82972,484942,501009,43,-34,1043
82999,484922,501017,43,-30,1017
82447,484774,500907,42,-30,1017
82229,484570,500751,46,-30,1024
81969,484385,500738,46,-27,1032
81742,484156,500519,31,-23,1032
81398,483886,500522,42,-23,1008
80872,483729,500307,42,-20,1041
80659,483518,500210,37,-21,1041
80455,483403,500178,35,-27,1030
80222,483146,499994,35,-27,1038
80076,483196,500184,36,-27,1035
79651,482866,499895,45,-27,1035
79594,482659,499872,45,-25,1023
79387,482499,499719,36,-27,1041
79283,482345,499706,43,-24,1041
79125,482464,499719,40,-24,1018
78923,482093,499524,40,-28,1038
78826,482018,499363,36,-29,1038
78829,481855,499326,35,-29,1021
78696,481798,499346,35,-23,1011
78685,481782,499385,35,-30,1011
78726,481736,499276,42,-30,1032
78732,481732,499268,42,-27,1013
78858,481719,499327,39,-29,1013
78927,481757,499420,34,-29,1033
79177,482001,499501,34,-28,1035
79348,482120,499510,41,-23,1021
79513,482190,499626,35,-23,1021
79574,482164,499597,39,-22,1023
79704,482314,499557,39,-25,1023
79737,482415,499758,39,-25,1024
79840,482536,499773,39,-31,1013
79954,482546,499702,35,-27,1016
79989,482612,499772,39,-28,1016
79982,482667,499856,42,-28,1005
80093,482756,499941,42,-28,1035
80178,482779,500071,39,-19,1035
80356,482927,499995,37,-19,1023
80315,482899,500044,37,-29,1021
80335,482979,500126,40,-25,1021
80515,483118,500171,41,-25,1024
80518,483190,500284,41,-26,1017
80730,483202,500215,45,-24,1017
80731,483249,500190,36,-24,1017
80887,483283,500226,36,-24,1013
80935,483377,500411,42,-28,1029
81008,483551,500427,40,-23,1029
81229,483632,500426,40,-23,1035
81239,483597,500404,41,-23,1035
81326,483714,500457,39,-22,1029
81403,483815,500523,39,-22,1050
81629,484011,500637,42,-21,1026
81648,483938,500604,35,-21,1026
81642,484029,500614,34,-21,1030
81607,484114,500649,34,-24,1049
81810,484137,500621,42,-23,1049
81860,484177,500775,36,-23,1024
81924,484265,500699,36,-22,1029
82036,484323,500740,34,-24,1029
82149,484398,500725,42,-24,1033
82116,484384,500828,42,-22,1023
82209,484585,500838,32,-25,1023
82346,484553,500869,44,-25,1032
82341,484542,500929,44,-23,1038
82452,484593,500978,35,-20,1038
82386,484599,500894,36,-20,1024
82457,484661,500928,36,-24,1018
82585,484726,500916,33,-21,1018
82634,484731,500923,35,-21,1032
82728,484803,500956,39,-22,1030
82767,484810,500982,39,-25,1041
82847,484963,500992,45,-24,1041
83013,484931,501025,38,-24,1033
83039,484942,500960,38,-24,1041
83039,484988,501083,39,-24,1041
83028,485002,500981,39,-24,1033
83012,485089,501080,39,-21,1030
82691,484811,500907,39,-24,1030
82467,484615,500862,38,-24,1029
82134,484508,500825,38,-24,1016
81878,484303,500717,43,-23,1016
81632,484140,500657,41,-23,1035
81060,483757,500501,32,-21,1033
80849,483551,500355,32,-22,1033
80604,483399,500253,41,-22,1017
80400,483162,500084,38,-28,1033
80187,483136,500121,38,-15,1033
79977,482754,500003,41,-24,1027
79824,482729,499918,36,-24,1023
79700,482571,499848,36,-22,1021
79532,482555,499681,41,-23,1021
79462,482563,499762,41,-23,1026
79232,482195,499647,41,-21,1026
79123,482062,499480,36,-27,1026
79158,481964,499506,36,-27,1021
79036,481870,499334,36,-25,1043
79099,481965,499468,42,-23,1043
79029,481705,499309,42,-23,1047
79145,481732,499353,42,-28,1029
79207,481778,499334,41,-24,1029
79400,481835,499408,41,-26,1017
79427,482005,499451,41,-26,1013
79685,481981,499460,35,-25,1013
79792,482022,499529,39,-27,1011
79940,482170,499601,39,-27,1030
79926,482278,499622,36,-23,1035
79994,482359,499632,40,-22,1035
80050,482328,499645,36,-22,1030
80116,482276,499688,36,-28,1027
80197,482418,499750,43,-26,1027
80223,482515,499745,41,-26,1027
80339,482601,499890,41,-27,1020
80376,482701,499852,41,-24,1020
80483,482788,499892,39,-24,1033
80506,482763,499868,39,-19,1041
80600,482751,499903,45,-21,1041
80720,482933,499928,40,-21,1029
80781,482942,499972,40,-21,1018
80911,483063,500095,44,-20,1018
80929,482985,500084,42,-20,1038
81078,483095,500123,42,-20,1032
81164,483270,500171,46,-30,1032
81059,483289,500235,38,-22,1037
81298,483354,500168,38,-22,1046
81477,483551,500315,42,-27,1027
81507,483535,500398,44,-21,1027
81589,483636,500290,39,-21,1016
81619,483663,500411,39,-29,1011
81737,483722,500469,37,-26,1011
81797,483740,500371,36,-26,1035
81871,483807,500386,36,-29,1029
81937,483907,500403,32,-28,1029
82047,484140,500506,36,-28,1032
82247,484088,500560,36,-28,1030
82203,484109,500642,42,-30,1030
82281,484044,500564,38,-30,1032
82338,484178,500611,38,-24,1035
82324,484076,500610,44,-24,1035
82516,484277,500665,37,-33,1033
82551,484247,500589,37,-33,1035
82597,484413,500666,43,-30,1035
82689,484383,500781,41,-28,1016
82729,484550,500700,41,-28,1035
82798,484498,500764,36,-24,1014
82856,484520,500750,39,-20,1014
82977,484596,500843,42,-20,1029
83006,484635,500761,42,-22,1020
83054,484737,500929,39,-24,1020
83170,484777,500866,34,-24,1024
83182,484736,500884,34,-21,1027
83277,484860,500951,41,-21,1027
83327,484885,500913,30,-21,1017
83241,484953,500861,30,-28,1038
83041,484671,500767,43,-27,1038
82876,484624,500747,41,-27,1043
82583,484434,500562,41,-24,1037
82343,484291,500567,42,-23,1024
82150,484120,500570,47,-23,1024
81474,483780,500338,47,-25,1014
81255,483583,500196,37,-22,1021
80962,483364,500184,39,-22,1021
80786,483259,500057,39,-22,1035
80508,483261,500122,39,-25,1008
80253,482896,500006,39,-24,1008
80044,482665,499770,42,-24,1023
79855,482477,499746,42,-29,1033
79798,482463,499673,41,-27,1033
79583,482252,499669,36,-27,1038
79355,481972,499465,36,-26,1027
79214,481881,499455,34,-27,1027
79027,481726,499365,44,-27,1027
78996,481634,499328,44,-20,1040
78892,481597,499382,47,-24,1040
78809,481269,499076,37,-24,1041
78747,481299,499009,37,-34,1044
78811,481256,499057,35,-24,1044
78858,481265,499123,41,-24,1024
79028,481474,499149,41,-26,1032
79226,481487,499156,41,-22,1032
79319,481537,499237,37,-22,1016
79519,481717,499282,37,-25,1020
79608,481742,499396,39,-27,1018
79737,481982,499508,38,-27,1018
79923,481876,499491,42,-27,1026
79995,482033,499532,42,-28,1024
80041,482184,499582,37,-31,1024
80200,482209,499570,29,-31,1024
80191,482429,499820,29,-18,1008
80301,482342,499710,48,-21,1008
80359,482392,499727,32,-21,1035
80377,482478,499792,32,-18,1023
80506,482574,499760,42,-26,1023
80600,482767,499959,37,-26,1044
80693,482774,499968,37,-26,1017
80837,482780,500029,42,-27,1017
80833,482955,499990,39,-20,1032
80988,482873,500094,39,-20,1033
80980,483109,500044,43,-24,1041
81090,483115,500148,41,-24,1041
81237,483164,500188,41,-24,1032
81315,483249,500170,39,-31,1024
81419,483275,500224,39,-27,1024
81436,483332,500333,44,-27,1046
81459,483606,500337,44,-28,1032
81619,483537,500267,42,-26,1032
81727,483639,500485,38,-26,1023
81811,483623,500382,38,-26,1014
81921,483749,500437,45,-23,1014
81818,483918,500471,37,-23,1053
82106,483848,500458,37,-29,1033
82070,483895,500482,39,-21,1033
82196,483869,500566,35,-21,1033
82226,483889,500530,35,-27,1030
82336,484217,500656,43,-20,1030
82382,484222,500670,34,-20,1018
82491,484186,500703,34,-20,1032
82524,484217,500728,36,-22,1035
82578,484320,500733,39,-22,1035
82723,484350,500742,39,-34,1038
82804,484458,500720,51,-24,1043
82729,484321,500806,43,-27,1043
82894,484467,500729,39,-27,1030
82872,484432,500750,39,-27,1033
82937,484577,500848,30,-18,1033
83029,484583,500925,37,-18,1030
83026,484629,500882,37,-27,1026
83228,484682,501017,31,-36,1026
83187,484707,500925,36,-36,1027
83267,484784,500977,36,-18,1029
83395,484880,501030,34,-31,1029
83413,484894,500972,42,-31,1032
83421,484963,501086,42,-25,1035
83412,484935,501023,45,-24,1035
83394,485052,500978,43,-25,1047
83040,484635,500922,43,-25,994
82724,484441,500815,47,-26,994
82465,484337,500700,39,-26,1037
82181,484085,500554,48,-21,1033
81889,483910,500500,48,-22,1017
81260,483423,500234,41,-27,1017
81030,483267,500121,42,-27,994
80843,483062,500073,42,-21,1021
80608,482943,500005,35,-30,1021
80387,482883,499894,30,-30,1033
80113,482316,499795,30,-20,1011
79992,482334,499707,38,-26,1011
79809,482129,499651,46,-26,1008
79722,481945,499495,46,-26,1030
79591,481933,499495,32,-28,1030
79332,481660,499260,42,-28,1035
79207,481530,499297,36,-26,1040
79174,481384,499225,36,-24,1035
79052,481266,499178,37,-24,1035
79034,481357,499164,37,-24,1018
78944,481182,499033,36,-26,1017
79025,481139,499046,33,-26,1017
79092,481154,499051,42,-29,1046
79142,481164,498985,42,-24,1020
79295,481371,499126,44,-20,1020
79571,481402,499138,32,-20,1037
79644,481602,499274,32,-27,1020
79796,481608,499364,36,-30,1020
79820,481704,499314,39,-30,1029
79984,481836,499389,39,-21,1010
80142,481904,499436,38,-26,1010
80147,481923,499472,40,-26,1032
80216,481917,499598,40,-27,1023
80264,482073,499585,42,-25,1023
80403,482189,499722,42,-25,1040
80424,482159,499694,31,-24,1041
80537,482375,499745,31,-26,1041
80642,482282,499783,43,-26,1043
80728,482394,499780,39,-18,1029
80779,482623,499950,39,-21,1029
80968,482717,500006,45,-27,1027
81055,482688,499933,44,-27,1023
81088,482845,499990,44,-24,1024
81187,482932,500054,36,-24,1024
81271,482977,500143,40,-24,1029
81394,483128,500218,40,-21,1026
81526,483214,500243,42,-30,1026
81604,483254,500283,48,-30,1023
81690,483366,500250,48,-21,1033
81703,483478,500363,33,-28,1033
81649,483493,500485,40,-28,1038
81982,483625,500329,40,-22,1037
82072,483678,500448,39,-24,1014
82113,483674,500488,39,-24,1014
82285,483870,500631,39,-24,1024
82351,483896,500673,34,-27,1024
82320,483950,500669,32,-27,1023
82398,483991,500662,42,-22,1035
82558,484042,500662,42,-24,1027
82568,484085,500671,42,-20,1027
82640,484315,500877,36,-20,1035
82763,484251,500762,36,-21,1035
82770,484277,500823,36,-29,1035
82872,484343,500838,49,-29,1030
82933,484218,500799,49,-24,1030
82992,484475,500892,42,-24,1030
83101,484532,500845,37,-24,1038
83135,484568,500894,37,-20,1024
83188,484557,500840,38,-27,1024
83306,484575,500911,33,-27,1024
83346,484601,500979,33,-24,1041
83409,484766,500965,44,-29,1041
83495,484728,501085,46,-29,1029
83548,484801,501128,45,-22,1033
83590,484863,501081,45,-30,1033
83676,484965,501195,41,-30,1035
83765,485018,501195,41,-24,1037
83802,484998,501162,42,-30,1043
83882,485121,501188,37,-20,1043
83956,485150,501222,42,-20,1013
83786,485364,501374,42,-21,1032
83831,485096,501184,39,-15,1032
83674,485014,501205,39,-15,1040
83396,484920,501092,39,-25,1033
83205,484682,500925,34,-21,1033
82994,484619,500925,40,-21,1033
82222,484095,500638,40,-29,1027
81989,483836,500611,47,-25,1027
81699,483648,500484,39,-25,1049
81425,483428,500370,39,-18,1030
81281,483390,500298,40,-29,1027
80953,483033,500252,37,-29,1027
80796,482815,500038,37,-23,1016
80641,482681,499911,39,-27,1016
80513,482514,499941,37,-28,1037
80385,482487,500000,36,-28,1016
80080,482261,499745,36,-24,1063
80019,482069,499655,40,-26,1063
79929,481944,499642,48,-26,1033
79880,481911,499605,48,-22,1033
79777,482011,499574,39,-20,1033
79684,481847,499528,38,-20,1027
79702,481628,499455,38,-26,1040
79704,481601,499363,36,-30,1040
79773,481651,499483,37,-30,1035
79811,481889,499513,37,-30,1035
80080,481942,499612,36,-27,1032
80159,482076,499574,49,-27,1032
80330,482154,499716,49,-25,1007
80463,482305,499796,41,-18,1007
80537,482404,499920,37,-18,1026
80754,482485,499922,40,-24,1020
80769,482597,499966,40,-28,1004
80830,482658,500025,42,-30,1004
80828,482733,500065,36,-30,1037
80972,482827,500178,36,-24,1044
80815,482915,500129,45,-27,1044
81139,483027,500177,40,-27,1047
81146,483099,500263,40,-24,1040
81265,483061,500283,41,-29,1040
81319,483222,500417,40,-29,1038
81443,483302,500400,40,-25,1021
81577,483383,500427,39,-24,1021
