5330,5694,5123,181,200,174,10240,-1.00,-1.00,0.00,0.00,5142,5485,4950,0,0,0,0,0,0
5337,5705,5123,185,205,173,10240,-1.00,-1.00,0.00,0.00,5148,5493,4956,0,0,0,0,0,0
5345,5711,5123,189,209,170,10240,-1.00,-1.00,0.00,0.00,5155,5500,4961,0,0,0,0,0,0
5352,5719,5123,189,211,164,10240,-1.00,-1.00,0.00,0.00,5161,5507,4967,0,0,0,0,0,0
5361,5728,5123,190,212,159,10240,-1.00,-1.00,0.00,0.00,5168,5515,4972,0,0,0,0,0,0
5356,5725,5123,189,209,153,10240,-1.00,-1.00,0.00,0.00,5174,5522,4977,0,8,0,0,0,0
5344,5712,5123,182,203,148,10240,-1.00,-1.00,0.00,0.00,5180,5528,4982,0,8,0,0,0,0
5318,5685,5123,168,188,143,10240,-1.00,-1.00,0.00,0.00,5184,5533,4987,0,8,0,0,0,0
5296,5657,5103,147,164,133,10240,-1.00,-1.00,0.00,0.00,5188,5537,4991,0,8,0,0,0,0
5268,5620,5073,120,134,117,10240,-1.00,-1.00,0.00,0.00,5191,5540,4993,0,8,0,0,0,0
5259,5607,5066,96,104,99,10240,-1.00,-1.00,0.00,0.00,5193,5542,4996,0,8,0,0,0,0
5253,5599,5061,77,80,81,10240,-1.00,-1.00,0.00,0.00,5195,5544,4998,0,8,0,0,0,0
5252,5600,5059,64,63,68,10240,-1.00,-1.00,0.00,0.00,5197,5546,5000,0,8,0,0,0,0
5253,5602,5059,58,57,62,10240,-1.00,-1.00,0.00,0.00,5199,5548,5002,0,8,0,0,0,0
5257,5603,5061,55,54,59,10240,-1.00,-1.00,0.00,0.00,5201,5550,5004,0,8,0,0,0,0
5263,5610,5066,56,54,58,10240,-1.00,-1.00,0.00,0.00,5203,5552,5006,0,8,0,0,0,0
5266,5612,5068,57,55,58,10240,-1.00,-1.00,0.00,0.00,5205,5554,5008,0,8,0,0,0,0
5270,5619,5073,60,58,60,10240,-1.00,-1.00,0.00,0.00,5207,5556,5010,0,8,0,0,0,0
5272,5624,5075,61,61,61,10240,-1.00,-1.00,0.00,0.00,5209,5558,5012,0,8,0,0,0,0
5277,5631,5080,63,64,62,10240,-1.00,-1.00,0.00,0.00,5212,5561,5015,0,8,0,0,0,0
5291,5647,5092,67,70,66,10240,-1.00,-1.00,0.00,0.00,5214,5564,5017,0,8,0,0,0,0
5296,5655,5099,71,76,70,10240,-1.00,-1.00,0.00,0.00,5217,5567,5020,0,8,0,0,0,0
5302,5662,5107,75,83,75,10240,-1.00,-1.00,0.00,0.00,5220,5570,5023,0,8,0,0,0,0
5304,5666,5114,79,89,81,10240,-1.00,-1.00,0.00,0.00,5223,5573,5026,0,8,0,0,0,0
5309,5672,5114,81,92,84,10240,-1.00,-1.00,0.00,0.00,5225,5576,5029,0,8,0,0,0,0
5326,5690,5122,86,97,86,10240,-1.00,-1.00,0.00,0.00,5229,5580,5032,0,8,0,0,0,0
5334,5699,5123,91,103,87,10240,-1.00,-1.00,0.00,0.00,5232,5584,5035,0,8,0,0,0,0
5342,5707,5123,97,110,87,10240,-1.00,-1.00,0.00,0.00,5236,5588,5038,0,8,0,0,0,0
5348,5714,5123,103,116,86,10240,-1.00,-1.00,0.00,0.00,5240,5592,5041,0,8,7,0,0,0
5352,5718,5123,106,119,83,10240,-1.00,-1.00,1.03,0.00,5243,5597,5043,0,8,7,0,0,0
5352,5719,5123,107,120,81,10240,-1.00,-1.00,1.03,0.00,5247,5601,5046,0,8,7,0,0,0
5329,5693,5123,100,112,78,10240,-1.00,-1.00,1.03,0.00,5250,5604,5049,13,22,7,0,0,0
5304,5663,5103,86,96,71,10240,-1.00,-1.00,1.03,0.00,5252,5606,5050,13,22,7,0,0,0
5284,5637,5082,66,73,58,10240,-1.00,-1.00,1.03,0.00,5253,5607,5051,13,22,7,0,0,0
5268,5615,5067,44,46,43,10240,-1.00,-1.00,1.03,0.00,5253,5607,5052,13,22,7,77,0,0
5256,5601,5057,25,22,26,10240,-1.00,-1.00,1.03,0.00,5253,5607,5052,13,22,7,77,0,0
5244,5587,5047,10,3,11,10240,-1.00,-1.00,1.03,0.00,5253,5606,5052,13,22,7,77,0,0
5244,5586,5048,0,-9,2,10240,-1.00,-1.00,1.03,0.00,5253,5605,5052,13,22,7,77,0,0
5245,5587,5046,-5,-15,-2,10240,-1.00,-1.00,1.03,0.00,5252,5605,5052,13,22,7,77,0,0
5247,5589,5048,-7,-17,-4,10240,-1.00,-1.00,1.03,0.00,5252,5604,5052,13,22,7,77,0,0
5249,5591,5050,-6,-16,-3,10240,-1.00,-1.00,1.03,0.00,5252,5604,5051,13,22,7,77,0,0
5256,5600,5055,-2,-12,-2,10240,-1.00,-1.00,1.03,0.00,5252,5604,5052,13,22,7,77,0,0
5259,5604,5059,0,-8,1,10240,-1.00,-1.00,1.03,0.00,5252,5604,5052,13,22,7,77,0,0
5266,5613,5065,5,-2,5,10240,-1.00,-1.00,1.03,0.00,5253,5604,5052,13,22,7,77,0,0
5272,5622,5071,10,5,10,10240,-1.00,-1.00,1.03,0.00,5254,5605,5053,13,22,7,77,0,0
5277,5630,5074,15,12,14,10240,-1.00,-1.00,1.03,0.00,5254,5605,5054,13,22,7,77,0,0
5292,5637,5080,22,20,19,10240,-1.00,-1.00,1.03,0.00,5256,5607,5054,13,22,7,77,0,0
5297,5651,5093,29,28,25,10240,-1.00,-1.00,1.03,0.00,5257,5608,5056,13,22,7,77,0,0
5301,5658,5097,35,36,30,10240,-1.00,-1.00,1.03,0.00,5258,5610,5057,13,22,7,77,0,0
5304,5664,5105,40,43,37,10240,-1.00,-1.00,1.03,0.00,5260,5611,5059,13,22,7,77,0,0
5309,5671,5111,43,50,43,10240,-1.00,-1.00,1.03,0.00,5262,5613,5060,13,22,7,77,0,0
5316,5680,5119,46,55,48,10240,-1.00,-1.00,1.03,0.00,5263,5616,5062,13,22,7,77,0,0
5337,5703,5123,53,64,53,10240,-1.00,-1.00,1.03,0.00,5266,5619,5064,13,22,7,77,0,0
5343,5712,5123,61,74,56,10240,-1.00,-1.00,1.03,0.00,5268,5622,5066,13,22,7,77,0,0
5347,5715,5123,68,82,57,10240,-1.00,-1.00,1.03,0.00,5271,5625,5068,13,22,7,77,0,0
5349,5717,5123,74,88,56,10240,-1.00,-1.00,1.03,0.00,5274,5628,5070,13,22,20,77,0,0
5345,5711,5123,73,87,54,10240,-1.00,-1.00,0.99,0.62,5276,5631,5072,30,43,20,77,0,0
5312,5676,5117,63,75,50,10240,-1.00,-1.00,0.99,0.62,5277,5632,5073,30,43,20,77,0,0
5293,5649,5090,48,57,41,10240,-1.00,-1.00,0.99,0.62,5278,5633,5074,30,43,20,77,0,0
5276,5626,5074,29,33,27,10240,-1.00,-1.00,0.99,0.62,5278,5632,5074,30,43,20,77,0,0
5263,5608,5062,8,7,12,10240,-1.00,-1.00,0.99,0.62,5277,5632,5074,30,43,20,76,0,0
5252,5596,5053,-6,-12,-4,10240,-1.00,-1.00,0.99,0.62,5276,5630,5073,30,43,20,76,0,0
5245,5590,5048,-17,-25,-14,10240,-1.00,-1.00,0.99,0.62,5275,5629,5072,30,43,20,76,0,0
5245,5590,5048,-24,-33,-19,10240,-1.00,-1.00,0.99,0.62,5274,5628,5071,30,43,20,76,0,0
5247,5593,5049,-27,-36,-22,10240,-1.00,-1.00,0.99,0.62,5273,5627,5071,30,43,20,76,0,0
5249,5595,5050,-27,-35,-22,10240,-1.00,-1.00,0.99,0.62,5273,5626,5070,30,43,20,76,0,0
5251,5599,5052,-25,-32,-20,10240,-1.00,-1.00,0.99,0.62,5272,5625,5069,30,43,20,76,0,0
5254,5606,5057,-22,-27,-17,10240,-1.00,-1.00,0.99,0.62,5271,5624,5069,30,43,20,76,0,0
5253,5611,5059,-20,-22,-14,10240,-1.00,-1.00,0.99,0.62,5271,5624,5069,30,43,20,76,0,0
5254,5617,5064,-18,-15,-10,10240,-1.00,-1.00,0.99,0.62,5270,5623,5068,30,43,20,76,0,0
5263,5627,5070,-14,-8,-6,10240,-1.00,-1.00,0.99,0.62,5270,5624,5068,30,43,20,76,0,0
5271,5635,5074,-10,-1,-1,10240,-1.00,-1.00,0.99,0.62,5270,5624,5069,30,43,20,76,0,0
5288,5655,5086,-1,9,5,10240,-1.00,-1.00,0.99,0.62,5271,5625,5069,30,43,20,76,0,0
5297,5664,5089,9,20,10,10240,-1.00,-1.00,0.99,0.62,5271,5626,5070,30,43,20,76,0,0
5301,5669,5094,18,30,16,10240,-1.00,-1.00,0.99,0.62,5272,5628,5071,30,43,20,76,0,0
5307,5674,5099,26,38,21,10240,-1.00,-1.00,0.99,0.62,5274,5629,5072,30,43,20,76,0,0
5312,5680,5104,31,43,25,10240,-1.00,-1.00,0.99,0.62,5275,5631,5073,30,43,20,76,0,0
5327,5700,5121,37,50,32,10240,-1.00,-1.00,0.99,0.62,5277,5633,5074,30,43,20,76,0,0
5339,5712,5123,45,59,38,10240,-1.00,-1.00,0.99,0.62,5279,5636,5076,30,43,20,76,0,0
5346,5720,5123,53,68,42,10240,-1.00,-1.00,0.99,0.62,5281,5639,5077,30,43,20,76,0,0
5349,5725,5123,60,76,46,10240,-1.00,-1.00,0.99,0.62,5283,5642,5079,30,43,20,76,0,0
5349,5723,5123,63,79,45,10240,-1.00,-1.00,0.99,0.62,5285,5644,5080,30,43,32,76,0,0
5333,5707,5122,60,76,43,10240,-1.00,-1.00,1.21,0.90,5287,5646,5082,45,61,32,76,0,0
5317,5687,5108,51,65,38,10240,-1.00,-1.00,1.21,0.90,5288,5648,5083,45,61,32,76,0,0
5311,5674,5095,40,51,30,10240,-1.00,-1.00,1.21,0.90,5289,5649,5083,45,61,32,78,0,0
5304,5665,5090,28,35,21,10240,-1.00,-1.00,1.21,0.90,5289,5649,5083,45,61,32,78,0,0
5301,5659,5082,19,22,10,10240,-1.00,-1.00,1.21,0.90,5290,5649,5083,45,61,32,78,0,0
5302,5657,5082,15,14,4,10240,-1.00,-1.00,1.21,0.90,5290,5650,5083,45,61,32,78,0,0
5306,5661,5085,13,11,1,10240,-1.00,-1.00,1.21,0.90,5291,5650,5083,45,61,32,78,100,0
5311,5665,5087,14,10,1,10240,-1.00,-1.00,1.21,0.90,5291,5651,5083,45,61,32,78,100,0
5316,5671,5089,17,13,2,10240,-1.00,-1.00,1.21,0.90,5292,5651,5084,45,61,32,78,100,0
5318,5678,5093,21,17,5,10240,-1.00,-1.00,1.21,0.90,5293,5652,5084,45,61,32,78,100,0
5328,5690,5105,25,24,9,10240,-1.00,-1.00,1.21,0.90,5294,5653,5085,45,61,32,78,100,0
5335,5697,5114,30,31,15,10240,-1.00,-1.00,1.21,0.90,5295,5655,5086,45,61,32,78,100,0
5343,5707,5121,36,38,22,10240,-1.00,-1.00,1.21,0.90,5297,5657,5087,45,61,32,78,100,0
5353,5717,5123,43,46,29,10240,-1.00,-1.00,1.21,0.90,5299,5659,5088,45,61,32,78,100,0
5360,5728,5123,49,54,32,10240,-1.00,-1.00,1.21,0.90,5301,5661,5089,45,61,32,78,100,0
5378,5748,5123,58,64,34,10240,-1.00,-1.00,1.21,0.90,5303,5664,5090,45,61,32,78,100,0
5384,5755,5123,66,74,33,10240,-1.00,-1.00,1.21,0.90,5306,5667,5091,45,61,33,78,100,0
5391,5762,5123,73,82,32,10240,-1.00,-1.00,1.66,1.31,5309,5670,5092,45,61,33,78,100,0
5396,5770,5123,79,90,31,10240,-1.00,-1.00,1.66,1.31,5312,5673,5094,45,61,33,78,100,0
5403,5779,5123,83,94,30,10240,-1.00,-1.00,1.66,1.31,5315,5677,5094,45,61,33,78,100,0
5419,5798,5123,88,102,29,10240,-1.00,-1.00,1.66,1.31,5318,5681,5095,45,61,33,78,100,0
5425,5805,5123,94,109,28,10240,-1.00,-1.00,1.66,1.31,5322,5685,5096,45,61,33,78,100,0
5429,5811,5123,98,115,27,10240,-1.00,-1.00,1.66,1.31,5326,5689,5097,45,61,33,78,100,0
5430,5813,5123,102,119,26,10240,-1.00,-1.00,1.66,1.31,5329,5693,5098,45,61,33,78,100,0
5428,5809,5123,100,118,25,10240,-1.00,-1.00,1.66,1.31,5332,5697,5099,56,73,33,78,100,0
5419,5799,5123,96,113,24,10240,-1.00,-1.00,1.66,1.31,5335,5701,5100,56,73,33,78,100,0
5415,5794,5123,89,105,23,10240,-1.00,-1.00,1.66,1.31,5338,5704,5101,56,73,33,78,100,0
5412,5791,5123,82,96,22,10240,-1.00,-1.00,1.66,1.31,5340,5707,5101,56,73,33,78,100,0
5408,5788,5123,74,87,22,10240,-1.00,-1.00,1.66,1.31,5343,5709,5102,56,73,33,78,100,0
5411,5790,5123,70,82,21,10240,-1.00,-1.00,1.66,1.31,5345,5712,5103,56,73,33,78,100,0
5418,5798,5123,68,81,20,10240,-1.00,-1.00,1.66,1.31,5347,5715,5103,56,73,33,78,100,0
5421,5802,5123,68,81,20,10240,-1.00,-1.00,1.66,1.31,5350,5718,5104,56,73,33,78,100,0
5424,5804,5123,70,82,19,10240,-1.00,-1.00,1.66,1.31,5352,5721,5105,56,73,33,78,100,0
5426,5810,5123,71,84,18,10240,-1.00,-1.00,1.66,1.31,5355,5724,5105,56,73,33,78,100,0
5428,5813,5123,71,84,18,10240,-1.00,-1.00,1.66,1.31,5357,5727,5106,56,73,33,78,100,0
5437,5825,5123,72,87,17,10240,-1.00,-1.00,1.66,1.31,5360,5730,5106,56,73,33,78,100,0
5442,5833,5139,74,91,20,10240,-1.00,-1.00,1.66,1.31,5363,5733,5108,56,73,33,78,100,0
5447,5843,5147,77,96,25,10240,-1.00,-1.00,1.66,1.31,5365,5737,5109,56,73,33,78,100,0
5455,5852,5153,81,103,32,10240,-1.00,-1.00,1.66,1.31,5368,5741,5110,56,73,33,78,100,0
5457,5856,5158,83,107,39,10240,-1.00,-1.00,1.66,1.31,5371,5745,5112,56,73,33,78,100,0
5466,5861,5164,86,110,44,10240,-1.00,-1.00,1.66,1.31,5374,5748,5114,56,73,33,78,100,0
5472,5875,5173,89,114,49,10240,-1.00,-1.00,1.66,1.31,5378,5753,5116,56,73,33,78,100,0
5476,5881,5177,91,117,53,10240,-1.00,-1.00,1.66,1.31,5381,5757,5118,56,73,33,78,100,0
5481,5886,5178,94,121,56,10240,-1.00,-1.00,1.66,1.31,5384,5761,5120,56,73,33,78,100,0
5486,5895,5186,96,125,59,10240,-1.00,-1.00,1.66,1.31,5388,5766,5122,56,73,33,78,100,0
5497,5903,5192,99,127,62,10240,-1.00,-1.00,1.66,1.31,5391,5770,5124,56,73,33,78,100,0
5499,5915,5199,101,131,65,10240,-1.00,-1.00,1.66,1.31,5395,5775,5127,56,73,33,78,100,0
5503,5920,5203,103,135,69,10240,-1.00,-1.00,1.66,1.31,5399,5780,5129,56,73,33,78,100,0
5502,5919,5202,103,136,71,10240,-1.00,-1.00,1.66,1.31,5402,5785,5132,56,73,33,78,100,0
5499,5915,5200,100,135,70,10240,-1.00,-1.00,1.66,1.31,5405,5789,5134,50,69,38,78,100,0
5492,5904,5197,95,127,67,10240,-1.00,-1.00,1.61,1.25,5408,5793,5136,50,69,38,78,100,0
5487,5899,5193,88,118,63,10240,-1.00,-1.00,1.61,1.25,5411,5796,5138,50,69,38,78,100,0
5485,5896,5189,81,109,57,10240,-1.00,-1.00,1.61,1.25,5413,5800,5140,50,69,38,78,100,0
5486,5895,5189,75,100,53,10240,-1.00,-1.00,1.61,1.25,5416,5803,5141,50,69,38,78,100,0
5487,5897,5190,71,95,49,10240,-1.00,-1.00,1.61,1.25,5418,5806,5143,50,69,38,78,100,0
5490,5902,5191,70,93,47,10240,-1.00,-1.00,1.61,1.25,5420,5809,5144,50,69,38,78,100,0
5494,5906,5195,70,92,47,10240,-1.00,-1.00,1.61,1.25,5423,5812,5146,50,69,38,78,100,0
5495,5907,5195,70,92,47,10240,-1.00,-1.00,1.61,1.25,5425,5816,5148,50,69,38,78,100,0
5496,5908,5195,69,91,47,10240,-1.00,-1.00,1.61,1.25,5428,5819,5149,50,69,38,78,100,0
5498,5912,5198,69,91,47,10240,-1.00,-1.00,1.61,1.25,5430,5822,5151,50,69,38,78,100,0
5505,5915,5200,69,90,46,10240,-1.00,-1.00,1.61,1.25,5433,5825,5153,50,69,38,78,100,0
5508,5928,5210,70,92,48,10240,-1.00,-1.00,1.61,1.25,5435,5828,5155,50,69,38,78,100,0
5513,5934,5214,72,95,51,10240,-1.00,-1.00,1.61,1.25,5438,5832,5157,50,69,38,78,100,0
5520,5942,5219,75,99,54,10240,-1.00,-1.00,1.61,1.25,5440,5835,5159,50,69,38,78,100,0
5524,5949,5222,77,104,58,10240,-1.00,-1.00,1.61,1.25,5443,5839,5161,50,69,38,78,100,0
5535,5956,5229,81,108,61,10240,-1.00,-1.00,1.61,1.25,5446,5843,5163,50,69,38,78,100,0
5540,5970,5235,85,113,64,10240,-1.00,-1.00,1.61,1.25,5449,5847,5165,50,69,38,78,100,0
5543,5976,5239,88,117,67,10240,-1.00,-1.00,1.61,1.25,5452,5852,5168,50,69,38,78,100,0
5547,5981,5241,90,121,69,10240,-1.00,-1.00,1.61,1.25,5456,5856,5170,50,69,38,78,100,0
5549,5986,5246,90,124,71,10240,-1.00,-1.00,1.61,1.25,5459,5860,5173,50,69,38,78,100,0
5559,5992,5248,92,125,72,10240,-1.00,-1.00,1.61,1.25,5462,5865,5175,50,69,38,78,100,0
5559,5997,5252,93,126,72,10240,-1.00,-1.00,1.61,1.25,5465,5869,5178,50,69,38,78,100,0
5555,5995,5250,92,125,72,10240,-1.00,-1.00,1.61,1.25,5468,5873,5180,44,60,38,78,100,0
5550,5987,5245,89,121,70,10240,-1.00,-1.00,1.61,1.25,5471,5877,5182,44,60,35,78,100,0
5545,5979,5244,82,114,66,10240,-1.00,-1.00,1.51,1.19,5474,5881,5184,44,60,35,78,100,0
5541,5970,5239,75,104,61,10240,-1.00,-1.00,1.51,1.19,5476,5883,5186,44,60,35,78,100,0
5540,5970,5237,69,94,56,10240,-1.00,-1.00,1.51,1.19,5478,5886,5188,44,60,35,78,100,0
5540,5970,5236,64,87,52,10240,-1.00,-1.00,1.51,1.19,5480,5889,5190,44,60,35,78,100,0
5543,5974,5238,62,83,48,10240,-1.00,-1.00,1.51,1.19,5482,5892,5191,44,60,35,78,100,0
5545,5977,5240,61,82,47,10240,-1.00,-1.00,1.51,1.19,5484,5895,5193,44,60,35,78,100,0
5549,5980,5242,61,81,47,10240,-1.00,-1.00,1.51,1.19,5486,5898,5194,44,60,35,78,100,0
5550,5986,5246,61,82,48,10240,-1.00,-1.00,1.51,1.19,5488,5901,5196,44,60,35,78,100,0
5551,5987,5246,61,83,48,10240,-1.00,-1.00,1.51,1.19,5491,5903,5198,44,60,35,78,100,0
5554,5989,5248,61,83,48,10240,-1.00,-1.00,1.51,1.19,5493,5906,5200,44,60,35,78,100,0
5555,5993,5250,60,84,48,10240,-1.00,-1.00,1.51,1.19,5495,5909,5201,44,60,35,78,100,0
5561,5995,5251,61,83,48,10240,-1.00,-1.00,1.51,1.19,5497,5912,5203,44,60,35,78,100,0
5564,5998,5254,62,83,48,10240,-1.00,-1.00,1.51,1.19,5499,5915,5205,44,60,35,78,100,0
5566,6002,5255,63,83,48,10240,-1.00,-1.00,1.51,1.19,5501,5918,5206,44,60,35,78,100,0
5570,6007,5257,65,84,48,10240,-1.00,-1.00,1.51,1.19,5504,5921,5208,44,60,35,78,100,0
5575,6011,5259,66,85,49,10240,-1.00,-1.00,1.51,1.19,5506,5924,5210,44,60,35,78,100,0
5578,6016,5262,67,86,49,10240,-1.00,-1.00,1.51,1.19,5508,5927,5211,44,60,35,78,100,0
5586,6028,5267,70,90,50,10240,-1.00,-1.00,1.51,1.19,5511,5930,5213,44,60,35,78,100,0
5589,6033,5271,72,93,52,10240,-1.00,-1.00,1.51,1.19,5514,5934,5215,44,60,35,78,100,0
5593,6037,5272,74,96,54,10240,-1.00,-1.00,1.51,1.19,5516,5937,5217,44,60,35,78,100,0
5595,6042,5274,75,99,55,10240,-1.00,-1.00,1.51,1.19,5519,5941,5219,44,60,35,78,100,0
5597,6043,5274,75,99,54,10240,-1.00,-1.00,1.51,1.19,5522,5944,5221,44,60,35,78,100,0
5588,6027,5266,73,95,51,10240,-1.00,-1.00,1.51,1.19,5524,5947,5222,44,70,35,78,100,0
5577,6011,5258,66,85,46,10240,-1.00,-1.00,1.51,1.19,5525,5949,5224,44,70,35,78,100,0
5568,6000,5250,58,72,39,10240,-1.00,-1.00,1.51,1.19,5527,5951,5224,44,70,35,78,100,0
5561,5993,5245,47,58,31,10240,-1.00,-1.00,1.51,1.19,5528,5952,5225,44,70,35,78,100,0
5556,5983,5238,38,45,23,10240,-1.00,-1.00,1.51,1.19,5529,5953,5226,44,70,35,78,100,0
5549,5970,5227,30,34,14,10240,-1.00,-1.00,1.51,1.19,5530,5954,5226,44,70,35,78,100,0
5546,5967,5226,23,25,8,10240,-1.00,-1.00,1.51,1.19,5530,5954,5226,44,70,35,78,100,0
5547,5968,5227,19,18,3,10240,-1.00,-1.00,1.51,1.19,5531,5955,5226,44,70,35,78,100,0
5548,5969,5228,17,14,1,10240,-1.00,-1.00,1.51,1.19,5531,5955,5226,44,70,35,78,100,0
5551,5971,5229,17,13,1,10240,-1.00,-1.00,1.51,1.19,5532,5956,5226,44,70,35,78,100,0
5553,5975,5232,18,15,3,10240,-1.00,-1.00,1.51,1.19,5533,5956,5226,44,70,35,78,100,0
5555,5984,5238,19,18,5,10240,-1.00,-1.00,1.51,1.19,5533,5957,5226,44,70,35,78,100,0
5563,5994,5245,22,24,9,10240,-1.00,-1.00,1.51,1.19,5534,5958,5227,44,70,35,78,100,0
5567,5999,5251,25,30,14,10240,-1.00,-1.00,1.51,1.19,5536,5960,5228,44,70,35,78,100,0
5572,6004,5254,29,36,19,10240,-1.00,-1.00,1.51,1.19,5537,5961,5229,44,70,35,78,100,0
5583,6021,5266,35,44,25,10240,-1.00,-1.00,1.51,1.19,5538,5963,5230,44,70,35,78,100,0
5587,6028,5269,39,50,30,10240,-1.00,-1.00,1.51,1.19,5540,5965,5231,44,70,35,78,100,0
5593,6038,5276,44,58,35,10240,-1.00,-1.00,1.51,1.19,5542,5968,5233,44,70,35,78,100,0
5599,6047,5280,49,67,40,10240,-1.00,-1.00,1.51,1.19,5544,5970,5234,44,70,35,78,100,0
5603,6052,5281,52,72,43,10240,-1.00,-1.00,1.51,1.19,5546,5973,5236,44,70,35,78,100,0
5615,6070,5293,57,80,47,10240,-1.00,-1.00,1.51,1.19,5548,5976,5238,44,70,35,78,100,0
5622,6079,5300,62,87,51,10240,-1.00,-1.00,1.51,1.19,5550,5980,5240,44,70,35,78,100,0
5627,6087,5302,67,94,55,10240,-1.00,-1.00,1.51,1.19,5553,5983,5242,44,70,35,78,100,0
5630,6090,5306,72,100,59,10240,-1.00,-1.00,1.51,1.19,5555,5987,5244,44,70,35,78,100,0
5627,6086,5301,72,100,59,10240,-1.00,-1.00,1.51,1.19,5558,5990,5246,44,70,35,78,100,0
5609,6061,5288,66,92,54,10240,-1.00,-1.00,1.51,1.19,5560,5993,5247,47,74,41,78,100,0
5598,6048,5281,57,80,47,10240,-1.00,-1.00,1.58,1.08,5561,5994,5248,47,74,41,78,100,0
5595,6039,5278,47,65,39,10240,-1.00,-1.00,1.58,1.08,5562,5996,5249,47,74,41,78,100,0
5596,6038,5278,38,51,32,10240,-1.00,-1.00,1.58,1.08,5563,5997,5250,47,74,41,78,100,0
5595,6038,5278,33,44,29,10240,-1.00,-1.00,1.58,1.08,5564,5999,5251,47,74,41,78,100,0
5598,6042,5280,32,41,28,10240,-1.00,-1.00,1.58,1.08,5565,6000,5252,47,74,41,78,100,0
5600,6049,5283,32,42,28,10240,-1.00,-1.00,1.58,1.08,5566,6002,5253,47,74,41,78,100,0
5603,6054,5285,33,44,29,10240,-1.00,-1.00,1.58,1.08,5568,6004,5254,47,74,41,78,100,0
5609,6061,5288,35,48,30,10240,-1.00,-1.00,1.58,1.08,5569,6005,5256,47,74,41,78,100,0
5611,6063,5287,37,52,30,10240,-1.00,-1.00,1.58,1.08,5570,6007,5257,47,74,41,78,100,0
5610,6058,5284,38,52,30,10240,-1.00,-1.00,1.58,1.08,5572,6009,5257,47,74,41,78,100,0
5611,6056,5283,39,51,28,10240,-1.00,-1.00,1.58,1.08,5573,6011,5258,47,74,41,78,100,0
5610,6056,5282,38,48,26,10240,-1.00,-1.00,1.58,1.08,5574,6012,5259,47,74,41,78,100,0
5611,6058,5282,36,45,24,10240,-1.00,-1.00,1.58,1.08,5576,6014,5260,47,74,41,78,100,0
5614,6060,5282,36,44,22,10240,-1.00,-1.00,1.58,1.08,5577,6015,5261,47,74,41,78,100,0
5617,6060,5282,36,44,21,10240,-1.00,-1.00,1.58,1.08,5578,6017,5261,47,74,41,78,100,0
5618,6064,5283,37,44,21,10240,-1.00,-1.00,1.58,1.08,5579,6018,5262,47,74,41,78,100,0
5621,6069,5286,38,45,21,10240,-1.00,-1.00,1.58,1.08,5581,6020,5263,47,74,41,78,100,0
5622,6076,5289,39,48,22,10240,-1.00,-1.00,1.58,1.08,5582,6022,5264,47,74,41,78,100,0
5625,6081,5290,40,51,23,10240,-1.00,-1.00,1.58,1.08,5584,6024,5265,47,74,41,78,100,0
5634,6087,5296,42,55,25,10240,-1.00,-1.00,1.58,1.08,5585,6026,5266,47,74,41,78,100,0
5638,6092,5299,45,59,28,10240,-1.00,-1.00,1.58,1.08,5587,6028,5267,47,74,41,78,100,0
5642,6098,5300,48,62,29,10240,-1.00,-1.00,1.58,1.08,5589,6030,5268,47,74,41,78,100,0
5641,6097,5301,50,64,31,10240,-1.00,-1.00,1.58,1.08,5591,6033,5269,47,74,41,78,100,0
5636,6089,5297,49,62,30,10240,-1.00,-1.00,1.58,1.08,5592,6035,5270,47,74,41,78,100,0
5617,6066,5286,42,54,26,10240,-1.00,-1.00,1.58,1.08,5593,6036,5270,47,74,41,78,100,0
5610,6055,5281,33,41,21,10240,-1.00,-1.00,1.58,1.08,5594,6036,5271,47,74,41,78,100,0
5606,6047,5276,24,28,14,10240,-1.00,-1.00,1.58,1.08,5594,6037,5271,47,74,41,78,100,0
5604,6042,5272,15,16,8,10240,-1.00,-1.00,1.58,1.08,5594,6037,5271,47,74,41,78,100,0
5601,6036,5268,11,8,3,10240,-1.00,-1.00,1.58,1.08,5595,6037,5271,47,74,41,78,100,0
5600,6035,5269,8,3,0,10240,-1.00,-1.00,1.58,1.08,5595,6037,5271,47,74,41,78,100,0
5602,6039,5270,7,1,-1,10240,-1.00,-1.00,1.58,1.08,5595,6037,5271,47,74,41,78,100,0
5606,6044,5273,7,1,-1,10240,-1.00,-1.00,1.58,1.08,5595,6037,5271,47,74,41,78,100,0
5608,6048,5275,8,4,0,10240,-1.00,-1.00,1.58,1.08,5596,6037,5271,47,74,41,78,100,0
5611,6051,5277,11,8,2,10240,-1.00,-1.00,1.58,1.08,5596,6038,5271,47,74,41,78,100,0
5614,6055,5277,13,12,4,10240,-1.00,-1.00,1.58,1.08,5597,6038,5271,47,74,41,78,100,0
5616,6060,5281,15,15,6,10240,-1.00,-1.00,1.58,1.08,5597,6039,5272,47,74,41,78,100,0
5620,6066,5285,18,19,8,10240,-1.00,-1.00,1.58,1.08,5598,6040,5272,47,74,41,78,100,0
5622,6075,5288,20,24,10,10240,-1.00,-1.00,1.58,1.08,5599,6041,5273,47,74,41,78,100,0
5628,6080,5292,23,29,14,10240,-1.00,-1.00,1.58,1.08,5600,6042,5273,47,74,41,78,100,0
5642,6095,5298,28,37,17,10240,-1.00,-1.00,1.58,1.08,5601,6044,5274,47,74,41,78,100,0
5649,6107,5309,34,46,23,10240,-1.00,-1.00,1.58,1.08,5603,6046,5275,47,74,41,78,100,0
5653,6117,5315,40,54,28,10240,-1.00,-1.00,1.58,1.08,5605,6049,5277,47,74,41,78,100,0
5659,6127,5319,47,64,34,10240,-1.00,-1.00,1.58,1.08,5606,6051,5278,47,74,41,78,100,0
5664,6133,5323,50,71,39,10240,-1.00,-1.00,1.58,1.08,5608,6054,5280,47,74,41,78,100,0
5672,6139,5325,54,76,41,10240,-1.00,-1.00,1.58,1.08,5611,6057,5281,47,74,41,69,100,0
5674,6145,5327,57,80,43,10240,-1.00,-1.00,1.58,1.08,5613,6060,5283,47,74,41,69,100,0
5676,6147,5328,59,82,43,10240,-1.00,-1.00,1.58,1.08,5615,6063,5284,47,74,41,69,100,0
5674,6145,5327,60,82,43,10240,-1.00,-1.00,1.58,1.08,5617,6065,5285,47,74,41,69,100,0
5668,6140,5325,57,80,42,10240,-1.00,-1.00,1.58,1.08,5618,6068,5287,48,76,41,69,100,0
5649,6125,5320,49,72,39,10240,-1.00,-1.00,1.62,1.10,5619,6070,5288,48,76,41,69,100,0
5642,6097,5302,39,58,31,10240,-1.00,-1.00,1.62,1.10,5620,6071,5288,48,76,41,69,100,0
5630,6084,5293,27,41,22,10240,-1.00,-1.00,1.62,1.10,5621,6071,5289,48,76,41,69,100,0
5625,6078,5288,16,25,12,10240,-1.00,-1.00,1.62,1.10,5621,6071,5289,48,76,41,69,100,0
5621,6068,5285,8,10,3,10240,-1.00,-1.00,1.62,1.10,5621,6071,5288,48,76,41,69,100,0
5619,6064,5283,2,2,-1,10240,-1.00,-1.00,1.62,1.10,5621,6071,5288,48,76,41,69,100,0
5620,6063,5282,0,-2,-3,10240,-1.00,-1.00,1.62,1.10,5621,6071,5288,48,76,41,69,100,0
5620,6064,5282,-1,-6,-5,10240,-1.00,-1.00,1.62,1.10,5621,6071,5288,48,76,41,69,100,0
5619,6064,5282,-1,-7,-5,10240,-1.00,-1.00,1.62,1.10,5620,6070,5288,48,76,41,69,100,0
5621,6064,5282,0,-6,-5,10240,-1.00,-1.00,1.62,1.10,5620,6070,5287,48,76,41,69,100,0
5620,6063,5281,0,-6,-5,10240,-1.00,-1.00,1.62,1.10,5620,6070,5287,48,76,41,69,100,0
5623,6068,5284,0,-5,-5,10240,-1.00,-1.00,1.62,1.10,5621,6070,5287,48,76,41,69,100,0
5625,6072,5286,1,-3,-3,10240,-1.00,-1.00,1.62,1.10,5621,6070,5287,48,76,41,69,100,0
5627,6077,5289,3,0,-2,10240,-1.00,-1.00,1.62,1.10,5621,6070,5287,48,76,41,69,100,0
5633,6080,5292,6,4,0,10240,-1.00,-1.00,1.62,1.10,5621,6070,5287,48,76,41,69,100,0
5634,6085,5292,8,8,2,10240,-1.00,-1.00,1.62,1.10,5622,6071,5287,48,76,41,69,100,0
5646,6099,5299,13,14,5,10240,-1.00,-1.00,1.62,1.10,5623,6072,5288,48,76,41,69,100,0
5650,6105,5303,18,20,9,10240,-1.00,-1.00,1.62,1.10,5623,6073,5288,48,76,41,69,100,0
5655,6112,5306,23,27,12,10240,-1.00,-1.00,1.62,1.10,5625,6074,5289,48,76,41,69,100,0
5658,6116,5310,28,34,15,10240,-1.00,-1.00,1.62,1.10,5626,6076,5290,48,76,41,69,100,0
5661,6120,5311,30,38,18,10240,-1.00,-1.00,1.62,1.10,5627,6077,5290,48,76,41,69,100,0
5667,6131,5315,33,43,20,10240,-1.00,-1.00,1.62,1.10,5628,6079,5291,48,76,41,69,100,0
5665,6127,5312,35,45,21,10240,-1.00,-1.00,1.62,1.10,5629,6081,5292,48,76,41,69,100,0
5658,6114,5305,34,43,19,10240,-1.00,-1.00,1.62,1.10,5630,6082,5292,45,70,38,69,100,0
5647,6098,5296,29,36,15,10240,-1.00,-1.00,1.60,1.11,5631,6082,5292,45,70,38,69,100,0
5638,6082,5290,21,23,8,10240,-1.00,-1.00,1.60,1.11,5631,6082,5292,45,70,38,69,100,0
5625,6063,5274,11,7,0,10240,-1.00,-1.00,1.60,1.11,5631,6082,5292,45,70,38,69,100,0
5616,6051,5265,0,-8,-10,10240,-1.00,-1.00,1.60,1.11,5630,6080,5291,45,70,38,69,100,0
5611,6043,5260,-8,-21,-19,10240,-1.00,-1.00,1.60,1.11,5630,6079,5290,45,70,38,69,100,0
5609,6041,5260,-14,-30,-25,10240,-1.00,-1.00,1.60,1.11,5629,6078,5289,45,70,38,69,100,0
5611,6041,5262,-17,-34,-27,10240,-1.00,-1.00,1.60,1.11,5628,6077,5288,45,70,38,69,100,0
5616,6049,5266,-17,-34,-26,10240,-1.00,-1.00,1.60,1.11,5628,6076,5287,45,70,38,69,100,0
5620,6052,5267,-14,-30,-24,10240,-1.00,-1.00,1.60,1.11,5628,6075,5287,45,70,38,69,100,0
5621,6056,5270,-11,-26,-20,10240,-1.00,-1.00,1.60,1.11,5628,6074,5286,45,70,38,69,100,0
5624,6060,5273,-7,-20,-17,10240,-1.00,-1.00,1.60,1.11,5627,6074,5286,45,70,38,69,100,0
5626,6062,5274,-4,-16,-15,10240,-1.00,-1.00,1.60,1.11,5627,6074,5285,45,70,38,69,100,0
5635,6074,5283,-1,-11,-10,10240,-1.00,-1.00,1.60,1.11,5628,6074,5285,45,70,38,69,100,0
5639,6080,5286,3,-5,-6,10240,-1.00,-1.00,1.60,1.11,5628,6074,5285,45,70,38,69,100,0
5643,6086,5288,7,1,-2,10240,-1.00,-1.00,1.60,1.11,5629,6074,5285,45,70,38,69,100,0
5648,6094,5292,12,9,2,10240,-1.00,-1.00,1.60,1.11,5629,6075,5285,45,70,38,69,100,0
5652,6103,5296,16,16,5,10240,-1.00,-1.00,1.60,1.11,5630,6076,5286,45,70,38,69,100,0
5659,6115,5302,20,24,9,10240,-1.00,-1.00,1.60,1.11,5631,6077,5286,45,70,38,69,100,0
5666,6121,5305,25,31,12,10240,-1.00,-1.00,1.60,1.11,5632,6078,5287,45,70,38,69,100,0
5669,6128,5310,30,39,16,10240,-1.00,-1.00,1.60,1.11,5633,6080,5288,45,70,38,69,100,0
5672,6135,5312,33,45,19,10240,-1.00,-1.00,1.60,1.11,5635,6082,5289,45,70,38,69,100,0
5673,6136,5312,36,49,21,10240,-1.00,-1.00,1.60,1.11,5636,6084,5289,45,70,38,69,100,0
5670,6129,5309,35,49,21,10240,-1.00,-1.00,1.60,1.11,5637,6085,5290,47,70,38,69,100,0
5664,6121,5305,33,46,19,10240,-1.00,-1.00,1.60,1.11,5638,6086,5291,47,73,40,69,100,0
5657,6112,5300,28,39,16,10240,0.35,-0.08,1.59,1.10,5639,6087,5291,47,73,40,69,100,0
5649,6096,5293,21,28,11,10240,0.35,-0.08,1.59,1.10,5639,6088,5291,47,73,40,69,100,0
5644,6086,5287,14,16,5,10240,0.35,-0.08,1.59,1.10,5639,6088,5291,47,73,40,69,100,0
5635,6075,5280,7,4,0,10240,0.35,-0.08,1.59,1.10,5639,6087,5290,47,73,40,69,100,0
5632,6069,5276,1,-6,-6,10240,0.35,-0.08,1.59,1.10,5639,6087,5290,47,73,40,69,100,0
5631,6070,5276,-3,-12,-10,10240,0.35,-0.08,1.59,1.10,5638,6086,5289,47,73,40,69,100,0
5633,6073,5277,-5,-14,-12,10240,0.35,-0.08,1.59,1.10,5638,6086,5289,47,73,40,69,100,0
5636,6077,5281,-5,-13,-11,10240,0.35,-0.08,1.59,1.10,5638,6085,5289,47,73,40,69,100,0
5642,6082,5284,-2,-10,-9,10240,0.35,-0.08,1.59,1.10,5638,6085,5289,47,73,40,69,100,0
5643,6083,5284,0,-6,-7,10240,0.35,-0.08,1.59,1.10,5638,6085,5288,47,73,40,69,100,0
5644,6085,5286,3,-3,-4,10240,0.35,-0.08,1.59,1.10,5639,6085,5288,47,73,40,69,100,0
5647,6088,5288,5,0,-2,10240,0.35,-0.08,1.59,1.10,5639,6085,5288,47,73,40,69,100,0
5650,6095,5292,7,2,0,10240,0.35,-0.08,1.59,1.10,5639,6086,5289,47,73,40,69,100,0
5657,6108,5298,10,8,2,10240,0.35,-0.08,1.59,1.10,5640,6086,5289,47,73,40,69,100,0
5659,6112,5300,13,14,5,10240,0.35,-0.08,1.59,1.10,5641,6087,5289,47,73,40,69,100,0
5663,6120,5305,17,22,9,10240,0.35,-0.08,1.59,1.10,5641,6088,5290,47,73,40,69,100,0
5668,6128,5307,20,29,13,10240,0.35,-0.08,1.59,1.10,5642,6090,5290,47,73,40,69,100,0
5675,6138,5313,24,35,16,10240,0.35,-0.08,1.59,1.10,5643,6091,5291,47,73,40,69,100,0
5685,6147,5324,30,42,21,10240,0.35,-0.08,1.59,1.10,5645,6093,5292,47,73,40,69,100,0
5690,6148,5327,35,48,26,10240,0.35,-0.08,1.59,1.10,5646,6095,5293,47,73,40,69,100,0
5695,6153,5330,40,52,30,10240,0.35,-0.08,1.59,1.10,5648,6097,5295,47,73,40,69,100,0
5701,6162,5334,45,56,34,10240,0.35,-0.08,1.59,1.10,5650,6099,5296,47,73,40,69,100,0
5704,6168,5336,48,59,36,10240,0.35,-0.08,1.59,1.10,5651,6101,5297,47,73,40,69,100,0
5699,6161,5335,49,61,37,10240,0.35,-0.08,1.59,1.10,5653,6103,5298,47,73,40,69,100,0
5691,6149,5329,46,58,36,10240,0.35,-0.08,1.59,1.10,5654,6105,5299,49,74,42,69,100,0
5684,6147,5326,41,52,33,10240,0.35,-0.08,1.53,1.09,5655,6106,5300,49,74,42,69,100,0
5677,6143,5319,33,44,27,10240,0.35,-0.08,1.53,1.09,5656,6107,5301,49,74,42,69,100,0
5673,6139,5314,25,38,21,10240,0.35,-0.08,1.53,1.09,5657,6108,5301,49,74,42,69,100,0
5664,6125,5305,18,31,15,10240,0.35,-0.08,1.53,1.09,5657,6109,5302,49,74,42,69,100,0
5665,6124,5304,13,24,9,10240,0.35,-0.08,1.53,1.09,5657,6110,5302,49,74,42,69,100,0
5668,6124,5306,10,18,5,10240,0.35,-0.08,1.53,1.09,5657,6110,5302,49,74,42,69,100,0
5668,6126,5306,9,14,3,10240,0.35,-0.08,1.53,1.09,5658,6111,5302,49,74,42,69,100,0
5673,6134,5310,11,16,4,10240,0.35,-0.08,1.53,1.09,5658,6111,5302,49,74,42,69,100,0
5677,6141,5314,13,20,6,10240,0.35,-0.08,1.53,1.09,5659,6112,5303,49,74,42,69,100,0
5678,6142,5314,15,24,8,10240,0.35,-0.08,1.53,1.09,5660,6113,5303,49,74,42,69,100,0
5681,6145,5317,18,28,11,10240,0.35,-0.08,1.53,1.09,5660,6114,5303,49,74,42,69,100,0
5683,6145,5320,19,29,13,10240,0.35,-0.08,1.53,1.09,5661,6115,5304,49,74,42,69,100,0
5685,6146,5322,21,30,14,10240,0.35,-0.08,1.53,1.09,5662,6116,5305,49,74,42,69,100,0
5696,6152,5329,24,31,17,10240,0.35,-0.08,1.53,1.09,5663,6118,5305,49,74,42,69,100,0
5699,6157,5331,28,33,20,10240,0.35,-0.08,1.53,1.09,5664,6119,5306,49,74,42,69,100,0
5704,6166,5335,32,36,23,10240,0.35,-0.08,1.53,1.09,5665,6121,5307,49,74,42,69,100,0
5711,6174,5339,37,42,27,10240,0.35,-0.08,1.53,1.09,5667,6122,5308,49,74,42,69,100,0
5714,6181,5342,40,48,29,10240,0.35,-0.08,1.53,1.09,5669,6124,5309,49,74,42,69,100,0
5720,6191,5350,44,54,32,10240,0.35,-0.08,1.53,1.09,5670,6126,5311,49,74,42,69,100,0
5722,6194,5353,47,59,36,10240,0.35,-0.08,1.53,1.09,5672,6129,5312,49,74,42,69,100,0
5725,6199,5356,49,63,38,10240,0.35,-0.08,1.53,1.09,5674,6131,5314,49,74,42,69,100,0
5727,6201,5357,50,66,41,10240,0.35,-0.08,1.53,1.09,5676,6133,5315,49,74,42,69,100,0
5724,6197,5357,49,65,41,10240,0.35,-0.08,1.53,1.09,5677,6136,5316,47,68,42,69,100,0
5712,6177,5343,45,59,37,10240,0.35,-0.08,1.53,1.09,5678,6137,5317,47,68,41,69,100,0
5704,6164,5337,39,48,32,10240,0.35,-0.08,1.44,1.07,5679,6138,5318,47,68,41,69,100,0
5698,6156,5332,31,36,24,10240,0.35,-0.08,1.44,1.07,5680,6138,5319,47,68,41,69,100,0
5694,6149,5327,22,23,16,10240,0.35,-0.08,1.44,1.07,5680,6139,5319,47,68,41,69,100,0
5687,6147,5322,15,15,10,10240,0.35,-0.08,1.44,1.07,5681,6139,5319,47,68,41,69,100,0
5686,6147,5321,10,11,6,10240,0.35,-0.08,1.44,1.07,5681,6139,5319,47,68,41,69,100,0
5685,6147,5319,7,8,3,10240,0.35,-0.08,1.44,1.07,5681,6140,5319,47,68,41,69,100,0
5686,6146,5318,5,7,1,10240,0.35,-0.08,1.44,1.07,5681,6140,5319,47,68,41,69,100,0
5684,6146,5315,4,6,0,10240,0.35,-0.08,1.44,1.07,5681,6140,5319,47,68,41,69,100,0
5684,6146,5317,3,6,-1,10240,0.35,-0.08,1.44,1.07,5681,6140,5319,47,68,41,69,100,0
5686,6147,5317,4,6,-2,10240,0.35,-0.08,1.44,1.07,5681,6140,5319,47,68,41,69,100,0
5684,6146,5316,3,6,-2,10240,0.35,-0.08,1.44,1.07,5681,6141,5319,47,68,41,69,100,0
5686,6147,5319,3,6,-1,10240,0.35,-0.08,1.44,1.07,5682,6141,5319,47,68,41,69,100,0
5688,6147,5321,4,6,0,10240,0.35,-0.08,1.44,1.07,5682,6141,5319,47,68,41,69,100,0
5690,6148,5324,5,6,1,10240,0.35,-0.08,1.44,1.07,5682,6141,5319,47,68,41,69,100,0
5698,6153,5329,8,7,4,10240,0.35,-0.08,1.44,1.07,5683,6142,5319,47,68,41,69,100,0
5699,6157,5330,11,9,7,10240,0.35,-0.08,1.44,1.07,5683,6142,5319,47,68,41,69,100,0
5704,6166,5333,14,14,9,10240,0.35,-0.08,1.44,1.07,5684,6143,5320,47,68,41,69,100,0
5709,6172,5334,18,19,12,10240,0.35,-0.08,1.44,1.07,5685,6144,5320,47,68,41,69,100,0
5714,6178,5339,22,24,14,10240,0.35,-0.08,1.44,1.07,5686,6145,5321,47,68,41,69,100,0
5721,6190,5346,26,31,17,10240,0.35,-0.08,1.44,1.07,5687,6147,5322,47,68,41,69,100,0
5723,6193,5350,30,37,20,10240,0.35,-0.08,1.44,1.07,5688,6148,5323,47,68,41,69,100,0
5726,6198,5352,33,42,24,10240,0.35,-0.08,1.44,1.07,5689,6150,5324,47,68,41,69,100,0
5725,6198,5352,35,45,26,10240,0.35,-0.08,1.44,1.07,5690,6151,5325,47,68,41,69,100,0
5722,6192,5348,34,44,26,10240,0.35,-0.08,1.44,1.07,5692,6153,5325,44,61,41,69,100,0
5708,6168,5335,29,37,21,10240,0.35,-0.08,1.44,1.07,5692,6153,5326,44,61,38,69,100,0
5700,6158,5330,22,26,15,10240,0.35,-0.08,1.39,1.08,5692,6153,5326,44,61,38,69,100,0
5695,6150,5326,14,14,9,10240,0.35,-0.08,1.39,1.08,5692,6153,5326,44,61,38,69,100,0
5687,6147,5319,5,2,1,10240,0.35,-0.08,1.39,1.08,5692,6153,5326,44,61,38,69,100,0
5683,6145,5312,0,-3,-4,10240,0.35,-0.08,1.39,1.08,5692,6153,5325,44,61,38,69,100,0
5680,6143,5310,-5,-6,-8,10240,0.35,-0.08,1.39,1.08,5692,6152,5325,44,61,38,69,100,0
5679,6144,5308,-9,-7,-12,10240,0.35,-0.08,1.39,1.08,5691,6152,5324,44,61,38,69,100,0
5680,6143,5310,-11,-8,-14,10240,0.35,-0.08,1.39,1.08,5691,6152,5324,44,61,38,69,100,0
5680,6144,5309,-11,-8,-14,10240,0.35,-0.08,1.39,1.08,5690,6152,5323,44,61,38,69,100,0
5680,6145,5309,-10,-7,-14,10240,0.35,-0.08,1.39,1.08,5690,6151,5323,44,61,38,69,100,0
5686,6146,5318,-8,-7,-11,10240,0.35,-0.08,1.39,1.08,5690,6151,5323,44,61,38,69,100,0
5690,6147,5323,-6,-5,-8,10240,0.35,-0.08,1.39,1.08,5690,6151,5323,44,61,38,69,100,0
5695,6153,5327,-2,-3,-3,10240,0.35,-0.08,1.39,1.08,5690,6151,5323,44,61,38,69,100,0
5700,6157,5330,2,0,1,10240,0.35,-0.08,1.39,1.08,5690,6151,5323,44,61,38,69,100,0
5706,6166,5333,7,4,5,10240,0.35,-0.08,1.39,1.08,5691,6152,5323,44,61,38,69,100,0
5716,6178,5335,13,11,8,10240,0.35,-0.08,1.39,1.08,5692,6153,5324,44,61,38,69,100,0
5719,6185,5342,18,19,11,10240,0.35,-0.08,1.39,1.08,5693,6154,5324,44,61,38,69,100,0
5721,6189,5345,23,26,14,10240,0.35,-0.08,1.39,1.08,5694,6155,5325,44,61,38,69,100,0
5723,6193,5349,26,31,18,10240,0.35,-0.08,1.39,1.08,5695,6156,5326,44,61,38,69,100,0
5728,6199,5351,28,35,21,10240,0.35,-0.08,1.39,1.08,5696,6158,5327,44,61,38,69,100,0
5734,6204,5353,31,39,23,10240,0.35,-0.08,1.39,1.08,5697,6159,5327,44,61,38,69,100,0
5737,6214,5359,34,44,25,10240,0.35,-0.08,1.39,1.08,5698,6161,5329,44,61,38,69,100,0
5739,6218,5361,36,48,27,10240,0.35,-0.08,1.39,1.08,5700,6163,5330,44,61,38,69,100,0
5739,6217,5361,38,51,29,10240,0.35,-0.08,1.39,1.08,5701,6165,5331,44,61,38,93,100,0
5735,6210,5356,37,51,29,10240,0.35,-0.08,1.39,1.08,5702,6166,5331,45,61,38,93,100,0
5721,6199,5351,32,45,26,10240,0.35,-0.08,1.39,1.08,5703,6167,5332,45,61,39,93,100,0
5718,6183,5340,26,35,20,10240,0.35,-0.08,1.35,1.08,5703,6168,5332,45,61,39,93,100,0
5714,6175,5335,19,24,13,10240,0.35,-0.08,1.35,1.08,5704,6168,5333,45,61,39,93,100,0
5710,6172,5333,12,14,7,10240,0.35,-0.08,1.35,1.08,5704,6168,5333,45,61,39,93,100,0
5708,6170,5332,8,7,2,10240,0.35,-0.08,1.35,1.08,5704,6168,5332,45,61,39,93,100,0
5710,6169,5332,6,3,0,10240,0.35,-0.08,1.35,1.08,5704,6168,5332,45,61,39,93,100,0
5714,6174,5333,6,3,0,10240,0.35,-0.08,1.35,1.08,5704,6169,5333,45,61,39,93,100,0
5714,6177,5334,7,4,0,10240,0.35,-0.08,1.35,1.08,5705,6169,5333,45,61,39,93,100,0
5716,6179,5335,9,6,0,10240,0.35,-0.08,1.35,1.08,5705,6169,5333,45,61,39,93,100,0
5717,6180,5335,10,8,1,10240,0.35,-0.08,1.35,1.08,5706,6170,5333,45,61,39,93,100,0
5717,6181,5335,10,9,1,10240,0.35,-0.08,1.35,1.08,5706,6170,5333,45,61,39,93,100,0
5722,6186,5339,12,11,3,10240,0.35,-0.08,1.35,1.08,5706,6170,5333,45,61,39,93,100,0
5722,6186,5341,13,13,4,10240,0.35,-0.08,1.35,1.08,5707,6171,5333,45,61,39,93,100,0
5724,6190,5343,14,15,6,10240,0.35,-0.08,1.35,1.08,5708,6172,5334,45,61,39,93,100,0
5727,6195,5346,16,18,8,10240,0.35,-0.08,1.35,1.08,5708,6172,5334,45,61,39,93,100,0
5731,6200,5350,18,20,11,10240,0.35,-0.08,1.35,1.08,5709,6173,5334,45,61,39,93,100,0
5741,6217,5359,22,27,15,10240,0.35,-0.08,1.35,1.08,5710,6175,5335,45,61,39,93,100,0
5744,6222,5362,26,34,19,10240,0.35,-0.08,1.35,1.08,5711,6176,5336,45,61,39,93,100,0
5747,6229,5364,30,41,23,10240,0.35,-0.08,1.35,1.08,5712,6178,5337,45,61,39,93,100,0
5751,6232,5367,34,47,26,10240,0.35,-0.08,1.35,1.08,5714,6180,5338,45,61,39,93,100,0
5754,6238,5371,36,51,28,10240,0.35,-0.08,1.35,1.08,5715,6182,5339,45,61,39,93,100,0
5760,6245,5374,38,55,30,10240,0.35,-0.08,1.35,1.08,5717,6184,5340,45,61,39,93,100,0
5761,6247,5376,40,57,32,10240,0.35,-0.08,1.35,1.08,5718,6186,5342,45,61,39,93,100,0
5759,6244,5373,41,58,32,10240,0.35,-0.08,1.35,1.08,5719,6188,5343,45,61,39,93,100,0
5752,6234,5370,39,55,31,10240,0.35,-0.08,1.35,1.08,5720,6189,5344,43,59,38,93,100,0
5743,6223,5364,34,48,27,10240,0.35,-0.08,1.34,1.06,5721,6191,5344,43,59,38,93,100,0
5733,6204,5354,26,36,21,10240,0.35,-0.08,1.34,1.06,5722,6191,5345,43,59,38,93,100,0
5728,6197,5348,17,24,14,10240,0.35,-0.08,1.34,1.06,5722,6191,5345,43,59,38,93,100,0
5726,6193,5345,10,13,8,10240,0.35,-0.08,1.34,1.06,5722,6191,5345,43,59,38,93,100,0
5726,6192,5345,6,5,3,10240,0.35,-0.08,1.34,1.06,5722,6191,5345,43,59,38,93,100,0
5725,6192,5345,4,2,0,10240,0.35,-0.08,1.34,1.06,5722,6191,5345,43,59,38,93,100,0
5728,6193,5345,4,1,0,10240,0.35,-0.08,1.34,1.06,5722,6191,5345,43,59,38,93,100,0
5727,6193,5345,4,1,0,10240,0.35,-0.08,1.34,1.06,5723,6192,5345,43,59,38,93,100,0
5730,6195,5346,5,1,0,10240,0.35,-0.08,1.34,1.06,5723,6192,5345,43,59,38,93,100,0
5731,6197,5347,6,2,0,10240,0.35,-0.08,1.34,1.06,5723,6192,5345,43,59,38,93,100,0
5731,6199,5348,6,4,1,10240,0.35,-0.08,1.34,1.06,5723,6192,5345,43,59,38,93,100,0
5735,6206,5351,8,7,3,10240,0.35,-0.08,1.34,1.06,5724,6192,5345,43,59,38,93,100,0
5738,6209,5354,10,10,5,10240,0.35,-0.08,1.34,1.06,5724,6193,5345,43,59,38,93,100,0
5740,6214,5355,12,14,6,10240,0.35,-0.08,1.34,1.06,5725,6194,5346,43,59,38,93,100,0
5744,6219,5358,14,18,9,10240,0.35,-0.08,1.34,1.06,5725,6195,5346,43,59,38,93,100,0
5748,6224,5360,17,22,10,10240,0.35,-0.08,1.34,1.06,5726,6196,5347,43,59,38,93,100,0
5755,6238,5369,21,28,14,10240,0.35,-0.08,1.34,1.06,5727,6197,5347,43,59,38,93,100,0
5758,6243,5371,24,34,17,10240,0.35,-0.08,1.34,1.06,5728,6198,5348,43,59,38,93,100,0
5761,6245,5371,28,39,20,10240,0.35,-0.08,1.34,1.06,5729,6200,5349,43,59,38,93,100,0
5763,6247,5374,30,44,22,10240,0.35,-0.08,1.34,1.06,5730,6202,5350,43,59,38,93,100,0
5768,6253,5376,32,46,23,10240,0.35,-0.08,1.34,1.06,5732,6203,5351,43,59,38,93,100,0
5772,6258,5378,35,48,24,10240,0.35,-0.08,1.34,1.06,5733,6205,5351,43,59,38,93,100,0
5771,6255,5377,36,49,25,10240,0.35,-0.08,1.34,1.06,5734,6207,5352,43,59,38,93,100,0
5764,6248,5373,35,47,24,10240,0.35,-0.08,1.34,1.06,5735,6208,5353,40,56,34,93,100,0
5757,6241,5368,31,43,21,10240,0.35,-0.08,1.42,1.10,5736,6209,5354,40,56,34,93,100,0
5749,6228,5363,25,34,17,10240,0.35,-0.08,1.42,1.10,5736,6210,5354,40,56,34,93,100,0
5742,6216,5356,17,24,11,10240,0.35,-0.08,1.42,1.10,5737,6210,5354,40,56,34,93,100,0
5739,6210,5353,10,14,6,10240,0.35,-0.08,1.42,1.10,5737,6210,5354,40,56,34,93,100,0
5735,6203,5349,4,4,1,10240,0.35,-0.08,1.42,1.10,5737,6210,5354,40,56,34,93,100,0
5734,6205,5350,0,-1,-2,10240,0.35,-0.08,1.42,1.10,5736,6210,5354,40,56,34,93,100,0
5736,6209,5352,0,-3,-2,10240,0.35,-0.08,1.42,1.10,5736,6210,5353,40,56,34,93,100,0
5740,6212,5351,0,-2,-3,10240,0.35,-0.08,1.42,1.10,5737,6210,5353,40,56,34,93,100,0
5742,6215,5352,1,0,-2,10240,0.35,-0.08,1.42,1.10,5737,6210,5353,40,56,34,93,100,0
5741,6216,5353,3,3,-1,10240,0.35,-0.08,1.42,1.10,5737,6210,5353,40,56,34,93,100,0
5745,6219,5353,5,5,0,10240,0.35,-0.08,1.42,1.10,5737,6210,5353,40,56,34,93,100,0
5747,6222,5357,6,7,0,10240,0.35,-0.08,1.42,1.10,5738,6211,5354,40,56,34,93,100,0
5752,6227,5360,8,10,2,10240,0.35,-0.08,1.42,1.10,5738,6211,5354,40,56,34,93,100,0
5754,6229,5359,11,13,3,10240,0.35,-0.08,1.42,1.10,5739,6212,5354,40,56,34,93,100,0
5755,6233,5362,13,16,5,10240,0.35,-0.08,1.42,1.10,5739,6213,5354,40,56,34,93,100,0
5758,6238,5363,15,19,7,10240,0.35,-0.08,1.42,1.10,5740,6213,5354,40,56,34,93,100,0
5762,6242,5364,17,22,7,10240,0.35,-0.08,1.42,1.10,5740,6214,5355,40,56,34,93,100,0
5767,6248,5364,20,26,8,10240,0.35,-0.08,1.42,1.10,5741,6216,5355,40,56,34,93,100,0
5772,6254,5372,24,30,10,10240,0.35,-0.08,1.42,1.10,5742,6217,5356,40,56,34,93,100,0
5774,6257,5374,27,34,13,10240,0.35,-0.08,1.42,1.10,5743,6218,5356,40,56,34,93,100,0
5778,6260,5377,30,37,15,10240,0.35,-0.08,1.42,1.10,5745,6220,5357,40,56,34,93,100,0
5778,6264,5378,31,39,18,10240,0.35,-0.08,1.42,1.10,5746,6221,5358,40,56,34,93,100,0
5783,6269,5380,33,42,20,10240,0.35,-0.08,1.42,1.10,5747,6223,5358,40,56,34,93,100,0
5781,6266,5380,33,42,20,10240,0.35,-0.08,1.42,1.10,5748,6224,5359,40,56,34,93,100,0
5776,6259,5375,32,41,19,10240,0.35,-0.08,1.42,1.10,5749,6225,5360,38,54,32,93,100,0
5765,6245,5366,27,35,16,10240,0.35,-0.08,1.45,1.11,5750,6226,5360,38,54,32,93,100,0
5758,6238,5364,20,26,11,10240,0.35,-0.08,1.45,1.11,5750,6226,5360,38,54,32,93,100,0
5753,6226,5360,13,16,6,10240,0.35,-0.08,1.45,1.11,5750,6226,5360,38,54,32,93,100,0
5749,6224,5356,6,7,1,10240,0.35,-0.08,1.45,1.11,5750,6226,5360,38,54,32,93,100,0
5748,6221,5353,2,1,-1,10240,0.35,-0.08,1.45,1.11,5750,6226,5360,38,54,32,93,100,0
5748,6219,5352,0,-3,-4,10240,0.35,-0.08,1.45,1.11,5750,6226,5359,38,54,32,93,100,0
5749,6221,5353,-1,-4,-6,10240,0.35,-0.08,1.45,1.11,5750,6226,5359,38,54,32,93,100,0
5753,6228,5355,0,-3,-6,10240,0.35,-0.08,1.45,1.11,5750,6226,5359,38,54,32,93,100,0
5754,6228,5356,1,-2,-5,10240,0.35,-0.08,1.45,1.11,5750,6226,5359,38,54,32,93,100,0
5754,6230,5356,2,0,-4,10240,0.35,-0.08,1.45,1.11,5750,6226,5359,38,54,32,93,100,0
5754,6230,5356,3,3,-3,10240,0.35,-0.08,1.45,1.11,5750,6226,5359,38,54,32,93,100,0
5755,6232,5358,4,4,-2,10240,0.35,-0.08,1.45,1.11,5750,6226,5359,38,54,32,93,100,0
5760,6237,5361,5,6,-1,10240,0.35,-0.08,1.45,1.11,5751,6227,5359,38,54,32,93,100,0
5763,6240,5362,7,8,0,10240,0.35,-0.08,1.45,1.11,5751,6227,5359,38,54,32,93,100,0
5765,6244,5363,9,11,2,10240,0.35,-0.08,1.45,1.11,5752,6228,5359,38,54,32,93,100,0
5768,6247,5365,12,14,3,10240,0.35,-0.08,1.45,1.11,5752,6228,5359,38,54,32,93,100,0
5772,6253,5369,15,18,5,10240,0.35,-0.08,1.45,1.11,5753,6229,5360,38,54,32,93,100,0
5781,6257,5373,18,21,8,10240,0.35,-0.08,1.45,1.11,5754,6230,5360,38,54,32,93,100,0
5785,6272,5381,23,27,12,10240,0.35,-0.08,1.45,1.11,5755,6231,5361,38,54,32,93,100,0
5784,6275,5382,26,33,15,10240,0.35,-0.08,1.45,1.11,5756,6233,5361,38,54,32,93,100,0
5785,6277,5384,28,38,19,10240,0.35,-0.08,1.45,1.11,5757,6234,5362,38,54,32,93,100,0
5790,6284,5387,29,43,21,10240,0.35,-0.08,1.45,1.11,5758,6236,5363,38,54,32,93,100,0
5798,6288,5391,31,45,23,10240,0.35,-0.08,1.45,1.11,5759,6238,5364,38,54,32,93,100,0
5798,6293,5395,34,48,25,10240,0.35,-0.08,1.45,1.11,5760,6240,5365,38,54,32,91,100,0
5793,6290,5392,35,50,26,10240,0.35,-0.08,1.45,1.11,5761,6241,5366,38,54,32,91,100,0
5787,6280,5388,33,47,26,10240,0.35,-0.08,1.45,1.11,5762,6243,5367,38,54,32,91,100,0
5784,6274,5386,29,42,24,10240,0.35,-0.08,1.45,1.11,5763,6244,5367,38,54,32,91,100,0
5776,6261,5380,22,33,19,10240,0.35,-0.08,1.45,1.11,5764,6244,5368,38,54,32,91,100,0
5774,6258,5374,17,24,14,10240,0.35,-0.08,1.45,1.11,5764,6245,5368,38,54,32,91,100,0
5772,6254,5373,12,17,10,10240,0.35,-0.08,1.45,1.11,5764,6245,5368,38,54,32,91,100,0
5773,6255,5373,9,12,7,10240,0.35,-0.08,1.45,1.11,5764,6245,5368,38,54,32,91,100,0
5774,6256,5373,9,10,5,10240,0.35,-0.08,1.45,1.11,5765,6246,5368,38,54,32,91,100,0
5771,6253,5370,8,9,4,10240,0.35,-0.08,1.45,1.11,5765,6246,5368,38,54,32,91,100,0
5773,6257,5370,8,9,3,10240,0.35,-0.08,1.45,1.11,5765,6246,5368,38,54,32,91,100,0
5774,6257,5372,7,9,3,10240,0.35,-0.08,1.45,1.11,5766,6247,5369,38,54,32,91,100,0
5777,6260,5373,8,10,2,10240,0.35,-0.08,1.45,1.11,5766,6247,5369,38,54,32,91,100,0
5778,6261,5373,9,11,3,10240,0.35,-0.08,1.45,1.11,5766,6248,5369,38,54,32,91,100,0
5782,6262,5376,11,12,4,10240,0.35,-0.08,1.45,1.11,5767,6248,5369,38,54,32,91,100,0
5783,6269,5378,13,15,6,10240,0.35,-0.08,1.45,1.11,5767,6249,5369,38,54,32,91,100,0
5784,6272,5381,14,17,7,10240,0.35,-0.08,1.45,1.11,5768,6249,5370,38,54,32,91,100,0
5786,6276,5384,16,20,10,10240,0.35,-0.08,1.45,1.11,5769,6250,5370,38,54,32,91,100,0
5788,6279,5385,17,24,12,10240,0.35,-0.08,1.45,1.11,5769,6251,5371,38,54,32,91,100,0
5797,6286,5389,19,27,14,10240,0.35,-0.08,1.45,1.11,5770,6252,5371,38,54,32,91,100,0
5800,6298,5396,23,33,17,10240,0.35,-0.08,1.45,1.11,5771,6254,5372,38,54,32,91,100,0
5804,6303,5400,26,38,20,10240,0.35,-0.08,1.45,1.11,5772,6256,5373,38,54,32,91,100,0
5809,6309,5403,31,44,24,10240,0.35,-0.08,1.45,1.11,5773,6257,5374,38,54,32,91,100,0
5813,6316,5407,33,50,28,10240,0.35,-0.08,1.45,1.11,5775,6259,5375,38,54,32,91,100,0
5817,6321,5409,36,54,30,10240,0.35,-0.08,1.45,1.11,5776,6261,5376,38,54,32,91,100,0
5815,6317,5408,38,55,31,10240,0.35,-0.08,1.45,1.11,5777,6263,5377,38,54,32,91,100,0
5808,6307,5401,36,53,29,10240,0.35,-0.08,1.45,1.11,5778,6265,5378,36,52,31,91,100,0
5799,6296,5396,32,46,26,10240,0.35,-0.08,1.44,1.08,5779,6266,5379,36,52,31,91,100,0
5792,6286,5392,25,36,21,10240,0.35,-0.08,1.44,1.08,5780,6266,5379,36,52,31,91,100,0
5785,6275,5384,16,25,14,10240,0.35,-0.08,1.44,1.08,5780,6267,5379,36,52,31,91,100,0
5785,6274,5383,10,16,9,10240,0.35,-0.08,1.44,1.08,5780,6267,5380,36,52,31,91,100,0
5785,6274,5382,6,10,5,10240,0.35,-0.08,1.44,1.08,5780,6267,5380,36,52,31,91,100,0
5786,6275,5384,5,7,3,10240,0.35,-0.08,1.44,1.08,5780,6268,5380,36,52,31,91,100,0
5785,6275,5383,5,7,3,10240,0.35,-0.08,1.44,1.08,5780,6268,5380,36,52,31,91,100,0
5786,6275,5381,5,7,2,10240,0.35,-0.08,1.44,1.08,5781,6268,5380,36,52,31,91,100,0
5786,6274,5382,5,6,2,10240,0.35,-0.08,1.44,1.08,5781,6268,5380,36,52,31,91,100,0
5785,6273,5380,4,6,1,10240,0.35,-0.08,1.44,1.08,5781,6268,5380,36,52,31,91,100,0
5785,6274,5381,4,5,1,10240,0.35,-0.08,1.44,1.08,5781,6269,5380,36,52,31,91,100,0
5786,6275,5382,4,5,1,10240,0.35,-0.08,1.44,1.08,5781,6269,5380,36,52,31,91,100,0
5789,6281,5383,5,7,1,10240,0.35,-0.08,1.44,1.08,5782,6269,5380,36,52,31,91,100,0
5792,6285,5388,6,9,3,10240,0.35,-0.08,1.44,1.08,5782,6270,5380,36,52,31,91,100,0
5795,6289,5390,8,13,5,10240,0.35,-0.08,1.44,1.08,5782,6270,5381,36,52,31,91,100,0
5799,6294,5393,11,17,8,10240,0.35,-0.08,1.44,1.08,5783,6271,5381,36,52,31,91,100,0
5802,6301,5396,14,21,10,10240,0.35,-0.08,1.44,1.08,5784,6272,5382,36,52,31,91,100,0
5810,6307,5401,18,26,13,10240,0.35,-0.08,1.44,1.08,5784,6273,5382,36,52,31,91,100,0
5813,6316,5405,22,31,16,10240,0.35,-0.08,1.44,1.08,5785,6275,5383,36,52,31,91,100,0
5816,6321,5407,25,37,19,10240,0.35,-0.08,1.44,1.08,5786,6276,5384,36,52,31,91,100,0
5819,6326,5409,29,42,22,10240,0.35,-0.08,1.44,1.08,5787,6278,5385,36,52,31,91,100,0
5820,6328,5410,30,45,23,10240,0.35,-0.08,1.44,1.08,5789,6280,5386,36,52,31,91,100,0
5814,6319,5410,29,44,23,10240,0.35,-0.08,1.44,1.08,5789,6281,5386,33,49,31,91,100,0
5808,6309,5402,26,40,21,10240,0.35,-0.08,1.44,1.08,5790,6282,5387,33,49,29,91,100,0
5798,6295,5395,20,31,17,10240,0.34,-0.09,1.45,1.06,5790,6282,5387,33,49,29,91,100,0
5792,6287,5390,13,20,12,10240,0.34,-0.09,1.45,1.06,5790,6282,5387,33,49,29,91,100,0
5788,6281,5387,6,11,6,10240,0.34,-0.09,1.45,1.06,5790,6282,5387,33,49,29,91,100,0
5785,6277,5383,0,3,1,10240,0.34,-0.09,1.45,1.06,5790,6282,5387,33,49,29,91,100,0
5786,6276,5383,-2,-1,-1,10240,0.34,-0.09,1.45,1.06,5790,6282,5387,33,49,29,91,100,0
5787,6278,5384,-3,-4,-2,10240,0.34,-0.09,1.45,1.06,5790,6282,5387,33,49,29,91,100,0
5788,6279,5385,-3,-4,-3,10240,0.34,-0.09,1.45,1.06,5790,6282,5387,33,49,29,91,100,0
5790,6283,5386,-2,-3,-2,10240,0.34,-0.09,1.45,1.06,5790,6282,5387,33,49,29,91,100,0
5793,6286,5386,0,0,-1,10240,0.34,-0.09,1.45,1.06,5790,6282,5387,33,49,29,91,100,0
5794,6287,5388,1,1,0,10240,0.34,-0.09,1.45,1.06,5790,6282,5387,33,49,29,91,100,0
5796,6290,5389,3,4,0,10240,0.34,-0.09,1.45,1.06,5790,6282,5387,33,49,29,91,100,0
5797,6291,5390,4,6,1,10240,0.34,-0.09,1.45,1.06,5791,6283,5387,33,49,29,91,100,0
5801,6295,5393,6,8,3,10240,0.34,-0.09,1.45,1.06,5791,6283,5387,33,49,29,91,100,0
5802,6297,5393,8,10,4,10240,0.34,-0.09,1.45,1.06,5791,6284,5387,33,49,29,91,100,0
5806,6304,5397,10,13,6,10240,0.34,-0.09,1.45,1.06,5792,6284,5388,33,49,29,91,100,0
5809,6309,5398,13,17,7,10240,0.34,-0.09,1.45,1.06,5792,6285,5388,33,49,29,91,100,0
5812,6313,5402,15,21,9,10240,0.34,-0.09,1.45,1.06,5793,6286,5388,33,49,29,91,100,0
5815,6318,5404,17,25,12,10240,0.34,-0.09,1.45,1.06,5794,6287,5389,33,49,29,91,100,0
5818,6323,5406,20,29,13,10240,0.34,-0.09,1.45,1.06,5794,6288,5390,33,49,29,91,100,0
5822,6329,5409,22,33,16,10240,0.34,-0.09,1.45,1.06,5795,6290,5390,33,49,29,91,100,0
5824,6331,5411,25,36,17,10240,0.34,-0.09,1.45,1.06,5796,6291,5391,33,49,29,91,100,0
5827,6333,5414,27,38,19,10240,0.34,-0.09,1.45,1.06,5797,6292,5392,33,49,29,91,100,0
5828,6332,5414,28,39,20,10240,0.34,-0.09,1.45,1.06,5798,6294,5392,33,49,29,91,100,0
5825,6331,5412,28,38,20,10240,0.34,-0.09,1.45,1.06,5799,6295,5393,33,47,29,91,100,0
5806,6303,5398,23,30,17,10240,0.34,-0.09,1.45,1.06,5800,6295,5393,33,47,27,91,100,0
5796,6291,5393,14,19,11,10240,0.34,-0.09,1.49,1.14,5799,6295,5393,33,47,27,91,100,0
5789,6281,5386,4,6,4,10240,0.34,-0.09,1.49,1.14,5799,6295,5393,33,47,27,91,100,0
5787,6275,5380,-4,-7,-3,10240,0.34,-0.09,1.49,1.14,5799,6294,5393,33,47,27,91,100,0
5785,6271,5378,-9,-14,-8,10240,0.34,-0.09,1.49,1.14,5798,6293,5392,33,47,27,91,100,0
5781,6263,5372,-13,-21,-13,10240,0.34,-0.09,1.49,1.14,5798,6292,5391,33,47,27,91,100,0
5781,6264,5373,-14,-24,-16,10240,0.34,-0.09,1.49,1.14,5797,6291,5391,33,47,27,91,100,0
5781,6264,5373,-15,-26,-17,10240,0.34,-0.09,1.49,1.14,5797,6290,5390,33,47,27,91,100,0
5782,6264,5373,-15,-26,-17,10240,0.34,-0.09,1.49,1.14,5796,6289,5390,33,47,27,91,100,0
5782,6266,5373,-15,-25,-17,10240,0.34,-0.09,1.49,1.14,5796,6289,5389,33,47,27,91,100,0
5783,6266,5375,-14,-24,-16,10240,0.34,-0.09,1.49,1.14,5795,6288,5389,33,47,27,91,100,0
5785,6268,5376,-12,-22,-14,10240,0.34,-0.09,1.49,1.14,5795,6287,5388,33,47,27,91,100,0
5785,6270,5377,-11,-20,-13,10240,0.34,-0.09,1.49,1.14,5795,6287,5388,33,47,27,91,100,0
5786,6275,5380,-10,-17,-11,10240,0.34,-0.09,1.49,1.14,5794,6286,5388,33,47,27,91,100,0
5787,6277,5382,-8,-14,-9,10240,0.34,-0.09,1.49,1.14,5794,6286,5387,33,47,27,91,100,0
5793,6285,5388,-6,-9,-5,10240,0.34,-0.09,1.49,1.14,5794,6286,5387,33,47,27,91,100,0
5796,6290,5389,-3,-4,-2,10240,0.34,-0.09,1.49,1.14,5794,6286,5387,33,47,27,91,100,0
5801,6295,5394,0,0,1,10240,0.34,-0.09,1.49,1.14,5794,6286,5388,33,47,27,91,100,0
5804,6300,5396,4,6,4,10240,0.34,-0.09,1.49,1.14,5795,6287,5388,33,47,27,91,100,0
5807,6303,5398,7,10,6,10240,0.34,-0.09,1.49,1.14,5795,6287,5388,33,47,27,91,100,0
5809,6307,5401,10,14,9,10240,0.34,-0.09,1.49,1.14,5795,6288,5389,33,47,27,91,100,0
5814,6314,5404,13,18,11,10240,0.34,-0.09,1.49,1.14,5796,6289,5389,33,47,27,91,100,0
5814,6315,5403,15,21,12,10240,0.34,-0.09,1.49,1.14,5797,6290,5390,33,47,27,91,100,0
5813,6313,5402,16,22,13,10240,0.34,-0.09,1.49,1.14,5797,6291,5390,33,47,27,91,100,0
5805,6301,5397,14,20,11,10240,0.34,-0.09,1.49,1.14,5797,6291,5390,32,47,28,91,100,0
5784,6270,5378,7,9,5,10240,0.34,-0.09,1.44,1.06,5797,6290,5390,32,47,28,91,100,0
5773,6253,5367,-3,-6,-3,10240,0.34,-0.09,1.44,1.06,5796,6289,5389,32,47,28,91,100,0
5763,6241,5360,-15,-23,-13,10240,0.34,-0.09,1.44,1.06,5795,6287,5388,32,47,28,91,100,0
5751,6223,5348,-27,-41,-25,10240,0.34,-0.09,1.44,1.06,5794,6285,5387,32,47,28,91,100,0
5742,6211,5340,-37,-54,-33,10240,0.34,-0.09,1.44,1.06,5792,6283,5385,32,47,28,91,100,0
5728,6193,5336,-46,-66,-40,10240,0.34,-0.09,1.44,1.06,5790,6280,5384,32,47,28,91,100,0
5726,6189,5334,-54,-77,-45,10240,0.34,-0.09,1.44,1.06,5788,6277,5382,32,47,28,91,100,0
5724,6186,5333,-59,-83,-47,10240,0.34,-0.09,1.44,1.06,5786,6274,5380,32,47,28,91,100,0
5724,6184,5330,-61,-87,-48,10240,0.34,-0.09,1.44,1.06,5783,6271,5379,32,47,28,91,100,0
5722,6181,5329,-60,-87,-48,10240,0.34,-0.09,1.44,1.06,5781,6268,5377,32,47,28,91,100,0
5722,6181,5328,-59,-86,-47,10240,0.34,-0.09,1.44,1.06,5779,6265,5375,32,47,28,91,100,0
5722,6180,5329,-57,-85,-47,10240,0.34,-0.09,1.44,1.06,5778,6262,5374,32,47,28,91,100,0
5722,6181,5328,-56,-82,-46,10240,0.34,-0.09,1.44,1.06,5776,6259,5372,32,47,28,91,100,0
5722,6182,5331,-54,-79,-44,10240,0.34,-0.09,1.44,1.06,5774,6257,5371,32,47,28,91,100,0
5725,6188,5334,-52,-75,-41,10240,0.34,-0.09,1.44,1.06,5772,6254,5370,32,47,28,91,100,0
5729,6194,5337,-48,-69,-38,10240,0.34,-0.09,1.44,1.06,5771,6252,5369,32,47,28,91,100,0
5731,6198,5338,-45,-63,-34,10240,0.34,-0.09,1.44,1.06,5770,6251,5368,32,47,28,91,100,0
5735,6202,5339,-40,-56,-31,10240,0.34,-0.09,1.44,1.06,5768,6249,5367,32,47,28,91,100,0
5739,6205,5340,-35,-50,-29,10240,0.34,-0.09,1.44,1.06,5767,6248,5366,32,47,28,91,100,0
5742,6210,5343,-31,-44,-26,10240,0.34,-0.09,1.44,1.06,5767,6246,5365,32,47,28,91,100,0
5751,6224,5352,-25,-37,-22,10240,0.34,-0.09,1.44,1.06,5766,6246,5364,32,47,28,91,100,0
5755,6228,5356,-19,-29,-17,10240,0.34,-0.09,1.44,1.06,5766,6245,5364,32,47,28,91,100,0
5757,6229,5356,-14,-22,-12,10240,0.34,-0.09,1.44,1.06,5765,6244,5364,32,47,28,91,100,0
5754,6225,5354,-11,-18,-9,10240,0.34,-0.09,1.44,1.06,5765,6244,5364,32,47,28,91,100,0
5745,6214,5347,-12,-20,-10,10240,0.34,-0.09,1.44,1.06,5764,6243,5363,37,53,31,91,100,0
5724,6187,5334,-19,-29,-15,10240,0.34,-0.09,1.47,1.11,5763,6241,5362,37,53,31,91,100,0
5716,6174,5324,-28,-41,-22,10240,0.34,-0.09,1.47,1.11,5761,6239,5361,37,53,31,91,100,0
5700,6152,5313,-40,-58,-31,10240,0.34,-0.09,1.47,1.11,5759,6236,5359,37,53,31,91,100,0
5690,6144,5299,-52,-73,-42,10240,0.34,-0.09,1.47,1.11,5757,6233,5357,37,53,31,91,100,0
5683,6128,5293,-60,-84,-50,10240,0.34,-0.09,1.47,1.11,5755,6229,5355,37,53,31,91,100,0
5670,6109,5283,-70,-97,-59,10240,0.34,-0.09,1.47,1.11,5752,6225,5353,37,53,31,91,100,0
5668,6106,5282,-75,-105,-64,10240,0.34,-0.09,1.47,1.11,5749,6221,5350,37,53,31,91,100,0
5666,6103,5281,-78,-111,-66,10240,0.34,-0.09,1.47,1.11,5746,6217,5348,37,53,31,91,100,0
5666,6102,5280,-80,-114,-67,10240,0.34,-0.09,1.47,1.11,5744,6213,5346,37,53,31,91,100,0
5667,6103,5282,-78,-111,-65,10240,0.34,-0.09,1.47,1.11,5741,6210,5344,37,53,31,91,100,0
5669,6106,5283,-75,-108,-63,10240,0.34,-0.09,1.47,1.11,5739,6206,5342,37,53,31,91,100,0
5671,6109,5286,-71,-103,-60,10240,0.34,-0.09,1.47,1.11,5736,6203,5340,37,53,31,91,100,0
5673,6113,5287,-67,-97,-56,10240,0.34,-0.09,1.47,1.11,5734,6200,5338,37,53,31,91,100,0
5676,6118,5289,-63,-90,-52,10240,0.34,-0.09,1.47,1.11,5732,6197,5336,37,53,31,91,100,0
5679,6121,5292,-58,-83,-48,10240,0.34,-0.09,1.47,1.11,5731,6195,5335,37,53,31,91,100,0
5687,6135,5299,-52,-74,-44,10240,0.34,-0.09,1.47,1.11,5729,6193,5334,37,53,31,91,100,0
5689,6142,5301,-47,-65,-39,10240,0.34,-0.09,1.47,1.11,5728,6191,5333,37,53,31,91,100,0
5691,6145,5303,-42,-56,-34,10240,0.34,-0.09,1.47,1.11,5726,6190,5332,37,53,31,91,100,0
5693,6146,5305,-37,-48,-30,10240,0.34,-0.09,1.47,1.11,5725,6188,5331,37,53,31,91,100,0
5696,6147,5310,-33,-44,-26,10240,0.34,-0.09,1.47,1.11,5724,6187,5330,37,53,31,91,100,0
5701,6153,5316,-29,-40,-22,10240,0.34,-0.09,1.47,1.11,5724,6186,5329,37,53,31,91,100,0
5707,6160,5317,-24,-35,-17,10240,0.34,-0.09,1.47,1.11,5723,6185,5329,37,53,31,91,100,0
5709,6164,5318,-20,-29,-14,10240,0.34,-0.09,1.47,1.11,5723,6184,5329,37,53,31,91,100,0
5707,6160,5318,-17,-25,-11,10240,0.34,-0.09,1.47,1.11,5722,6183,5328,37,53,31,91,100,0
5701,6151,5313,-16,-24,-12,10240,0.34,-0.09,1.47,1.11,5721,6182,5328,37,53,37,91,100,0
5686,6136,5297,-20,-29,-16,10240,0.34,-0.09,1.23,0.93,5720,6181,5327,44,62,37,91,100,0
5678,6123,5289,-27,-38,-23,10240,0.34,-0.09,1.23,0.93,5719,6179,5326,44,62,37,91,100,0
5668,6106,5280,-36,-50,-31,10240,0.34,-0.09,1.23,0.93,5717,6176,5324,44,62,37,91,100,0
5660,6092,5274,-44,-63,-39,10240,0.34,-0.09,1.23,0.93,5715,6173,5322,44,62,37,91,100,0
5655,6086,5271,-50,-73,-44,10240,0.34,-0.09,1.23,0.93,5713,6171,5321,44,62,37,91,100,0
5653,6085,5272,-55,-79,-47,10240,0.34,-0.09,1.23,0.93,5711,6168,5319,44,62,37,91,100,0
5653,6084,5271,-56,-82,-47,10240,0.34,-0.09,1.23,0.93,5709,6165,5317,44,62,37,91,100,0
5653,6084,5270,-56,-81,-47,10240,0.34,-0.09,1.23,0.93,5707,6162,5316,44,62,37,91,100,0
5652,6082,5268,-55,-80,-46,10240,0.34,-0.09,1.23,0.93,5706,6160,5314,44,62,37,91,100,0
5652,6084,5271,-54,-77,-45,10240,0.34,-0.09,1.23,0.93,5704,6157,5313,44,62,37,91,100,0
5658,6088,5273,-51,-74,-43,10240,0.34,-0.09,1.23,0.93,5702,6155,5311,44,62,37,91,100,0
5661,6092,5273,-47,-69,-40,10240,0.34,-0.09,1.23,0.93,5701,6153,5310,44,62,37,91,100,0
5663,6094,5275,-43,-64,-37,10240,0.34,-0.09,1.23,0.93,5700,6151,5309,44,62,37,91,100,0
5666,6099,5279,-38,-58,-34,10240,0.34,-0.09,1.23,0.93,5698,6149,5308,44,62,37,91,100,0
5669,6106,5281,-34,-52,-31,10240,0.34,-0.09,1.23,0.93,5698,6147,5307,44,62,37,91,100,0
5677,6116,5287,-29,-44,-27,10240,0.34,-0.09,1.23,0.93,5697,6146,5306,44,62,37,91,100,0
5681,6123,5290,-24,-36,-22,10240,0.34,-0.09,1.23,0.93,5696,6146,5306,44,62,37,91,100,0
5685,6129,5294,-18,-27,-18,10240,0.34,-0.09,1.23,0.93,5696,6145,5306,44,62,37,91,100,0
5688,6136,5295,-13,-19,-14,10240,0.34,-0.09,1.23,0.93,5696,6145,5305,44,62,37,91,100,0
5690,6142,5297,-9,-12,-11,10240,0.34,-0.09,1.23,0.93,5695,6145,5305,44,62,37,91,100,0
5695,6146,5303,-6,-6,-8,10240,0.34,-0.09,1.23,0.93,5695,6145,5305,44,62,37,91,100,0
5697,6147,5309,-3,-2,-4,10240,0.34,-0.09,1.23,0.93,5696,6145,5305,44,62,37,91,100,0
5699,6147,5308,0,0,0,10240,0.34,-0.09,1.23,0.93,5696,6145,5305,44,62,37,91,100,0
5697,6147,5306,1,1,1,10240,0.34,-0.09,1.23,0.93,5696,6145,5305,44,62,37,91,100,0
5691,6142,5299,0,0,0,10240,0.34,-0.09,1.23,0.93,5695,6145,5305,47,67,40,91,100,0
5678,6117,5293,-4,-6,-3,10240,0.34,-0.09,1.45,1.09,5695,6144,5305,47,67,40,91,100,0
5670,6106,5279,-11,-16,-10,10240,0.34,-0.09,1.45,1.09,5694,6143,5304,47,67,40,91,100,0
5665,6095,5273,-18,-28,-18,10240,0.34,-0.09,1.45,1.09,5693,6141,5303,47,67,40,91,100,0
5658,6088,5269,-25,-40,-24,10240,0.34,-0.09,1.45,1.09,5692,6139,5301,47,67,40,91,100,0
5652,6079,5264,-31,-48,-30,10240,0.34,-0.09,1.45,1.09,5691,6137,5300,47,67,40,91,100,0
5652,6081,5265,-34,-52,-33,10240,0.34,-0.09,1.45,1.09,5689,6135,5299,47,67,40,91,100,0
5653,6082,5268,-36,-53,-33,10240,0.34,-0.09,1.45,1.09,5688,6134,5298,47,67,40,91,100,0
5653,6082,5268,-36,-53,-32,10240,0.34,-0.09,1.45,1.09,5687,6132,5297,47,67,40,91,100,0
5655,6085,5269,-34,-50,-30,10240,0.34,-0.09,1.45,1.09,5686,6130,5296,47,67,40,91,100,0
5656,6085,5269,-32,-47,-28,10240,0.34,-0.09,1.45,1.09,5685,6129,5295,47,67,40,91,100,0
5661,6088,5270,-29,-44,-26,10240,0.34,-0.09,1.45,1.09,5684,6127,5294,47,67,40,91,100,0
5664,6092,5272,-25,-40,-24,10240,0.34,-0.09,1.45,1.09,5683,6126,5294,47,67,40,91,100,0
5666,6094,5273,-22,-37,-23,10240,0.34,-0.09,1.45,1.09,5683,6125,5293,47,67,40,91,100,0
5668,6099,5275,-18,-32,-20,10240,0.34,-0.09,1.45,1.09,5682,6124,5292,47,67,40,91,100,0
5672,6106,5279,-15,-27,-18,10240,0.34,-0.09,1.45,1.09,5682,6124,5292,47,67,40,91,100,0
5679,6112,5282,-11,-21,-15,10240,0.34,-0.09,1.45,1.09,5682,6123,5292,47,67,40,91,100,0
5683,6122,5287,-6,-13,-11,10240,0.34,-0.09,1.45,1.09,5682,6123,5291,47,67,40,91,100,0
5685,6127,5289,-2,-6,-7,10240,0.34,-0.09,1.45,1.09,5682,6123,5291,47,67,40,91,100,0
5687,6133,5291,1,0,-4,10240,0.34,-0.09,1.45,1.09,5682,6124,5291,47,67,40,91,100,0
5691,6140,5294,4,7,0,10240,0.34,-0.09,1.45,1.09,5683,6124,5291,47,67,40,91,100,0
5693,6143,5296,6,11,1,10240,0.34,-0.09,1.45,1.09,5683,6125,5292,47,67,40,91,100,0
5697,6147,5300,9,16,3,10240,0.34,-0.09,1.45,1.09,5683,6126,5292,47,67,40,91,100,0
5698,6146,5303,11,18,6,10240,0.34,-0.09,1.45,1.09,5684,6126,5292,47,67,40,91,100,0
5695,6146,5297,12,19,7,10240,0.34,-0.09,1.45,1.09,5684,6127,5292,47,67,40,91,100,0
5690,6137,5293,11,17,6,10240,0.34,-0.09,1.45,1.09,5684,6127,5292,47,69,40,91,100,0
5685,6125,5288,8,11,3,10240,0.34,-0.09,1.49,1.09,5684,6127,5292,47,69,40,91,100,0
5674,6107,5277,2,1,-3,10240,0.34,-0.09,1.49,1.09,5684,6127,5292,47,69,40,91,100,0
5669,6100,5274,-4,-9,-8,10240,0.34,-0.09,1.49,1.09,5684,6126,5291,47,69,40,91,100,0
5667,6095,5269,-10,-19,-14,10240,0.34,-0.09,1.49,1.09,5683,6125,5290,47,69,40,91,100,0
5665,6094,5270,-14,-26,-18,10240,0.34,-0.09,1.49,1.09,5682,6124,5290,47,69,40,91,100,0
5665,6093,5271,-16,-29,-19,10240,0.34,-0.09,1.49,1.09,5682,6123,5289,47,69,40,91,100,0
5668,6096,5273,-15,-29,-18,10240,0.34,-0.09,1.49,1.09,5681,6122,5289,47,69,40,93,100,0
5667,6096,5272,-15,-27,-17,10240,0.34,-0.09,1.49,1.09,5681,6121,5288,47,69,40,93,100,0
5669,6099,5274,-14,-25,-16,10240,0.34,-0.09,1.49,1.09,5681,6120,5288,47,69,40,93,100,0
5671,6101,5275,-12,-22,-14,10240,0.34,-0.09,1.49,1.09,5680,6120,5287,47,69,40,93,100,0
5672,6103,5275,-10,-20,-13,10240,0.34,-0.09,1.49,1.09,5680,6119,5287,47,69,40,93,100,0
5676,6111,5281,-8,-16,-11,10240,0.34,-0.09,1.49,1.09,5680,6119,5287,47,69,40,93,100,0
5680,6117,5285,-5,-11,-8,10240,0.34,-0.09,1.49,1.09,5680,6119,5287,47,69,40,93,100,0
5686,6128,5290,-1,-4,-4,10240,0.34,-0.09,1.49,1.09,5680,6119,5287,47,69,40,93,100,0
5689,6135,5293,2,3,0,10240,0.34,-0.09,1.49,1.09,5680,6119,5287,47,69,40,93,100,0
5693,6141,5296,6,11,4,10240,0.34,-0.09,1.49,1.09,5681,6120,5287,47,69,40,93,100,0
5696,6146,5300,10,17,7,10240,0.34,-0.09,1.49,1.09,5681,6121,5288,47,69,40,93,100,0
5698,6146,5300,13,21,9,10240,0.34,-0.09,1.49,1.09,5682,6122,5288,47,69,40,93,100,0
5700,6147,5302,15,23,11,10240,0.34,-0.09,1.49,1.09,5682,6123,5288,47,69,40,93,100,0
5703,6148,5305,17,24,13,10240,0.34,-0.09,1.49,1.09,5683,6124,5289,47,69,40,93,100,0
5705,6148,5306,18,24,14,10240,0.34,-0.09,1.49,1.09,5684,6124,5290,47,69,40,93,100,0
5712,6156,5312,21,25,17,10240,0.34,-0.09,1.49,1.09,5685,6125,5290,47,69,40,93,100,0
5709,6153,5310,22,26,18,10240,0.34,-0.09,1.49,1.09,5686,6126,5291,47,69,40,93,100,0
5702,6148,5308,21,25,18,10240,0.34,-0.09,1.49,1.09,5686,6127,5292,45,65,40,93,100,0
5695,6146,5302,18,24,16,10240,0.34,-0.09,1.49,1.09,5686,6128,5292,45,65,39,93,100,0
5690,6139,5295,12,19,12,10240,0.34,-0.09,1.44,1.07,5687,6128,5292,45,65,39,93,100,0
5683,6125,5290,6,11,6,10240,0.34,-0.09,1.44,1.07,5686,6128,5292,45,65,39,93,100,0
5679,6118,5286,0,4,1,10240,0.34,-0.09,1.44,1.07,5686,6128,5292,45,65,39,93,100,0
5677,6115,5282,-4,-3,-3,10240,0.34,-0.09,1.44,1.07,5686,6127,5291,45,65,39,93,100,0
5675,6111,5280,-7,-10,-7,10240,0.34,-0.09,1.44,1.07,5685,6127,5291,45,65,39,93,100,0
5676,6110,5281,-8,-13,-9,10240,0.34,-0.09,1.44,1.07,5685,6126,5291,45,65,39,93,100,0
5680,6116,5283,-8,-13,-9,10240,0.34,-0.09,1.44,1.07,5685,6126,5290,45,65,39,93,100,0
5680,6117,5283,-7,-12,-8,10240,0.34,-0.09,1.44,1.07,5685,6125,5290,45,65,39,93,100,0
5679,6114,5281,-6,-11,-8,10240,0.34,-0.09,1.44,1.07,5685,6125,5290,45,65,39,93,100,0
5679,6114,5280,-5,-10,-8,10240,0.34,-0.09,1.44,1.07,5684,6125,5290,45,65,39,93,100,0
5680,6115,5280,-5,-9,-8,10240,0.34,-0.09,1.44,1.07,5684,6124,5289,45,65,39,93,100,0
5683,6122,5284,-4,-8,-8,10240,0.34,-0.09,1.44,1.07,5684,6124,5289,45,65,39,93,100,0
5686,6129,5287,-2,-4,-6,10240,0.34,-0.09,1.44,1.07,5684,6125,5289,45,65,39,93,100,0
5690,6135,5292,0,0,-3,10240,0.34,-0.09,1.44,1.07,5685,6125,5289,45,65,39,93,100,0
5693,6142,5294,3,7,0,10240,0.34,-0.09,1.44,1.07,5685,6125,5289,45,65,39,93,100,0
5696,6146,5298,6,12,3,10240,0.34,-0.09,1.44,1.07,5685,6126,5290,45,65,39,93,100,0
5708,6155,5312,11,18,9,10240,0.34,-0.09,1.44,1.07,5686,6127,5290,45,65,39,93,100,0
5712,6163,5316,16,25,15,10240,0.34,-0.09,1.44,1.07,5687,6128,5291,45,65,39,93,100,0
5716,6172,5319,21,31,20,10240,0.34,-0.09,1.44,1.07,5688,6130,5292,45,65,39,93,100,0
5721,6179,5322,26,38,25,10240,0.34,-0.09,1.44,1.07,5689,6131,5293,45,65,39,93,100,0
5723,6183,5326,29,43,28,10240,0.34,-0.09,1.44,1.07,5690,6133,5294,45,65,39,93,100,0
5728,6189,5332,32,48,31,10240,0.34,-0.09,1.44,1.07,5691,6135,5295,45,65,39,93,100,0
5725,6183,5328,33,49,32,10240,0.34,-0.09,1.44,1.07,5692,6137,5297,45,65,39,93,100,0
5717,6174,5321,31,46,31,10240,0.34,-0.09,1.44,1.07,5693,6138,5297,44,64,39,93,100,0
5710,6163,5317,27,40,27,10240,0.34,-0.09,1.42,1.05,5694,6139,5298,44,64,39,93,100,0
5703,6153,5313,20,30,22,10240,0.34,-0.09,1.42,1.05,5694,6139,5298,44,64,39,93,100,0
5695,6146,5302,12,20,15,10240,0.34,-0.09,1.42,1.05,5694,6139,5299,44,64,39,93,100,0
5694,6146,5302,6,12,10,10240,0.34,-0.09,1.42,1.05,5694,6140,5299,44,64,39,93,100,0
5693,6146,5302,2,8,6,10240,0.34,-0.09,1.42,1.05,5694,6140,5299,44,64,39,93,100,0
5695,6146,5302,0,6,3,10240,0.34,-0.09,1.42,1.05,5694,6140,5299,44,64,39,93,100,0
5695,6146,5302,0,6,3,10240,0.34,-0.09,1.42,1.05,5694,6140,5299,44,64,39,93,100,0
5696,6146,5302,0,6,3,10240,0.34,-0.09,1.42,1.05,5694,6140,5299,44,64,39,93,100,0
5697,6146,5303,1,5,3,10240,0.34,-0.09,1.42,1.05,5694,6141,5299,44,64,39,93,100,0
5698,6146,5303,2,5,3,10240,0.34,-0.09,1.42,1.05,5694,6141,5299,44,64,39,93,100,0
5700,6147,5304,3,5,3,10240,0.34,-0.09,1.42,1.05,5695,6141,5300,44,64,39,93,100,0
5700,6147,5304,4,5,4,10240,0.34,-0.09,1.42,1.05,5695,6141,5300,44,64,39,93,100,0
5708,6149,5309,6,6,5,10240,0.34,-0.09,1.42,1.05,5695,6141,5300,44,64,39,93,100,0
5711,6164,5316,9,10,8,10240,0.34,-0.09,1.42,1.05,5696,6142,5301,44,64,39,93,100,0
5716,6169,5319,13,15,11,10240,0.34,-0.09,1.42,1.05,5696,6143,5301,44,64,39,93,100,0
5719,6173,5320,17,21,15,10240,0.34,-0.09,1.42,1.05,5697,6144,5302,44,64,39,93,100,0
5721,6178,5323,20,27,18,10240,0.34,-0.09,1.42,1.05,5698,6145,5302,44,64,39,93,100,0
5724,6180,5325,22,30,19,10240,0.34,-0.09,1.42,1.05,5699,6146,5303,44,64,39,93,100,0
5728,6188,5331,24,34,22,10240,0.34,-0.09,1.42,1.05,5700,6148,5304,44,64,39,93,100,0
5731,6190,5332,26,37,24,10240,0.34,-0.09,1.42,1.05,5701,6149,5305,44,64,39,93,100,0
5732,6193,5331,28,39,25,10240,0.34,-0.09,1.42,1.05,5702,6151,5306,44,64,39,93,100,0
5734,6196,5333,29,41,26,10240,0.34,-0.09,1.42,1.05,5703,6152,5307,44,64,39,93,100,0
5732,6196,5334,29,42,26,10240,0.34,-0.09,1.42,1.05,5704,6154,5308,44,64,39,93,100,0
5722,6179,5323,26,38,23,10240,0.34,-0.09,1.42,1.05,5705,6154,5308,40,58,35,93,100,0
5715,6165,5318,21,30,19,10240,0.34,-0.09,1.43,1.06,5705,6155,5309,40,58,35,93,100,0
5706,6155,5313,14,19,13,10240,0.34,-0.09,1.43,1.06,5705,6155,5309,40,58,35,93,100,0
5701,6147,5307,6,6,6,10240,0.34,-0.09,1.43,1.06,5705,6155,5309,40,58,35,93,100,0
5697,6146,5299,0,-1,0,10240,0.34,-0.09,1.43,1.06,5705,6154,5308,40,58,35,93,100,0
5695,6145,5299,-5,-6,-4,10240,0.34,-0.09,1.43,1.06,5704,6154,5308,40,58,35,93,100,0
5698,6147,5301,-6,-8,-6,10240,0.34,-0.09,1.43,1.06,5704,6154,5308,40,58,35,93,100,0
5699,6147,5302,-7,-7,-7,10240,0.34,-0.09,1.43,1.06,5704,6153,5308,40,58,35,93,100,0
5699,6147,5302,-6,-7,-6,10240,0.34,-0.09,1.43,1.06,5704,6153,5307,40,58,35,93,100,0
5701,6147,5301,-4,-6,-6,10240,0.34,-0.09,1.43,1.06,5704,6153,5307,40,58,35,93,100,0
5703,6147,5304,-3,-6,-5,10240,0.34,-0.09,1.43,1.06,5704,6153,5307,40,58,35,93,100,0
5707,6150,5308,-1,-5,-3,10240,0.34,-0.09,1.43,1.06,5704,6153,5307,40,58,35,93,100,0
5708,6152,5307,0,-4,-2,10240,0.34,-0.09,1.43,1.06,5704,6153,5307,40,58,35,93,100,0
5711,6155,5309,3,-2,0,10240,0.34,-0.09,1.43,1.06,5704,6153,5307,40,58,35,93,100,0
5712,6160,5311,5,1,1,10240,0.34,-0.09,1.43,1.06,5704,6153,5307,40,58,35,93,100,0
5720,6168,5313,8,5,2,10240,0.34,-0.09,1.43,1.06,5705,6154,5308,40,58,35,93,100,0
5721,6174,5317,11,10,5,10240,0.34,-0.09,1.43,1.06,5705,6154,5308,40,58,35,93,100,0
5723,6178,5319,14,16,7,10240,0.34,-0.09,1.43,1.06,5706,6155,5308,40,58,35,93,100,0
5724,6180,5322,16,20,9,10240,0.34,-0.09,1.43,1.06,5707,6156,5309,40,58,35,93,100,0
5728,6187,5326,17,24,12,10240,0.34,-0.09,1.43,1.06,5707,6157,5309,40,58,35,93,100,0
5734,6200,5333,20,29,16,10240,0.34,-0.09,1.43,1.06,5708,6158,5310,40,58,35,93,100,0
5736,6201,5335,22,34,19,10240,0.34,-0.09,1.43,1.06,5709,6160,5311,40,58,35,93,100,0
5734,6197,5334,24,37,21,10240,0.34,-0.09,1.43,1.06,5710,6161,5312,40,58,35,93,100,0
5730,6189,5330,24,36,21,10240,0.34,-0.09,1.43,1.06,5711,6162,5312,40,54,35,93,100,0
5723,6179,5323,20,30,18,10240,0.34,-0.09,1.43,1.06,5711,6162,5313,38,54,34,93,100,0
5712,6159,5313,14,19,12,10240,0.34,-0.08,1.37,1.04,5711,6162,5313,38,54,34,93,100,0
5704,6148,5304,6,6,5,10240,0.34,-0.08,1.37,1.04,5711,6162,5312,38,54,34,93,100,0
5696,6147,5296,-2,-3,-3,10240,0.34,-0.08,1.37,1.04,5710,6161,5312,38,54,34,93,100,0
5695,6145,5294,-8,-11,-10,10240,0.34,-0.08,1.37,1.04,5710,6161,5311,38,54,34,93,100,0
5696,6145,5295,-12,-14,-14,10240,0.34,-0.08,1.37,1.04,5709,6160,5311,38,54,34,93,100,0
5697,6146,5293,-13,-14,-16,10240,0.34,-0.08,1.37,1.04,5709,6160,5310,38,54,34,93,100,0
5695,6144,5294,-13,-15,-16,10240,0.34,-0.08,1.37,1.04,5708,6159,5309,38,54,34,93,100,0
5696,6144,5293,-12,-14,-16,10240,0.34,-0.08,1.37,1.04,5708,6159,5309,38,54,34,93,100,0
5697,6145,5294,-12,-14,-15,10240,0.34,-0.08,1.37,1.04,5708,6158,5308,38,54,34,93,100,0
5698,6146,5295,-11,-13,-14,10240,0.34,-0.08,1.37,1.04,5707,6158,5308,38,54,34,93,100,0
5701,6147,5298,-9,-12,-13,10240,0.34,-0.08,1.37,1.04,5707,6158,5308,38,54,34,93,100,0
5704,6147,5302,-7,-11,-10,10240,0.34,-0.08,1.37,1.04,5707,6157,5307,38,54,34,93,100,0
5710,6152,5306,-3,-9,-7,10240,0.34,-0.08,1.37,1.04,5707,6157,5307,38,54,34,93,100,0
5713,6161,5311,0,-5,-3,10240,0.34,-0.08,1.37,1.04,5707,6157,5308,38,54,34,93,100,0
5718,6166,5313,4,0,0,10240,0.34,-0.08,1.37,1.04,5708,6158,5308,38,54,34,93,100,0
5726,6174,5318,9,5,4,10240,0.34,-0.08,1.37,1.04,5708,6158,5308,38,54,34,93,100,0
5725,6177,5319,12,11,7,10240,0.34,-0.08,1.37,1.04,5709,6159,5308,38,54,34,93,100,0
5726,6180,5321,15,15,9,10240,0.34,-0.08,1.37,1.04,5709,6159,5309,38,54,34,93,100,0
5728,6185,5323,17,20,11,10240,0.34,-0.08,1.37,1.04,5710,6160,5309,38,54,34,93,100,0
5730,6186,5324,17,22,12,10240,0.34,-0.08,1.37,1.04,5711,6161,5310,38,54,34,93,100,0
5730,6183,5323,18,23,13,10240,0.34,-0.08,1.37,1.04,5711,6162,5310,38,54,34,93,100,0
5725,6173,5318,17,20,12,10240,0.34,-0.08,1.37,1.04,5712,6162,5311,36,50,32,93,100,0
5715,6158,5308,13,13,8,10240,0.34,-0.08,1.35,1.05,5712,6162,5310,36,50,32,93,100,0
5701,6145,5295,6,2,0,10240,0.34,-0.08,1.35,1.05,5712,6162,5310,36,50,32,93,100,0
5688,6125,5276,-4,-11,-10,10240,0.34,-0.08,1.35,1.05,5711,6160,5309,36,50,32,93,100,0
5663,6089,5259,-19,-31,-24,10240,0.34,-0.08,1.35,1.05,5709,6158,5307,36,50,32,93,100,0
5652,6074,5252,-33,-50,-37,10240,0.34,-0.08,1.35,1.05,5707,6155,5305,36,50,32,93,100,0
5649,6067,5247,-45,-67,-47,10240,0.34,-0.08,1.35,1.05,5705,6152,5303,36,50,32,93,100,0
5647,6066,5247,-53,-79,-53,10240,0.34,-0.08,1.35,1.05,5703,6149,5302,36,50,32,93,100,0
5647,6065,5245,-55,-82,-54,10240,0.34,-0.08,1.35,1.05,5702,6147,5300,36,50,32,93,100,0
5645,6062,5243,-55,-83,-55,10240,0.34,-0.08,1.35,1.05,5700,6144,5298,36,50,32,93,100,0
5646,6062,5243,-54,-81,-54,10240,0.34,-0.08,1.35,1.05,5698,6141,5296,36,50,32,93,100,0
5646,6064,5245,-53,-79,-53,10240,0.34,-0.08,1.35,1.05,5696,6138,5294,36,50,32,93,100,0
5649,6068,5248,-50,-75,-50,10240,0.34,-0.08,1.35,1.05,5695,6136,5293,36,50,32,93,100,0
5651,6070,5248,-47,-71,-47,10240,0.34,-0.08,1.35,1.05,5693,6134,5291,36,50,32,93,100,0
5656,6076,5255,-43,-65,-43,10240,0.34,-0.08,1.35,1.05,5692,6132,5290,36,50,32,93,100,0
5660,6081,5258,-38,-59,-38,10240,0.34,-0.08,1.35,1.05,5691,6130,5289,36,50,32,93,100,0
5663,6086,5258,-34,-53,-34,10240,0.34,-0.08,1.35,1.05,5690,6129,5288,36,50,32,93,100,0
5668,6091,5261,-28,-46,-30,10240,0.34,-0.08,1.35,1.05,5689,6127,5287,36,50,32,93,100,0
5669,6093,5262,-24,-40,-27,10240,0.34,-0.08,1.35,1.05,5688,6126,5286,36,50,32,93,100,0
5676,6101,5266,-19,-34,-24,10240,0.34,-0.08,1.35,1.05,5688,6126,5285,36,50,32,93,100,0
5678,6106,5268,-15,-28,-21,10240,0.34,-0.08,1.35,1.05,5688,6125,5285,36,50,32,93,100,0
5681,6110,5272,-11,-22,-18,10240,0.34,-0.08,1.35,1.05,5687,6124,5284,36,50,32,93,100,0
5685,6115,5273,-7,-16,-14,10240,0.34,-0.08,1.35,1.05,5687,6124,5284,36,50,32,93,100,0
5683,6111,5271,-5,-13,-13,10240,0.34,-0.08,1.35,1.05,5687,6124,5284,36,50,32,93,100,0
5667,6090,5259,-8,-17,-15,10240,0.34,-0.08,1.35,1.05,5687,6122,5283,40,55,35,93,100,0
5652,6070,5245,-14,-26,-21,10240,0.34,-0.08,1.36,1.06,5685,6121,5282,40,55,35,93,100,0
5635,6044,5228,-26,-42,-31,10240,0.34,-0.08,1.36,1.06,5684,6118,5280,40,55,35,93,100,0
5621,6023,5219,-40,-62,-43,10240,0.34,-0.08,1.36,1.06,5682,6115,5278,40,55,35,93,100,0
5608,6002,5209,-53,-81,-53,10240,0.34,-0.08,1.36,1.06,5679,6111,5275,40,55,35,93,100,0
5595,5985,5195,-65,-99,-63,10240,0.34,-0.08,1.36,1.06,5676,6107,5273,40,55,35,93,100,0
5591,5982,5193,-74,-111,-70,10240,0.34,-0.08,1.36,1.06,5674,6103,5270,40,55,35,93,100,0
5593,5985,5193,-78,-116,-74,10240,0.34,-0.08,1.36,1.06,5671,6099,5268,40,55,35,93,100,0
5593,5986,5196,-79,-116,-74,10240,0.34,-0.08,1.36,1.06,5668,6095,5265,40,55,35,93,100,0
5596,5989,5200,-76,-111,-71,10240,0.34,-0.08,1.36,1.06,5666,6092,5263,40,55,35,93,100,0
5600,5993,5205,-71,-105,-65,10240,0.34,-0.08,1.36,1.06,5664,6088,5261,40,55,35,93,100,0
5603,5996,5207,-67,-99,-60,10240,0.34,-0.08,1.36,1.06,5662,6085,5259,40,55,35,93,100,0
5606,6002,5210,-61,-92,-54,10240,0.34,-0.08,1.36,1.06,5660,6083,5258,40,55,35,93,100,0
5610,6009,5215,-56,-84,-49,10240,0.34,-0.08,1.36,1.06,5658,6080,5256,40,55,35,93,100,0
5620,6016,5219,-49,-75,-44,10240,0.34,-0.08,1.36,1.06,5657,6078,5255,40,55,35,93,100,0
5623,6029,5223,-43,-65,-39,10240,0.34,-0.08,1.36,1.06,5656,6076,5254,40,55,35,93,100,0
5627,6035,5225,-36,-55,-34,10240,0.34,-0.08,1.36,1.06,5655,6075,5253,40,55,35,93,100,0
5630,6039,5228,-30,-46,-29,10240,0.34,-0.08,1.36,1.06,5654,6074,5252,40,55,35,93,100,0
5635,6045,5232,-25,-37,-25,10240,0.34,-0.08,1.36,1.06,5653,6073,5251,40,55,35,93,100,0
5643,6059,5236,-20,-29,-21,10240,0.34,-0.08,1.36,1.06,5653,6072,5251,40,55,35,93,100,0
5647,6065,5244,-14,-20,-16,10240,0.34,-0.08,1.36,1.06,5653,6072,5251,40,55,35,93,100,0
5651,6068,5247,-9,-13,-11,10240,0.34,-0.08,1.36,1.06,5653,6072,5251,40,55,35,93,100,0
5654,6074,5251,-4,-5,-6,10240,0.34,-0.08,1.36,1.06,5653,6072,5251,40,55,35,93,100,0
5650,6068,5246,-2,-3,-3,10240,0.34,-0.08,1.36,1.06,5653,6072,5250,40,55,35,93,100,0
5628,6037,5237,-7,-10,-5,10240,0.34,-0.08,1.36,1.06,5652,6071,5250,49,70,44,93,100,0
5610,6009,5209,-16,-24,-14,10240,0.34,-0.08,1.38,1.03,5650,6069,5249,49,70,44,93,100,0
5591,5983,5190,-31,-45,-28,10240,0.34,-0.08,1.38,1.03,5648,6066,5247,49,70,44,93,100,0
5577,5962,5178,-47,-69,-44,10240,0.34,-0.08,1.38,1.03,5646,6062,5244,49,70,44,93,100,0
5565,5945,5167,-61,-89,-59,10240,0.34,-0.08,1.38,1.03,5643,6058,5242,49,70,44,93,100,0
5555,5929,5156,-72,-105,-70,10240,0.34,-0.08,1.38,1.03,5640,6054,5239,49,70,44,93,100,0
5556,5930,5158,-78,-114,-75,10240,0.34,-0.08,1.38,1.03,5638,6050,5236,49,70,44,93,100,0
5557,5933,5159,-80,-117,-77,10240,0.34,-0.08,1.38,1.03,5635,6046,5234,49,70,44,93,100,0
5559,5933,5159,-79,-116,-77,10240,0.34,-0.08,1.38,1.03,5632,6042,5231,49,70,44,93,100,0
5559,5934,5160,-76,-111,-73,10240,0.34,-0.08,1.38,1.03,5630,6039,5229,49,70,44,93,100,0
5563,5941,5166,-71,-105,-69,10240,0.34,-0.08,1.38,1.03,5628,6035,5227,49,70,44,93,100,0
5567,5947,5170,-67,-98,-64,10240,0.34,-0.08,1.38,1.03,5626,6032,5225,49,70,44,93,100,0
5570,5951,5174,-62,-90,-58,10240,0.34,-0.08,1.38,1.03,5624,6030,5223,49,70,44,93,100,0
5575,5958,5178,-56,-81,-52,10240,0.34,-0.08,1.38,1.03,5622,6027,5222,49,70,44,93,100,0
5579,5967,5185,-50,-72,-45,10240,0.34,-0.08,1.38,1.03,5621,6025,5220,49,70,44,93,100,0
5592,5986,5193,-42,-61,-38,10240,0.34,-0.08,1.38,1.03,5620,6024,5219,49,70,44,93,100,0
5596,5989,5198,-35,-49,-31,10240,0.34,-0.08,1.38,1.03,5619,6023,5219,49,70,44,93,100,0
5600,5995,5202,-27,-39,-24,10240,0.34,-0.08,1.38,1.03,5618,6022,5218,49,70,44,93,100,0
5604,6000,5207,-20,-30,-18,10240,0.34,-0.08,1.38,1.03,5618,6021,5218,49,70,44,93,100,0
5608,6006,5212,-16,-24,-13,10240,0.34,-0.08,1.38,1.03,5618,6021,5218,49,70,44,93,100,0
5619,6021,5220,-10,-15,-7,10240,0.34,-0.08,1.38,1.03,5618,6021,5218,49,70,44,93,100,0
5622,6025,5222,-4,-8,-2,10240,0.34,-0.08,1.38,1.03,5618,6021,5218,49,70,44,93,100,0
5622,6026,5222,0,-1,1,10240,0.34,-0.08,1.38,1.03,5618,6021,5218,49,70,44,93,100,0
5619,6021,5219,2,2,2,10240,0.34,-0.08,1.38,1.03,5618,6021,5218,49,70,44,93,100,0
5610,6007,5210,0,-1,0,10240,0.34,-0.08,1.38,1.03,5618,6021,5218,57,82,53,93,100,0
5571,5953,5168,-12,-18,-12,10240,0.34,-0.08,1.34,1.00,5616,6018,5216,57,82,53,93,100,0
5555,5930,5150,-27,-41,-29,10240,0.34,-0.08,1.34,1.00,5614,6015,5214,57,82,53,93,100,0
5543,5912,5136,-45,-66,-48,10240,0.34,-0.08,1.34,1.00,5612,6012,5211,57,82,53,93,100,0
5534,5899,5123,-62,-89,-68,10240,0.34,-0.08,1.34,1.00,5609,6008,5208,57,82,53,93,100,0
5530,5892,5123,-69,-101,-76,10240,0.34,-0.08,1.34,1.00,5606,6004,5205,57,82,53,93,100,0
5534,5899,5126,-72,-105,-79,10240,0.34,-0.08,1.34,1.00,5604,6001,5203,57,82,53,93,100,0
5539,5904,5132,-71,-104,-78,10240,0.34,-0.08,1.34,1.00,5602,5998,5200,57,82,53,93,100,0
5539,5906,5133,-67,-99,-73,10240,0.34,-0.08,1.34,1.00,5600,5995,5198,57,82,53,93,100,0
5539,5907,5136,-63,-92,-67,10240,0.34,-0.08,1.34,1.00,5598,5992,5196,57,82,53,93,100,0
5541,5910,5140,-59,-86,-61,10240,0.34,-0.08,1.34,1.00,5596,5989,5194,57,82,53,93,100,0
5549,5921,5147,-55,-79,-56,10240,0.34,-0.08,1.34,1.00,5594,5987,5193,57,82,53,93,100,0
5553,5928,5154,-49,-71,-49,10240,0.34,-0.08,1.34,1.00,5593,5985,5191,57,82,53,93,100,0
5558,5937,5161,-43,-62,-41,10240,0.34,-0.08,1.34,1.00,5592,5983,5190,57,82,53,93,100,0
5564,5943,5166,-36,-52,-34,10240,0.34,-0.08,1.34,1.00,5591,5982,5190,57,82,53,93,100,0
5568,5949,5171,-30,-43,-27,10240,0.34,-0.08,1.34,1.00,5590,5981,5189,57,82,53,93,100,0
5578,5964,5181,-23,-33,-19,10240,0.34,-0.08,1.34,1.00,5590,5980,5189,57,82,53,93,100,0
5583,5970,5183,-16,-24,-13,10240,0.34,-0.08,1.34,1.00,5589,5980,5188,57,82,53,93,100,0
5587,5978,5187,-10,-15,-8,10240,0.34,-0.08,1.34,1.00,5589,5980,5188,57,82,53,93,100,0
5592,5984,5190,-4,-6,-3,10240,0.34,-0.08,1.34,1.00,5589,5980,5189,57,82,53,93,100,0
5597,5992,5201,0,1,1,10240,0.34,-0.08,1.34,1.00,5590,5980,5189,57,82,53,93,100,0
5610,6009,5212,7,10,8,10240,0.34,-0.08,1.34,1.00,5590,5981,5190,57,82,53,93,100,0
5612,6013,5215,12,18,14,10240,0.34,-0.08,1.34,1.00,5591,5982,5191,57,82,53,93,100,0
5610,6011,5215,16,24,20,10240,0.34,-0.08,1.34,1.00,5592,5983,5191,57,82,53,93,100,0
5602,5999,5208,17,25,21,10240,0.34,-0.08,1.34,1.00,5592,5984,5192,57,82,53,93,100,0
5590,5984,5192,11,18,16,10240,0.34,-0.08,1.34,1.00,5592,5984,5192,65,94,64,93,100,0
5560,5940,5161,-1,0,2,10240,0.34,-0.08,1.27,0.94,5591,5982,5191,65,94,64,93,100,0
5547,5923,5147,-16,-21,-14,10240,0.34,-0.08,1.27,0.94,5589,5980,5189,65,94,64,93,100,0
5539,5910,5138,-31,-41,-30,10240,0.34,-0.08,1.27,0.94,5588,5978,5188,65,94,64,93,100,0
5538,5905,5131,-42,-59,-44,10240,0.34,-0.08,1.27,0.94,5586,5975,5186,65,94,64,93,100,0
5536,5902,5126,-46,-66,-51,10240,0.34,-0.08,1.27,0.94,5584,5973,5184,65,94,64,93,100,0
5538,5904,5130,-47,-69,-53,10240,0.34,-0.08,1.27,0.94,5583,5971,5182,65,94,64,93,100,0
5539,5907,5134,-45,-67,-52,10240,0.34,-0.08,1.27,0.94,5581,5969,5180,65,94,64,93,100,0
5539,5909,5136,-44,-64,-49,10240,0.34,-0.08,1.27,0.94,5580,5967,5179,65,94,64,93,100,0
5540,5910,5135,-41,-60,-45,10240,0.34,-0.08,1.27,0.94,5579,5965,5177,65,94,64,93,100,0
5543,5914,5138,-39,-56,-42,10240,0.34,-0.08,1.27,0.94,5578,5963,5176,65,94,64,93,100,0
5551,5924,5148,-35,-50,-37,10240,0.34,-0.08,1.27,0.94,5577,5962,5175,65,94,64,93,100,0
5555,5932,5155,-30,-42,-31,10240,0.34,-0.08,1.27,0.94,5576,5961,5175,65,94,64,93,100,0
5560,5940,5161,-24,-34,-24,10240,0.34,-0.08,1.27,0.94,5575,5960,5174,65,94,64,93,100,0
5565,5946,5166,-18,-25,-17,10240,0.34,-0.08,1.27,0.94,5575,5960,5174,65,94,64,93,100,0
5570,5951,5170,-12,-17,-11,10240,0.34,-0.08,1.27,0.94,5575,5959,5174,65,94,64,93,100,0
5579,5964,5180,-6,-9,-4,10240,0.34,-0.08,1.27,0.94,5575,5959,5174,65,94,64,93,100,0
5581,5969,5181,-1,-2,0,10240,0.34,-0.08,1.27,0.94,5575,5960,5174,65,94,64,93,100,0
5587,5976,5185,4,5,5,10240,0.34,-0.08,1.27,0.94,5576,5960,5174,65,94,64,93,99,0
5592,5986,5191,9,13,10,10240,0.34,-0.08,1.27,0.94,5576,5961,5175,65,94,64,93,99,0
5597,5990,5198,13,19,14,10240,0.34,-0.08,1.27,0.94,5577,5962,5176,65,94,64,93,99,0
5602,5996,5202,17,25,18,10240,0.34,-0.08,1.27,0.94,5578,5963,5177,65,94,64,93,99,0
5600,5993,5198,20,28,21,10240,0.34,-0.08,1.27,0.94,5578,5964,5177,65,94,64,93,99,0
5593,5986,5191,20,27,20,10240,0.34,-0.08,1.27,0.94,5579,5965,5178,65,95,67,93,99,0
5584,5973,5182,16,22,15,10240,0.34,-0.08,1.23,0.90,5579,5965,5178,66,95,67,93,99,0
5570,5954,5167,8,11,6,10240,0.34,-0.08,1.23,0.90,5579,5965,5178,66,95,67,93,99,0
5545,5916,5137,-5,-7,-8,10240,0.34,-0.08,1.23,0.90,5578,5963,5176,66,95,67,93,99,0
5539,5907,5126,-18,-26,-23,10240,0.34,-0.08,1.23,0.90,5576,5961,5175,66,95,67,93,99,0
5539,5904,5125,-28,-41,-36,10240,0.34,-0.08,1.23,0.90,5575,5959,5173,66,95,67,93,99,0
5539,5905,5128,-35,-52,-44,10240,0.34,-0.08,1.23,0.90,5574,5958,5171,66,95,67,93,99,0
5540,5907,5130,-35,-52,-45,10240,0.34,-0.08,1.23,0.90,5573,5956,5170,66,95,67,93,99,0
5544,5914,5141,-33,-49,-39,10240,0.34,-0.08,1.23,0.90,5572,5955,5169,66,95,67,93,99,0
5547,5918,5145,-30,-44,-33,10240,0.34,-0.08,1.23,0.90,5571,5953,5168,66,95,67,90,99,0
5552,5926,5152,-25,-37,-26,10240,0.34,-0.08,1.23,0.90,5570,5952,5168,66,95,67,90,99,0
5556,5933,5156,-21,-30,-19,10240,0.34,-0.08,1.23,0.90,5570,5952,5167,66,95,67,90,99,0
5560,5940,5161,-16,-22,-14,10240,0.34,-0.08,1.23,0.90,5570,5951,5167,66,95,67,90,99,0
5568,5950,5169,-10,-14,-7,10240,0.34,-0.08,1.23,0.90,5569,5951,5167,66,95,67,90,99,0
5573,5957,5174,-5,-6,-2,10240,0.34,-0.08,1.23,0.90,5570,5952,5167,66,95,67,90,99,0
5579,5965,5180,0,1,3,10240,0.34,-0.08,1.23,0.90,5570,5952,5168,66,95,67,90,99,0
5584,5972,5185,6,9,9,10240,0.34,-0.08,1.23,0.90,5570,5953,5168,66,95,67,90,99,0
5589,5981,5188,11,16,13,10240,0.34,-0.08,1.23,0.90,5571,5954,5169,66,95,67,90,99,0
5599,5994,5202,17,24,20,10240,0.34,-0.08,1.23,0.90,5572,5955,5170,66,95,67,90,99,0
5605,6002,5208,22,32,26,10240,0.34,-0.08,1.23,0.90,5573,5957,5171,66,95,67,90,99,0
5610,6010,5211,28,40,31,10240,0.34,-0.08,1.23,0.90,5574,5958,5173,66,95,67,90,99,0
5613,6015,5214,33,47,36,10240,0.34,-0.08,1.23,0.90,5576,5960,5174,66,95,67,90,99,0
5617,6020,5218,36,52,39,10240,0.34,-0.08,1.23,0.90,5577,5962,5176,66,95,67,98,99,0
5622,6025,5219,39,56,40,10240,0.34,-0.08,1.23,0.90,5578,5964,5177,66,95,67,98,99,0
5617,6018,5215,39,56,40,10240,0.34,-0.08,1.23,0.90,5580,5966,5178,66,95,67,98,99,0
5606,6004,5206,36,52,37,10240,0.34,-0.08,1.23,0.90,5581,5967,5179,68,98,71,98,99,0
5598,5992,5199,30,43,31,10240,0.34,-0.08,1.20,0.89,5581,5968,5180,68,98,71,98,99,0
5587,5978,5185,21,30,22,10240,0.34,-0.08,1.20,0.89,5581,5969,5180,68,98,71,98,99,0
5569,5950,5166,9,13,9,10240,0.34,-0.08,1.20,0.89,5581,5968,5180,68,98,71,98,99,0
5565,5945,5163,-1,-1,-1,10240,0.34,-0.08,1.20,0.89,5580,5967,5179,68,98,71,98,99,0
5562,5942,5161,-9,-13,-10,10240,0.34,-0.08,1.20,0.89,5580,5966,5178,68,98,71,98,99,0
5563,5943,5164,-15,-21,-15,10240,0.34,-0.08,1.20,0.89,5579,5966,5178,68,98,71,98,99,0
5564,5946,5166,-16,-22,-14,10240,0.34,-0.08,1.20,0.89,5579,5965,5178,68,98,71,98,99,0
5571,5954,5173,-14,-19,-11,10240,0.34,-0.08,1.20,0.89,5578,5964,5177,68,98,71,98,99,0
5573,5956,5172,-10,-15,-8,10240,0.34,-0.08,1.20,0.89,5578,5964,5177,68,98,71,98,99,0
5575,5959,5174,-7,-10,-6,10240,0.34,-0.08,1.20,0.89,5578,5964,5177,68,98,71,98,99,0
5578,5963,5179,-3,-6,-2,10240,0.34,-0.08,1.20,0.89,5578,5964,5177,68,98,71,98,99,0
5581,5968,5181,-1,-2,0,10240,0.34,-0.08,1.20,0.89,5578,5964,5177,68,98,71,98,99,0
5590,5980,5189,2,3,3,10240,0.34,-0.08,1.20,0.89,5579,5965,5178,68,98,71,98,99,0
5595,5987,5194,7,10,8,10240,0.34,-0.08,1.20,0.89,5579,5965,5178,68,98,71,98,99,0
5599,5992,5199,12,16,12,10240,0.34,-0.08,1.20,0.89,5580,5966,5179,68,98,71,98,99,0
5602,5995,5202,16,22,17,10240,0.34,-0.08,1.20,0.89,5581,5967,5180,68,98,71,98,99,0
5606,6000,5205,20,27,20,10240,0.34,-0.08,1.20,0.89,5581,5968,5181,68,98,71,98,99,0
5614,6008,5209,24,31,23,10240,0.34,-0.08,1.20,0.89,5583,5970,5182,68,98,71,98,99,0
5618,6019,5214,27,36,26,10240,0.34,-0.08,1.20,0.89,5584,5971,5183,68,98,71,98,99,0
5622,6025,5216,31,42,28,10240,0.34,-0.08,1.20,0.89,5585,5973,5184,68,98,71,98,99,0
5625,6029,5219,35,48,31,10240,0.34,-0.08,1.20,0.89,5586,5975,5185,68,98,71,98,99,0
5629,6034,5222,37,52,33,10240,0.34,-0.08,1.20,0.89,5588,5977,5186,68,98,71,98,99,0
5630,6037,5223,39,55,34,10240,0.34,-0.08,1.20,0.89,5589,5979,5187,68,98,71,98,99,0
5625,6027,5220,39,53,34,10240,0.34,-0.08,1.20,0.89,5590,5981,5188,68,93,71,98,99,0
5616,6015,5214,35,48,32,10240,0.34,-0.08,1.20,0.89,5591,5982,5189,64,93,66,98,99,0
5606,6001,5204,28,39,26,10240,0.34,-0.08,1.22,0.90,5592,5982,5190,64,93,66,98,99,0
5595,5988,5192,19,25,18,10240,0.34,-0.08,1.22,0.90,5592,5983,5190,64,93,66,98,99,0
5586,5975,5181,9,12,8,10240,0.34,-0.08,1.22,0.90,5592,5982,5190,64,93,66,98,99,0
5575,5959,5172,-1,-1,-2,10240,0.34,-0.08,1.22,0.90,5591,5982,5189,64,93,66,98,99,0
5574,5957,5172,-9,-12,-10,10240,0.34,-0.08,1.22,0.90,5591,5981,5188,64,93,66,98,99,0
5574,5957,5171,-13,-19,-14,10240,0.34,-0.08,1.22,0.90,5590,5980,5188,64,93,66,98,99,0
5576,5957,5171,-15,-23,-16,10240,0.34,-0.08,1.22,0.90,5589,5979,5187,64,93,66,98,99,0
5576,5960,5173,-14,-21,-15,10240,0.34,-0.08,1.22,0.90,5589,5978,5187,64,93,66,98,99,0
5580,5965,5178,-12,-19,-14,10240,0.34,-0.08,1.22,0.90,5589,5978,5187,64,93,66,98,99,0
5579,5966,5179,-11,-16,-11,10240,0.34,-0.08,1.22,0.90,5588,5978,5186,64,93,66,98,99,0
5582,5969,5179,-9,-12,-9,10240,0.34,-0.08,1.22,0.90,5588,5977,5186,64,93,66,98,99,0
5586,5972,5179,-6,-9,-7,10240,0.34,-0.08,1.22,0.90,5588,5977,5186,64,93,66,98,99,0
5589,5976,5182,-4,-6,-6,10240,0.34,-0.08,1.22,0.90,5588,5977,5186,64,93,66,98,99,0
5594,5986,5189,0,-1,-3,10240,0.34,-0.08,1.22,0.90,5588,5977,5186,64,93,66,98,99,0
5600,5992,5196,4,4,0,10240,0.34,-0.08,1.22,0.90,5589,5978,5186,64,93,66,98,99,0
5605,6000,5203,8,10,6,10240,0.34,-0.08,1.22,0.90,5589,5979,5187,64,93,66,98,99,0
5610,6008,5206,13,18,12,10240,0.34,-0.08,1.22,0.90,5590,5980,5187,64,93,66,98,99,0
5615,6015,5210,17,24,16,10240,0.34,-0.08,1.22,0.90,5591,5981,5188,64,93,66,98,99,0
5622,6023,5216,22,31,21,10240,0.34,-0.08,1.22,0.90,5592,5982,5189,64,93,66,98,99,0
5624,6029,5219,26,37,24,10240,0.34,-0.08,1.22,0.90,5593,5984,5190,64,93,66,98,99,0
5629,6035,5222,30,42,27,10240,0.34,-0.08,1.22,0.90,5594,5985,5191,64,93,66,98,99,0
5632,6041,5224,33,47,29,10240,0.34,-0.08,1.22,0.90,5595,5987,5192,64,93,66,98,99,0
5634,6042,5226,35,50,31,10240,0.34,-0.08,1.22,0.90,5597,5989,5193,64,93,66,98,99,0
5625,6029,5221,34,48,30,10240,0.34,-0.08,1.22,0.90,5598,5991,5194,61,88,61,98,99,0
5620,6022,5218,30,43,28,10240,0.34,-0.08,1.25,0.93,5598,5992,5195,61,88,61,98,99,0
5615,6015,5212,25,36,24,10240,0.34,-0.08,1.25,0.93,5599,5992,5196,61,88,61,98,99,0
5610,6006,5206,19,26,19,10240,0.34,-0.08,1.25,0.93,5599,5993,5196,61,88,61,98,99,0
5603,5998,5200,13,17,13,10240,0.34,-0.08,1.25,0.93,5599,5993,5196,61,88,61,98,99,0
5600,5994,5198,8,10,8,10240,0.34,-0.08,1.25,0.93,5599,5993,5196,61,88,61,98,99,0
5603,5997,5201,4,5,5,10240,0.34,-0.08,1.25,0.93,5600,5993,5196,61,88,61,98,99,0
5605,6000,5203,3,4,4,10240,0.34,-0.08,1.25,0.93,5600,5993,5197,61,88,61,98,99,0
5608,6004,5205,4,5,5,10240,0.34,-0.08,1.25,0.93,5600,5994,5197,61,88,61,98,99,0
5610,6006,5207,6,8,7,10240,0.34,-0.08,1.25,0.93,5600,5994,5197,61,88,61,98,99,0
5611,6008,5207,8,10,8,10240,0.34,-0.08,1.25,0.93,5601,5995,5197,61,88,61,98,99,0
5613,6012,5208,10,13,9,10240,0.34,-0.08,1.25,0.93,5601,5995,5198,61,88,61,98,99,0
5617,6016,5210,11,15,10,10240,0.34,-0.08,1.25,0.93,5602,5996,5198,61,88,61,98,99,0
5618,6020,5213,13,18,11,10240,0.34,-0.08,1.25,0.93,5602,5997,5199,61,88,61,98,99,0
5621,6024,5216,15,21,13,10240,0.34,-0.08,1.25,0.93,5603,5998,5199,61,88,61,98,99,0
5625,6029,5219,17,24,15,10240,0.34,-0.08,1.25,0.93,5604,5999,5200,61,88,61,98,99,0
5634,6044,5226,21,30,18,10240,0.34,-0.08,1.25,0.93,5605,6000,5201,61,88,61,98,99,0
5640,6051,5229,25,37,22,10240,0.34,-0.08,1.25,0.93,5606,6002,5202,61,88,61,98,99,0
5644,6059,5234,30,44,25,10240,0.34,-0.08,1.25,0.93,5607,6004,5203,61,88,61,98,99,0
5648,6064,5236,35,51,28,10240,0.34,-0.08,1.25,0.93,5608,6006,5204,61,88,61,98,99,0
5651,6067,5240,38,55,31,10240,0.34,-0.08,1.25,0.93,5610,6008,5205,61,88,61,98,99,0
5659,6081,5251,41,60,35,10240,0.34,-0.08,1.25,0.93,5611,6010,5207,61,88,61,98,99,0
5663,6086,5252,44,65,38,10240,0.34,-0.08,1.25,0.93,5613,6013,5208,61,88,61,98,99,0
5666,6088,5254,47,69,41,10240,0.34,-0.08,1.25,0.93,5615,6015,5210,61,88,61,98,99,0
5664,6087,5254,49,71,43,10240,0.34,-0.08,1.25,0.93,5617,6018,5211,61,88,61,98,99,0
5661,6085,5253,47,70,42,10240,0.34,-0.08,1.25,0.93,5618,6020,5213,57,83,56,98,99,0
5650,6067,5244,43,63,39,10240,0.27,-0.09,1.28,0.94,5619,6021,5214,57,83,56,98,99,0
5645,6061,5237,36,54,34,10240,0.27,-0.09,1.28,0.94,5620,6023,5214,57,83,56,98,99,0
5640,6055,5231,29,45,27,10240,0.27,-0.09,1.28,0.94,5621,6024,5215,57,83,56,98,99,0
5638,6050,5230,23,35,21,10240,0.27,-0.09,1.28,0.94,5621,6025,5215,57,83,56,98,99,0
5636,6049,5229,18,29,16,10240,0.27,-0.09,1.28,0.94,5622,6025,5216,57,83,56,98,99,0
5640,6052,5231,17,26,14,10240,0.27,-0.09,1.28,0.94,5622,6026,5216,57,83,56,98,99,0
5640,6055,5231,16,25,14,10240,0.27,-0.09,1.28,0.94,5623,6027,5217,57,83,56,98,99,0
5641,6054,5230,16,26,13,10240,0.27,-0.09,1.28,0.94,5624,6028,5217,57,83,56,98,99,0
5641,6055,5230,17,26,13,10240,0.27,-0.09,1.28,0.94,5624,6029,5218,57,83,56,98,99,0
5641,6055,5229,16,26,12,10240,0.27,-0.09,1.28,0.94,5625,6030,5218,57,83,56,98,99,0
5643,6058,5232,17,26,12,10240,0.27,-0.09,1.28,0.94,5625,6031,5219,57,83,56,98,99,0
5645,6062,5234,17,27,12,10240,0.27,-0.09,1.28,0.94,5626,6032,5219,57,83,56,98,99,0
5650,6066,5239,19,28,14,10240,0.27,-0.09,1.28,0.94,5627,6033,5220,57,83,56,98,99,0
5653,6073,5242,21,32,17,10240,0.27,-0.09,1.28,0.94,5628,6034,5220,57,83,56,98,99,0
5657,6078,5247,23,36,20,10240,0.27,-0.09,1.28,0.94,5629,6036,5221,57,83,56,98,99,0
5662,6085,5251,27,40,24,10240,0.27,-0.09,1.28,0.94,5630,6038,5222,57,83,56,98,99,0
5666,6089,5254,30,44,27,10240,0.27,-0.09,1.28,0.94,5631,6039,5223,57,83,56,98,99,0
5667,6091,5254,32,47,29,10240,0.27,-0.09,1.28,0.94,5632,6041,5224,57,83,56,98,99,0
5671,6095,5257,35,49,30,10240,0.27,-0.09,1.28,0.94,5633,6043,5226,57,83,56,98,99,0
5673,6100,5260,36,51,31,10240,0.27,-0.09,1.28,0.94,5635,6045,5227,57,83,56,98,99,0
5682,6111,5265,39,55,32,10240,0.27,-0.09,1.28,0.94,5636,6047,5228,57,83,56,98,99,0
5680,6108,5264,41,57,34,10240,0.27,-0.09,1.28,0.94,5638,6049,5229,57,83,56,98,99,0
5676,6103,5260,40,57,33,10240,0.27,-0.09,1.28,0.94,5639,6051,5230,53,83,47,98,99,0
5670,6095,5257,38,54,32,10240,0.27,-0.09,1.53,1.05,5640,6052,5231,53,70,47,98,99,0
5663,6086,5253,32,46,28,10240,0.27,-0.09,1.53,1.05,5641,6053,5232,53,70,47,98,99,0
5651,6067,5240,24,35,21,10240,0.27,-0.09,1.53,1.05,5641,6054,5232,53,70,47,98,99,0
5645,6060,5232,16,23,13,10240,0.27,-0.09,1.53,1.05,5641,6054,5232,53,70,47,98,99,0
5641,6055,5229,9,13,6,10240,0.27,-0.09,1.53,1.05,5641,6054,5232,53,70,47,98,99,0
5641,6055,5229,3,5,0,10240,0.27,-0.09,1.53,1.05,5641,6054,5232,53,70,47,98,99,0
5642,6058,5231,1,3,-1,10240,0.27,-0.09,1.53,1.05,5641,6054,5232,53,70,47,98,99,0
5646,6063,5234,1,3,-1,10240,0.27,-0.09,1.53,1.05,5641,6054,5232,53,70,47,98,99,0
5650,6066,5238,3,6,1,10240,0.27,-0.09,1.53,1.05,5642,6055,5232,53,70,47,98,99,0
5649,6065,5237,5,8,3,10240,0.27,-0.09,1.53,1.05,5642,6055,5232,53,70,47,98,99,0
5650,6067,5238,7,10,4,10240,0.27,-0.09,1.53,1.05,5642,6056,5233,53,70,47,98,99,0
5652,6067,5238,8,10,5,10240,0.27,-0.09,1.53,1.05,5643,6056,5233,53,70,47,98,99,0
5655,6069,5239,9,11,5,10240,0.27,-0.09,1.53,1.05,5643,6056,5233,53,70,47,98,99,0
5660,6080,5247,11,14,7,10240,0.27,-0.09,1.53,1.05,5644,6057,5233,53,70,47,98,99,0
5663,6087,5250,14,19,10,10240,0.27,-0.09,1.53,1.05,5644,6058,5234,53,70,47,98,99,0
5668,6092,5255,17,24,14,10240,0.27,-0.09,1.53,1.05,5645,6059,5235,53,70,47,98,99,0
5671,6093,5254,20,29,17,10240,0.27,-0.09,1.53,1.05,5646,6060,5235,53,70,47,98,99,0
5673,6097,5255,23,32,18,10240,0.27,-0.09,1.53,1.05,5647,6062,5236,53,70,47,98,99,0
5676,6099,5258,25,34,19,10240,0.27,-0.09,1.53,1.05,5648,6063,5237,53,70,47,98,99,0
5678,6104,5261,27,36,20,10240,0.27,-0.09,1.53,1.05,5649,6064,5237,53,70,47,98,99,0
5683,6110,5264,29,38,22,10240,0.27,-0.09,1.53,1.05,5650,6066,5238,53,70,47,98,99,0
5685,6116,5266,31,42,24,10240,0.27,-0.09,1.53,1.05,5651,6067,5239,53,70,47,98,99,0
5687,6118,5267,32,45,26,10240,0.27,-0.09,1.53,1.05,5652,6069,5240,53,70,47,98,99,0
5680,6106,5261,32,44,25,10240,0.27,-0.09,1.53,1.05,5653,6070,5241,53,63,42,98,99,0
5670,6092,5254,28,38,21,10240,0.27,-0.09,1.30,1.17,5654,6071,5241,48,63,42,98,99,0
5660,6076,5242,21,27,15,10240,0.27,-0.09,1.30,1.17,5654,6071,5241,48,63,42,98,99,0
5647,6061,5229,10,13,5,10240,0.27,-0.09,1.30,1.17,5654,6071,5241,48,63,42,98,99,0
5633,6041,5217,-1,-3,-5,10240,0.27,-0.09,1.30,1.17,5653,6070,5240,48,63,42,98,99,0
5616,6013,5200,-14,-22,-18,10240,0.27,-0.09,1.30,1.17,5652,6068,5239,48,63,42,98,99,0
5609,6003,5195,-26,-39,-29,10240,0.27,-0.09,1.30,1.17,5650,6066,5237,48,63,42,98,99,0
5610,6002,5196,-34,-52,-36,10240,0.27,-0.09,1.30,1.17,5649,6064,5236,48,63,42,98,99,0
5609,6002,5194,-38,-60,-40,10240,0.27,-0.09,1.30,1.17,5648,6062,5235,48,63,42,98,99,0
5608,5999,5193,-39,-61,-40,10240,0.27,-0.09,1.30,1.17,5646,6060,5233,48,63,42,98,99,0
5609,6002,5195,-38,-59,-39,10240,0.27,-0.09,1.30,1.17,5645,6058,5232,48,63,42,98,99,0
5611,6004,5195,-36,-57,-38,10240,0.27,-0.09,1.30,1.17,5644,6056,5231,48,63,42,98,99,0
5613,6008,5197,-34,-53,-36,10240,0.27,-0.09,1.30,1.17,5643,6054,5230,48,63,42,98,99,0
5616,6013,5200,-31,-48,-33,10240,0.27,-0.09,1.30,1.17,5642,6053,5229,48,63,42,98,99,0
5620,6018,5204,-27,-43,-30,10240,0.27,-0.09,1.30,1.17,5641,6052,5228,48,63,42,98,99,0
5626,6028,5208,-23,-35,-26,10240,0.27,-0.09,1.30,1.17,5641,6051,5227,48,63,42,98,99,0
5630,6032,5210,-18,-28,-22,10240,0.27,-0.09,1.30,1.17,5640,6050,5227,48,63,42,98,99,0
5634,6038,5216,-13,-21,-17,10240,0.27,-0.09,1.30,1.17,5640,6050,5226,48,63,42,98,99,0
5639,6046,5221,-8,-14,-12,10240,0.27,-0.09,1.30,1.17,5640,6050,5226,48,63,42,98,99,0
5643,6053,5225,-3,-7,-8,10240,0.27,-0.09,1.30,1.17,5640,6050,5226,48,63,42,98,99,0
5648,6060,5228,0,0,-3,10240,0.27,-0.09,1.30,1.17,5641,6050,5226,48,63,42,98,99,0
5651,6063,5230,4,5,0,10240,0.27,-0.09,1.30,1.17,5641,6051,5226,48,63,42,98,99,0
5653,6065,5230,8,9,2,10240,0.27,-0.09,1.30,1.17,5641,6051,5226,48,63,42,98,99,0
5654,6068,5232,10,13,4,10240,0.27,-0.09,1.30,1.17,5642,6052,5226,48,63,42,98,99,0
5652,6062,5230,11,13,4,10240,0.27,-0.09,1.30,1.17,5642,6052,5227,48,63,42,98,99,0
5630,6033,5211,5,5,0,10240,0.27,-0.09,1.30,1.17,5642,6051,5226,48,66,43,98,99,0
5619,6013,5197,-3,-7,-8,10240,0.27,-0.09,1.33,1.03,5641,6050,5225,48,66,43,98,99,0
5605,5993,5185,-14,-25,-19,10240,0.27,-0.09,1.33,1.03,5640,6048,5224,48,66,43,98,99,0
5594,5978,5171,-28,-44,-33,10240,0.27,-0.09,1.33,1.03,5638,6046,5222,48,66,43,98,99,0
5585,5964,5163,-38,-59,-43,10240,0.27,-0.09,1.33,1.03,5636,6043,5220,48,66,43,98,99,0
5579,5956,5157,-46,-71,-52,10240,0.27,-0.09,1.33,1.03,5634,6040,5218,48,66,43,98,99,0
5580,5957,5159,-50,-77,-56,10240,0.27,-0.09,1.33,1.03,5633,6037,5216,48,66,43,98,99,0
5581,5958,5159,-52,-80,-57,10240,0.27,-0.09,1.33,1.03,5631,6035,5214,48,66,43,98,99,0
5582,5960,5161,-51,-78,-56,10240,0.27,-0.09,1.33,1.03,5629,6032,5212,48,66,43,98,99,0
5583,5961,5163,-48,-74,-52,10240,0.27,-0.09,1.33,1.03,5628,6030,5211,48,66,43,98,99,0
5587,5967,5165,-45,-69,-49,10240,0.27,-0.09,1.33,1.03,5626,6028,5209,48,66,43,98,99,0
5591,5972,5167,-41,-64,-46,10240,0.27,-0.09,1.33,1.03,5625,6026,5208,48,66,43,98,99,0
5592,5976,5170,-37,-58,-42,10240,0.27,-0.09,1.33,1.03,5624,6024,5206,48,66,43,98,99,0
5596,5980,5173,-33,-51,-38,10240,0.27,-0.09,1.33,1.03,5623,6023,5205,48,66,43,98,99,0
5601,5986,5181,-28,-45,-33,10240,0.27,-0.09,1.33,1.03,5622,6022,5205,48,66,43,98,99,0
5610,5999,5187,-23,-37,-27,10240,0.27,-0.09,1.33,1.03,5622,6021,5204,48,66,43,98,99,0
5614,6005,5193,-17,-29,-21,10240,0.27,-0.09,1.33,1.03,5622,6020,5204,48,66,43,98,99,0
5618,6011,5197,-11,-20,-14,10240,0.27,-0.09,1.33,1.03,5622,6020,5203,48,66,43,98,99,0
5621,6016,5199,-6,-12,-9,10240,0.27,-0.09,1.33,1.03,5622,6020,5203,48,66,43,98,99,0
5626,6022,5202,-2,-6,-5,10240,0.27,-0.09,1.33,1.03,5622,6020,5203,48,66,43,98,99,0
5634,6027,5207,2,-1,-1,10240,0.27,-0.09,1.33,1.03,5622,6020,5203,48,66,43,98,99,0
5636,6036,5211,7,5,1,10240,0.27,-0.09,1.33,1.03,5623,6021,5204,48,66,43,98,99,0
5634,6035,5210,10,9,4,10240,0.27,-0.09,1.33,1.03,5623,6021,5204,48,66,43,98,99,0
5628,6025,5202,10,10,3,10240,0.27,-0.09,1.33,1.03,5623,6021,5204,48,66,47,98,99,0
5619,6010,5194,6,5,0,10240,0.27,-0.09,1.21,0.95,5623,6021,5203,52,72,47,98,99,0
5606,5990,5179,-1,-5,-7,10240,0.27,-0.09,1.21,0.95,5622,6020,5203,52,72,47,98,99,0
5576,5950,5144,-15,-26,-23,10240,0.27,-0.09,1.21,0.95,5621,6018,5201,52,72,47,98,99,0
5564,5932,5127,-30,-48,-40,10240,0.27,-0.09,1.21,0.95,5619,6015,5198,52,72,47,98,99,0
5558,5922,5123,-43,-67,-56,10240,0.27,-0.09,1.21,0.95,5617,6012,5196,52,72,47,98,99,0
5554,5918,5123,-55,-83,-67,10240,0.27,-0.09,1.21,0.95,5615,6009,5193,52,72,47,98,99,0
5554,5918,5123,-58,-87,-70,10240,0.27,-0.09,1.21,0.95,5613,6005,5191,52,72,47,98,99,0
5556,5921,5123,-58,-87,-69,10240,0.27,-0.09,1.21,0.95,5611,6003,5189,52,72,47,98,99,0
5558,5923,5123,-56,-84,-66,10240,0.27,-0.09,1.21,0.95,5609,6000,5186,52,72,47,98,99,0
5561,5929,5128,-53,-78,-63,10240,0.27,-0.09,1.21,0.95,5608,5998,5185,52,72,47,98,99,0
5563,5932,5130,-49,-72,-59,10240,0.27,-0.09,1.21,0.95,5606,5995,5183,52,72,47,98,99,0
5567,5937,5138,-44,-66,-54,10240,0.27,-0.09,1.21,0.95,5605,5994,5181,52,72,47,98,99,0
5575,5948,5148,-39,-58,-46,10240,0.27,-0.09,1.21,0.95,5604,5992,5180,52,72,47,98,99,0
5579,5955,5155,-33,-50,-38,10240,0.27,-0.09,1.21,0.95,5603,5991,5179,52,72,47,98,99,0
5584,5963,5161,-27,-41,-29,10240,0.27,-0.09,1.21,0.95,5602,5990,5179,52,72,47,98,99,0
5589,5969,5164,-21,-31,-22,10240,0.27,-0.09,1.21,0.95,5602,5989,5178,52,72,47,98,99,0
5592,5974,5166,-16,-24,-17,10240,0.27,-0.09,1.21,0.95,5602,5989,5178,52,72,47,98,99,0
5605,5987,5183,-9,-16,-9,10240,0.27,-0.09,1.21,0.95,5602,5989,5178,52,72,47,98,99,0
5607,5994,5186,-3,-8,-3,10240,0.27,-0.09,1.21,0.95,5602,5989,5178,52,72,47,98,99,0
5612,6002,5190,2,0,3,10240,0.27,-0.09,1.21,0.95,5602,5989,5179,52,72,47,98,99,0
5615,6006,5194,7,8,9,10240,0.27,-0.09,1.21,0.95,5603,5990,5179,52,72,47,98,99,0
5620,6012,5196,11,14,12,10240,0.27,-0.09,1.21,0.95,5603,5990,5180,52,72,47,98,99,0
5622,6014,5197,14,18,14,10240,0.27,-0.09,1.21,0.95,5604,5991,5180,52,72,47,98,99,0
5616,6004,5191,14,18,14,10240,0.27,-0.09,1.21,0.95,5604,5992,5181,52,72,47,98,99,0
5606,5990,5183,12,13,11,10240,0.27,-0.09,1.21,0.95,5604,5992,5181,57,80,56,98,99,0
5593,5973,5165,5,3,3,10240,0.27,-0.09,1.24,0.94,5604,5991,5180,57,80,56,98,99,0
5578,5953,5148,-5,-11,-8,10240,0.27,-0.09,1.24,0.94,5603,5990,5179,57,80,56,98,99,0
5557,5921,5123,-19,-30,-24,10240,0.27,-0.09,1.24,0.94,5602,5987,5177,57,80,56,98,99,0
5552,5913,5123,-32,-48,-38,10240,0.27,-0.09,1.24,0.94,5600,5985,5175,57,80,56,98,99,0
5548,5908,5123,-42,-62,-47,10240,0.27,-0.09,1.24,0.94,5598,5982,5174,57,80,56,98,99,0
5548,5909,5123,-47,-70,-51,10240,0.27,-0.09,1.24,0.94,5596,5980,5172,57,80,56,98,99,0
5551,5911,5123,-47,-71,-49,10240,0.27,-0.09,1.24,0.94,5595,5978,5170,57,80,56,98,99,0
5555,5918,5123,-45,-67,-48,10240,0.27,-0.09,1.24,0.94,5594,5976,5169,57,80,56,98,99,0
5555,5918,5123,-42,-63,-46,10240,0.27,-0.09,1.24,0.94,5592,5974,5167,57,80,56,98,99,0
5558,5923,5124,-38,-57,-44,10240,0.27,-0.09,1.24,0.94,5591,5972,5166,57,80,56,98,99,0
5559,5925,5125,-35,-52,-42,10240,0.27,-0.09,1.24,0.94,5590,5970,5164,57,80,56,98,99,0
5562,5929,5127,-32,-47,-40,10240,0.27,-0.09,1.24,0.94,5589,5969,5163,57,80,56,98,99,0
5570,5942,5141,-27,-40,-34,10240,0.27,-0.09,1.24,0.94,5589,5968,5162,57,80,56,98,99,0
5576,5949,5150,-22,-32,-27,10240,0.27,-0.09,1.24,0.94,5588,5968,5162,57,80,56,98,99,0
5581,5957,5156,-16,-23,-18,10240,0.27,-0.09,1.24,0.94,5588,5967,5162,57,80,56,98,99,0
5585,5961,5160,-10,-15,-10,10240,0.27,-0.09,1.24,0.94,5588,5967,5162,57,80,56,98,99,0
5588,5967,5165,-5,-8,-4,10240,0.27,-0.09,1.24,0.94,5588,5967,5162,57,80,56,98,99,0
5598,5983,5168,0,0,0,10240,0.27,-0.09,1.24,0.94,5588,5968,5162,57,80,56,98,99,0
5604,5989,5183,5,7,6,10240,0.27,-0.09,1.24,0.94,5589,5968,5163,57,80,56,98,99,0
5608,5993,5186,11,15,12,10240,0.27,-0.09,1.24,0.94,5589,5969,5164,57,80,56,98,99,0
5610,5996,5187,16,21,17,10240,0.27,-0.09,1.24,0.94,5590,5970,5164,57,80,56,98,99,0
5610,5998,5187,18,24,21,10240,0.27,-0.09,1.24,0.94,5591,5971,5165,57,80,56,98,99,0
5606,5992,5184,18,24,21,10240,0.27,-0.09,1.24,0.94,5591,5972,5166,57,80,56,98,99,0
5587,5965,5161,12,16,14,10240,0.27,-0.09,1.24,0.94,5591,5971,5166,59,84,60,98,99,0
5573,5947,5139,3,4,2,10240,0.27,-0.09,1.21,0.91,5590,5971,5165,59,84,60,98,99,0
5559,5925,5123,-9,-13,-13,10240,0.27,-0.09,1.21,0.91,5589,5969,5163,59,84,60,98,99,0
5550,5911,5123,-22,-32,-27,10240,0.27,-0.09,1.21,0.91,5588,5967,5162,59,84,60,98,99,0
5545,5905,5123,-31,-46,-35,10240,0.27,-0.09,1.21,0.91,5587,5965,5161,59,84,60,98,99,0
5543,5899,5123,-38,-56,-38,10240,0.27,-0.09,1.21,0.91,5585,5963,5159,59,84,60,98,99,0
5542,5899,5123,-41,-60,-37,10240,0.27,-0.09,1.21,0.91,5584,5961,5158,59,84,60,98,99,0
5543,5900,5123,-41,-61,-35,10240,0.27,-0.09,1.21,0.91,5582,5959,5157,59,84,60,98,99,0
5546,5904,5123,-39,-59,-34,10240,0.27,-0.09,1.21,0.91,5581,5957,5156,59,84,60,98,99,0
5547,5906,5123,-37,-55,-33,10240,0.27,-0.09,1.21,0.91,5580,5955,5155,59,84,60,98,99,0
5550,5911,5123,-34,-51,-32,10240,0.27,-0.09,1.21,0.91,5579,5954,5154,59,84,60,98,99,0
5552,5913,5123,-30,-46,-31,10240,0.27,-0.09,1.21,0.91,5578,5952,5153,59,84,60,98,99,0
5554,5916,5123,-27,-41,-30,10240,0.27,-0.09,1.21,0.91,5577,5951,5152,59,84,60,98,99,0
5557,5921,5123,-24,-36,-29,10240,0.27,-0.09,1.21,0.91,5577,5950,5151,59,84,60,98,99,0
5561,5929,5126,-21,-30,-27,10240,0.27,-0.09,1.21,0.91,5576,5949,5150,59,84,60,98,99,0
5572,5943,5140,-15,-22,-22,10240,0.27,-0.09,1.21,0.91,5576,5949,5150,59,84,60,98,99,0
5575,5948,5145,-10,-14,-16,10240,0.27,-0.09,1.21,0.91,5576,5949,5149,59,84,60,98,99,0
5580,5956,5154,-4,-5,-8,10240,0.27,-0.09,1.21,0.91,5576,5949,5150,59,84,60,98,99,0
5585,5964,5160,2,3,0,10240,0.27,-0.09,1.21,0.91,5576,5950,5150,59,84,60,98,99,0
5589,5969,5163,6,9,5,10240,0.27,-0.09,1.21,0.91,5577,5951,5150,59,84,60,98,99,0
5598,5983,5173,11,17,12,10240,0.27,-0.09,1.21,0.91,5578,5952,5151,59,84,60,98,99,0
5601,5986,5177,16,24,17,10240,0.27,-0.09,1.21,0.91,5578,5953,5152,59,84,60,98,99,0
5600,5986,5176,19,28,20,10240,0.27,-0.09,1.21,0.91,5579,5954,5153,59,84,60,98,99,0
5593,5978,5165,19,29,20,10240,0.27,-0.09,1.21,0.91,5580,5955,5153,59,84,60,98,99,0
5586,5963,5158,15,24,16,10240,0.27,-0.09,1.21,0.91,5580,5955,5153,59,85,60,98,99,0
5560,5927,5124,5,9,3,10240,0.27,-0.09,1.23,0.91,5579,5954,5152,59,85,60,98,99,0
5550,5912,5123,-7,-9,-9,10240,0.27,-0.09,1.23,0.91,5578,5953,5151,59,85,60,98,99,0
5545,5905,5123,-18,-26,-19,10240,0.27,-0.09,1.23,0.91,5577,5951,5150,59,85,60,98,99,0
5541,5899,5123,-28,-41,-27,10240,0.27,-0.09,1.23,0.91,5576,5949,5150,59,85,60,98,99,0
5537,5896,5123,-33,-47,-27,10240,0.27,-0.09,1.23,0.91,5574,5947,5149,59,85,60,98,99,0
5541,5900,5123,-34,-48,-26,10240,0.27,-0.09,1.23,0.91,5573,5946,5148,59,85,60,98,99,0
5543,5900,5123,-33,-47,-25,10240,0.27,-0.09,1.23,0.91,5572,5944,5147,59,85,60,98,99,0
5544,5903,5123,-31,-45,-24,10240,0.27,-0.09,1.23,0.91,5571,5943,5146,59,85,60,98,99,0
5545,5904,5123,-28,-42,-23,10240,0.27,-0.09,1.23,0.91,5571,5942,5145,59,85,60,98,99,0
5547,5907,5123,-26,-39,-22,10240,0.27,-0.09,1.23,0.91,5570,5941,5145,59,85,60,98,99,0
5552,5917,5123,-23,-33,-22,10240,0.27,-0.09,1.23,0.91,5569,5940,5144,59,85,60,98,99,0
5555,5921,5123,-20,-28,-21,10240,0.27,-0.09,1.23,0.91,5569,5939,5143,59,85,60,98,99,0
5561,5929,5126,-15,-21,-20,10240,0.27,-0.09,1.23,0.91,5568,5939,5143,59,85,60,98,99,0
5565,5937,5136,-10,-13,-16,10240,0.27,-0.09,1.23,0.91,5568,5939,5142,59,85,60,98,99,0
5571,5944,5144,-5,-6,-10,10240,0.27,-0.09,1.23,0.91,5568,5939,5142,59,85,60,98,99,0
5580,5955,5148,1,2,-4,10240,0.27,-0.09,1.23,0.91,5569,5939,5143,59,85,60,98,99,0
5583,5961,5157,6,10,3,10240,0.27,-0.09,1.23,0.91,5569,5940,5143,59,85,60,98,99,0
5586,5966,5162,11,16,9,10240,0.27,-0.09,1.23,0.91,5570,5941,5144,59,85,60,98,99,0
5592,5974,5167,15,23,14,10240,0.27,-0.09,1.23,0.91,5571,5942,5145,59,85,60,98,99,0
5595,5980,5170,18,28,19,10240,0.27,-0.09,1.23,0.91,5571,5943,5145,59,85,60,98,99,0
5601,5984,5174,22,33,23,10240,0.27,-0.09,1.23,0.91,5572,5945,5146,59,85,60,98,99,0
5600,5984,5174,25,36,25,10240,0.27,-0.09,1.23,0.91,5573,5946,5147,59,85,60,98,99,0
5592,5973,5164,24,35,24,10240,0.27,-0.09,1.23,0.91,5574,5947,5148,59,85,58,98,99,0
5583,5961,5156,20,29,19,10240,0.27,-0.09,1.27,0.94,5574,5947,5148,59,85,58,103,99,0
5572,5946,5138,13,19,10,10240,0.27,-0.09,1.27,0.94,5574,5947,5148,59,85,58,103,99,0
5550,5926,5123,0,4,-2,10240,0.27,-0.09,1.27,0.94,5573,5947,5147,59,85,58,103,99,0
5545,5905,5123,-10,-12,-12,10240,0.27,-0.09,1.27,0.94,5572,5945,5146,59,85,58,103,99,0
5545,5903,5123,-19,-25,-19,10240,0.27,-0.09,1.27,0.94,5572,5944,5145,59,85,58,103,99,0
5545,5903,5123,-25,-35,-22,10240,0.27,-0.09,1.27,0.94,5571,5942,5145,59,85,58,103,99,0
5547,5905,5123,-25,-39,-22,10240,0.27,-0.09,1.27,0.94,5570,5941,5144,59,85,58,103,99,0
5547,5906,5123,-24,-37,-21,10240,0.27,-0.09,1.27,0.94,5569,5940,5143,59,85,58,103,99,0
5550,5911,5123,-22,-34,-20,10240,0.27,-0.09,1.27,0.94,5568,5939,5143,59,85,58,103,99,0
5553,5913,5123,-19,-30,-20,10240,0.27,-0.09,1.27,0.94,5568,5938,5142,59,85,58,103,99,0
5554,5917,5123,-17,-27,-19,10240,0.27,-0.09,1.27,0.94,5568,5938,5141,59,85,58,103,99,0
5556,5920,5123,-14,-22,-18,10240,0.27,-0.09,1.27,0.94,5567,5937,5141,59,85,58,103,99,0
5559,5925,5123,-12,-18,-18,10240,0.27,-0.09,1.27,0.94,5567,5937,5140,59,85,58,103,99,0
5570,5940,5137,-7,-11,-14,10240,0.27,-0.09,1.27,0.94,5567,5937,5140,59,85,58,103,99,0
5574,5947,5143,-2,-4,-8,10240,0.27,-0.09,1.27,0.94,5567,5937,5140,59,85,58,103,99,0
5580,5956,5152,3,4,-1,10240,0.27,-0.09,1.27,0.94,5568,5938,5140,59,85,58,103,99,0
5584,5961,5156,9,13,6,10240,0.27,-0.09,1.27,0.94,5568,5938,5141,59,85,58,103,99,0
5587,5965,5158,13,19,11,10240,0.27,-0.09,1.27,0.94,5569,5939,5142,59,85,58,103,99,0
5595,5976,5165,17,25,16,10240,0.27,-0.09,1.27,0.94,5570,5941,5142,59,85,58,103,99,0
5599,5981,5168,21,30,19,10240,0.27,-0.09,1.27,0.94,5571,5942,5143,59,85,58,103,99,0
5603,5986,5177,25,35,24,10240,0.27,-0.09,1.27,0.94,5572,5943,5144,59,85,58,103,99,0
5605,5989,5180,29,40,29,10240,0.27,-0.09,1.27,0.94,5573,5945,5145,59,85,58,103,99,0
5604,5987,5178,30,41,31,10240,0.27,-0.09,1.27,0.94,5574,5946,5147,59,85,58,103,99,0
5588,5964,5156,26,36,27,10240,0.27,-0.09,1.27,0.94,5574,5947,5147,58,84,57,103,99,0
5578,5952,5145,20,26,18,10240,0.27,-0.09,1.28,0.94,5574,5947,5147,58,84,57,101,99,0
5568,5938,5128,10,13,5,10240,0.27,-0.09,1.28,0.94,5574,5947,5146,58,84,57,101,99,0
5559,5923,5123,0,-2,-8,10240,0.27,-0.09,1.28,0.94,5574,5946,5145,58,84,57,101,99,0
5552,5911,5123,-9,-15,-16,10240,0.27,-0.09,1.28,0.94,5573,5945,5145,58,84,57,101,99,0
5547,5903,5123,-16,-26,-20,10240,0.27,-0.09,1.28,0.94,5572,5943,5144,58,84,57,101,99,0
5548,5903,5123,-21,-34,-21,10240,0.27,-0.09,1.28,0.94,5571,5942,5143,58,84,57,101,99,0
5548,5905,5123,-23,-37,-20,10240,0.27,-0.09,1.28,0.94,5571,5941,5143,58,84,57,101,99,0
5548,5906,5123,-23,-37,-20,10240,0.27,-0.09,1.28,0.94,5570,5940,5142,58,84,57,101,99,0
5549,5907,5123,-22,-35,-19,10240,0.27,-0.09,1.28,0.94,5569,5939,5141,58,84,57,101,99,0
5553,5912,5123,-20,-32,-18,10240,0.27,-0.09,1.28,0.94,5569,5938,5141,58,84,57,101,99,0
5554,5914,5123,-18,-28,-18,10240,0.27,-0.09,1.28,0.94,5568,5937,5140,58,84,57,101,99,0
5556,5918,5123,-15,-24,-17,10240,0.27,-0.09,1.28,0.94,5568,5936,5140,58,84,57,101,99,0
5560,5921,5123,-12,-20,-17,10240,0.27,-0.09,1.28,0.94,5567,5936,5139,58,84,57,101,99,0
5563,5927,5124,-9,-16,-16,10240,0.27,-0.09,1.28,0.94,5567,5935,5138,58,84,57,101,99,0
5573,5942,5136,-4,-8,-12,10240,0.27,-0.09,1.28,0.94,5567,5936,5138,58,84,57,101,99,0
5575,5947,5138,0,-1,-8,10240,0.27,-0.09,1.28,0.94,5568,5936,5138,58,84,57,101,99,0
5579,5953,5144,5,6,-2,10240,0.27,-0.09,1.28,0.94,5568,5937,5139,58,84,57,101,99,0
5583,5956,5147,9,13,2,10240,0.27,-0.09,1.28,0.94,5569,5937,5139,58,84,57,101,99,0
5585,5960,5150,12,17,6,10240,0.27,-0.09,1.28,0.94,5569,5938,5139,58,84,57,101,99,0
5593,5974,5161,16,23,11,10240,0.27,-0.09,1.28,0.94,5570,5939,5140,58,84,57,101,99,0
5599,5980,5166,20,28,16,10240,0.27,-0.09,1.28,0.94,5571,5941,5141,58,84,57,101,99,0
5602,5984,5172,24,34,21,10240,0.27,-0.09,1.28,0.94,5572,5942,5142,58,84,57,101,99,0
5600,5983,5169,27,39,25,10240,0.27,-0.09,1.28,0.94,5573,5943,5143,58,84,57,101,99,0
5594,5974,5162,26,37,25,10240,0.27,-0.09,1.28,0.94,5574,5944,5143,56,82,57,101,99,0
5576,5948,5137,19,29,17,10240,0.27,-0.09,1.28,0.94,5574,5944,5143,56,82,54,101,99,0
5565,5933,5124,10,15,5,10240,0.27,-0.09,1.31,0.96,5573,5944,5143,56,82,54,101,99,0
5558,5922,5123,0,0,-6,10240,0.27,-0.09,1.31,0.96,5573,5943,5142,56,82,54,101,99,0
5554,5916,5123,-9,-13,-15,10240,0.27,-0.09,1.31,0.96,5572,5942,5141,56,82,54,101,99,0
5552,5913,5123,-15,-21,-18,10240,0.27,-0.09,1.31,0.96,5572,5942,5141,56,82,54,101,99,0
5555,5917,5123,-17,-25,-18,10240,0.27,-0.09,1.31,0.96,5571,5941,5140,56,82,54,101,99,0
5556,5920,5123,-17,-24,-17,10240,0.27,-0.09,1.31,0.96,5570,5940,5139,56,82,54,101,99,0
5558,5922,5123,-15,-22,-16,10240,0.27,-0.09,1.31,0.96,5570,5939,5139,56,82,54,101,99,0
5560,5924,5123,-13,-19,-16,10240,0.27,-0.09,1.31,0.96,5570,5939,5138,56,82,54,101,99,0
5561,5928,5123,-11,-15,-15,10240,0.27,-0.09,1.31,0.96,5569,5939,5138,56,82,54,97,99,0
5568,5939,5134,-7,-10,-12,10240,0.27,-0.09,1.31,0.96,5569,5939,5138,56,82,54,97,99,0
5572,5944,5138,-4,-5,-8,10240,0.27,-0.09,1.31,0.96,5569,5939,5138,56,82,54,97,99,0
5576,5950,5144,0,1,-3,10240,0.27,-0.09,1.31,0.96,5570,5939,5138,56,82,54,97,99,0
5580,5954,5148,4,7,3,10240,0.27,-0.09,1.31,0.96,5570,5940,5138,56,82,54,97,99,0
5583,5958,5150,8,12,6,10240,0.27,-0.09,1.31,0.96,5570,5940,5139,56,82,54,97,99,0
5591,5969,5160,12,17,12,10240,0.27,-0.09,1.31,0.96,5571,5941,5139,56,82,54,97,99,0
5595,5974,5162,16,23,16,10240,0.27,-0.09,1.31,0.96,5572,5942,5140,56,82,54,97,99,0
5597,5979,5165,20,28,19,10240,0.27,-0.09,1.31,0.96,5573,5943,5141,56,82,54,97,99,0
5602,5985,5172,23,34,24,10240,0.27,-0.09,1.31,0.96,5574,5945,5142,56,82,54,97,99,0
5605,5989,5179,26,37,28,10240,0.27,-0.09,1.31,0.96,5575,5946,5143,56,82,54,97,99,0
5614,6002,5185,30,43,32,10240,0.27,-0.09,1.31,0.96,5576,5948,5145,56,82,54,97,99,0
5615,6001,5185,33,47,36,10240,0.27,-0.09,1.31,0.96,5577,5950,5146,56,82,54,97,99,0
5608,5992,5180,34,47,37,10240,0.27,-0.09,1.31,0.96,5578,5951,5147,56,82,54,97,99,0
5600,5983,5168,31,44,33,10240,0.27,-0.09,1.31,0.96,5579,5952,5148,55,79,54,97,99,0
5591,5968,5158,25,34,25,10240,0.27,-0.09,1.27,0.94,5580,5953,5148,55,79,54,97,99,0
5578,5949,5141,15,20,14,10240,0.27,-0.09,1.27,0.94,5580,5953,5148,55,79,54,97,99,0
5573,5943,5135,6,8,2,10240,0.27,-0.09,1.27,0.94,5579,5952,5148,55,79,54,97,99,0
5570,5939,5132,-1,-2,-6,10240,0.27,-0.09,1.27,0.94,5579,5952,5147,55,79,54,97,99,0
5569,5939,5130,-6,-9,-12,10240,0.27,-0.09,1.27,0.94,5579,5952,5146,55,79,54,97,99,0
5571,5941,5135,-8,-11,-13,10240,0.27,-0.09,1.27,0.94,5578,5951,5146,55,79,54,97,99,0
5577,5948,5144,-6,-9,-11,10240,0.27,-0.09,1.27,0.94,5578,5951,5146,55,79,54,97,99,0
5580,5953,5149,-4,-6,-6,10240,0.27,-0.09,1.27,0.94,5578,5951,5146,55,79,54,97,99,0
5580,5954,5148,-1,-2,-2,10240,0.27,-0.09,1.27,0.94,5578,5951,5146,55,79,54,97,99,0
5581,5955,5150,1,1,1,10240,0.27,-0.09,1.27,0.94,5579,5951,5146,55,79,54,97,99,0
5583,5957,5152,2,3,3,10240,0.27,-0.09,1.27,0.94,5579,5952,5146,55,79,54,97,99,0
5591,5969,5162,5,7,6,10240,0.27,-0.09,1.27,0.94,5579,5952,5147,55,79,54,97,99,0
5597,5978,5167,8,12,11,10240,0.27,-0.09,1.27,0.94,5580,5953,5148,55,79,54,97,99,0
5601,5985,5173,13,19,16,10240,0.27,-0.09,1.27,0.94,5580,5954,5149,55,79,54,97,99,0
5604,5988,5179,18,26,21,10240,0.27,-0.09,1.27,0.94,5581,5955,5150,55,79,54,97,99,0
5608,5993,5183,21,31,26,10240,0.27,-0.09,1.27,0.94,5582,5957,5151,55,79,54,97,99,0
5616,6007,5186,25,37,29,10240,0.27,-0.09,1.27,0.94,5583,5958,5152,55,79,54,97,99,0
5622,6014,5194,29,43,34,10240,0.27,-0.09,1.27,0.94,5585,5960,5153,55,79,54,97,99,0
5625,6019,5196,33,49,37,10240,0.27,-0.09,1.27,0.94,5586,5962,5155,55,79,54,97,99,0
5627,6021,5197,37,54,39,10240,0.27,-0.09,1.27,0.94,5587,5964,5156,55,79,54,97,99,0
5628,6022,5197,38,56,40,10240,0.27,-0.09,1.27,0.94,5589,5966,5157,55,79,54,97,99,0
5620,6010,5196,37,53,39,10240,0.27,-0.09,1.27,0.94,5590,5967,5159,52,76,54,97,99,0
5612,5997,5185,32,46,35,10240,0.27,-0.09,1.22,0.89,5590,5968,5160,52,76,54,97,99,0
5603,5986,5177,25,36,29,10240,0.27,-0.09,1.22,0.89,5591,5969,5160,52,76,54,97,99,0
5594,5973,5160,16,23,19,10240,0.27,-0.09,1.22,0.89,5591,5969,5160,52,76,54,97,99,0
5584,5960,5148,7,10,7,10240,0.27,-0.09,1.22,0.89,5591,5969,5160,52,76,54,97,99,0
5575,5951,5139,-1,-1,-3,10240,0.27,-0.09,1.22,0.89,5590,5968,5159,52,76,54,97,99,0
5578,5951,5144,-7,-9,-11,10240,0.27,-0.09,1.22,0.89,5590,5968,5159,52,76,54,97,99,0
5580,5954,5147,-10,-14,-14,10240,0.27,-0.09,1.22,0.89,5589,5967,5158,52,76,54,97,99,0
5583,5958,5151,-10,-14,-13,10240,0.27,-0.09,1.22,0.89,5589,5967,5158,52,76,54,97,99,0
5583,5959,5152,-8,-11,-9,10240,0.27,-0.09,1.22,0.89,5589,5967,5158,52,76,54,97,99,0
5586,5962,5154,-6,-8,-7,10240,0.27,-0.09,1.22,0.89,5589,5966,5158,52,76,54,97,99,0
5587,5965,5157,-4,-5,-4,10240,0.27,-0.09,1.22,0.89,5589,5966,5158,52,76,54,97,99,0
5590,5968,5161,-2,-3,-2,10240,0.27,-0.09,1.22,0.89,5589,5967,5158,52,76,54,97,99,0
5594,5973,5163,0,0,0,10240,0.27,-0.09,1.22,0.89,5589,5967,5158,52,76,54,97,99,0
5597,5980,5166,3,4,3,10240,0.27,-0.09,1.22,0.89,5589,5967,5158,52,76,54,97,99,0
5602,5985,5174,6,9,7,10240,0.27,-0.09,1.22,0.89,5590,5968,5159,52,76,54,97,99,0
5612,5999,5186,11,16,13,10240,0.27,-0.09,1.22,0.89,5590,5969,5159,52,76,54,97,99,0
5617,6007,5191,17,24,20,10240,0.27,-0.09,1.22,0.89,5591,5970,5161,52,76,54,97,99,0
5621,6013,5194,22,31,26,10240,0.27,-0.09,1.22,0.89,5592,5971,5162,52,76,54,97,99,0
5624,6020,5198,27,39,31,10240,0.27,-0.09,1.22,0.89,5593,5973,5163,52,76,54,97,99,0
5628,6025,5202,29,44,33,10240,0.27,-0.09,1.22,0.89,5595,5975,5164,52,76,54,97,99,0
5635,6037,5210,33,49,37,10240,0.27,-0.09,1.22,0.89,5596,5977,5166,52,76,54,97,99,0
5638,6039,5211,36,54,40,10240,0.27,-0.09,1.22,0.89,5597,5979,5167,52,76,54,97,99,0
5633,6036,5209,36,56,41,10240,0.27,-0.09,1.22,0.89,5599,5981,5169,52,76,54,97,99,0
5628,6030,5205,35,55,40,10240,0.27,-0.09,1.22,0.89,5600,5983,5170,51,75,54,97,99,0
5622,6020,5200,31,49,37,10240,0.27,-0.09,1.20,0.87,5600,5984,5171,51,75,54,97,99,0
5610,5998,5187,23,38,30,10240,0.27,-0.09,1.20,0.87,5601,5984,5171,51,75,54,97,99,0
5604,5990,5181,15,25,22,10240,0.27,-0.09,1.20,0.87,5601,5984,5172,51,75,54,97,99,0
5600,5985,5174,8,14,14,10240,0.27,-0.09,1.20,0.87,5601,5984,5172,51,75,54,97,99,0
5599,5984,5172,2,5,6,10240,0.27,-0.09,1.20,0.87,5601,5984,5172,51,75,54,97,99,0
5600,5985,5174,0,2,3,10240,0.27,-0.09,1.20,0.87,5601,5984,5172,51,75,54,97,99,0
5605,5989,5179,0,1,2,10240,0.27,-0.09,1.20,0.87,5601,5985,5172,51,75,54,97,99,0
5605,5989,5178,1,2,3,10240,0.27,-0.09,1.20,0.87,5601,5985,5172,51,75,54,97,99,0
5605,5990,5178,2,3,5,10240,0.27,-0.09,1.20,0.87,5601,5985,5172,51,75,54,97,99,0
5605,5990,5178,4,4,6,10240,0.27,-0.09,1.20,0.87,5601,5985,5173,51,75,54,97,99,0
5606,5992,5181,4,5,6,10240,0.27,-0.09,1.20,0.87,5601,5985,5173,51,75,54,97,99,0
5612,6002,5187,5,8,8,10240,0.27,-0.09,1.20,0.87,5602,5986,5173,51,75,54,97,99,0
5616,6007,5189,8,12,10,10240,0.27,-0.09,1.20,0.87,5602,5987,5174,51,75,54,97,99,0
5619,6013,5193,11,17,13,10240,0.27,-0.09,1.20,0.87,5603,5987,5175,51,75,54,97,99,0
5624,6021,5198,15,23,17,10240,0.27,-0.09,1.20,0.87,5603,5989,5175,51,75,54,97,99,0
5629,6029,5202,19,29,20,10240,0.27,-0.09,1.20,0.87,5604,5990,5176,51,75,54,97,99,0
5638,6040,5209,23,36,24,10240,0.27,-0.09,1.20,0.87,5605,5992,5177,51,75,54,97,99,0
5641,6044,5215,28,42,29,10240,0.27,-0.09,1.20,0.87,5607,5993,5179,51,75,54,97,99,0
5644,6049,5217,32,48,32,10240,0.27,-0.09,1.20,0.87,5608,5995,5180,51,75,54,97,99,0
5648,6055,5221,35,52,36,10240,0.27,-0.09,1.20,0.87,5609,5997,5181,51,75,54,97,99,0
5651,6060,5222,37,56,38,10240,0.27,-0.09,1.20,0.87,5611,5999,5183,51,75,54,97,99,0
5640,6043,5221,36,53,38,10240,0.27,-0.09,1.20,0.87,5611,6001,5184,47,70,54,97,99,0
5630,6027,5203,31,46,33,10240,0.27,-0.09,1.20,0.87,5612,6002,5184,47,70,50,97,99,0
5621,6013,5193,24,34,25,10240,0.27,-0.09,1.21,0.87,5612,6002,5185,47,70,50,97,99,0
5611,5998,5181,13,18,15,10240,0.27,-0.09,1.21,0.87,5612,6002,5185,47,70,50,97,99,0
5602,5985,5170,4,4,2,10240,0.27,-0.09,1.21,0.87,5612,6001,5184,47,70,50,97,99,0
5590,5977,5161,-5,-8,-8,10240,0.27,-0.09,1.21,0.87,5611,6001,5183,47,70,50,97,99,0
5586,5962,5152,-14,-20,-17,10240,0.27,-0.09,1.21,0.87,5610,5999,5182,47,70,50,97,99,0
5586,5962,5153,-19,-28,-23,10240,0.27,-0.09,1.21,0.87,5610,5998,5181,47,70,50,97,99,0
5587,5963,5154,-22,-32,-26,10240,0.27,-0.09,1.21,0.87,5609,5997,5180,47,70,50,97,99,0
5590,5968,5156,-22,-33,-27,10240,0.27,-0.09,1.21,0.87,5608,5996,5180,47,70,50,97,99,0
5595,5970,5158,-19,-30,-24,10240,0.27,-0.09,1.21,0.87,5608,5995,5179,47,70,50,97,99,0
5596,5974,5162,-16,-26,-21,10240,0.27,-0.09,1.21,0.87,5607,5994,5178,47,70,50,97,99,0
5597,5977,5162,-13,-22,-19,10240,0.27,-0.09,1.21,0.87,5607,5994,5178,47,70,50,97,99,0
5601,5982,5167,-10,-18,-15,10240,0.27,-0.09,1.21,0.87,5607,5993,5177,47,70,50,97,99,0
5605,5987,5175,-7,-13,-11,10240,0.27,-0.09,1.21,0.87,5607,5993,5177,47,70,50,97,99,0
5607,5991,5179,-4,-9,-6,10240,0.27,-0.09,1.21,0.87,5607,5993,5177,47,70,50,97,99,0
5616,6006,5189,0,-1,0,10240,0.27,-0.09,1.21,0.87,5607,5993,5178,47,70,50,97,99,0
5622,6013,5194,5,6,6,10240,0.27,-0.09,1.21,0.87,5608,5994,5178,47,70,50,97,99,0
5625,6017,5195,10,13,11,10240,0.27,-0.09,1.21,0.87,5608,5995,5179,47,70,50,97,99,0
5628,6023,5197,14,20,15,10240,0.27,-0.09,1.21,0.87,5609,5996,5180,47,70,50,97,99,0
5630,6026,5199,17,24,17,10240,0.27,-0.09,1.21,0.87,5610,5997,5180,47,70,50,97,99,0
5635,6034,5204,20,28,18,10240,0.27,-0.09,1.21,0.87,5610,5998,5181,47,70,50,97,99,0
5637,6036,5205,22,32,20,10240,0.27,-0.09,1.21,0.87,5611,5999,5182,47,70,50,97,99,0
5634,6031,5201,23,33,21,10240,0.27,-0.09,1.21,0.87,5612,6000,5182,47,70,50,97,99,0
5624,6015,5192,21,29,18,10240,0.27,-0.09,1.21,0.87,5612,6001,5183,47,69,49,97,99,0
5612,5997,5181,15,19,12,10240,0.27,-0.09,1.22,0.89,5612,6001,5183,47,69,49,97,99,0
5582,5956,5143,1,0,-3,10240,0.27,-0.09,1.22,0.89,5611,5999,5181,47,69,49,97,99,0
5569,5937,5125,-14,-23,-21,10240,0.27,-0.09,1.22,0.89,5610,5997,5179,47,69,49,97,99,0
5562,5925,5123,-29,-44,-37,10240,0.27,-0.09,1.22,0.89,5608,5995,5178,47,69,49,97,99,0
5557,5917,5123,-41,-62,-50,10240,0.27,-0.09,1.22,0.89,5607,5992,5176,47,69,49,97,99,0
5553,5910,5123,-47,-71,-53,10240,0.27,-0.09,1.22,0.89,5605,5989,5174,47,69,49,97,99,0
5553,5913,5123,-49,-74,-52,10240,0.27,-0.09,1.22,0.89,5603,5987,5172,47,69,49,97,99,0
5554,5914,5123,-50,-74,-50,10240,0.27,-0.09,1.22,0.89,5602,5985,5171,47,69,49,97,99,0
5555,5914,5123,-48,-73,-48,10240,0.27,-0.09,1.22,0.89,5600,5982,5169,47,69,49,97,99,0
5555,5915,5123,-46,-69,-47,10240,0.27,-0.09,1.22,0.89,5599,5980,5168,47,69,49,97,99,0
5556,5916,5123,-44,-66,-45,10240,0.27,-0.09,1.22,0.89,5597,5978,5166,47,69,49,97,99,0
5559,5921,5123,-41,-62,-44,10240,0.27,-0.09,1.22,0.89,5596,5976,5165,47,69,49,97,99,0
5563,5924,5123,-38,-58,-42,10240,0.27,-0.09,1.22,0.89,5595,5974,5163,47,69,49,97,99,0
5566,5931,5123,-34,-52,-41,10240,0.27,-0.09,1.22,0.89,5594,5973,5162,47,69,49,97,99,0
5572,5938,5128,-29,-45,-38,10240,0.27,-0.09,1.22,0.89,5593,5972,5161,47,69,49,97,99,0
5577,5945,5136,-24,-38,-34,10240,0.27,-0.09,1.22,0.89,5593,5971,5160,47,69,49,97,99,0
5585,5958,5148,-18,-28,-27,10240,0.27,-0.09,1.22,0.89,5592,5970,5160,47,69,49,97,99,0
5588,5963,5153,-12,-19,-18,10240,0.27,-0.09,1.22,0.89,5592,5970,5159,47,69,49,97,99,0
5593,5970,5158,-6,-11,-10,10240,0.27,-0.09,1.22,0.89,5592,5970,5159,47,69,49,97,99,0
5596,5977,5161,-1,-3,-4,10240,0.27,-0.09,1.22,0.89,5592,5970,5159,47,69,49,97,99,0
5601,5983,5165,2,3,0,10240,0.27,-0.09,1.22,0.89,5593,5971,5160,47,69,49,97,99,0
5598,5978,5161,4,6,1,10240,0.27,-0.09,1.22,0.89,5593,5971,5160,47,69,49,97,99,0
5587,5961,5151,2,4,0,10240,0.27,-0.09,1.22,0.89,5593,5971,5159,49,71,50,97,99,0
5574,5943,5130,-2,-4,-7,10240,0.27,-0.09,1.23,0.90,5592,5970,5158,49,71,50,97,99,0
5558,5919,5123,-13,-19,-17,10240,0.27,-0.09,1.23,0.90,5591,5968,5157,49,71,50,97,99,0
5543,5898,5123,-25,-38,-25,10240,0.27,-0.09,1.23,0.90,5589,5966,5156,49,71,50,97,99,0
5520,5871,5123,-41,-58,-31,10240,0.27,-0.09,1.23,0.90,5587,5962,5155,49,71,50,97,99,0
5511,5864,5123,-54,-75,-32,10240,0.27,-0.09,1.23,0.90,5584,5959,5154,49,71,50,97,99,0
5510,5861,5123,-64,-87,-31,10240,0.27,-0.09,1.23,0.90,5582,5956,5153,49,71,50,97,99,0
5511,5861,5123,-70,-93,-30,10240,0.27,-0.09,1.23,0.90,5580,5953,5152,49,71,50,97,99,0
5515,5864,5123,-69,-92,-29,10240,0.27,-0.09,1.23,0.90,5577,5950,5151,49,71,50,97,99,0
5518,5867,5123,-65,-88,-28,10240,0.27,-0.09,1.23,0.90,5575,5947,5150,49,71,50,97,99,0
5521,5868,5123,-60,-83,-27,10240,0.27,-0.09,1.23,0.90,5574,5944,5149,49,71,50,97,99,0
5522,5873,5123,-55,-77,-26,10240,0.27,-0.09,1.23,0.90,5572,5942,5148,49,71,50,97,99,0
5525,5877,5123,-51,-72,-25,10240,0.27,-0.09,1.23,0.90,5570,5940,5147,49,71,50,97,99,0
5532,5884,5123,-46,-65,-24,10240,0.27,-0.09,1.23,0.90,5569,5938,5146,49,71,50,97,99,0
5542,5895,5123,-39,-57,-23,10240,0.27,-0.09,1.23,0.90,5568,5937,5146,49,71,50,97,99,0
