6014,5985,5472,94,85,73,10240,-1.00,-1.00,0.00,0.00,5924,5902,5401,0,0,0,0,0,0
6016,5986,5472,92,84,71,10240,-1.00,-1.00,0.00,0.00,5927,5905,5403,0,0,0,0,0,0
6015,5986,5472,89,81,69,10240,-1.00,-1.00,0.00,0.00,5930,5908,5405,0,0,0,0,0,0
6020,5989,5474,87,80,68,10240,-1.00,-1.00,0.00,0.00,5933,5911,5408,0,0,0,0,0,0
6020,5990,5475,86,78,66,10240,-1.00,-1.00,0.00,0.00,5936,5913,5410,0,0,0,0,0,0
6019,5990,5475,84,76,65,10240,-1.00,-1.00,0.00,0.00,5939,5916,5412,0,0,0,0,0,0
6022,5993,5477,83,76,64,10240,-1.00,-1.00,0.00,0.00,5941,5918,5414,0,0,0,0,0,0
6023,5993,5477,81,74,63,10240,-1.00,-1.00,0.00,0.00,5944,5921,5416,0,0,0,0,0,0
6025,5996,5477,79,73,61,10240,-1.00,-1.00,0.00,0.00,5947,5923,5418,0,0,0,0,0,0
6027,5999,5480,78,73,60,10240,-1.00,-1.00,0.00,0.00,5950,5926,5420,0,0,0,0,0,0
6029,5999,5480,77,72,59,10240,-1.00,-1.00,0.00,0.00,5952,5928,5422,0,0,0,0,0,0
6028,5998,5480,76,71,58,10240,-1.00,-1.00,0.00,0.00,5955,5931,5424,0,0,0,0,0,0
6029,6000,5480,74,69,57,10240,-1.00,-1.00,0.00,0.00,5957,5933,5426,0,0,0,0,0,0
6029,5999,5481,72,67,55,10240,-1.00,-1.00,0.00,0.00,5960,5935,5428,0,0,0,0,0,0
6030,5999,5480,70,65,53,10240,-1.00,-1.00,0.00,0.00,5962,5937,5430,0,0,0,0,0,0
6028,5996,5478,68,62,51,10240,-1.00,-1.00,0.00,0.00,5964,5939,5431,0,0,0,0,0,0
6026,5993,5477,65,58,48,10240,-1.00,-1.00,0.00,0.00,5966,5941,5433,0,0,0,0,0,0
6025,5993,5476,62,55,45,10240,-1.00,-1.00,0.00,0.00,5968,5943,5434,0,0,0,0,0,0
6022,5989,5474,58,51,42,10240,-1.00,-1.00,0.00,0.00,5970,5944,5436,0,0,0,0,0,0
6018,5983,5472,53,46,39,10240,-1.00,-1.00,0.00,0.00,5972,5946,5437,0,0,0,0,0,0
6016,5980,5469,49,41,36,10240,-1.00,-1.00,0.00,0.00,5973,5947,5438,0,0,0,0,0,0
6013,5975,5467,45,35,33,10240,-1.00,-1.00,0.00,0.00,5974,5948,5439,0,0,0,0,0,0
6013,5975,5467,41,30,30,10240,-1.00,-1.00,0.00,0.00,5976,5949,5440,0,0,0,0,0,0
6013,5975,5467,38,28,28,10240,-1.00,-1.00,0.00,0.00,5977,5949,5441,0,0,0,0,0,0
6012,5973,5466,36,25,26,10240,-1.00,-1.00,0.00,0.00,5978,5950,5442,0,0,0,0,0,0
6015,5974,5467,35,24,25,10240,-1.00,-1.00,0.00,0.00,5979,5951,5442,0,0,0,0,0,0
6014,5974,5466,35,23,24,10240,-1.00,-1.00,0.00,0.00,5980,5952,5443,0,0,0,0,0,0
6013,5973,5467,33,22,23,10240,-1.00,-1.00,0.00,0.00,5982,5952,5444,0,0,0,0,0,0
6013,5972,5467,32,21,23,10240,-1.00,-1.00,0.00,0.00,5983,5953,5445,0,0,0,0,0,0
6013,5974,5468,31,20,22,10240,-1.00,-1.00,0.00,0.00,5984,5954,5446,0,0,0,0,0,0
6015,5975,5470,30,20,22,10240,-1.00,-1.00,0.00,0.00,5985,5955,5446,0,0,0,0,0,0
6016,5976,5470,29,20,22,10240,-1.00,-1.00,0.00,0.00,5986,5955,5447,0,0,0,0,0,0
6017,5977,5470,29,20,22,10240,-1.00,-1.00,0.00,0.00,5987,5956,5448,0,0,0,0,0,0
6018,5978,5471,30,20,22,10240,-1.00,-1.00,0.00,0.00,5988,5957,5449,0,0,0,0,0,0
6020,5979,5472,30,21,22,10240,-1.00,-1.00,0.00,0.00,5989,5957,5449,0,0,0,0,0,0
6020,5978,5471,30,21,22,10240,-1.00,-1.00,0.00,0.00,5990,5958,5450,0,0,0,0,0,0
6022,5981,5474,30,21,22,10240,-1.00,-1.00,0.00,0.00,5991,5959,5451,0,0,0,0,0,0
6022,5981,5474,30,21,22,10240,-1.00,-1.00,0.00,0.00,5992,5960,5452,0,0,0,0,0,0
6023,5980,5475,30,20,22,10240,-1.00,-1.00,0.00,0.00,5993,5960,5453,0,0,0,0,0,0
6023,5982,5475,30,21,22,10240,-1.00,-1.00,0.00,0.00,5994,5961,5453,0,0,0,0,0,0
6024,5983,5475,29,20,21,10240,-1.00,-1.00,0.00,0.00,5995,5962,5454,0,0,0,0,0,0
6027,5985,5476,29,21,21,10240,-1.00,-1.00,0.00,0.00,5996,5963,5455,0,0,0,0,0,0
6027,5985,5478,29,21,21,10240,-1.00,-1.00,0.00,0.00,5997,5963,5455,0,0,0,0,0,0
6028,5987,5477,30,22,21,10240,-1.00,-1.00,0.00,0.00,5998,5964,5456,0,0,0,0,0,0
6030,5988,5478,30,22,21,10240,-1.00,-1.00,0.00,0.00,5999,5965,5457,0,0,0,0,0,0
6029,5988,5477,30,22,21,10240,-1.00,-1.00,0.00,0.00,6000,5966,5458,0,0,0,0,0,0
6030,5987,5477,29,22,20,10240,-1.00,-1.00,0.00,0.00,6001,5966,5458,0,0,0,0,0,0
6030,5986,5475,29,21,18,10240,-1.00,-1.00,0.00,0.00,6002,5967,5459,0,5,0,0,0,0
6028,5982,5474,27,19,17,10240,-1.00,-1.00,0.00,0.00,6003,5968,5459,0,5,0,0,0,0
6025,5979,5471,25,16,15,10240,-1.00,-1.00,0.00,0.00,6004,5968,5460,0,5,0,0,0,0
6021,5975,5468,22,12,12,10240,-1.00,-1.00,0.00,0.00,6004,5968,5460,0,5,0,0,0,0
6017,5970,5466,18,8,10,10240,-1.00,-1.00,0.00,0.00,6005,5968,5460,0,5,0,0,0,0
6010,5959,5460,13,2,6,10240,-1.00,-1.00,0.00,0.00,6005,5968,5460,0,5,0,0,0,0
6006,5956,5458,8,-2,3,10240,-1.00,-1.00,0.00,0.00,6005,5967,5460,0,5,0,0,0,0
6004,5954,5456,4,-7,0,10240,-1.00,-1.00,0.00,0.00,6005,5967,5460,0,5,0,0,0,0
6002,5951,5455,0,-12,-2,10240,-1.00,-1.00,0.00,0.00,6005,5967,5460,0,5,0,0,0,0
6002,5952,5456,-1,-13,-3,10240,-1.00,-1.00,0.00,0.00,6005,5966,5460,0,5,0,0,0,0
6001,5950,5456,-2,-14,-4,10240,-1.00,-1.00,0.00,0.00,6005,5965,5460,0,5,0,0,0,0
6000,5949,5455,-3,-15,-4,10240,-1.00,-1.00,0.00,0.00,6004,5965,5459,0,5,0,0,0,0
5999,5948,5456,-4,-15,-3,10240,-1.00,-1.00,0.00,0.00,6004,5964,5459,0,5,0,0,0,0
5999,5950,5456,-4,-15,-3,10240,-1.00,-1.00,0.00,0.00,6004,5964,5459,0,5,0,0,0,0
6001,5951,5456,-4,-14,-3,10240,-1.00,-1.00,0.00,0.00,6004,5963,5459,0,5,0,0,0,0
6001,5950,5455,-4,-13,-3,10240,-1.00,-1.00,0.00,0.00,6004,5963,5459,0,5,0,0,0,0
6001,5952,5457,-3,-12,-3,10240,-1.00,-1.00,0.00,0.00,6004,5963,5459,0,5,0,0,0,0
6000,5953,5456,-3,-11,-3,10240,-1.00,-1.00,0.00,0.00,6004,5962,5459,0,5,0,0,0,0
6000,5953,5457,-3,-10,-2,10240,-1.00,-1.00,0.00,0.00,6003,5962,5459,0,5,0,0,0,0
6004,5955,5458,-2,-9,-2,10240,-1.00,-1.00,0.00,0.00,6003,5962,5459,0,5,0,0,0,0
6004,5957,5459,-1,-7,-1,10240,-1.00,-1.00,0.00,0.00,6004,5962,5459,0,5,0,0,0,0
6007,5961,5460,0,-5,0,10240,-1.00,-1.00,0.00,0.00,6004,5962,5459,0,5,0,0,0,0
6009,5963,5462,2,-3,0,10240,-1.00,-1.00,0.00,0.00,6004,5962,5459,0,5,0,0,0,0
6010,5964,5463,3,0,2,10240,-1.00,-1.00,0.00,0.00,6004,5962,5459,0,5,0,0,0,0
6011,5966,5464,5,1,3,10240,-1.00,-1.00,0.00,0.00,6004,5962,5459,0,5,0,0,0,0
6013,5968,5465,6,3,4,10240,-1.00,-1.00,0.00,0.00,6005,5962,5459,0,5,0,0,0,0
6014,5969,5466,7,4,5,10240,-1.00,-1.00,0.00,0.00,6005,5962,5460,0,5,0,0,0,0
6019,5973,5468,9,6,6,10240,-1.00,-1.00,0.00,0.00,6005,5963,5460,0,5,0,0,0,0
6020,5975,5469,11,8,7,10240,-1.00,-1.00,0.00,0.00,6006,5963,5460,0,5,0,0,0,0
6021,5976,5470,13,10,8,10240,-1.00,-1.00,0.00,0.00,6006,5963,5460,0,5,0,0,0,0
6022,5977,5471,14,12,9,10240,-1.00,-1.00,0.00,0.00,6007,5964,5461,0,5,0,0,0,0
6024,5977,5470,15,12,9,10240,-1.00,-1.00,0.00,0.00,6007,5964,5461,0,5,0,0,0,0
6025,5979,5471,16,13,9,10240,-1.00,-1.00,0.00,0.00,6008,5965,5461,0,5,0,0,0,0
6024,5977,5471,16,13,9,10240,-1.00,-1.00,0.00,0.00,6009,5965,5462,0,5,0,0,0,0
6022,5975,5468,15,12,8,10240,-1.00,-1.00,0.00,0.00,6009,5966,5462,0,11,0,0,0,0
6019,5972,5466,13,10,7,10240,-1.00,-1.00,0.00,0.00,6009,5966,5462,0,11,0,58,0,0
6018,5969,5465,11,7,5,10240,-1.00,-1.00,0.00,0.00,6010,5966,5462,0,11,0,58,0,0
6015,5966,5463,9,4,3,10240,-1.00,-1.00,0.00,0.00,6010,5966,5462,0,11,0,58,0,0
6010,5962,5460,5,1,1,10240,-1.00,-1.00,0.00,0.00,6010,5966,5462,0,11,0,58,0,0
6008,5958,5456,2,-2,-1,10240,-1.00,-1.00,0.00,0.00,6010,5966,5462,0,11,0,58,0,0
6008,5957,5457,0,-5,-3,10240,-1.00,-1.00,0.00,0.00,6010,5965,5462,0,11,0,58,0,0
6006,5955,5455,-1,-7,-5,10240,-1.00,-1.00,0.00,0.00,6009,5965,5462,0,11,0,58,0,0
6004,5954,5455,-3,-9,-6,10240,-1.00,-1.00,0.00,0.00,6009,5965,5461,0,11,0,58,0,0
6008,5956,5457,-2,-9,-5,10240,-1.00,-1.00,0.00,0.00,6009,5964,5461,0,11,0,58,0,0
6008,5956,5456,-2,-9,-5,10240,-1.00,-1.00,0.00,0.00,6009,5964,5461,0,11,0,58,0,0
6011,5957,5459,-1,-8,-4,10240,-1.00,-1.00,0.00,0.00,6009,5964,5461,0,11,0,58,0,0
6013,5957,5458,1,-7,-3,10240,-1.00,-1.00,0.00,0.00,6009,5963,5461,0,11,0,58,0,0
6012,5958,5458,1,-6,-3,10240,-1.00,-1.00,0.00,0.00,6010,5963,5461,0,11,0,58,0,0
6014,5962,5461,3,-4,-2,10240,-1.00,-1.00,0.00,0.00,6010,5963,5461,0,11,0,58,0,0
6014,5961,5462,3,-3,-1,10240,-1.00,-1.00,0.00,0.00,6010,5963,5461,0,11,0,58,0,0
6015,5964,5462,3,-1,0,10240,-1.00,-1.00,0.00,0.00,6010,5963,5461,0,11,0,58,0,0
6015,5964,5462,4,0,0,10240,-1.00,-1.00,0.00,0.00,6010,5963,5461,0,11,0,58,0,0
6016,5967,5464,5,1,1,10240,-1.00,-1.00,0.00,0.00,6010,5963,5461,0,11,0,58,0,0
6021,5972,5466,6,3,2,10240,-1.00,-1.00,0.00,0.00,6011,5964,5461,0,11,0,58,0,0
6026,5976,5470,9,6,4,10240,-1.00,-1.00,0.00,0.00,6011,5964,5461,0,11,0,58,0,0
6031,5978,5471,12,9,6,10240,-1.00,-1.00,0.00,0.00,6012,5965,5462,0,11,0,58,0,0
6033,5980,5472,16,12,8,10240,-1.00,-1.00,0.00,0.00,6013,5965,5462,0,11,0,58,0,0
6034,5980,5471,18,13,9,10240,-1.00,-1.00,0.00,0.00,6013,5966,5462,0,11,0,58,0,0
6035,5983,5473,20,14,9,10240,-1.00,-1.00,0.00,0.00,6014,5966,5463,0,11,0,58,0,0
6034,5984,5474,20,15,10,10240,-1.00,-1.00,0.00,0.00,6015,5967,5463,0,11,0,58,0,0
6033,5986,5473,19,16,10,10240,-1.00,-1.00,0.00,0.00,6015,5967,5463,5,11,0,58,0,0
6035,5986,5473,19,17,10,10240,-1.00,-1.00,0.00,0.00,6016,5968,5464,5,11,0,58,0,0
6035,5986,5473,18,17,9,10240,-1.00,-1.00,0.00,0.00,6017,5969,5464,5,11,0,66,0,0
6036,5987,5474,18,18,9,10240,-1.00,-1.00,0.00,0.00,6017,5969,5464,5,11,0,66,0,0
6038,5987,5473,19,17,9,10240,-1.00,-1.00,0.00,0.00,6018,5970,5465,5,15,0,66,0,0
6039,5986,5473,19,17,8,10240,-1.00,-1.00,0.00,0.00,6019,5970,5465,5,15,0,66,0,0
6038,5984,5472,19,16,8,10240,-1.00,-1.00,0.00,0.00,6019,5971,5465,5,15,0,66,0,0
6036,5983,5471,18,14,7,10240,-1.00,-1.00,0.00,0.00,6020,5971,5465,5,15,0,66,0,0
6037,5982,5470,18,12,6,10240,-1.00,-1.00,0.00,0.00,6020,5972,5466,5,15,0,66,0,0
6036,5982,5469,16,11,5,10240,-1.00,-1.00,0.00,0.00,6021,5972,5466,5,15,0,66,0,0
6032,5974,5467,14,8,3,10240,-1.00,-1.00,0.00,0.00,6021,5972,5466,5,15,0,66,0,0
6029,5972,5464,12,5,1,10240,-1.00,-1.00,0.00,0.00,6022,5972,5466,5,15,0,66,0,0
6028,5970,5464,9,2,0,10240,-1.00,-1.00,0.00,0.00,6022,5972,5466,5,15,0,66,0,0
6027,5969,5462,7,0,-1,10240,-1.00,-1.00,0.00,0.00,6022,5972,5465,5,15,0,66,0,0
6029,5970,5463,6,-1,-2,10240,-1.00,-1.00,0.00,0.00,6022,5972,5465,5,15,0,66,0,0
6031,5970,5465,6,-2,-1,10240,-1.00,-1.00,0.00,0.00,6022,5972,5465,5,15,0,66,0,0
6029,5969,5463,6,-2,-1,10240,-1.00,-1.00,0.00,0.00,6023,5972,5465,5,15,0,66,0,0
6027,5967,5461,6,-2,-2,10240,-1.00,-1.00,0.00,0.00,6023,5971,5465,5,15,0,66,0,0
6023,5966,5460,4,-3,-2,10240,-1.00,-1.00,0.00,0.00,6023,5971,5465,5,15,0,66,0,0
6021,5966,5459,2,-4,-4,10240,-1.00,-1.00,0.00,0.00,6023,5971,5465,5,15,0,66,0,0
6014,5962,5456,-1,-5,-6,10240,-1.00,-1.00,0.00,0.00,6022,5971,5465,5,15,0,66,0,0
6015,5961,5456,-4,-7,-7,10240,-1.00,-1.00,0.00,0.00,6022,5970,5464,5,15,0,66,0,0
6015,5961,5454,-6,-8,-8,10240,-1.00,-1.00,0.00,0.00,6022,5970,5464,5,15,0,66,0,0
6015,5962,5456,-7,-8,-8,10240,-1.00,-1.00,0.00,0.00,6022,5970,5464,5,15,0,66,0,0
6013,5961,5455,-7,-8,-8,10240,-1.00,-1.00,0.00,0.00,6021,5970,5463,5,15,0,66,0,0
6013,5962,5455,-7,-8,-8,10240,-1.00,-1.00,0.00,0.00,6021,5969,5463,5,15,0,66,0,0
6012,5962,5454,-8,-7,-8,10240,-1.00,-1.00,0.00,0.00,6021,5969,5463,5,15,0,66,0,0
6015,5964,5455,-7,-7,-8,10240,-1.00,-1.00,0.00,0.00,6021,5969,5463,5,15,0,66,0,0
6018,5967,5458,-6,-5,-7,10240,-1.00,-1.00,0.00,0.00,6021,5969,5462,5,15,0,66,0,0
6019,5968,5459,-5,-3,-6,10240,-1.00,-1.00,0.00,0.00,6021,5969,5462,5,15,0,66,100,0
6022,5970,5460,-2,-1,-4,10240,-1.00,-1.00,0.00,0.00,6021,5969,5462,5,15,0,66,100,0
6026,5976,5463,0,1,-2,10240,-1.00,-1.00,0.00,0.00,6021,5969,5462,5,15,0,66,100,0
6027,5975,5465,2,3,0,10240,-1.00,-1.00,0.00,0.00,6021,5969,5462,5,15,0,66,100,0
6029,5979,5465,5,5,1,10240,-1.00,-1.00,0.00,0.00,6021,5970,5462,5,15,0,66,100,0
6033,5980,5466,7,8,2,10240,-1.00,-1.00,0.00,0.00,6022,5970,5463,5,15,0,66,100,0
6033,5980,5467,9,8,3,10240,-1.00,-1.00,0.00,0.00,6022,5970,5463,5,15,0,66,100,0
6034,5983,5467,10,10,3,10240,-1.00,-1.00,0.00,0.00,6022,5971,5463,5,15,0,66,100,0
6033,5980,5466,11,10,3,10240,-1.00,-1.00,0.00,0.00,6023,5971,5463,5,15,0,66,100,0
6031,5979,5465,10,9,3,10240,-1.00,-1.00,0.00,0.00,6023,5971,5463,5,15,0,66,100,0
6031,5977,5465,9,8,2,10240,-1.00,-1.00,0.00,0.00,6023,5971,5463,5,15,0,66,100,0
6030,5974,5463,8,6,1,10240,-1.00,-1.00,0.00,0.00,6023,5972,5463,5,15,0,66,100,0
6021,5970,5460,5,3,0,10240,-1.00,-1.00,0.00,0.00,6023,5972,5463,5,15,0,66,100,0
6016,5961,5455,1,-1,-2,10240,-1.00,-1.00,0.00,0.00,6023,5971,5463,5,15,0,66,100,0
6015,5959,5454,-2,-5,-4,10240,-1.00,-1.00,0.00,0.00,6023,5971,5462,5,15,0,66,100,0
6011,5958,5454,-7,-9,-6,10240,-1.00,-1.00,0.00,0.00,6023,5970,5462,5,15,0,66,100,0
6010,5955,5452,-9,-12,-8,10240,-1.00,-1.00,0.00,0.00,6022,5970,5462,5,15,0,66,100,0
6011,5956,5452,-10,-13,-8,10240,-1.00,-1.00,0.00,0.00,6022,5969,5461,5,15,0,66,100,0
6015,5960,5456,-10,-12,-8,10240,-1.00,-1.00,0.00,0.00,6021,5969,5461,5,15,0,58,100,0
6013,5958,5453,-9,-12,-8,10240,-1.00,-1.00,0.00,0.00,6021,5969,5461,5,15,0,58,100,0
6012,5958,5453,-8,-10,-7,10240,-1.00,-1.00,0.00,0.00,6021,5968,5461,5,15,0,58,100,0
6015,5960,5455,-7,-9,-6,10240,-1.00,-1.00,0.00,0.00,6021,5968,5461,5,15,0,58,100,0
6015,5960,5456,-7,-9,-6,10240,-1.00,-1.00,0.00,0.00,6021,5968,5460,5,15,0,58,100,0
6018,5964,5458,-5,-7,-5,10240,-1.00,-1.00,0.00,0.00,6020,5968,5460,5,15,0,58,100,0
6018,5964,5458,-4,-6,-3,10240,-1.00,-1.00,0.00,0.00,6020,5968,5460,5,15,0,58,100,0
6018,5964,5458,-3,-4,-2,10240,-1.00,-1.00,0.00,0.00,6020,5967,5460,5,15,0,58,100,0
6018,5965,5458,-2,-3,-2,10240,-1.00,-1.00,0.00,0.00,6020,5967,5460,5,15,0,58,100,0
6020,5966,5461,-1,-2,-1,10240,-1.00,-1.00,0.00,0.00,6020,5967,5460,5,15,0,58,100,0
6019,5967,5460,-1,-1,0,10240,-1.00,-1.00,0.00,0.00,6020,5967,5460,5,15,0,58,100,0
6017,5964,5459,-1,-1,0,10240,-1.00,-1.00,0.00,0.00,6020,5967,5460,5,15,0,58,100,0
6013,5962,5456,-2,-2,-1,10240,-1.00,-1.00,0.00,0.00,6020,5967,5460,5,15,0,58,100,0
6010,5958,5455,-5,-4,-2,10240,-1.00,-1.00,0.00,0.00,6020,5967,5460,5,15,0,58,100,0
6009,5958,5455,-7,-6,-3,10240,-1.00,-1.00,0.00,0.00,6019,5966,5460,5,15,0,58,100,0
6010,5960,5456,-9,-7,-4,10240,-1.00,-1.00,0.00,0.00,6019,5966,5460,5,15,0,58,100,0
6006,5957,5454,-10,-8,-4,10240,-1.00,-1.00,0.00,0.00,6018,5966,5459,5,15,0,58,100,0
6007,5957,5453,-10,-8,-5,10240,-1.00,-1.00,0.00,0.00,6018,5966,5459,5,15,0,58,100,0
6008,5960,5455,-10,-7,-4,10240,-1.00,-1.00,0.00,0.00,6018,5965,5459,5,15,0,58,100,0
6009,5960,5455,-10,-7,-4,10240,-1.00,-1.00,0.00,0.00,6017,5965,5459,5,15,0,58,100,0
6009,5961,5455,-9,-5,-4,10240,-1.00,-1.00,0.00,0.00,6017,5965,5459,5,15,0,58,100,0
6011,5964,5458,-8,-3,-3,10240,-1.00,-1.00,0.00,0.00,6017,5965,5459,5,15,0,58,100,0
6012,5963,5457,-6,-3,-2,10240,-1.00,-1.00,0.00,0.00,6017,5965,5459,5,15,0,58,100,0
6010,5960,5456,-6,-3,-2,10240,-1.00,-1.00,0.00,0.00,6017,5965,5459,5,15,0,58,100,0
6009,5958,5454,-6,-3,-2,10240,-1.00,-1.00,0.00,0.00,6016,5965,5458,5,15,0,58,100,0
6007,5955,5453,-7,-5,-3,10240,-1.00,-1.00,0.00,0.00,6016,5964,5458,5,15,0,58,100,0
6003,5951,5451,-9,-8,-4,10240,-1.00,-1.00,0.00,0.00,6016,5964,5458,5,15,0,58,100,0
6000,5948,5448,-11,-11,-6,10240,-1.00,-1.00,0.00,0.00,6015,5963,5458,5,15,0,58,100,0
5997,5943,5446,-13,-14,-8,10240,-1.00,-1.00,0.00,0.00,6014,5963,5457,5,15,0,58,100,0
5994,5940,5445,-16,-17,-10,10240,-1.00,-1.00,0.00,0.00,6014,5962,5457,5,15,0,58,100,0
5993,5939,5442,-18,-19,-11,10240,-1.00,-1.00,0.00,0.00,6013,5961,5456,5,15,0,58,100,0
5990,5934,5442,-19,-22,-12,10240,-1.00,-1.00,0.00,0.00,6012,5960,5456,5,15,0,58,100,0
5991,5935,5442,-20,-23,-13,10240,-1.00,-1.00,0.00,0.00,6012,5959,5455,5,15,0,58,100,0
5990,5933,5442,-21,-24,-13,10240,-1.00,-1.00,0.00,0.00,6011,5959,5455,5,15,0,58,100,0
5988,5932,5441,-21,-25,-13,10240,-1.00,-1.00,0.00,0.00,6010,5958,5454,5,15,0,58,100,0
5987,5931,5440,-21,-25,-13,10240,-1.00,-1.00,0.00,0.00,6009,5957,5454,5,15,0,58,100,0
5986,5931,5440,-22,-25,-13,10240,-1.00,-1.00,0.00,0.00,6009,5956,5454,5,15,0,58,100,0
5985,5931,5441,-22,-25,-13,10240,-1.00,-1.00,0.00,0.00,6008,5955,5453,5,15,0,58,100,0
5983,5932,5441,-23,-24,-13,10240,-1.00,-1.00,0.00,0.00,6007,5954,5453,5,15,0,58,100,0
5984,5931,5442,-23,-23,-12,10240,-1.00,-1.00,0.00,0.00,6006,5953,5452,5,15,0,58,100,0
5983,5932,5441,-22,-22,-11,10240,-1.00,-1.00,0.00,0.00,6005,5953,5452,5,15,0,58,100,0
5984,5933,5442,-22,-21,-10,10240,-1.00,-1.00,0.00,0.00,6005,5952,5452,5,15,0,58,100,0
5985,5935,5444,-21,-19,-9,10240,-1.00,-1.00,0.00,0.00,6004,5952,5451,5,15,0,58,100,0
5986,5935,5444,-19,-18,-8,10240,-1.00,-1.00,0.00,0.00,6003,5951,5451,5,15,0,58,100,0
5985,5935,5444,-18,-16,-7,10240,-1.00,-1.00,0.00,0.00,6003,5950,5451,5,15,0,58,100,0
5986,5937,5445,-17,-15,-6,10240,-1.00,-1.00,0.00,0.00,6002,5950,5451,5,15,0,58,100,0
5988,5937,5444,-16,-14,-6,10240,-1.00,-1.00,0.00,0.00,6002,5950,5450,5,15,0,58,100,0
5991,5942,5448,-14,-12,-5,10240,-1.00,-1.00,0.00,0.00,6001,5949,5450,5,15,0,58,100,0
5991,5944,5449,-12,-9,-3,10240,-1.00,-1.00,0.00,0.00,6001,5949,5450,5,15,0,58,100,0
5990,5945,5449,-11,-7,-2,10240,-1.00,-1.00,0.00,0.00,6001,5949,5450,5,15,0,58,100,0
5991,5945,5451,-10,-5,0,10240,-1.00,-1.00,0.00,0.00,6000,5949,5450,5,15,0,58,100,0
5993,5946,5452,-9,-4,0,10240,-1.00,-1.00,0.00,0.00,6000,5949,5450,5,15,0,58,100,0
5996,5947,5454,-7,-3,1,10240,-1.00,-1.00,0.00,0.00,6000,5949,5451,5,15,0,58,100,0
5996,5949,5453,-6,-2,2,10240,-1.00,-1.00,0.00,0.00,6000,5949,5451,5,15,0,58,100,0
5995,5948,5452,-5,-1,2,10240,-1.00,-1.00,0.00,0.00,6000,5949,5451,5,15,0,58,100,0
5992,5948,5451,-5,-1,1,10240,-1.00,-1.00,0.00,0.00,5999,5949,5451,5,15,0,58,100,0
5990,5944,5450,-6,-1,0,10240,-1.00,-1.00,0.00,0.00,5999,5948,5451,5,15,0,58,100,0
5985,5938,5446,-8,-4,-1,10240,-1.00,-1.00,0.00,0.00,5999,5948,5450,5,17,0,58,100,0
5981,5934,5444,-11,-7,-2,10240,-1.00,-1.00,0.00,0.00,5998,5948,5450,5,17,0,58,100,0
5976,5930,5442,-15,-11,-4,10240,-1.00,-1.00,0.00,0.00,5997,5947,5450,5,17,0,58,100,0
5974,5927,5440,-18,-15,-7,10240,-1.00,-1.00,0.00,0.00,5997,5946,5450,5,17,0,58,100,0
5970,5923,5438,-21,-18,-8,10240,-1.00,-1.00,0.00,0.00,5996,5946,5449,5,17,0,58,100,0
5967,5919,5435,-24,-21,-10,10240,-1.00,-1.00,0.00,0.00,5995,5945,5449,5,17,0,58,100,0
5965,5917,5434,-26,-23,-12,10240,-1.00,-1.00,0.00,0.00,5994,5944,5448,5,17,0,58,100,0
5965,5916,5434,-27,-25,-13,10240,-1.00,-1.00,0.00,0.00,5993,5943,5448,5,17,0,58,100,0
5961,5914,5433,-29,-27,-14,10240,-1.00,-1.00,0.00,0.00,5992,5942,5447,5,17,0,58,100,0
5962,5914,5433,-29,-27,-14,10240,-1.00,-1.00,0.00,0.00,5991,5941,5447,5,17,0,58,100,0
5961,5913,5433,-29,-27,-13,10240,-1.00,-1.00,0.00,0.00,5990,5940,5446,5,17,0,58,100,0
5960,5908,5431,-29,-28,-14,10240,-1.00,-1.00,0.00,0.00,5989,5939,5446,5,17,0,58,100,0
5958,5906,5430,-29,-29,-14,10240,-1.00,-1.00,0.00,0.00,5988,5938,5445,5,17,0,58,100,0
5957,5905,5430,-29,-30,-14,10240,-1.00,-1.00,0.00,0.00,5987,5937,5445,5,17,0,58,100,0
5956,5905,5430,-29,-31,-14,10240,-1.00,-1.00,0.00,0.00,5986,5936,5444,5,17,0,58,100,0
5958,5906,5432,-29,-31,-14,10240,-1.00,-1.00,0.00,0.00,5985,5935,5444,5,17,0,58,100,0
5958,5907,5433,-28,-29,-13,10240,-1.00,-1.00,0.00,0.00,5984,5934,5444,5,17,0,58,100,0
5959,5908,5433,-26,-28,-11,10240,-1.00,-1.00,0.00,0.00,5983,5933,5443,5,17,0,58,100,0
5958,5907,5432,-25,-26,-11,10240,-1.00,-1.00,0.00,0.00,5982,5932,5443,5,17,0,58,100,0
5960,5909,5434,-23,-24,-10,10240,-1.00,-1.00,0.00,0.00,5981,5931,5443,5,17,0,58,100,0
5961,5912,5435,-22,-22,-9,10240,-1.00,-1.00,0.00,0.00,5981,5931,5442,5,17,0,58,100,0
5964,5915,5437,-20,-20,-8,10240,-1.00,-1.00,0.00,0.00,5980,5930,5442,5,17,0,58,100,0
5964,5914,5436,-18,-18,-6,10240,-1.00,-1.00,0.00,0.00,5980,5930,5442,5,17,0,58,100,0
5966,5916,5437,-16,-15,-5,10240,-1.00,-1.00,0.00,0.00,5979,5929,5442,5,17,0,58,100,0
5968,5920,5439,-14,-13,-4,10240,-1.00,-1.00,0.00,0.00,5979,5929,5442,5,17,0,58,100,0
5971,5923,5442,-11,-11,-3,10240,-1.00,-1.00,0.00,0.00,5978,5929,5442,5,17,0,58,100,0
5973,5923,5441,-9,-8,-2,10240,-1.00,-1.00,0.00,0.00,5978,5928,5442,5,17,0,58,100,0
5973,5924,5441,-7,-6,-1,10240,-1.00,-1.00,0.00,0.00,5978,5928,5442,5,17,0,58,100,0
5975,5925,5442,-5,-4,0,10240,-1.00,-1.00,0.00,0.00,5978,5928,5442,5,17,0,58,100,0
5975,5924,5441,-4,-4,0,10240,-1.00,-1.00,0.00,0.00,5978,5928,5442,5,17,0,58,100,0
5973,5922,5441,-4,-4,0,10240,-1.00,-1.00,0.00,0.00,5978,5928,5442,5,17,0,58,100,0
5972,5919,5439,-4,-5,-1,10240,-1.00,-1.00,0.00,0.00,5978,5928,5441,5,20,0,58,100,0
5972,5917,5438,-4,-7,-1,10240,-1.00,-1.00,0.00,0.00,5977,5927,5441,5,20,0,58,100,0
5968,5914,5436,-6,-9,-2,10240,-1.00,-1.00,0.00,0.00,5977,5927,5441,10,20,0,58,100,0
5964,5910,5434,-8,-12,-4,10240,-1.00,-1.00,0.00,0.00,5977,5926,5441,10,20,0,58,100,0
5964,5909,5433,-9,-14,-5,10240,-1.00,-1.00,0.00,0.00,5976,5926,5441,10,20,0,58,100,0
5964,5907,5433,-11,-16,-6,10240,-1.00,-1.00,0.00,0.00,5976,5925,5440,10,20,0,58,100,0
5963,5905,5431,-12,-17,-7,10240,-1.00,-1.00,0.00,0.00,5975,5924,5440,10,20,0,57,100,0
5962,5907,5431,-12,-17,-8,10240,-1.00,-1.00,0.00,0.00,5975,5924,5440,10,20,0,57,100,0
5962,5906,5432,-12,-17,-8,10240,-1.00,-1.00,0.00,0.00,5975,5923,5440,10,20,0,57,100,0
5964,5908,5432,-12,-17,-8,10240,-1.00,-1.00,0.00,0.00,5974,5923,5439,10,20,0,57,100,0
5963,5907,5434,-11,-16,-7,10240,-1.00,-1.00,0.00,0.00,5974,5922,5439,10,20,0,57,100,0
5965,5907,5433,-10,-15,-6,10240,-1.00,-1.00,0.00,0.00,5973,5922,5439,10,20,0,57,100,0
5963,5907,5434,-9,-14,-5,10240,-1.00,-1.00,0.00,0.00,5973,5921,5439,10,20,0,57,100,0
5965,5911,5434,-9,-13,-5,10240,-1.00,-1.00,0.00,0.00,5973,5921,5439,10,20,0,57,100,0
5967,5911,5436,-8,-12,-4,10240,-1.00,-1.00,0.00,0.00,5973,5920,5438,10,20,0,57,100,0
5969,5913,5435,-7,-10,-3,10240,-1.00,-1.00,0.00,0.00,5973,5920,5438,10,20,0,57,100,0
5971,5915,5439,-4,-7,-2,10240,-1.00,-1.00,0.00,0.00,5972,5920,5438,10,20,0,57,100,0
5972,5917,5440,-2,-6,0,10240,-1.00,-1.00,0.00,0.00,5972,5920,5438,10,20,0,57,100,0
5974,5919,5440,-1,-4,0,10240,-1.00,-1.00,0.00,0.00,5973,5920,5439,10,20,0,57,100,0
5975,5922,5442,0,-1,1,10240,-1.00,-1.00,0.00,0.00,5973,5920,5439,10,20,0,57,100,0
5976,5923,5443,1,0,2,10240,-1.00,-1.00,0.00,0.00,5973,5920,5439,10,20,0,57,100,0
5979,5928,5445,3,3,3,10240,-1.00,-1.00,0.00,0.00,5973,5920,5439,10,20,0,57,100,0
5981,5930,5446,4,5,5,10240,-1.00,-1.00,0.00,0.00,5973,5921,5439,10,20,0,57,100,0
5982,5931,5446,6,7,6,10240,-1.00,-1.00,0.00,0.00,5973,5921,5439,10,20,0,57,100,0
5984,5933,5449,8,9,7,10240,-1.00,-1.00,0.00,0.00,5974,5921,5440,10,20,0,68,100,0
5985,5935,5451,9,11,8,10240,-1.00,-1.00,0.00,0.00,5974,5922,5440,10,20,0,68,100,0
5988,5938,5453,10,12,9,10240,-1.00,-1.00,0.00,0.00,5975,5922,5441,10,20,0,68,100,0
5989,5942,5453,12,15,11,10240,-1.00,-1.00,0.00,0.00,5975,5923,5441,10,20,0,68,100,0
5991,5943,5454,13,16,12,10240,-1.00,-1.00,0.00,0.00,5976,5924,5441,10,20,0,68,100,0
5991,5943,5453,14,18,12,10240,-1.00,-1.00,0.00,0.00,5976,5924,5442,10,20,0,68,100,0
5991,5944,5454,14,19,12,10240,-1.00,-1.00,0.00,0.00,5977,5925,5442,10,20,0,68,100,0
5991,5943,5454,14,18,11,10240,-1.00,-1.00,0.00,0.00,5977,5926,5443,10,24,0,68,100,0
5989,5942,5452,13,17,10,10240,-1.00,-1.00,0.00,0.00,5978,5926,5443,14,24,0,68,100,0
5986,5938,5451,11,15,10,10240,-1.00,-1.00,0.00,0.00,5978,5927,5443,14,24,0,68,100,0
5985,5937,5449,10,13,8,10240,-1.00,-1.00,0.00,0.00,5978,5927,5443,14,24,0,68,100,0
5982,5934,5448,7,11,6,10240,-1.00,-1.00,0.00,0.00,5978,5927,5444,14,24,0,68,100,0
5981,5931,5446,5,8,5,10240,-1.00,-1.00,0.00,0.00,5978,5927,5444,14,24,0,68,100,0
5981,5932,5447,4,6,3,10240,-1.00,-1.00,0.00,0.00,5978,5927,5444,14,24,0,68,100,0
5980,5931,5447,3,4,3,10240,-1.00,-1.00,0.00,0.00,5978,5928,5444,14,24,0,68,100,0
5981,5931,5446,2,3,2,10240,-1.00,-1.00,0.00,0.00,5979,5928,5444,14,24,0,68,100,0
5982,5933,5448,2,4,3,10240,-1.00,-1.00,0.00,0.00,5979,5928,5444,14,24,0,68,100,0
5984,5935,5449,3,4,3,10240,-1.00,-1.00,0.00,0.00,5979,5928,5444,14,24,0,68,100,0
5985,5935,5450,4,5,4,10240,-1.00,-1.00,0.00,0.00,5979,5928,5444,14,24,0,68,100,0
5985,5936,5450,5,6,5,10240,-1.00,-1.00,0.00,0.00,5979,5929,5445,14,24,0,68,100,0
5986,5936,5450,6,7,5,10240,-1.00,-1.00,0.00,0.00,5979,5929,5445,14,24,0,68,100,0
5986,5937,5451,6,7,5,10240,-1.00,-1.00,0.00,0.00,5980,5929,5445,14,24,0,68,100,0
5989,5940,5450,7,8,5,10240,-1.00,-1.00,0.00,0.00,5980,5929,5445,14,24,0,68,100,0
5991,5941,5453,8,9,6,10240,-1.00,-1.00,0.00,0.00,5980,5930,5445,14,24,0,68,100,0
5990,5941,5454,8,10,6,10240,-1.00,-1.00,0.00,0.00,5981,5930,5446,14,24,0,68,100,0
5992,5943,5456,10,11,7,10240,-1.00,-1.00,0.00,0.00,5981,5931,5446,14,24,0,68,100,0
5994,5946,5456,11,12,9,10240,-1.00,-1.00,0.00,0.00,5981,5931,5446,14,24,0,68,100,0
5994,5946,5456,11,13,9,10240,-1.00,-1.00,0.00,0.00,5982,5932,5447,14,24,0,68,100,0
5999,5955,5461,13,16,10,10240,-1.00,-1.00,0.00,0.00,5982,5932,5447,14,24,0,68,100,0
5999,5955,5460,14,18,11,10240,-1.00,-1.00,0.00,0.00,5983,5933,5448,14,24,0,68,100,0
6001,5958,5461,15,20,12,10240,-1.00,-1.00,0.00,0.00,5984,5934,5448,14,24,0,68,100,0
6005,5962,5464,17,24,13,10240,-1.00,-1.00,0.00,0.00,5984,5935,5449,14,24,0,68,100,0
6007,5964,5465,19,25,14,10240,-1.00,-1.00,0.00,0.00,5985,5936,5449,14,24,0,68,100,0
6010,5970,5468,21,28,15,10240,-1.00,-1.00,0.00,0.00,5986,5937,5450,14,24,0,68,100,0
6010,5968,5467,22,29,16,10240,-1.00,-1.00,0.00,0.00,5987,5938,5450,14,24,0,68,100,0
6013,5973,5468,23,31,17,10240,-1.00,-1.00,0.00,0.00,5988,5939,5451,14,24,0,68,100,0
6014,5972,5469,24,32,17,10240,-1.00,-1.00,0.00,0.00,5988,5940,5451,14,24,0,68,100,0
6015,5973,5469,25,32,17,10240,-1.00,-1.00,0.00,0.00,5989,5941,5452,14,24,0,68,100,0
6014,5972,5469,25,32,17,10240,-1.00,-1.00,0.00,0.00,5990,5942,5453,14,24,0,68,100,0
6013,5971,5467,24,30,16,10240,-1.00,-1.00,0.00,0.00,5991,5943,5453,17,25,0,68,100,0
6010,5970,5465,22,29,14,10240,-1.00,-1.00,0.00,0.00,5992,5944,5454,17,25,0,68,100,0
6008,5968,5465,20,26,13,10240,-1.00,-1.00,0.00,0.00,5992,5945,5454,17,25,0,68,100,0
6005,5964,5462,17,23,11,10240,-1.00,-1.00,0.00,0.00,5993,5946,5454,17,25,0,68,100,0
6001,5959,5458,13,20,8,10240,-1.00,-1.00,0.00,0.00,5993,5946,5454,17,25,0,68,100,0
6001,5958,5458,11,16,6,10240,-1.00,-1.00,0.00,0.00,5993,5947,5454,17,25,0,68,100,0
6000,5958,5457,8,13,4,10240,-1.00,-1.00,0.00,0.00,5993,5947,5455,17,25,0,68,100,0
6000,5957,5456,7,11,2,10240,-1.00,-1.00,0.00,0.00,5994,5947,5455,17,25,0,68,100,0
5997,5956,5457,6,10,2,10240,-1.00,-1.00,0.00,0.00,5994,5948,5455,17,25,0,68,100,0
5999,5960,5459,5,10,2,10240,-1.00,-1.00,0.00,0.00,5994,5948,5455,17,25,0,68,100,0
5999,5961,5459,4,10,2,10240,-1.00,-1.00,0.00,0.00,5994,5948,5455,17,25,0,68,100,0
6002,5964,5461,5,12,4,10240,-1.00,-1.00,0.00,0.00,5994,5949,5455,17,25,0,68,100,0
6002,5967,5462,6,14,5,10240,-1.00,-1.00,0.00,0.00,5995,5950,5455,17,25,0,68,100,0
6004,5968,5463,7,15,6,10240,-1.00,-1.00,0.00,0.00,5995,5950,5456,17,25,0,68,100,0
6007,5969,5464,9,17,7,10240,-1.00,-1.00,0.00,0.00,5995,5951,5456,17,25,0,68,100,0
6008,5971,5466,10,18,8,10240,-1.00,-1.00,0.00,0.00,5996,5951,5456,17,25,0,68,100,0
6009,5974,5468,11,19,9,10240,-1.00,-1.00,0.00,0.00,5996,5952,5457,17,25,0,68,100,0
6011,5977,5469,12,21,10,10240,-1.00,-1.00,0.00,0.00,5997,5953,5457,17,25,0,68,100,0
6012,5978,5470,13,22,11,10240,-1.00,-1.00,0.00,0.00,5997,5954,5457,17,25,0,68,100,0
6012,5982,5470,14,24,12,10240,-1.00,-1.00,0.00,0.00,5998,5955,5458,17,25,0,68,100,0
6016,5987,5474,15,26,13,10240,-1.00,-1.00,0.00,0.00,5998,5956,5458,17,25,0,68,100,0
6016,5988,5473,16,28,13,10240,-1.00,-1.00,0.00,0.00,5999,5957,5459,17,25,0,68,100,0
6016,5986,5474,16,29,14,10240,-1.00,-1.00,0.00,0.00,5999,5958,5459,17,25,0,68,100,0
6020,5989,5476,18,30,15,10240,-1.00,-1.00,0.00,0.00,6000,5959,5460,17,25,0,68,100,0
6021,5993,5477,18,30,15,10240,-1.00,-1.00,0.00,0.00,6001,5960,5461,17,25,0,68,100,0
6025,5996,5479,20,31,16,10240,-1.00,-1.00,0.00,0.00,6002,5961,5461,17,25,0,68,100,0
6026,5998,5480,21,33,17,10240,-1.00,-1.00,0.00,0.00,6002,5963,5462,17,25,0,68,100,0
6029,5999,5481,23,34,17,10240,-1.00,-1.00,0.00,0.00,6003,5964,5462,17,25,0,68,100,0
6027,6000,5481,24,35,18,10240,-1.00,-1.00,0.00,0.00,6004,5965,5463,17,25,0,68,100,0
6026,6002,5482,23,35,18,10240,-1.00,-1.00,0.00,0.00,6005,5966,5464,17,25,0,68,100,0
6031,6003,5482,23,35,18,10240,-1.00,-1.00,0.00,0.00,6006,5967,5464,17,25,0,68,100,0
6029,6001,5482,23,34,17,10240,-1.00,-1.00,0.00,0.00,6006,5969,5465,17,25,0,68,100,0
6029,5999,5480,22,33,17,10240,-1.00,-1.00,0.00,0.00,6007,5970,5465,17,25,0,68,100,0
6030,6000,5480,23,31,16,10240,-1.00,-1.00,0.00,0.00,6008,5971,5466,17,25,0,68,100,0
6025,5995,5477,20,28,14,10240,-1.00,-1.00,0.00,0.00,6009,5971,5466,17,25,0,68,100,0
6023,5990,5475,18,25,12,10240,-1.00,-1.00,0.00,0.00,6009,5972,5467,17,25,0,68,100,0
6021,5989,5474,16,21,10,10240,-1.00,-1.00,0.00,0.00,6009,5973,5467,17,25,0,68,100,0
6020,5986,5474,13,17,8,10240,-1.00,-1.00,0.00,0.00,6010,5973,5467,17,25,0,68,100,0
6020,5987,5473,11,15,7,10240,-1.00,-1.00,0.00,0.00,6010,5973,5467,17,25,0,68,100,0
6019,5986,5472,10,13,6,10240,-1.00,-1.00,0.00,0.00,6010,5974,5467,17,25,0,68,100,0
6021,5987,5474,9,13,6,10240,-1.00,-1.00,0.00,0.00,6011,5974,5468,17,25,0,68,100,0
6021,5988,5473,9,13,5,10240,-1.00,-1.00,0.00,0.00,6011,5975,5468,17,25,0,68,100,0
6021,5987,5473,9,12,5,10240,-1.00,-1.00,0.00,0.00,6011,5975,5468,17,25,0,68,100,0
6022,5987,5472,10,12,5,10240,-1.00,-1.00,0.00,0.00,6012,5976,5468,17,25,0,68,100,0
6022,5988,5472,10,12,4,10240,-1.00,-1.00,0.00,0.00,6012,5976,5468,17,25,0,68,100,0
6024,5988,5472,10,11,4,10240,-1.00,-1.00,0.00,0.00,6013,5976,5468,17,25,0,68,100,0
6026,5990,5474,11,12,4,10240,-1.00,-1.00,0.00,0.00,6013,5977,5469,17,25,0,68,100,0
6026,5989,5475,11,12,4,10240,-1.00,-1.00,0.00,0.00,6013,5977,5469,17,25,0,68,100,0
6025,5990,5474,12,12,5,10240,-1.00,-1.00,0.00,0.00,6014,5978,5469,17,25,0,68,100,0
6027,5991,5476,12,12,5,10240,-1.00,-1.00,0.00,0.00,6014,5978,5469,17,25,0,68,100,0
6028,5994,5477,12,13,6,10240,-1.00,-1.00,0.00,0.00,6015,5979,5469,17,25,0,68,100,0
6032,5999,5480,13,15,7,10240,-1.00,-1.00,0.00,0.00,6015,5979,5470,17,25,0,68,100,0
6032,6001,5481,14,17,9,10240,-1.00,-1.00,0.00,0.00,6016,5980,5470,17,25,0,68,100,0
6033,6004,5481,15,19,10,10240,-1.00,-1.00,0.00,0.00,6016,5981,5470,17,25,0,68,100,0
6036,6005,5483,17,21,11,10240,-1.00,-1.00,0.00,0.00,6017,5982,5471,17,25,0,68,100,0
6037,6008,5484,17,23,11,10240,-1.00,-1.00,0.00,0.00,6018,5983,5471,17,25,0,68,100,0
6040,6013,5487,19,25,12,10240,-1.00,-1.00,0.00,0.00,6018,5984,5472,17,25,0,68,100,0
6041,6014,5487,20,26,13,10240,-1.00,-1.00,0.00,0.00,6019,5985,5472,17,25,0,68,100,0
6043,6016,5488,21,28,14,10240,-1.00,-1.00,0.00,0.00,6020,5986,5473,17,25,0,68,100,0
6046,6020,5490,23,30,15,10240,-1.00,-1.00,0.00,0.00,6021,5987,5473,17,25,0,68,100,0
6051,6022,5491,24,31,16,10240,-1.00,-1.00,0.00,0.00,6022,5988,5474,17,25,0,68,100,0
6053,6023,5492,26,32,16,10240,-1.00,-1.00,0.00,0.00,6023,5989,5475,17,25,0,68,100,0
6052,6024,5492,28,33,17,10240,-1.00,-1.00,0.00,0.00,6024,5990,5475,17,25,0,68,100,0
6050,6021,5491,28,33,16,10240,-1.00,-1.00,0.00,0.00,6025,5991,5476,17,25,0,68,100,0
6048,6018,5488,26,31,15,10240,-1.00,-1.00,0.00,0.00,6026,5992,5476,17,24,0,68,100,0
6046,6017,5488,23,28,13,10240,-1.00,-1.00,0.00,0.00,6026,5993,5477,17,24,0,68,100,0
6041,6012,5485,20,24,11,10240,-1.00,-1.00,0.00,0.00,6027,5994,5477,17,24,0,68,100,0
6040,6009,5483,17,20,9,10240,-1.00,-1.00,0.00,0.00,6027,5994,5477,17,24,0,68,100,0
6038,6009,5483,14,17,7,10240,-1.00,-1.00,0.00,0.00,6028,5995,5477,17,24,0,68,100,0
6041,6011,5483,12,15,6,10240,-1.00,-1.00,0.00,0.00,6028,5995,5477,17,24,0,68,100,0
6038,6009,5483,11,14,5,10240,-1.00,-1.00,0.00,0.00,6028,5996,5478,17,24,0,68,100,0
6041,6011,5482,11,14,5,10240,-1.00,-1.00,0.00,0.00,6029,5996,5478,17,24,0,68,100,0
6040,6010,5483,11,14,5,10240,-1.00,-1.00,0.00,0.00,6029,5997,5478,17,24,0,68,100,0
6039,6008,5482,10,13,4,10240,-1.00,-1.00,0.00,0.00,6029,5997,5478,17,24,0,68,100,0
6041,6011,5482,11,13,4,10240,-1.00,-1.00,0.00,0.00,6030,5997,5478,17,24,0,68,100,0
6042,6011,5484,11,12,4,10240,-1.00,-1.00,0.00,0.00,6030,5998,5478,17,24,0,68,100,0
6046,6015,5485,12,13,5,10240,-1.00,-1.00,0.00,0.00,6031,5998,5479,17,24,0,68,100,0
6048,6017,5487,13,15,6,10240,-1.00,-1.00,0.00,0.00,6031,5999,5479,17,24,0,68,100,0
6048,6016,5487,15,16,7,10240,-1.00,-1.00,0.00,0.00,6032,6000,5479,17,24,0,68,100,0
6049,6016,5488,16,16,7,10240,-1.00,-1.00,0.00,0.00,6032,6000,5479,17,24,0,68,100,0
6051,6018,5489,17,16,8,10240,-1.00,-1.00,0.00,0.00,6033,6001,5480,17,24,0,68,100,0
6053,6020,5490,17,17,9,10240,-1.00,-1.00,0.00,0.00,6034,6001,5480,17,24,0,68,100,0
6057,6020,5491,19,17,9,10240,-1.00,-1.00,0.00,0.00,6035,6002,5481,17,24,0,68,100,0
6055,6020,5490,19,17,9,10240,-1.00,-1.00,0.00,0.00,6035,6003,5481,17,24,0,68,100,0
6056,6020,5491,20,17,9,10240,-1.00,-1.00,0.00,0.00,6036,6003,5481,17,24,0,68,100,0
6057,6023,5491,20,17,9,10240,-1.00,-1.00,0.00,0.00,6037,6004,5481,17,24,0,68,100,0
6057,6025,5492,20,18,9,10240,-1.00,-1.00,0.00,0.00,6037,6005,5482,17,24,0,68,100,0
6060,6032,5495,20,20,10,10240,-1.00,-1.00,0.00,0.00,6038,6005,5482,17,24,0,68,100,0
6063,6036,5497,21,24,11,10240,-1.00,-1.00,0.00,0.00,6039,6006,5483,17,24,0,68,100,0
6063,6038,5498,22,26,13,10240,-1.00,-1.00,0.00,0.00,6040,6008,5483,17,24,0,68,100,0
6069,6043,5500,24,30,14,10240,-1.00,-1.00,0.00,0.00,6041,6009,5484,17,24,0,68,100,0
6070,6045,5500,25,32,15,10240,-1.00,-1.00,0.00,0.00,6042,6010,5484,17,24,0,68,100,0
6069,6044,5501,26,33,15,10240,-1.00,-1.00,0.00,0.00,6042,6011,5485,17,24,0,68,100,0
6072,6047,5500,28,34,15,10240,-1.00,-1.00,0.00,0.00,6043,6012,5485,17,24,0,68,100,0
6070,6046,5500,27,34,15,10240,-1.00,-1.00,0.00,0.00,6044,6013,5486,17,24,0,68,100,0
6067,6043,5499,26,32,14,10240,-1.00,-1.00,0.00,0.00,6045,6014,5486,17,24,0,68,100,0
6067,6043,5499,24,31,13,10240,-1.00,-1.00,0.00,0.00,6046,6015,5487,17,24,0,68,100,0
6064,6040,5497,21,28,12,10240,-1.00,-1.00,0.00,0.00,6046,6016,5487,17,24,0,68,100,0
6060,6037,5495,18,25,10,10240,-1.00,-1.00,0.00,0.00,6047,6017,5487,17,24,0,68,100,0
6062,6036,5494,16,22,9,10240,-1.00,-1.00,0.00,0.00,6047,6018,5488,17,24,0,68,100,0
6060,6034,5493,14,19,7,10240,-1.00,-1.00,0.00,0.00,6048,6018,5488,17,24,0,68,100,0
6062,6033,5492,13,17,5,10240,-1.00,-1.00,0.00,0.00,6048,6019,5488,17,24,0,68,100,0
6061,6031,5493,13,15,5,10240,-1.00,-1.00,0.00,0.00,6049,6019,5488,17,24,0,68,100,0
6064,6033,5493,13,14,4,10240,-1.00,-1.00,0.00,0.00,6049,6019,5488,17,24,0,68,100,0
6061,6031,5492,13,12,4,10240,-1.00,-1.00,0.00,0.00,6050,6020,5488,17,24,0,68,100,0
6064,6033,5493,13,12,4,10240,-1.00,-1.00,0.00,0.00,6050,6020,5489,17,24,0,68,100,0
6066,6033,5494,13,12,4,10240,-1.00,-1.00,0.00,0.00,6051,6021,5489,17,24,0,68,100,0
6068,6038,5496,14,13,5,10240,-1.00,-1.00,0.00,0.00,6051,6021,5489,17,24,0,68,100,0
6074,6045,5499,17,16,6,10240,-1.00,-1.00,0.00,0.00,6052,6022,5489,17,24,0,68,100,0
6073,6046,5500,18,18,8,10240,-1.00,-1.00,0.00,0.00,6053,6023,5490,17,24,0,68,100,0
6078,6050,5502,20,22,9,10240,-1.00,-1.00,0.00,0.00,6054,6024,5490,17,24,0,68,100,0
6075,6049,5502,21,24,11,10240,-1.00,-1.00,0.00,0.00,6054,6025,5490,17,24,0,68,100,0
6079,6053,5504,22,25,11,10240,-1.00,-1.00,0.00,0.00,6055,6026,5491,17,24,0,68,100,0
6080,6057,5505,23,26,12,10240,-1.00,-1.00,0.00,0.00,6056,6027,5491,17,24,0,68,100,0
6083,6059,5506,23,28,13,10240,-1.00,-1.00,0.00,0.00,6057,6028,5492,17,24,0,68,100,0
6079,6057,5506,23,29,13,10240,-1.00,-1.00,0.00,0.00,6058,6029,5492,17,24,0,68,100,0
6085,6065,5507,24,31,14,10240,-1.00,-1.00,0.00,0.00,6058,6030,5493,17,24,0,68,100,0
6088,6070,5508,25,33,14,10240,-1.00,-1.00,0.00,0.00,6059,6031,5493,17,24,0,68,100,0
6098,6080,5512,28,37,15,10240,-1.00,-1.00,0.00,0.00,6061,6033,5494,17,24,0,68,100,0
6113,6101,5515,36,46,16,10240,-1.00,-1.00,0.00,0.00,6062,6035,5495,17,24,0,68,100,0
6128,6121,5517,45,58,18,10240,-1.00,-1.00,0.00,0.00,6065,6038,5495,17,24,0,68,100,0
6123,6115,5517,51,67,20,10240,-1.00,-1.00,0.00,0.00,6067,6040,5496,17,24,0,68,100,0
6127,6118,5519,57,74,21,10240,-1.00,-1.00,0.00,0.00,6069,6043,5497,17,24,0,68,100,0
6132,6125,5524,59,78,22,10240,-1.00,-1.00,0.00,0.00,6071,6046,5498,17,24,0,68,100,0
6122,6113,5524,56,73,23,10240,-1.00,-1.00,0.00,0.00,6072,6048,5499,24,34,0,68,100,0
6125,6116,5522,55,71,24,10240,-1.00,-1.00,0.00,0.00,6074,6050,5499,24,34,0,68,100,0
6128,6120,5522,53,69,24,10240,-1.00,-1.00,0.00,0.00,6076,6053,5500,24,34,0,68,100,0
6128,6120,5519,50,65,22,10240,-1.00,-1.00,0.00,0.00,6078,6055,5501,24,34,0,68,100,0
6120,6109,5516,48,62,19,10240,-1.00,-1.00,0.00,0.00,6079,6057,5501,24,34,0,68,100,0
6116,6103,5513,44,57,16,10240,-1.00,-1.00,0.00,0.00,6080,6058,5502,24,34,0,68,100,0
6105,6088,5511,37,47,13,10240,-1.00,-1.00,0.00,0.00,6081,6059,5502,24,34,0,68,100,0
6098,6079,5510,29,36,10,10240,-1.00,-1.00,0.00,0.00,6082,6060,5502,24,34,0,68,100,0
6095,6075,5509,22,27,8,10240,-1.00,-1.00,0.00,0.00,6082,6060,5503,24,34,0,68,100,0
6093,6073,5508,15,18,7,10240,-1.00,-1.00,0.00,0.00,6083,6061,5503,24,34,0,68,100,0
6100,6082,5508,14,16,6,10240,-1.00,-1.00,0.00,0.00,6083,6061,5503,24,34,0,68,100,0
6093,6074,5509,12,15,5,10240,-1.00,-1.00,0.00,0.00,6083,6062,5503,24,34,0,68,100,0
6096,6077,5508,12,15,5,10240,-1.00,-1.00,0.00,0.00,6084,6062,5503,24,34,0,68,100,0
6094,6075,5508,12,15,5,10240,-1.00,-1.00,0.00,0.00,6084,6063,5503,24,34,0,68,100,0
6100,6083,5511,11,14,5,10240,-1.00,-1.00,0.00,0.00,6085,6064,5504,24,34,0,68,100,0
6100,6082,5512,13,16,6,10240,-1.00,-1.00,0.00,0.00,6085,6064,5504,24,34,0,68,100,0
6105,6088,5513,14,18,7,10240,-1.00,-1.00,0.00,0.00,6086,6065,5504,24,34,0,68,100,0
6110,6095,5513,18,22,8,10240,-1.00,-1.00,0.00,0.00,6087,6066,5505,24,34,0,68,100,0
6112,6095,5514,20,24,8,10240,-1.00,-1.00,0.00,0.00,6088,6067,5505,24,34,0,68,100,0
6116,6103,5515,23,28,9,10240,-1.00,-1.00,0.00,0.00,6088,6068,5505,24,34,0,68,100,0
6125,6114,5517,27,34,9,10240,-1.00,-1.00,0.00,0.00,6090,6070,5506,24,34,0,68,100,0
6123,6112,5515,29,37,9,10240,-1.00,-1.00,0.00,0.00,6091,6071,5506,24,34,0,68,100,0
6119,6108,5516,30,39,10,10240,-1.00,-1.00,0.00,0.00,6092,6072,5506,24,34,0,68,100,0
6123,6112,5518,31,39,10,10240,-1.00,-1.00,0.00,0.00,6093,6074,5507,24,34,0,68,100,0
6135,6129,5518,32,42,10,10240,-1.00,-1.00,0.00,0.00,6094,6075,5507,24,34,0,68,100,0
6135,6130,5520,34,45,11,10240,-1.00,-1.00,0.00,0.00,6096,6077,5507,24,34,0,68,100,0
6132,6125,5521,36,47,12,10240,-1.00,-1.00,0.00,0.00,6097,6079,5508,24,34,0,68,100,0
6123,6114,5521,35,46,12,10240,-1.00,-1.00,0.00,0.00,6098,6080,5508,24,34,0,68,100,0
6128,6120,5522,32,43,13,10240,-1.00,-1.00,0.00,0.00,6099,6081,5509,24,34,0,68,100,0
6117,6103,5521,26,35,12,10240,-1.00,-1.00,0.00,0.00,6099,6082,5509,24,34,0,68,100,0
6124,6113,5523,24,31,12,10240,-1.00,-1.00,0.00,0.00,6100,6083,5510,24,34,0,68,100,0
6120,6106,5522,22,28,12,10240,-1.00,-1.00,0.00,0.00,6101,6084,5510,24,34,0,68,100,0
6127,6118,5521,21,26,12,10240,-1.00,-1.00,0.00,0.00,6102,6085,5510,24,34,0,68,100,0
6126,6116,5520,23,28,11,10240,-1.00,-1.00,0.00,0.00,6102,6086,5511,24,34,0,68,100,0
6131,6123,5518,24,30,9,10240,-1.00,-1.00,0.00,0.00,6103,6087,5511,24,34,0,68,100,0
6119,6104,5514,23,28,7,10240,-1.00,-1.00,0.00,0.00,6104,6088,5511,24,34,0,68,100,0
6107,6088,5509,17,20,4,10240,-1.00,-1.00,0.00,0.00,6104,6088,5511,24,34,0,68,100,0
6100,6078,5507,10,10,1,10240,-1.00,-1.00,0.00,0.00,6104,6088,5511,24,34,0,68,100,0
6098,6076,5506,2,-1,-2,10240,-1.00,-1.00,0.00,0.00,6104,6087,5511,24,34,0,68,100,0
6089,6066,5503,-5,-10,-4,10240,-1.00,-1.00,0.00,0.00,6103,6086,5510,24,34,0,68,100,0
6091,6066,5503,-9,-15,-5,10240,-1.00,-1.00,0.00,0.00,6103,6086,5510,24,34,0,68,100,0
6092,6068,5503,-10,-17,-6,10240,-1.00,-1.00,0.00,0.00,6102,6085,5510,24,34,0,68,100,0
6092,6068,5503,-11,-18,-7,10240,-1.00,-1.00,0.00,0.00,6102,6085,5510,24,34,0,68,100,0
6091,6066,5503,-10,-18,-7,10240,-1.00,-1.00,0.00,0.00,6102,6084,5510,24,34,0,68,100,0
6094,6068,5504,-9,-16,-6,10240,-1.00,-1.00,0.00,0.00,6101,6083,5509,24,34,0,68,100,0
6094,6068,5504,-8,-16,-6,10240,-1.00,-1.00,0.00,0.00,6101,6083,5509,24,34,0,68,100,0
6095,6069,5505,-7,-15,-5,10240,-1.00,-1.00,0.00,0.00,6101,6082,5509,24,34,0,68,100,0
6099,6072,5504,-5,-13,-4,10240,-1.00,-1.00,0.00,0.00,6101,6082,5509,24,34,0,68,100,0
6100,6071,5506,-4,-12,-4,10240,-1.00,-1.00,0.00,0.00,6101,6082,5509,24,34,0,68,100,0
6099,6072,5504,-2,-10,-4,10240,-1.00,-1.00,0.00,0.00,6101,6081,5509,24,34,0,68,100,0
6097,6067,5505,-2,-11,-4,10240,-1.00,-1.00,0.00,0.00,6101,6081,5508,24,34,0,68,100,0
6101,6072,5506,-1,-10,-3,10240,-1.00,-1.00,0.00,0.00,6101,6081,5508,24,34,0,68,100,0
6101,6072,5505,-1,-10,-3,10240,-1.00,-1.00,0.00,0.00,6101,6080,5508,24,34,0,68,100,0
6103,6076,5507,0,-8,-2,10240,-1.00,-1.00,0.00,0.00,6101,6080,5508,24,34,0,68,100,0
6102,6074,5508,0,-6,-1,10240,-1.00,-1.00,0.00,0.00,6101,6080,5508,24,34,0,68,100,0
6106,6081,5508,2,-4,-1,10240,-1.00,-1.00,0.00,0.00,6101,6080,5508,24,34,0,68,100,0
6106,6082,5510,3,-1,0,10240,-1.00,-1.00,0.00,0.00,6101,6080,5508,24,34,0,68,100,0
6108,6083,5509,4,0,0,10240,-1.00,-1.00,0.00,0.00,6101,6080,5508,24,34,0,68,100,0
6107,6080,5510,5,1,1,10240,-1.00,-1.00,0.00,0.00,6102,6080,5508,24,34,0,68,100,0
6112,6088,5510,6,3,1,10240,-1.00,-1.00,0.00,0.00,6102,6080,5509,24,34,0,68,100,0
6112,6090,5511,8,5,1,10240,-1.00,-1.00,0.00,0.00,6102,6081,5509,24,34,0,68,100,0
6114,6092,5512,9,7,2,10240,-1.00,-1.00,0.00,0.00,6103,6081,5509,24,34,0,68,100,0
6113,6090,5511,10,9,2,10240,-1.00,-1.00,0.00,0.00,6103,6081,5509,24,34,0,68,100,0
6114,6091,5511,10,9,2,10240,-1.00,-1.00,0.00,0.00,6103,6082,5509,24,34,0,68,100,0
6112,6088,5509,10,8,1,10240,-1.00,-1.00,0.00,0.00,6104,6082,5509,24,34,0,68,100,0
6107,6083,5509,8,6,1,10240,-1.00,-1.00,0.00,0.00,6104,6082,5509,23,34,0,68,100,0
6100,6073,5506,4,1,0,10240,-1.00,-1.00,0.00,0.00,6104,6082,5509,23,34,0,68,100,0
6096,6066,5500,0,-4,-2,10240,-1.00,-1.00,0.00,0.00,6103,6081,5508,23,34,0,68,100,0
6091,6061,5497,-5,-10,-5,10240,-1.00,-1.00,0.00,0.00,6103,6081,5508,23,34,0,68,100,0
6089,6056,5495,-9,-17,-8,10240,-1.00,-1.00,0.00,0.00,6102,6080,5508,23,34,0,68,100,0
6086,6052,5494,-12,-21,-11,10240,-1.00,-1.00,0.00,0.00,6102,6079,5507,23,34,0,68,100,0
6084,6050,5493,-14,-24,-12,10240,-1.00,-1.00,0.00,0.00,6101,6078,5507,23,34,0,68,100,0
6086,6050,5493,-15,-26,-13,10240,-1.00,-1.00,0.00,0.00,6101,6077,5506,23,34,0,68,100,0
6082,6047,5492,-16,-27,-13,10240,-1.00,-1.00,0.00,0.00,6100,6076,5506,23,34,0,68,100,0
6081,6048,5493,-17,-27,-13,10240,-1.00,-1.00,0.00,0.00,6100,6075,5505,23,34,0,68,100,0
6083,6049,5492,-17,-27,-13,10240,-1.00,-1.00,0.00,0.00,6099,6074,5505,23,34,0,68,100,0
6081,6050,5493,-17,-26,-12,10240,-1.00,-1.00,0.00,0.00,6098,6073,5504,23,34,0,68,100,0
6080,6048,5494,-17,-24,-11,10240,-1.00,-1.00,0.00,0.00,6098,6072,5504,23,34,0,68,100,0
6078,6048,5494,-17,-24,-11,10240,-1.00,-1.00,0.00,0.00,6097,6072,5504,23,34,0,68,100,0
6078,6050,5494,-18,-23,-10,10240,-1.00,-1.00,0.00,0.00,6096,6071,5503,23,34,0,68,100,0
6078,6049,5493,-18,-22,-9,10240,-1.00,-1.00,0.00,0.00,6096,6070,5503,23,34,0,68,100,0
6076,6049,5494,-18,-21,-9,10240,-1.00,-1.00,0.00,0.00,6095,6069,5503,23,34,0,68,100,0
6075,6050,5494,-18,-20,-9,10240,-1.00,-1.00,0.00,0.00,6095,6069,5503,23,34,0,68,100,0
6077,6053,5494,-18,-18,-9,10240,-1.00,-1.00,0.00,0.00,6094,6068,5502,23,34,0,68,100,0
6079,6052,5495,-17,-17,-8,10240,-1.00,-1.00,0.00,0.00,6093,6068,5502,23,34,0,68,100,0
6081,6055,5496,-15,-15,-7,10240,-1.00,-1.00,0.00,0.00,6093,6067,5502,23,34,0,68,100,0
6081,6056,5497,-13,-13,-6,10240,-1.00,-1.00,0.00,0.00,6093,6067,5502,23,34,0,68,100,0
6087,6060,5500,-10,-11,-5,10240,-1.00,-1.00,0.00,0.00,6092,6067,5502,23,34,0,68,100,0
6087,6062,5500,-8,-8,-3,10240,-1.00,-1.00,0.00,0.00,6092,6067,5502,23,34,0,68,100,0
6089,6063,5501,-6,-6,-2,10240,-1.00,-1.00,0.00,0.00,6092,6066,5501,23,34,0,68,100,0
6091,6067,5502,-3,-3,-1,10240,-1.00,-1.00,0.00,0.00,6092,6066,5502,23,34,0,68,100,0
6093,6067,5503,-2,-1,0,10240,-1.00,-1.00,0.00,0.00,6092,6067,5502,23,34,0,68,100,0
6095,6067,5504,0,0,0,10240,-1.00,-1.00,0.00,0.00,6092,6067,5502,23,34,0,68,100,0
6098,6073,5505,2,1,1,10240,-1.00,-1.00,0.00,0.00,6092,6067,5502,23,34,0,68,100,0
6093,6069,5502,2,2,1,10240,-1.00,-1.00,0.00,0.00,6093,6067,5502,23,34,0,68,100,0
6091,6064,5501,2,1,1,10240,-1.00,-1.00,0.00,0.00,6092,6067,5502,23,33,0,68,100,0
6085,6056,5498,0,-1,0,10240,-1.00,-1.00,0.00,0.00,6092,6066,5502,23,33,0,68,100,0
6083,6059,5497,-4,-4,-2,10240,-1.00,-1.00,0.00,0.00,6092,6066,5501,23,33,0,68,100,0
6081,6053,5496,-7,-8,-3,10240,-1.00,-1.00,0.00,0.00,6092,6066,5501,23,33,0,68,100,0
6079,6049,5493,-9,-11,-5,10240,-1.00,-1.00,0.00,0.00,6091,6065,5501,23,33,0,68,100,0
6076,6044,5491,-11,-14,-6,10240,-1.00,-1.00,0.00,0.00,6091,6064,5501,23,33,0,68,100,0
6074,6040,5489,-13,-18,-8,10240,-1.00,-1.00,0.00,0.00,6090,6064,5500,23,33,0,68,100,0
6070,6038,5487,-15,-21,-10,10240,-1.00,-1.00,0.00,0.00,6089,6063,5500,23,33,0,68,100,0
6067,6033,5485,-18,-24,-12,10240,-1.00,-1.00,0.00,0.00,6089,6062,5499,23,33,0,68,100,0
6063,6032,5485,-20,-26,-13,10240,-1.00,-1.00,0.00,0.00,6088,6061,5499,23,33,0,68,100,0
6061,6029,5484,-23,-28,-13,10240,-1.00,-1.00,0.00,0.00,6087,6060,5498,23,33,0,68,100,0
6059,6028,5484,-25,-30,-14,10240,-1.00,-1.00,0.00,0.00,6086,6059,5498,23,33,0,68,100,0
6059,6027,5484,-26,-30,-13,10240,-1.00,-1.00,0.00,0.00,6085,6058,5497,23,33,0,68,100,0
6060,6028,5486,-25,-30,-13,10240,-1.00,-1.00,0.00,0.00,6084,6057,5497,23,33,0,68,100,0
6058,6027,5485,-25,-30,-12,10240,-1.00,-1.00,0.00,0.00,6083,6056,5497,23,33,0,68,100,0
6058,6026,5484,-25,-29,-12,10240,-1.00,-1.00,0.00,0.00,6083,6055,5496,23,33,0,68,100,0
6058,6026,5484,-24,-28,-11,10240,-1.00,-1.00,0.00,0.00,6082,6054,5496,23,33,0,68,100,0
6059,6026,5484,-24,-28,-11,10240,-1.00,-1.00,0.00,0.00,6081,6053,5495,23,33,0,68,100,0
6058,6025,5485,-23,-27,-11,10240,-1.00,-1.00,0.00,0.00,6080,6052,5495,23,33,0,68,100,0
6059,6026,5485,-22,-26,-10,10240,-1.00,-1.00,0.00,0.00,6079,6051,5495,23,33,0,68,100,0
6058,6025,5485,-21,-26,-10,10240,-1.00,-1.00,0.00,0.00,6079,6050,5494,23,33,0,68,100,0
6055,6025,5485,-21,-25,-9,10240,-1.00,-1.00,0.00,0.00,6078,6049,5494,23,33,0,68,100,0
6056,6024,5485,-21,-24,-9,10240,-1.00,-1.00,0.00,0.00,6077,6048,5494,23,33,0,68,100,0
6058,6024,5487,-21,-24,-8,10240,-1.00,-1.00,0.00,0.00,6077,6047,5494,23,33,0,68,100,0
6058,6025,5486,-20,-23,-8,10240,-1.00,-1.00,0.00,0.00,6076,6047,5493,23,33,0,68,100,0
6058,6024,5486,-18,-22,-7,10240,-1.00,-1.00,0.00,0.00,6075,6046,5493,23,33,0,68,100,0
6060,6027,5487,-17,-21,-6,10240,-1.00,-1.00,0.00,0.00,6075,6045,5493,23,33,0,68,100,0
6059,6024,5486,-16,-20,-6,10240,-1.00,-1.00,0.00,0.00,6074,6045,5493,23,33,0,68,100,0
6061,6026,5488,-15,-19,-6,10240,-1.00,-1.00,0.00,0.00,6074,6044,5492,23,33,0,68,100,0
6060,6025,5486,-14,-18,-5,10240,-1.00,-1.00,0.00,0.00,6073,6043,5492,23,33,0,68,100,0
6058,6023,5485,-14,-19,-6,10240,-1.00,-1.00,0.00,0.00,6073,6043,5492,23,33,0,68,100,0
6057,6019,5483,-14,-19,-6,10240,-1.00,-1.00,0.00,0.00,6072,6042,5492,23,33,0,68,100,0
6053,6017,5481,-15,-21,-8,10240,-1.00,-1.00,0.00,0.00,6072,6041,5491,23,33,0,68,100,0
6048,6009,5479,-18,-24,-9,10240,-1.00,-1.00,0.00,0.00,6071,6040,5491,23,33,0,68,100,0
6043,6003,5473,-21,-28,-12,10240,-1.00,-1.00,0.00,0.00,6070,6039,5490,23,33,0,68,100,0
6038,5999,5468,-25,-32,-15,10240,-1.00,-1.00,0.00,0.00,6069,6037,5490,23,33,0,68,100,0
6035,5992,5466,-28,-37,-18,10240,-1.00,-1.00,0.00,0.00,6068,6036,5489,23,33,0,68,100,0
6032,5989,5463,-31,-40,-21,10240,-1.00,-1.00,0.00,0.00,6067,6034,5488,23,33,0,68,100,0
6026,5984,5462,-34,-44,-23,10240,-1.00,-1.00,0.00,0.00,6065,6033,5487,23,33,0,68,100,0
6023,5981,5461,-37,-47,-24,10240,-1.00,-1.00,0.00,0.00,6064,6031,5486,23,33,0,68,100,0
6021,5979,5460,-39,-48,-25,10240,-1.00,-1.00,0.00,0.00,6062,6029,5485,23,33,0,68,100,0
6020,5979,5458,-40,-49,-25,10240,-1.00,-1.00,0.00,0.00,6061,6028,5484,23,33,0,68,100,0
6014,5974,5456,-42,-50,-26,10240,-1.00,-1.00,0.00,0.00,6059,6026,5484,23,33,0,68,100,0
6013,5974,5456,-43,-50,-26,10240,-1.00,-1.00,0.00,0.00,6058,6024,5483,23,33,0,68,100,0
6009,5973,5455,-44,-50,-27,10240,-1.00,-1.00,0.00,0.00,6056,6022,5482,23,33,0,68,100,0
6008,5970,5453,-46,-50,-27,10240,-1.00,-1.00,0.00,0.00,6055,6021,5481,23,33,0,68,100,0
6009,5973,5453,-45,-49,-27,10240,-1.00,-1.00,0.00,0.00,6053,6019,5480,23,33,0,68,100,0
6007,5971,5452,-45,-48,-27,10240,-1.00,-1.00,0.00,0.00,6052,6017,5479,23,33,0,68,100,0
6007,5971,5454,-44,-47,-26,10240,-1.00,-1.00,0.00,0.00,6050,6016,5478,23,33,0,68,100,0
6008,5972,5453,-43,-44,-25,10240,-1.00,-1.00,0.00,0.00,6049,6014,5477,23,33,0,68,100,0
6005,5970,5451,-42,-44,-25,10240,-1.00,-1.00,0.00,0.00,6047,6013,5476,23,33,0,68,100,0
6004,5971,5452,-42,-42,-24,10240,-1.00,-1.00,0.00,0.00,6046,6012,5475,23,33,0,68,100,0
6005,5971,5451,-41,-41,-24,10240,-1.00,-1.00,0.00,0.00,6044,6010,5475,23,33,0,68,100,0
6003,5969,5451,-40,-40,-23,10240,-1.00,-1.00,0.00,0.00,6043,6009,5474,23,33,0,68,100,0
6002,5970,5451,-40,-39,-23,10240,-1.00,-1.00,0.00,0.00,6042,6008,5473,23,33,0,68,100,0
6004,5973,5453,-38,-37,-22,10240,-1.00,-1.00,0.00,0.00,6040,6006,5472,23,33,0,68,100,0
6004,5974,5454,-37,-35,-20,10240,-1.00,-1.00,0.00,0.00,6039,6005,5472,23,33,0,68,100,0
6005,5976,5453,-36,-32,-19,10240,-1.00,-1.00,0.00,0.00,6038,6004,5471,23,33,0,68,100,0
6004,5975,5454,-34,-30,-18,10240,-1.00,-1.00,0.00,0.00,6037,6003,5471,23,33,0,68,100,0
6005,5976,5454,-33,-28,-17,10240,-1.00,-1.00,0.00,0.00,6036,6002,5470,23,33,0,68,100,0
6004,5977,5452,-32,-26,-17,10240,-1.00,-1.00,0.00,0.00,6035,6002,5469,23,33,0,68,100,0
6002,5975,5450,-31,-26,-17,10240,-1.00,-1.00,0.00,0.00,6034,6001,5469,23,33,0,68,100,0
6000,5973,5449,-31,-26,-17,10240,-1.00,-1.00,0.00,0.00,6033,6000,5468,23,33,0,68,100,0
5998,5970,5447,-32,-26,-18,10240,-1.00,-1.00,0.00,0.00,6031,5999,5467,23,33,0,68,100,0
5993,5964,5444,-33,-29,-20,10240,-1.00,-1.00,0.00,0.00,6030,5998,5467,23,30,0,68,100,0
5989,5960,5442,-35,-31,-21,10240,-1.00,-1.00,0.00,0.00,6029,5996,5466,23,30,0,68,100,0
5988,5957,5438,-37,-34,-23,10240,-1.00,-1.00,0.00,0.00,6027,5995,5465,23,30,0,68,100,0
5985,5953,5438,-39,-37,-25,10240,-1.00,-1.00,0.00,0.00,6026,5994,5464,23,30,0,68,100,0
5983,5952,5436,-40,-38,-26,10240,-1.00,-1.00,0.00,0.00,6025,5992,5463,23,30,0,68,100,0
5981,5949,5436,-41,-40,-26,10240,-1.00,-1.00,0.00,0.00,6023,5991,5462,23,30,0,68,100,0
5979,5946,5434,-42,-41,-26,10240,-1.00,-1.00,0.00,0.00,6022,5989,5461,23,30,0,68,100,0
5976,5944,5433,-42,-42,-26,10240,-1.00,-1.00,0.00,0.00,6020,5988,5460,23,30,0,68,100,0
5976,5946,5433,-43,-42,-26,10240,-1.00,-1.00,0.00,0.00,6019,5986,5459,23,30,0,68,100,0
5978,5947,5435,-42,-41,-26,10240,-1.00,-1.00,0.00,0.00,6017,5985,5459,23,30,0,68,100,0
5977,5947,5434,-41,-39,-25,10240,-1.00,-1.00,0.00,0.00,6016,5984,5458,23,30,0,68,100,0
5978,5950,5436,-39,-37,-23,10240,-1.00,-1.00,0.00,0.00,6015,5983,5457,23,30,0,68,100,0
5976,5948,5435,-38,-35,-22,10240,-1.00,-1.00,0.00,0.00,6013,5982,5456,23,30,0,68,100,0
5978,5949,5437,-36,-33,-21,10240,-1.00,-1.00,0.00,0.00,6012,5980,5456,23,30,0,68,100,0
5980,5952,5437,-34,-31,-19,10240,-1.00,-1.00,0.00,0.00,6011,5980,5455,23,30,0,68,100,0
5979,5951,5437,-33,-30,-18,10240,-1.00,-1.00,0.00,0.00,6010,5979,5454,23,30,0,68,100,0
5980,5953,5440,-31,-28,-17,10240,-1.00,-1.00,0.00,0.00,6009,5978,5454,23,30,0,68,100,0
5982,5954,5439,-29,-26,-16,10240,-1.00,-1.00,0.00,0.00,6008,5977,5454,23,30,0,68,100,0
5983,5955,5439,-27,-24,-15,10240,-1.00,-1.00,0.00,0.00,6007,5976,5453,23,30,0,68,100,0
5983,5958,5439,-25,-21,-14,10240,-1.00,-1.00,0.00,0.00,6007,5976,5453,23,30,0,68,100,0
5984,5958,5440,-24,-19,-13,10240,-1.00,-1.00,0.00,0.00,6006,5975,5452,23,30,0,68,100,0
5985,5961,5443,-22,-17,-12,10240,-1.00,-1.00,0.00,0.00,6005,5974,5452,23,30,0,68,100,0
5987,5962,5444,-21,-15,-10,10240,-1.00,-1.00,0.00,0.00,6005,5974,5452,23,30,0,68,100,0
5991,5968,5447,-18,-12,-8,10240,-1.00,-1.00,0.00,0.00,6004,5974,5451,23,30,0,68,100,0
5992,5970,5449,-15,-8,-5,10240,-1.00,-1.00,0.00,0.00,6004,5974,5451,23,30,0,68,100,0
5994,5972,5449,-13,-6,-4,10240,-1.00,-1.00,0.00,0.00,6003,5974,5451,23,30,0,68,100,0
5999,5977,5453,-9,-2,-1,10240,-1.00,-1.00,0.00,0.00,6003,5974,5451,23,30,0,68,100,0
6000,5977,5452,-7,0,0,10240,-1.00,-1.00,0.00,0.00,6003,5974,5451,23,30,0,68,100,0
6000,5979,5453,-4,2,0,10240,-1.00,-1.00,0.00,0.00,6003,5974,5451,23,30,0,68,100,0
6000,5976,5451,-3,3,1,10240,-1.00,-1.00,0.00,0.00,6003,5974,5451,23,30,0,68,100,0
6001,5976,5452,-2,3,1,10240,-1.00,-1.00,0.00,0.00,6003,5974,5451,23,30,0,68,100,0
5999,5970,5448,-3,1,0,10240,-1.00,-1.00,0.00,0.00,6003,5974,5451,28,34,6,68,100,0
5998,5968,5447,-3,-1,-1,10240,-1.00,-1.00,5.17,4.24,6003,5974,5451,28,34,6,68,100,0
5995,5966,5445,-4,-4,-3,10240,-1.00,-1.00,5.17,4.24,6002,5974,5451,28,34,6,68,100,0
5995,5963,5444,-5,-7,-5,10240,-1.00,-1.00,5.17,4.24,6002,5973,5451,28,34,6,68,100,0
5994,5962,5443,-6,-8,-6,10240,-1.00,-1.00,5.17,4.24,6002,5973,5451,28,34,6,68,100,0
5996,5960,5445,-7,-10,-6,10240,-1.00,-1.00,5.17,4.24,6002,5972,5450,28,34,6,68,100,0
5995,5960,5444,-6,-11,-6,10240,-1.00,-1.00,5.17,4.24,6001,5972,5450,28,34,6,68,100,0
5993,5959,5443,-7,-12,-6,10240,-1.00,-1.00,5.17,4.24,6001,5972,5450,28,34,6,68,100,0
5995,5961,5444,-6,-11,-6,10240,-1.00,-1.00,5.17,4.24,6001,5971,5450,28,34,6,68,100,0
5997,5963,5446,-6,-10,-5,10240,-1.00,-1.00,5.17,4.24,6001,5971,5450,28,34,6,68,100,0
5997,5966,5449,-5,-9,-4,10240,-1.00,-1.00,5.17,4.24,6001,5971,5450,28,34,6,68,100,0
5997,5968,5450,-4,-6,-2,10240,-1.00,-1.00,5.17,4.24,6000,5971,5450,28,34,6,68,100,0
5997,5970,5451,-3,-4,-1,10240,-1.00,-1.00,5.17,4.24,6000,5971,5450,28,34,6,68,100,0
6000,5975,5453,-2,-1,0,10240,-1.00,-1.00,5.17,4.24,6000,5971,5450,28,34,6,68,100,0
6001,5976,5453,-1,1,1,10240,-1.00,-1.00,5.17,4.24,6000,5971,5450,28,34,6,68,100,0
6002,5981,5456,0,4,3,10240,-1.00,-1.00,5.17,4.24,6000,5971,5450,28,34,6,68,100,0
6005,5983,5459,1,7,5,10240,-1.00,-1.00,5.17,4.24,6001,5972,5450,28,34,6,68,100,0
6007,5986,5460,3,10,6,10240,-1.00,-1.00,5.17,4.24,6001,5972,5451,28,34,6,68,100,0
6006,5984,5460,4,11,8,10240,-1.00,-1.00,5.17,4.24,6001,5973,5451,28,34,6,68,100,0
6009,5987,5462,5,12,9,10240,-1.00,-1.00,5.17,4.24,6001,5973,5451,28,34,6,68,100,0
6012,5992,5465,7,14,10,10240,-1.00,-1.00,5.17,4.24,6002,5974,5452,28,34,6,68,100,0
6020,5997,5468,10,16,12,10240,-1.00,-1.00,5.17,4.24,6002,5974,5452,28,34,6,68,100,0
6022,6002,5470,13,20,14,10240,-1.00,-1.00,5.17,4.24,6003,5975,5453,28,34,6,68,100,0
6022,6001,5472,16,23,16,10240,-1.00,-1.00,5.17,4.24,6004,5976,5453,28,34,6,68,100,0
6027,6007,5474,19,26,18,10240,-1.00,-1.00,5.17,4.24,6004,5977,5454,28,34,6,68,100,0
6027,6007,5473,20,27,18,10240,-1.00,-1.00,5.17,4.24,6005,5978,5455,28,34,6,68,100,0
6027,6010,5474,21,28,19,10240,-1.00,-1.00,5.17,4.24,6006,5979,5455,28,34,6,68,100,0
6025,6011,5474,21,30,18,10240,-1.00,-1.00,5.17,4.24,6006,5980,5456,28,34,11,68,100,0
6029,6012,5475,21,30,18,10240,-1.00,-1.00,2.82,2.31,6007,5981,5457,28,34,11,68,100,0
6028,6012,5475,20,30,18,10240,-1.00,-1.00,2.82,2.31,6008,5982,5457,26,34,11,68,100,0
6029,6014,5475,20,30,17,10240,-1.00,-1.00,2.82,2.31,6009,5984,5458,26,34,11,68,100,0
6029,6011,5474,20,29,17,10240,-1.00,-1.00,2.82,2.31,6009,5984,5458,26,36,11,68,100,0
6028,6009,5472,19,27,16,10240,-1.00,-1.00,2.82,2.31,6010,5985,5459,26,36,11,68,100,0
6023,6005,5470,17,25,14,10240,-1.00,-1.00,2.82,2.31,6010,5986,5459,26,36,11,68,100,0
6020,6001,5467,15,21,11,10240,-1.00,-1.00,2.82,2.31,6011,5986,5460,26,36,11,68,100,0
6018,5997,5466,11,17,9,10240,-1.00,-1.00,2.82,2.31,6011,5987,5460,26,36,11,68,100,0
6018,6000,5466,9,14,7,10240,-1.00,-1.00,2.82,2.31,6011,5987,5460,26,36,11,68,100,0
6018,6000,5466,7,12,6,10240,-1.00,-1.00,2.82,2.31,6011,5988,5460,26,36,11,68,100,0
6020,5999,5466,7,11,6,10240,-1.00,-1.00,2.82,2.31,6012,5988,5460,26,36,11,68,100,0
6019,5999,5466,7,11,5,10240,-1.00,-1.00,2.82,2.31,6012,5988,5461,26,36,11,68,100,0
6021,6001,5467,7,11,5,10240,-1.00,-1.00,2.82,2.31,6012,5989,5461,26,36,11,68,100,0
6020,5999,5468,8,11,6,10240,-1.00,-1.00,2.82,2.31,6012,5989,5461,26,36,11,68,100,0
6022,6002,5466,8,11,5,10240,-1.00,-1.00,2.82,2.31,6013,5990,5461,26,36,11,68,100,0
6019,6001,5466,8,11,5,10240,-1.00,-1.00,2.82,2.31,6013,5990,5461,26,36,11,68,100,0
6023,6004,5468,8,11,5,10240,-1.00,-1.00,2.82,2.31,6013,5990,5462,26,36,11,68,100,0
6020,6004,5468,7,12,5,10240,-1.00,-1.00,2.82,2.31,6014,5991,5462,26,36,11,68,100,0
6027,6012,5471,8,14,6,10240,-1.00,-1.00,2.82,2.31,6014,5992,5462,26,36,11,68,100,0
6027,6011,5471,10,16,7,10240,-1.00,-1.00,2.82,2.31,6014,5992,5462,26,36,11,68,100,0
6029,6016,5473,11,18,8,10240,-1.00,-1.00,2.82,2.31,6015,5993,5463,26,36,11,68,100,0
6027,6014,5474,13,20,9,10240,-1.00,-1.00,2.82,2.31,6015,5994,5463,26,36,11,68,100,0
6021,6014,5474,11,20,10,10240,-1.00,-1.00,2.82,2.31,6016,5994,5463,26,36,11,68,100,0
6031,6021,5477,11,22,11,10240,-1.00,-1.00,2.82,2.31,6016,5995,5464,26,36,11,68,100,0
6035,6023,5478,12,23,12,10240,-1.00,-1.00,2.82,2.31,6017,5996,5464,26,36,11,68,100,0
6037,6024,5478,14,25,12,10240,-1.00,-1.00,2.82,2.31,6017,5997,5465,26,36,11,68,100,0
6038,6026,5480,18,27,13,10240,-1.00,-1.00,2.82,2.31,6018,5998,5465,26,36,11,68,100,0
6035,6027,5480,18,27,14,10240,-1.00,-1.00,2.82,2.31,6019,5999,5466,26,36,11,68,100,0
6045,6034,5483,20,29,14,10240,-1.00,-1.00,2.82,2.31,6019,6000,5466,26,36,11,68,100,0
6046,6036,5483,22,31,15,10240,-1.00,-1.00,2.82,2.31,6020,6001,5467,26,36,11,68,100,0
6046,6037,5485,23,32,16,10240,-1.00,-1.00,2.82,2.31,6021,6003,5468,26,36,11,68,100,0
6046,6038,5487,25,34,17,10240,-1.00,-1.00,2.82,2.31,6022,6004,5468,26,36,11,68,100,0
6045,6039,5487,24,34,17,10240,-1.00,-1.00,2.82,2.31,6023,6005,5469,26,36,11,68,100,0
6052,6041,5488,24,34,18,10240,-1.00,-1.00,2.82,2.31,6024,6006,5469,26,36,11,68,100,0
6052,6041,5486,25,34,18,10240,-1.00,-1.00,2.82,2.31,6025,6007,5470,26,36,11,68,100,0
6049,6036,5483,25,32,16,10240,-1.00,-1.00,2.82,2.31,6026,6008,5470,26,33,11,68,100,0
6048,6034,5481,25,30,14,10240,-1.00,-1.00,2.82,2.31,6026,6009,5471,26,33,11,68,100,0
6046,6031,5481,22,27,12,10240,-1.00,-1.00,2.82,2.31,6027,6010,5471,26,33,11,68,100,0
6049,6032,5481,21,23,10,10240,-1.00,-1.00,2.82,2.31,6028,6011,5472,26,33,11,68,100,0
6048,6030,5480,20,21,9,10240,-1.00,-1.00,2.82,2.31,6028,6011,5472,26,33,11,68,100,0
6051,6030,5480,20,19,8,10240,-1.00,-1.00,2.82,2.31,6029,6012,5472,26,33,11,68,100,0
6049,6030,5480,20,18,8,10240,-1.00,-1.00,2.82,2.31,6030,6013,5472,26,33,11,68,100,0
6048,6029,5480,19,17,7,10240,-1.00,-1.00,2.82,2.31,6030,6013,5473,26,33,11,68,100,0
6050,6032,5481,19,17,7,10240,-1.00,-1.00,2.82,2.31,6031,6014,5473,26,33,11,68,100,0
6052,6033,5482,19,17,8,10240,-1.00,-1.00,2.82,2.31,6032,6014,5473,26,33,11,68,100,0
6056,6037,5484,20,18,8,10240,-1.00,-1.00,2.82,2.31,6033,6015,5474,26,33,11,68,100,0
6058,6037,5484,21,20,9,10240,-1.00,-1.00,2.82,2.31,6033,6016,5474,26,33,11,68,100,0
6060,6040,5486,23,21,10,10240,-1.00,-1.00,2.82,2.31,6034,6017,5474,26,33,11,68,100,0
6064,6046,5489,25,23,11,10240,-1.00,-1.00,2.82,2.31,6035,6018,5475,26,33,11,68,100,0
6064,6047,5490,27,25,12,10240,-1.00,-1.00,2.82,2.31,6036,6019,5475,26,33,11,68,100,0
6066,6050,5491,28,27,14,10240,-1.00,-1.00,2.82,2.31,6037,6020,5476,26,33,11,68,100,0
6067,6053,5490,28,29,14,10240,-1.00,-1.00,2.82,2.31,6038,6021,5476,26,33,11,68,100,0
6068,6055,5492,28,30,14,10240,-1.00,-1.00,2.82,2.31,6039,6022,5477,26,33,11,68,100,0
6072,6057,5491,29,32,14,10240,-1.00,-1.00,2.82,2.31,6040,6023,5477,26,33,11,68,100,0
6070,6056,5494,29,32,14,10240,-1.00,-1.00,2.82,2.31,6041,6024,5478,26,33,11,68,100,0
6078,6060,5495,31,33,15,10240,-1.00,-1.00,2.82,2.31,6043,6025,5478,26,33,11,68,100,0
6078,6059,5493,32,33,15,10240,-1.00,-1.00,2.82,2.31,6044,6026,5479,26,33,11,68,100,0
6081,6061,5496,33,33,16,10240,-1.00,-1.00,2.82,2.31,6045,6028,5479,26,33,11,68,100,0
6085,6067,5496,36,34,16,10240,-1.00,-1.00,2.82,2.31,6046,6029,5480,26,33,11,68,100,0
6087,6069,5499,37,35,16,10240,-1.00,-1.00,2.82,2.31,6048,6030,5481,26,33,11,68,100,0
6096,6080,5501,40,39,17,10240,-1.00,-1.00,2.82,2.31,6049,6032,5481,26,33,11,68,100,0
6103,6088,5501,44,44,18,10240,-1.00,-1.00,2.82,2.31,6051,6034,5482,26,33,11,68,100,0
6108,6096,5503,48,50,19,10240,-1.00,-1.00,2.82,2.31,6053,6036,5483,26,33,11,68,100,0
6117,6103,5505,54,56,20,10240,-1.00,-1.00,2.82,2.31,6055,6038,5483,26,33,11,68,100,0
6121,6112,5505,58,62,20,10240,-1.00,-1.00,2.82,2.31,6057,6041,5484,26,33,11,68,100,0
6120,6111,5503,60,66,20,10240,-1.00,-1.00,2.82,2.31,6059,6043,5485,26,33,11,68,100,0
6116,6103,5503,60,65,19,10240,-1.00,-1.00,2.82,2.31,6061,6045,5485,26,37,11,68,100,0
6104,6091,5502,55,60,18,10240,-1.00,-1.00,2.82,2.31,6063,6046,5486,30,37,11,68,100,0
6093,6082,5499,46,51,16,10240,-1.00,-1.00,2.82,2.31,6064,6048,5486,30,37,11,68,100,0
6092,6078,5497,38,41,14,10240,-1.00,-1.00,2.82,2.31,6065,6049,5487,30,37,11,68,100,0
6094,6082,5496,31,35,12,10240,-1.00,-1.00,2.82,2.31,6066,6050,5487,30,37,11,68,100,0
6088,6075,5495,26,29,10,10240,-1.00,-1.00,2.82,2.31,6066,6051,5487,30,37,11,68,100,0
6085,6071,5494,23,26,8,10240,-1.00,-1.00,2.82,2.31,6067,6051,5488,30,37,11,68,100,0
6087,6074,5494,21,24,7,10240,-1.00,-1.00,2.82,2.31,6068,6052,5488,30,37,11,68,100,0
6095,6082,5495,21,23,6,10240,-1.00,-1.00,2.82,2.31,6069,6053,5488,30,37,11,68,100,0
6098,6086,5497,22,25,7,10240,-1.00,-1.00,2.82,2.31,6070,6054,5488,30,37,11,68,100,0
6094,6080,5498,24,27,7,10240,-1.00,-1.00,2.82,2.31,6070,6055,5489,30,37,11,68,100,0
6101,6089,5498,27,29,8,10240,-1.00,-1.00,2.82,2.31,6071,6056,5489,30,37,11,68,100,0
6096,6084,5498,26,29,9,10240,-1.00,-1.00,2.82,2.31,6072,6057,5489,30,37,11,68,100,0
6114,6107,5501,29,33,9,10240,-1.00,-1.00,2.82,2.31,6074,6059,5490,30,37,11,68,100,0
6121,6115,5503,35,40,10,10240,-1.00,-1.00,2.82,2.31,6075,6061,5490,30,37,11,68,100,0
6127,6124,5503,40,47,11,10240,-1.00,-1.00,2.82,2.31,6077,6063,5490,30,37,11,68,100,0
6135,6132,5504,48,57,12,10240,-1.00,-1.00,2.82,2.31,6079,6065,5491,30,37,11,68,100,0
6133,6131,5504,51,61,13,10240,-1.00,-1.00,2.82,2.31,6081,6067,5491,30,37,11,68,100,0
6137,6136,5508,53,64,13,10240,-1.00,-1.00,2.82,2.31,6082,6069,5492,30,37,11,68,100,0
6133,6131,5511,53,64,15,10240,-1.00,-1.00,2.82,2.31,6084,6072,5493,30,37,11,68,100,0
6105,6102,5510,44,54,16,10240,-1.00,-1.00,2.82,2.31,6085,6073,5493,35,38,11,68,100,0
6124,6120,5513,40,50,17,10240,-1.00,-1.00,2.82,2.31,6086,6074,5494,35,38,11,68,100,0
6103,6100,5511,30,39,17,10240,-1.00,-1.00,2.82,2.31,6087,6075,5494,35,38,11,68,100,0
6107,6105,5514,23,32,18,10240,-1.00,-1.00,2.82,2.31,6087,6076,5495,35,38,11,68,100,0
6134,6132,5518,29,38,19,10240,-1.00,-1.00,2.82,2.31,6089,6078,5496,35,38,11,68,100,0
6140,6139,5518,32,41,19,10240,-1.00,-1.00,2.82,2.31,6091,6080,5497,35,38,11,68,100,0
6141,6140,5517,40,50,20,10240,-1.00,-1.00,2.82,2.31,6092,6082,5497,35,38,11,68,100,0
6140,6140,5517,47,56,20,10240,-1.00,-1.00,2.82,2.31,6094,6084,5498,35,38,11,68,100,0
6147,6147,5518,48,58,19,10240,-1.00,-1.00,2.82,2.31,6096,6086,5499,35,38,11,68,100,0
6140,6140,5516,47,56,18,10240,-1.00,-1.00,2.82,2.31,6097,6088,5499,33,35,11,68,100,0
6134,6134,5514,44,53,17,10240,-1.00,-1.00,2.82,2.31,6098,6089,5500,33,35,11,68,100,0
6126,6124,5511,39,48,15,10240,-1.00,-1.00,2.82,2.31,6099,6090,5500,33,35,11,68,100,0
6137,6136,5510,35,43,13,10240,-1.00,-1.00,2.82,2.31,6101,6092,5500,33,35,11,68,100,0
6147,6147,5504,36,44,9,10240,-1.00,-1.00,2.82,2.31,6102,6094,5500,33,35,11,68,100,0
6126,6124,5499,32,40,6,10240,-1.00,-1.00,2.82,2.31,6103,6095,5500,33,35,11,68,100,0
6126,6125,5497,31,38,2,10240,-1.00,-1.00,2.82,2.31,6104,6096,5500,33,35,11,68,100,0
6119,6117,5496,26,33,-1,10240,-1.00,-1.00,2.82,2.31,6104,6096,5500,33,35,11,68,100,0
6121,6118,5496,19,25,-3,10240,-1.00,-1.00,2.82,2.31,6105,6097,5500,33,35,11,68,100,0
6127,6126,5495,18,24,-4,10240,-1.00,-1.00,2.82,2.31,6106,6098,5500,33,35,11,68,100,0
6110,6108,5494,14,20,-4,10240,-1.00,-1.00,2.82,2.31,6106,6098,5500,33,35,11,68,100,0
6112,6112,5493,11,18,-5,10240,-1.00,-1.00,2.82,2.31,6106,6099,5499,33,35,11,68,100,0
6121,6120,5496,11,17,-5,10240,-1.00,-1.00,2.82,2.31,6106,6100,5499,33,35,11,68,100,0
6118,6118,5494,9,15,-5,10240,-1.00,-1.00,2.82,2.31,6107,6100,5499,33,35,11,68,100,0
6124,6123,5495,12,18,-4,10240,-1.00,-1.00,2.82,2.31,6107,6101,5499,33,35,11,68,100,0
6126,6126,5495,15,21,-4,10240,-1.00,-1.00,2.82,2.31,6108,6102,5499,33,35,11,68,100,0
6140,6140,5495,19,25,-4,10240,-1.00,-1.00,2.82,2.31,6109,6103,5499,33,35,11,68,100,0
6143,6143,5494,24,30,-4,10240,-1.00,-1.00,2.82,2.31,6110,6104,5499,33,35,11,68,100,0
6140,6140,5496,27,33,-4,10240,-1.00,-1.00,2.82,2.31,6111,6106,5499,33,35,11,68,100,0
6147,6147,5497,32,37,-3,10240,-1.00,-1.00,2.82,2.31,6112,6107,5498,33,35,11,68,100,0
6135,6135,5500,29,35,-2,10240,-1.00,-1.00,2.82,2.31,6113,6108,5499,30,32,11,68,100,0
6143,6143,5500,28,33,0,10240,-1.00,-1.00,2.82,2.31,6114,6109,5499,30,32,11,68,100,0
6143,6143,5499,28,33,0,10240,-1.00,-1.00,2.82,2.31,6115,6110,5499,30,32,11,68,100,0
6144,6144,5499,26,31,0,10240,-1.00,-1.00,2.82,2.31,6116,6111,5499,30,32,11,68,100,0
6147,6147,5500,28,33,0,10240,-1.00,-1.00,2.82,2.31,6117,6113,5499,30,32,11,68,100,0
6146,6146,5500,28,33,0,10240,-1.00,-1.00,2.82,2.31,6118,6114,5499,30,32,11,68,100,0
6146,6146,5500,28,32,0,10240,-1.00,-1.00,2.82,2.31,6119,6115,5499,30,32,11,68,100,0
6146,6146,5501,27,31,1,10240,-1.00,-1.00,2.82,2.31,6120,6116,5499,30,32,11,68,100,0
6146,6146,5501,26,30,1,10240,-1.00,-1.00,2.82,2.31,6121,6117,5499,30,32,11,68,100,0
6147,6147,5500,25,29,1,10240,-1.00,-1.00,2.82,2.31,6122,6118,5499,30,32,11,68,100,0
6147,6147,5501,25,29,1,10240,-1.00,-1.00,2.82,2.31,6122,6119,5499,30,32,11,68,100,0
6147,6147,5500,24,28,1,10240,-1.00,-1.00,2.82,2.31,6123,6120,5499,30,32,11,68,100,0
6145,6145,5497,23,27,0,10240,-1.00,-1.00,2.82,2.31,6124,6121,5499,30,32,11,68,100,0
6145,6145,5496,22,25,0,10240,-1.00,-1.00,2.82,2.31,6125,6121,5499,30,32,11,68,100,0
6140,6140,5492,20,23,-2,10240,-1.00,-1.00,2.82,2.31,6125,6122,5499,30,32,11,68,100,0
6137,6137,5492,16,20,-4,10240,-1.00,-1.00,2.82,2.31,6126,6122,5498,30,32,11,68,100,0
6135,6135,5489,13,17,-6,10240,-1.00,-1.00,2.82,2.31,6126,6123,5498,30,32,11,68,100,0
6133,6133,5488,10,13,-8,10240,-1.00,-1.00,2.82,2.31,6126,6123,5498,30,32,11,68,100,0
6134,6134,5487,8,11,-8,10240,-1.00,-1.00,2.82,2.31,6126,6124,5497,30,32,11,68,100,0
6123,6123,5487,5,7,-9,10240,-1.00,-1.00,2.82,2.31,6126,6124,5497,30,32,11,68,100,0
6094,6094,5487,-4,-2,-10,10240,-1.00,-1.00,2.82,2.31,6125,6123,5497,30,32,11,68,100,0
6111,6111,5487,-10,-7,-9,10240,-1.00,-1.00,2.82,2.31,6125,6122,5496,30,32,11,68,100,0
6110,6110,5486,-15,-13,-9,10240,-1.00,-1.00,2.82,2.31,6124,6122,5496,30,32,11,68,100,0
6125,6125,5487,-14,-12,-9,10240,-1.00,-1.00,2.82,2.31,6124,6122,5496,30,32,11,68,100,0
6127,6127,5489,-6,-3,-8,10240,-1.00,-1.00,2.82,2.31,6124,6122,5495,30,32,11,68,100,0
6124,6124,5490,-2,0,-7,10240,-1.00,-1.00,2.82,2.31,6124,6122,5495,30,32,11,68,100,0
6124,6124,5490,1,3,-6,10240,-1.00,-1.00,2.82,2.31,6124,6122,5495,30,32,11,68,100,0
6125,6125,5490,1,3,-5,10240,-1.00,-1.00,2.82,2.31,6124,6122,5495,30,32,11,68,100,0
6133,6133,5491,2,4,-4,10240,-1.00,-1.00,2.82,2.31,6125,6123,5495,30,32,11,68,100,0
6109,6139,5493,-1,7,-4,10240,-1.00,-1.00,2.82,2.31,6124,6123,5495,30,32,11,68,100,0
6118,6118,5493,-3,6,-3,10240,-1.00,-1.00,2.82,2.31,6124,6123,5495,30,32,11,68,100,0
6103,6103,5493,-8,0,-2,10240,-1.00,-1.00,2.82,2.31,6123,6122,5495,30,32,11,68,100,0
6103,6101,5496,-15,-7,-1,10240,-1.00,-1.00,2.82,2.31,6123,6122,5495,30,32,11,68,100,0
6136,6134,5500,-8,-8,0,10240,-1.00,-1.00,2.82,2.31,6123,6122,5495,30,32,11,68,100,0
6140,6139,5504,-2,-3,3,10240,-1.00,-1.00,2.82,2.31,6124,6123,5495,30,32,11,68,100,0
6136,6134,5507,5,4,6,10240,-1.00,-1.00,2.82,2.31,6124,6123,5495,30,32,11,68,100,0
6147,6147,5509,15,15,9,10240,-1.00,-1.00,2.82,2.31,6125,6124,5496,30,32,11,68,100,0
6115,6114,5508,10,10,11,10240,-1.00,-1.00,2.82,2.31,6124,6123,5496,30,29,11,68,100,0
6102,6099,5508,0,0,12,10240,-1.00,-1.00,2.82,2.31,6124,6123,5497,30,29,11,68,100,0
6125,6122,5512,-2,-2,12,10240,-1.00,-1.00,2.82,2.31,6124,6123,5497,30,29,11,68,100,0
6125,6122,5514,-7,-8,13,10240,-1.00,-1.00,2.82,2.31,6124,6123,5498,30,29,11,68,100,0
6104,6102,5511,-9,-11,13,10240,-1.00,-1.00,2.82,2.31,6123,6122,5498,30,29,11,68,100,0
6113,6112,5512,-6,-8,14,10240,-1.00,-1.00,2.82,2.31,6123,6122,5499,30,29,11,68,100,0
6115,6112,5512,-9,-10,13,10240,-1.00,-1.00,2.82,2.31,6123,6121,5499,30,29,14,68,100,0
6114,6109,5511,-11,-12,12,10240,-1.00,-1.00,1.86,1.92,6122,6121,5500,30,29,14,68,100,0
6101,6097,5509,-11,-13,11,10240,-1.00,-1.00,1.86,1.92,6122,6120,5500,30,29,14,68,100,0
6112,6106,5508,-11,-14,10,10240,-1.00,-1.00,1.86,1.92,6121,6120,5500,30,29,14,68,100,0
6128,6124,5506,-7,-11,8,10240,-1.00,-1.00,1.86,1.92,6121,6120,5500,30,29,14,68,100,0
6121,6117,5503,-5,-9,6,10240,-1.00,-1.00,1.86,1.92,6121,6120,5500,30,29,14,68,100,0
6130,6127,5501,1,-1,4,10240,-1.00,-1.00,1.86,1.92,6122,6120,5500,30,29,14,68,100,0
6122,6115,5499,3,0,2,10240,-1.00,-1.00,1.86,1.92,6122,6120,5500,30,29,14,68,100,0
6109,6098,5499,-1,-5,0,10240,-1.00,-1.00,1.86,1.92,6121,6119,5500,30,29,14,68,100,0
6110,6099,5499,-3,-9,0,10240,-1.00,-1.00,1.86,1.92,6121,6118,5500,30,29,14,68,100,0
6104,6091,5498,-9,-17,-1,10240,-1.00,-1.00,1.86,1.92,6120,6117,5500,30,29,14,68,100,0
6116,6108,5499,-10,-18,-1,10240,-1.00,-1.00,1.86,1.92,6120,6117,5500,30,29,14,68,100,0
6117,6108,5500,-8,-15,-1,10240,-1.00,-1.00,1.86,1.92,6120,6117,5500,30,29,14,68,100,0
6115,6106,5501,-7,-13,0,10240,-1.00,-1.00,1.86,1.92,6120,6116,5500,30,29,14,68,100,0
6142,6141,5502,2,-1,0,10240,-1.00,-1.00,1.86,1.92,6121,6117,5500,30,29,14,68,100,0
6147,6147,5505,9,8,1,10240,-1.00,-1.00,1.86,1.92,6122,6118,5501,30,29,14,68,100,0
6147,6147,5507,16,17,3,10240,-1.00,-1.00,1.86,1.92,6122,6119,5501,30,29,14,68,100,0
6123,6119,5512,18,20,5,10240,-1.00,-1.00,1.86,1.92,6122,6119,5501,30,29,14,68,100,0
6119,6114,5513,12,13,8,10240,-1.00,-1.00,1.86,1.92,6122,6119,5501,30,32,14,68,100,0
6113,6108,5512,3,3,9,10240,-1.00,-1.00,1.86,1.92,6122,6119,5502,30,32,14,68,100,0
6113,6109,5514,-5,-6,11,10240,-1.00,-1.00,1.86,1.92,6122,6118,5502,30,32,14,68,100,0
6103,6098,5513,-9,-11,11,10240,-1.00,-1.00,1.86,1.92,6121,6118,5503,30,32,14,68,100,0
6115,6110,5517,-10,-11,11,10240,-1.00,-1.00,1.86,1.92,6121,6117,5503,30,32,14,68,100,0
6119,6114,5518,-8,-9,12,10240,-1.00,-1.00,1.86,1.92,6121,6117,5504,30,32,14,68,100,0
6126,6124,5519,-5,-5,13,10240,-1.00,-1.00,1.86,1.92,6121,6117,5504,30,32,14,68,100,0
6122,6117,5520,0,0,14,10240,-1.00,-1.00,1.86,1.92,6121,6117,5505,30,32,14,68,100,0
6131,6131,5521,3,4,15,10240,-1.00,-1.00,1.86,1.92,6121,6118,5505,30,32,14,68,100,0
6130,6129,5521,6,7,15,10240,-1.00,-1.00,1.86,1.92,6122,6118,5506,30,32,14,68,100,0
6140,6140,5525,9,11,16,10240,-1.00,-1.00,1.86,1.92,6122,6119,5506,30,32,14,68,100,0
6133,6131,5523,11,14,16,10240,-1.00,-1.00,1.86,1.92,6123,6119,5507,30,32,14,68,100,0
6136,6135,5525,12,14,17,10240,-1.00,-1.00,1.86,1.92,6123,6120,5507,30,32,14,68,100,0
6124,6124,5524,10,13,17,10240,-1.00,-1.00,1.86,1.92,6123,6120,5508,28,30,14,68,100,0
6147,6148,5525,11,14,16,10240,-1.00,-1.00,1.86,1.92,6124,6121,5509,28,30,14,68,100,0
6147,6147,5525,14,17,16,10240,-1.00,-1.00,1.86,1.92,6125,6122,5509,28,30,14,68,100,0
6131,6130,5520,13,16,14,10240,-1.00,-1.00,1.86,1.92,6125,6122,5510,28,30,14,68,100,0
6116,6115,5518,10,13,12,10240,-1.00,-1.00,1.86,1.92,6125,6122,5510,28,30,14,68,100,0
6115,6111,5517,2,3,10,10240,-1.00,-1.00,1.86,1.92,6124,6122,5510,28,30,14,68,100,0
6111,6110,5517,-6,-5,8,10240,-1.00,-1.00,1.86,1.92,6124,6121,5510,28,30,14,68,100,0
6106,6098,5513,-12,-12,6,10240,-1.00,-1.00,1.86,1.92,6123,6120,5510,28,30,14,68,100,0
6105,6098,5512,-14,-16,4,10240,-1.00,-1.00,1.86,1.92,6123,6120,5510,28,30,14,68,100,0
6105,6097,5511,-16,-19,3,10240,-1.00,-1.00,1.86,1.92,6122,6119,5510,28,30,14,68,100,0
6117,6109,5513,-14,-19,2,10240,-1.00,-1.00,1.86,1.92,6122,6119,5511,28,30,14,68,100,0
6107,6100,5511,-13,-18,1,10240,-1.00,-1.00,1.86,1.92,6121,6118,5511,28,30,14,68,100,0
6107,6100,5511,-12,-16,0,10240,-1.00,-1.00,1.86,1.92,6121,6117,5511,28,30,14,68,100,0
6119,6113,5512,-8,-12,0,10240,-1.00,-1.00,1.86,1.92,6121,6117,5511,28,30,14,68,100,0
6109,6103,5513,-10,-13,0,10240,-1.00,-1.00,1.86,1.92,6120,6117,5511,28,30,14,68,100,0
6115,6110,5514,-8,-10,1,10240,-1.00,-1.00,1.86,1.92,6120,6117,5511,28,30,14,68,100,0
6123,6118,5514,-3,-6,2,10240,-1.00,-1.00,1.86,1.92,6120,6117,5511,28,30,14,68,100,0
6113,6104,5515,-5,-8,3,10240,-1.00,-1.00,1.86,1.92,6120,6116,5511,28,30,14,68,100,0
6105,6098,5513,-6,-9,3,10240,-1.00,-1.00,1.86,1.92,6120,6116,5511,28,30,14,68,100,0
6110,6100,5513,-7,-11,2,10240,-1.00,-1.00,1.86,1.92,6119,6115,5511,28,30,14,68,100,0
6109,6099,5513,-10,-15,2,10240,-1.00,-1.00,1.86,1.92,6119,6114,5511,28,30,14,68,100,0
6106,6095,5513,-11,-16,2,10240,-1.00,-1.00,1.86,1.92,6119,6114,5511,28,30,14,68,100,0
6113,6105,5515,-9,-14,2,10240,-1.00,-1.00,1.86,1.92,6118,6114,5511,28,30,14,68,100,0
6112,6104,5515,-8,-13,2,10240,-1.00,-1.00,1.86,1.92,6118,6113,5512,28,30,14,68,100,0
6105,6095,5514,-9,-13,2,10240,-1.00,-1.00,1.86,1.92,6118,6113,5512,28,30,14,68,100,0
6120,6113,5517,-5,-9,3,10240,-1.00,-1.00,1.86,1.92,6118,6113,5512,28,30,14,68,100,0
6111,6103,5516,-6,-9,3,10240,-1.00,-1.00,1.86,1.92,6118,6112,5512,28,30,14,68,100,0
6121,6112,5518,-3,-6,4,10240,-1.00,-1.00,1.86,1.92,6118,6112,5512,28,30,14,68,100,0
6121,6113,5519,0,-2,5,10240,-1.00,-1.00,1.86,1.92,6118,6112,5512,28,30,14,68,100,0
6117,6108,5517,0,-3,5,10240,-1.00,-1.00,1.86,1.92,6118,6112,5512,28,30,14,68,100,0
6123,6113,5518,2,0,5,10240,-1.00,-1.00,1.86,1.92,6118,6112,5513,28,30,14,68,100,0
6117,6106,5516,1,-2,5,10240,-1.00,-1.00,1.86,1.92,6118,6112,5513,28,30,14,68,100,0
6113,6099,5513,0,-5,3,10240,-1.00,-1.00,1.86,1.92,6118,6112,5513,28,30,14,68,100,0
6118,6107,5511,0,-5,1,10240,-1.00,-1.00,1.86,1.92,6118,6111,5513,28,30,14,68,100,0
6125,6117,5511,0,-4,0,10240,-1.00,-1.00,1.86,1.92,6118,6112,5513,28,30,14,68,100,0
6136,6132,5508,5,2,-2,10240,-1.00,-1.00,1.86,1.92,6118,6112,5512,28,30,14,68,100,0
6123,6114,5505,7,5,-3,10240,-1.00,-1.00,1.86,1.92,6119,6112,5512,28,30,14,68,100,0
6105,6091,5500,4,1,-6,10240,-1.00,-1.00,1.86,1.92,6118,6112,5512,28,30,14,68,100,0
6104,6088,5498,-1,-5,-9,10240,-1.00,-1.00,1.86,1.92,6118,6111,5511,28,30,14,68,100,0
6093,6073,5496,-11,-19,-11,10240,-1.00,-1.00,1.86,1.92,6117,6110,5511,28,30,14,68,100,0
6089,6070,5495,-19,-29,-13,10240,-1.00,-1.00,1.86,1.92,6116,6108,5510,28,30,14,68,100,0
6091,6073,5496,-22,-33,-14,10240,-1.00,-1.00,1.86,1.92,6115,6107,5510,28,30,14,68,100,0
6091,6072,5496,-24,-35,-14,10240,-1.00,-1.00,1.86,1.92,6114,6106,5509,28,30,14,68,100,0
6095,6074,5497,-23,-34,-13,10240,-1.00,-1.00,1.86,1.92,6114,6105,5509,28,30,14,68,100,0
6096,6079,5498,-20,-31,-12,10240,-1.00,-1.00,1.86,1.92,6113,6104,5509,28,30,14,68,100,0
6095,6077,5497,-19,-29,-11,10240,-1.00,-1.00,1.86,1.92,6112,6103,5508,28,30,14,68,100,0
6094,6075,5498,-17,-27,-11,10240,-1.00,-1.00,1.86,1.92,6112,6102,5508,28,30,14,68,100,0
6095,6076,5496,-17,-25,-11,10240,-1.00,-1.00,1.86,1.92,6111,6101,5508,28,30,14,68,100,0
6096,6078,5498,-16,-25,-10,10240,-1.00,-1.00,1.86,1.92,6111,6100,5507,28,30,14,68,100,0
6096,6077,5499,-15,-24,-9,10240,-1.00,-1.00,1.86,1.92,6110,6100,5507,28,30,14,68,100,0
6099,6079,5499,-14,-22,-9,10240,-1.00,-1.00,1.86,1.92,6110,6099,5507,28,30,14,68,100,0
6099,6080,5499,-12,-20,-8,10240,-1.00,-1.00,1.86,1.92,6110,6098,5506,28,30,14,68,100,0
6104,6085,5500,-10,-18,-7,10240,-1.00,-1.00,1.86,1.92,6109,6098,5506,28,30,14,68,100,0
6110,6095,5502,-6,-13,-6,10240,-1.00,-1.00,1.86,1.92,6109,6098,5506,28,30,14,68,100,0
6102,6084,5502,-5,-11,-5,10240,-1.00,-1.00,1.86,1.92,6109,6097,5506,28,30,14,68,100,0
6117,6105,5504,0,-5,-4,10240,-1.00,-1.00,1.86,1.92,6109,6098,5506,28,30,14,68,100,0
6112,6100,5504,1,-1,-3,10240,-1.00,-1.00,1.86,1.92,6110,6098,5506,28,30,14,68,100,0
6128,6117,5508,5,3,-1,10240,-1.00,-1.00,1.86,1.92,6110,6098,5506,28,30,14,68,100,0
6130,6122,5511,11,12,0,10240,-1.00,-1.00,1.86,1.92,6111,6099,5506,28,30,14,68,100,0
6127,6118,5510,13,15,2,10240,-1.00,-1.00,1.86,1.92,6111,6100,5506,28,30,14,68,100,0
6123,6112,5510,16,18,3,10240,-1.00,-1.00,1.86,1.92,6112,6100,5506,28,30,14,68,100,0
6129,6120,5509,15,18,4,10240,-1.00,-1.00,1.86,1.92,6112,6101,5506,31,30,14,68,100,0
6120,6109,5508,12,14,3,10240,-1.00,-1.00,1.86,1.92,6113,6101,5506,31,36,14,68,100,0
6124,6113,5505,11,12,2,10240,-1.00,-1.00,1.86,1.92,6113,6102,5506,31,36,14,68,100,0
6115,6102,5502,9,9,0,10240,-1.00,-1.00,1.86,1.92,6113,6102,5506,31,36,14,68,100,0
6107,6091,5501,3,2,-2,10240,-1.00,-1.00,1.86,1.92,6113,6101,5506,31,36,14,68,100,0
6103,6085,5499,0,-3,-4,10240,-1.00,-1.00,1.86,1.92,6112,6101,5506,31,36,14,68,100,0
6096,6075,5495,-7,-12,-6,10240,-1.00,-1.00,1.86,1.92,6112,6100,5506,31,36,14,68,100,0
6085,6060,5491,-14,-22,-9,10240,-1.00,-1.00,1.86,1.92,6111,6098,5505,31,36,14,68,100,0
6081,6057,5490,-20,-29,-11,10240,-1.00,-1.00,1.86,1.92,6110,6097,5505,31,36,14,0,0,0
6079,6056,5490,-25,-35,-13,10240,-1.00,-1.00,1.86,1.92,6109,6096,5504,31,36,14,0,0,0
6078,6053,5490,-28,-39,-14,10240,-1.00,-1.00,1.86,1.92,6108,6094,5504,31,36,14,0,0,0
6077,6052,5489,-29,-40,-14,10240,-1.00,-1.00,1.86,1.92,6107,6093,5503,31,36,14,0,0,0
6074,6050,5489,-30,-40,-14,10240,-1.00,-1.00,1.86,1.92,6106,6091,5503,31,36,14,0,0,0
6074,6052,5489,-30,-40,-13,10240,-1.00,-1.00,1.86,1.92,6105,6090,5502,31,36,14,0,0,0
6077,6053,5490,-30,-39,-13,10240,-1.00,-1.00,1.86,1.92,6104,6089,5502,31,36,14,0,0,0
6072,6050,5489,-30,-38,-12,10240,-1.00,-1.00,1.86,1.92,6103,6088,5501,31,36,14,0,0,0
6072,6050,5489,-29,-37,-12,10240,-1.00,-1.00,1.86,1.92,6102,6086,5501,31,36,14,0,0,0
6076,6050,5491,-28,-36,-11,10240,-1.00,-1.00,1.86,1.92,6101,6085,5501,31,36,14,0,0,0
6077,6054,5491,-27,-34,-10,10240,-1.00,-1.00,1.86,1.92,6100,6084,5500,31,36,14,0,0,0
6076,6052,5491,-25,-33,-10,10240,-1.00,-1.00,1.86,1.92,6099,6083,5500,31,36,14,0,0,0
6079,6056,5492,-22,-30,-9,10240,-1.00,-1.00,1.86,1.92,6099,6082,5500,31,36,14,0,0,0
6077,6055,5492,-21,-28,-8,10240,-1.00,-1.00,1.86,1.92,6098,6081,5499,31,36,14,0,0,0
6082,6060,5493,-19,-26,-7,10240,-1.00,-1.00,1.86,1.92,6097,6081,5499,31,36,14,0,0,0
6080,6057,5495,-18,-24,-6,10240,-1.00,-1.00,1.86,1.92,6097,6080,5499,31,36,14,0,0,0
6079,6059,5495,-17,-22,-5,10240,-1.00,-1.00,1.86,1.92,6096,6079,5499,31,36,14,0,0,0
6080,6059,5494,-16,-20,-4,10240,-1.00,-1.00,1.86,1.92,6096,6078,5499,31,36,14,0,0,0
6083,6062,5495,-15,-19,-4,10240,-1.00,-1.00,1.86,1.92,6095,6078,5499,31,36,14,0,0,0
6084,6065,5497,-14,-16,-3,10240,-1.00,-1.00,1.86,1.92,6095,6077,5499,31,36,14,0,0,0
6087,6067,5496,-11,-14,-3,10240,-1.00,-1.00,1.86,1.92,6095,6077,5498,31,36,14,0,0,0
6088,6069,5498,-9,-11,-2,10240,-1.00,-1.00,1.86,1.92,6094,6077,5498,31,36,14,0,0,0
6087,6068,5497,-8,-9,-1,10240,-1.00,-1.00,1.86,1.92,6094,6076,5498,31,36,14,0,0,0
6083,6063,5497,-8,-9,-1,10240,-1.00,-1.00,1.86,1.92,6094,6076,5498,31,36,14,0,0,0
6087,6068,5496,-7,-9,-1,10240,-1.00,-1.00,1.86,1.92,6094,6076,5498,31,36,14,0,0,0
6084,6061,5495,-8,-10,-1,10240,-1.00,-1.00,1.86,1.92,6093,6075,5498,29,34,14,0,0,0
6077,6055,5493,-10,-13,-2,10240,-1.00,-1.00,1.86,1.92,6093,6075,5498,29,34,14,0,0,0
6076,6053,5491,-12,-15,-4,10240,-1.00,-1.00,1.86,1.92,6092,6074,5498,29,34,14,0,0,0
6072,6049,5488,-15,-19,-6,10240,-1.00,-1.00,1.86,1.92,6091,6073,5497,29,34,14,0,0,0
6067,6044,5485,-18,-23,-8,10240,-1.00,-1.00,1.86,1.92,6091,6072,5497,29,34,14,0,0,0
6064,6039,5483,-21,-26,-10,10240,-1.00,-1.00,1.86,1.92,6090,6071,5497,29,34,14,0,0,0
6061,6038,5483,-24,-29,-12,10240,-1.00,-1.00,1.86,1.92,6089,6070,5496,29,34,14,0,0,0
6060,6037,5483,-26,-31,-13,10240,-1.00,-1.00,1.86,1.92,6088,6069,5496,29,34,14,0,0,0
6058,6035,5482,-27,-32,-13,10240,-1.00,-1.00,1.86,1.92,6087,6068,5495,29,34,14,0,0,0
6058,6035,5483,-28,-32,-12,10240,-1.00,-1.00,1.86,1.92,6086,6067,5495,29,34,14,0,0,0
6060,6038,5484,-27,-31,-12,10240,-1.00,-1.00,1.86,1.92,6085,6066,5494,29,34,14,0,0,0
6060,6037,5485,-26,-30,-11,10240,-1.00,-1.00,1.86,1.92,6084,6065,5494,29,34,14,0,0,0
6058,6037,5484,-25,-28,-10,10240,-1.00,-1.00,1.86,1.92,6083,6064,5494,29,34,14,0,0,0
6058,6036,5484,-24,-27,-9,10240,-1.00,-1.00,1.86,1.92,6082,6063,5494,29,34,14,0,0,0
6059,6040,5486,-24,-26,-9,10240,-1.00,-1.00,1.86,1.92,6082,6062,5493,29,34,14,0,0,0
6059,6041,5487,-23,-24,-8,10240,-1.00,-1.00,1.86,1.92,6081,6061,5493,29,34,14,0,0,0
6062,6043,5489,-21,-21,-6,10240,-1.00,-1.00,1.86,1.92,6080,6061,5493,29,34,14,0,0,0
6060,6043,5488,-20,-19,-5,10240,-1.00,-1.00,1.86,1.92,6080,6060,5493,29,34,14,0,0,0
6060,6044,5488,-19,-17,-5,10240,-1.00,-1.00,1.86,1.92,6079,6060,5493,29,34,14,0,0,0
6058,6042,5488,-19,-17,-4,10240,-1.00,-1.00,1.86,1.92,6078,6059,5492,29,34,14,0,0,0
6066,6042,5489,-17,-16,-4,10240,-1.00,-1.00,1.86,1.92,6078,6058,5492,29,34,14,0,0,0
6061,6046,5491,-16,-15,-3,10240,-1.00,-1.00,1.86,1.92,6077,6058,5492,29,34,14,0,0,0
6062,6046,5491,-15,-14,-2,10240,-1.00,-1.00,1.86,1.92,6077,6058,5492,29,34,14,0,0,0
6063,6049,5493,-14,-12,-1,10240,-1.00,-1.00,1.86,1.92,6076,6057,5492,29,34,14,0,0,0
6060,6048,5492,-15,-10,0,10240,-1.00,-1.00,1.86,1.92,6076,6057,5492,29,34,14,0,0,0
6063,6049,5492,-14,-9,0,10240,-1.00,-1.00,1.86,1.92,6075,6057,5492,29,34,14,0,0,0
6068,6052,5494,-12,-7,0,10240,-1.00,-1.00,1.86,1.92,6075,6057,5492,29,34,14,0,0,0
6065,6052,5494,-11,-6,1,10240,-1.00,-1.00,1.86,1.92,6075,6056,5492,29,34,14,0,0,0
6068,6054,5494,-9,-4,1,10240,-1.00,-1.00,1.86,1.92,6075,6056,5492,29,34,14,0,0,0
6065,6051,5492,-8,-4,1,10240,-1.00,-1.00,1.86,1.92,6074,6056,5492,29,34,14,0,0,0
6068,6051,5491,-8,-4,0,10240,-1.00,-1.00,1.86,1.92,6074,6056,5492,29,34,14,0,0,0
6062,6045,5488,-8,-5,0,10240,-1.00,-1.00,1.86,1.92,6074,6056,5492,29,33,14,0,0,0
6060,6039,5484,-10,-9,-3,10240,-1.00,-1.00,1.86,1.92,6073,6055,5492,29,33,14,0,0,0
6057,6038,5482,-11,-12,-5,10240,-1.00,-1.00,1.86,1.92,6073,6054,5492,29,33,14,0,0,0
6052,6032,5481,-15,-16,-8,10240,-1.00,-1.00,1.86,1.92,6072,6054,5491,29,33,14,0,0,0
6045,6026,5478,-18,-20,-10,10240,-1.00,-1.00,1.86,1.92,6071,6053,5491,29,33,14,0,0,0
6042,6020,5476,-22,-24,-11,10240,-1.00,-1.00,1.86,1.92,6070,6052,5490,29,33,14,0,0,0
6042,6021,5475,-25,-27,-13,10240,-1.00,-1.00,1.86,1.92,6069,6051,5490,29,33,14,0,0,0
6041,6019,5475,-27,-30,-14,10240,-1.00,-1.00,1.86,1.92,6068,6050,5489,29,33,14,0,0,0
6040,6019,5475,-27,-30,-14,10240,-1.00,-1.00,1.86,1.92,6067,6049,5489,29,33,14,0,0,0
6037,6016,5473,-27,-30,-14,10240,-1.00,-1.00,1.86,1.92,6066,6047,5488,29,33,14,0,0,0
6035,6015,5472,-28,-30,-14,10240,-1.00,-1.00,1.86,1.92,6065,6046,5488,29,33,14,0,0,0
6036,6017,5474,-28,-30,-14,10240,-1.00,-1.00,1.86,1.92,6064,6045,5487,29,33,14,0,0,0
6034,6016,5473,-29,-29,-14,10240,-1.00,-1.00,1.86,1.92,6063,6044,5487,29,33,14,0,0,0
6034,6016,5475,-28,-28,-13,10240,-1.00,-1.00,1.86,1.92,6062,6044,5487,29,33,14,0,0,0
6036,6016,5473,-27,-27,-13,10240,-1.00,-1.00,1.86,1.92,6061,6043,5486,29,33,14,0,0,0
6038,6016,5474,-26,-27,-12,10240,-1.00,-1.00,1.86,1.92,6061,6042,5486,29,33,14,0,0,0
6040,6021,5476,-24,-25,-11,10240,-1.00,-1.00,1.86,1.92,6060,6041,5485,29,33,14,0,0,0
6042,6020,5476,-21,-23,-10,10240,-1.00,-1.00,1.86,1.92,6059,6040,5485,29,33,14,0,0,0
6045,6024,5478,-18,-20,-9,10240,-1.00,-1.00,1.86,1.92,6059,6040,5485,29,33,14,0,0,0
6043,6023,5479,-16,-18,-7,10240,-1.00,-1.00,1.86,1.92,6058,6039,5485,29,33,14,0,0,0
6043,6023,5480,-15,-17,-6,10240,-1.00,-1.00,1.86,1.92,6058,6039,5484,29,33,14,0,0,0
6048,6027,5480,-13,-14,-5,10240,-1.00,-1.00,1.86,1.92,6057,6038,5484,29,33,14,0,0,0
6047,6027,5480,-12,-13,-4,10240,-1.00,-1.00,1.86,1.92,6057,6038,5484,29,33,14,0,0,0
6049,6029,5481,-10,-11,-3,10240,-1.00,-1.00,1.86,1.92,6057,6038,5484,29,33,14,0,0,0
6051,6030,5482,-8,-9,-3,10240,-1.00,-1.00,1.86,1.92,6057,6037,5484,29,33,14,0,0,0
6049,6028,5483,-7,-9,-2,10240,-1.00,-1.00,1.86,1.92,6056,6037,5484,29,33,14,0,0,0
6052,6030,5482,-6,-8,-2,10240,-1.00,-1.00,1.86,1.92,6056,6037,5484,29,33,14,0,0,0
6056,6033,5483,-4,-6,-1,10240,-1.00,-1.00,1.86,1.92,6056,6037,5484,29,33,14,0,0,0
6053,6031,5483,-3,-6,-1,10240,-1.00,-1.00,1.86,1.92,6056,6036,5484,29,33,14,0,0,0
6052,6031,5483,-2,-5,-1,10240,-1.00,-1.00,1.86,1.92,6056,6036,5484,29,33,14,0,0,0
6047,6025,5479,-4,-6,-2,10240,-1.00,-1.00,1.86,1.92,6056,6036,5484,28,31,14,0,0,0
6043,6019,5476,-7,-9,-3,10240,-1.00,-1.00,1.86,1.92,6055,6035,5483,28,31,14,0,0,0
6039,6015,5474,-10,-13,-5,10240,-1.00,-1.00,1.86,1.92,6055,6035,5483,28,31,14,0,0,0
6037,6012,5471,-13,-17,-8,10240,-1.00,-1.00,1.86,1.92,6054,6034,5483,28,31,14,0,0,0
6035,6008,5469,-16,-20,-10,10240,-1.00,-1.00,1.86,1.92,6054,6033,5482,28,31,14,0,0,0
6032,6007,5469,-18,-23,-11,10240,-1.00,-1.00,1.86,1.92,6053,6032,5482,28,31,14,0,0,0
6033,6005,5469,-19,-24,-12,10240,-1.00,-1.00,1.86,1.92,6052,6031,5481,28,31,14,0,0,0
6033,6006,5469,-19,-25,-12,10240,-1.00,-1.00,1.86,1.92,6052,6030,5481,28,31,14,0,0,0
6033,6005,5467,-19,-25,-12,10240,-1.00,-1.00,1.86,1.92,6051,6030,5480,28,31,14,0,0,0
6029,6002,5467,-19,-25,-12,10240,-1.00,-1.00,1.86,1.92,6050,6029,5480,28,31,14,0,0,0
6030,6004,5468,-19,-25,-12,10240,-1.00,-1.00,1.86,1.92,6049,6028,5480,28,31,14,0,0,0
6029,6004,5468,-19,-24,-12,10240,-1.00,-1.00,1.86,1.92,6049,6027,5479,28,31,14,0,0,0
6031,6007,5470,-19,-23,-11,10240,-1.00,-1.00,1.86,1.92,6048,6026,5479,28,31,14,0,0,0
6031,6007,5470,-18,-21,-10,10240,-1.00,-1.00,1.86,1.92,6048,6026,5479,28,31,14,0,0,0
6032,6008,5470,-17,-19,-9,10240,-1.00,-1.00,1.86,1.92,6047,6025,5478,28,31,14,0,0,0
6032,6009,5470,-16,-17,-8,10240,-1.00,-1.00,1.86,1.92,6047,6025,5478,28,31,14,0,0,0
6031,6009,5470,-15,-16,-8,10240,-1.00,-1.00,1.86,1.92,6046,6024,5478,28,31,14,0,0,0
6032,6011,5473,-14,-15,-7,10240,-1.00,-1.00,1.86,1.92,6046,6024,5478,28,31,14,0,0,0
6031,6009,5472,-14,-14,-6,10240,-1.00,-1.00,1.86,1.92,6045,6023,5477,28,31,14,0,0,0
6031,6009,5472,-14,-14,-5,10240,-1.00,-1.00,1.86,1.92,6045,6023,5477,28,31,14,0,0,0
6032,6012,5472,-13,-12,-5,10240,-1.00,-1.00,1.86,1.92,6044,6022,5477,28,31,14,0,0,0
6032,6013,5472,-13,-11,-5,10240,-1.00,-1.00,1.86,1.92,6044,6022,5477,28,31,14,0,0,0
6029,6013,5474,-13,-10,-4,10240,-1.00,-1.00,1.86,1.92,6043,6022,5477,28,31,14,0,0,0
6030,6016,5475,-12,-8,-3,10240,-1.00,-1.00,1.86,1.92,6043,6022,5477,28,31,14,0,0,0
6028,6015,5474,-13,-7,-3,10240,-1.00,-1.00,1.86,1.92,6042,6021,5477,28,31,14,0,0,0
6027,6015,5473,-14,-6,-3,10240,-1.00,-1.00,1.86,1.92,6042,6021,5477,28,31,14,0,0,0
6025,6015,5474,-14,-6,-2,10240,-1.00,-1.00,1.86,1.92,6041,6021,5476,28,31,14,0,0,0
6023,6015,5475,-15,-6,-2,10240,-1.00,-1.00,1.86,1.92,6041,6021,5476,28,31,14,0,0,0
6025,6017,5474,-16,-5,-2,10240,-1.00,-1.00,1.86,1.92,6040,6021,5476,28,31,14,0,0,0
6026,6018,5475,-15,-4,-1,10240,-1.00,-1.00,1.86,1.92,6040,6020,5476,28,31,14,0,0,0
6019,6012,5471,-16,-5,-2,10240,-1.00,-1.00,1.86,1.92,6039,6020,5476,28,28,14,0,0,0
6027,6014,5471,-15,-5,-3,10240,-1.00,-1.00,1.86,1.92,6039,6020,5476,28,28,14,0,0,0
6025,6011,5469,-14,-6,-4,10240,-1.00,-1.00,1.86,1.92,6038,6020,5476,28,28,14,0,0,0
6018,6004,5466,-16,-9,-6,10240,-1.00,-1.00,1.86,1.92,6037,6019,5475,28,28,14,0,0,0
6010,5998,5463,-17,-12,-8,10240,-1.00,-1.00,1.86,1.92,6037,6018,5475,28,28,14,0,0,0
6008,5995,5461,-21,-16,-10,10240,-1.00,-1.00,1.86,1.92,6036,6018,5475,28,28,14,0,0,0
6007,5994,5459,-25,-20,-12,10240,-1.00,-1.00,1.86,1.92,6035,6017,5474,28,28,14,0,0,0
6002,5990,5458,-28,-23,-14,10240,-1.00,-1.00,1.86,1.92,6034,6016,5473,28,28,14,0,0,0
6002,5991,5460,-29,-24,-14,10240,-1.00,-1.00,1.86,1.92,6032,6015,5473,28,28,14,0,0,0
6000,5993,5459,-30,-23,-14,10240,-1.00,-1.00,1.86,1.92,6031,6014,5473,28,28,14,0,0,0
6001,5997,5460,-30,-22,-13,10240,-1.00,-1.00,1.86,1.92,6030,6014,5472,28,28,14,0,0,0
6004,6000,5461,-29,-18,-12,10240,-1.00,-1.00,1.86,1.92,6030,6013,5472,28,28,14,0,0,0
5997,5993,5461,-29,-17,-11,10240,-1.00,-1.00,1.86,1.92,6028,6013,5471,28,28,14,0,0,0
6015,6015,5466,-24,-12,-9,10240,-1.00,-1.00,1.86,1.92,6028,6013,5471,28,28,14,0,0,0
6022,6022,5467,-19,-5,-7,10240,-1.00,-1.00,1.86,1.92,6028,6013,5471,28,28,14,0,0,0
6023,6023,5467,-13,0,-5,10240,-1.00,-1.00,1.86,1.92,6028,6013,5471,28,28,14,0,0,0
6034,6034,5468,-4,10,-4,10240,-1.00,-1.00,1.86,1.92,6028,6014,5471,28,28,14,0,0,0
6031,6031,5467,0,13,-3,10240,-1.00,-1.00,1.86,1.92,6028,6015,5471,28,28,14,0,0,0
6039,6039,5468,3,17,-3,10240,-1.00,-1.00,1.86,1.92,6028,6016,5471,28,28,14,0,0,0
6048,6048,5471,9,22,-2,10240,-1.00,-1.00,1.86,1.92,6029,6017,5471,28,28,14,0,0,0
6060,6060,5472,15,28,-1,10240,-1.00,-1.00,1.86,1.92,6030,6018,5471,28,28,14,0,0,0
6066,6066,5474,23,35,0,10240,-1.00,-1.00,1.86,1.92,6031,6020,5471,28,28,14,0,0,0
6075,6075,5477,31,43,2,10240,-1.00,-1.00,1.86,1.92,6033,6021,5471,28,28,14,0,0,0
6073,6073,5479,36,48,4,10240,-1.00,-1.00,1.86,1.92,6034,6023,5471,28,28,14,0,0,0
6068,6068,5480,37,48,6,10240,-1.00,-1.00,1.86,1.92,6035,6025,5472,28,28,14,0,0,0
6056,6056,5480,33,44,7,10240,-1.00,-1.00,1.86,1.92,6036,6026,5472,38,39,14,0,0,0
6044,6044,5480,25,35,8,10240,-1.00,-1.00,1.86,1.92,6036,6026,5472,38,39,14,0,0,0
6050,6050,5480,18,28,8,10240,-1.00,-1.00,1.86,1.92,6037,6027,5472,38,39,14,0,0,0
6043,6043,5480,11,21,7,10240,-1.00,-1.00,1.86,1.92,6037,6028,5473,38,39,16,0,0,0
6040,6040,5481,7,17,7,10240,-1.00,-1.00,2.21,2.15,6037,6028,5473,38,39,16,0,0,0
6059,6059,5481,10,20,7,10240,-1.00,-1.00,2.21,2.15,6038,6029,5473,38,39,16,0,0,0
6050,6050,5479,10,19,7,10240,-1.00,-1.00,2.21,2.15,6038,6030,5473,38,39,16,0,0,0
6057,6057,5479,13,22,6,10240,-1.00,-1.00,2.21,2.15,6039,6031,5474,38,39,16,0,0,0
6058,6058,5476,17,25,5,10240,-1.00,-1.00,2.21,2.15,6039,6032,5474,38,39,16,0,0,0
6054,6055,5472,15,23,2,10240,-1.00,-1.00,2.21,2.15,6040,6032,5474,38,36,16,0,0,0
6043,6043,5469,13,21,0,10240,-1.00,-1.00,2.21,2.15,6040,6033,5473,38,36,16,0,0,0
6047,6047,5468,10,18,-2,10240,-1.00,-1.00,2.21,2.15,6040,6033,5473,38,36,16,0,0,0
6036,6036,5466,5,12,-4,10240,-1.00,-1.00,2.21,2.15,6040,6033,5473,38,36,16,0,0,0
6053,6053,5467,4,11,-5,10240,-1.00,-1.00,2.21,2.15,6040,6034,5473,38,36,16,0,0,0
6042,6042,5466,4,11,-6,10240,-1.00,-1.00,2.21,2.15,6040,6034,5473,38,36,16,0,0,0
6047,6047,5466,4,10,-6,10240,-1.00,-1.00,2.21,2.15,6041,6035,5472,38,36,16,0,0,0
6037,6037,5466,4,10,-6,10240,-1.00,-1.00,2.21,2.15,6041,6035,5472,38,36,16,0,0,0
6037,6037,5465,0,6,-6,10240,-1.00,-1.00,2.21,2.15,6040,6035,5472,38,36,16,0,0,0
6044,6044,5466,0,6,-6,10240,-1.00,-1.00,2.21,2.15,6041,6035,5472,38,36,16,0,0,0
6043,6043,5467,0,5,-6,10240,-1.00,-1.00,2.21,2.15,6041,6035,5472,38,36,16,0,0,0
6050,6050,5469,2,8,-5,10240,-1.00,-1.00,2.21,2.15,6041,6036,5471,38,36,16,0,0,0
6049,6049,5468,5,11,-4,10240,-1.00,-1.00,2.21,2.15,6041,6036,5471,38,36,16,0,0,0
6051,6052,5471,7,12,-2,10240,-1.00,-1.00,2.21,2.15,6042,6037,5471,38,36,16,0,0,0
6042,6042,5471,6,11,-1,10240,-1.00,-1.00,2.21,2.15,6042,6037,5471,38,36,16,0,0,0
6051,6051,5471,6,11,0,10240,-1.00,-1.00,2.21,2.15,6042,6037,5471,38,36,16,0,0,0
6040,6040,5470,4,9,0,10240,-1.00,-1.00,2.21,2.15,6042,6038,5471,38,36,16,0,0,0
6038,6038,5470,0,5,0,10240,-1.00,-1.00,2.21,2.15,6042,6038,5471,38,36,16,0,0,0
6044,6044,5472,1,5,0,10240,-1.00,-1.00,2.21,2.15,6042,6038,5471,38,36,16,0,0,0
6045,6045,5474,0,3,0,10240,-1.00,-1.00,2.21,2.15,6042,6038,5471,38,36,16,0,0,0
6057,6057,5477,4,7,2,10240,-1.00,-1.00,2.21,2.15,6042,6039,5472,38,36,16,0,0,0
6074,6074,5480,12,16,4,10240,-1.00,-1.00,2.21,2.15,6043,6040,5472,38,36,16,0,0,0
6076,6076,5481,20,23,6,10240,-1.00,-1.00,2.21,2.15,6044,6041,5472,38,36,16,0,0,0
6076,6077,5482,27,30,8,10240,-1.00,-1.00,2.21,2.15,6046,6042,5472,38,36,16,0,0,0
6079,6079,5482,31,35,9,10240,-1.00,-1.00,2.21,2.15,6047,6043,5473,38,36,16,0,0,0
6064,6063,5481,27,31,9,10240,-1.00,-1.00,2.21,2.15,6047,6044,5473,36,35,16,0,0,0
6082,6083,5483,28,32,9,10240,-1.00,-1.00,2.21,2.15,6048,6045,5473,36,35,16,0,0,0
6082,6082,5485,28,32,9,10240,-1.00,-1.00,2.21,2.15,6050,6047,5474,36,35,16,0,0,0
6063,6063,5484,24,27,9,10240,-1.00,-1.00,2.21,2.15,6050,6047,5474,36,35,16,58,0,0
6048,6048,5480,19,22,9,10240,-1.00,-1.00,2.21,2.15,6050,6047,5474,36,35,16,58,0,0
6035,6034,5476,7,9,7,10240,-1.00,-1.00,2.21,2.15,6049,6047,5474,36,35,16,58,0,0
6017,6014,5473,-8,-7,4,10240,-1.00,-1.00,2.21,2.15,6048,6046,5474,36,35,16,58,0,0
6013,6005,5470,-20,-20,0,10240,-1.00,-1.00,2.21,2.15,6047,6044,5474,36,35,16,58,0,0
6012,6002,5467,-28,-31,-2,10240,-1.00,-1.00,2.21,2.15,6046,6043,5474,36,35,16,58,0,0
6007,5996,5464,-34,-39,-5,10240,-1.00,-1.00,2.21,2.15,6045,6041,5474,36,35,16,58,0,0
6009,5996,5463,-35,-42,-7,10240,-1.00,-1.00,2.21,2.15,6043,6040,5473,36,35,16,58,0,0
6004,5993,5463,-36,-43,-9,10240,-1.00,-1.00,2.21,2.15,6042,6038,5473,36,35,16,58,0,0
6001,5991,5461,-37,-45,-10,10240,-1.00,-1.00,2.21,2.15,6041,6037,5473,36,35,16,58,0,0
6002,5992,5461,-37,-44,-10,10240,-1.00,-1.00,2.21,2.15,6040,6035,5472,36,35,16,58,0,0
6000,5992,5460,-38,-44,-11,10240,-1.00,-1.00,2.21,2.15,6038,6034,5472,36,35,16,58,0,0
6000,5992,5461,-38,-42,-11,10240,-1.00,-1.00,2.21,2.15,6037,6032,5471,36,35,16,58,0,0
6003,5995,5463,-36,-40,-10,10240,-1.00,-1.00,2.21,2.15,6036,6031,5471,36,35,16,58,0,0
6007,5999,5464,-34,-37,-9,10240,-1.00,-1.00,2.21,2.15,6035,6030,5471,36,35,16,58,0,0
6003,5997,5463,-32,-34,-8,10240,-1.00,-1.00,2.21,2.15,6034,6029,5471,36,35,16,58,0,0
6003,6000,5465,-30,-31,-7,10240,-1.00,-1.00,2.21,2.15,6033,6028,5470,36,35,16,58,0,0
6010,6007,5466,-27,-27,-6,10240,-1.00,-1.00,2.21,2.15,6032,6027,5470,36,35,16,58,0,0
6000,5999,5466,-28,-26,-5,10240,-1.00,-1.00,2.21,2.15,6031,6026,5470,36,35,16,58,0,0
6008,6003,5466,-26,-24,-4,10240,-1.00,-1.00,2.21,2.15,6030,6026,5470,36,35,16,58,0,0
6017,6009,5467,-22,-21,-3,10240,-1.00,-1.00,2.21,2.15,6030,6025,5470,36,35,16,58,0,0
6019,6011,5470,-19,-20,-2,10240,-1.00,-1.00,2.21,2.15,6029,6025,5470,36,35,16,58,0,0
6019,6013,5471,-13,-16,-1,10240,-1.00,-1.00,2.21,2.15,6029,6024,5470,36,35,16,58,0,0
6024,6019,5473,-9,-11,0,10240,-1.00,-1.00,2.21,2.15,6029,6024,5470,36,35,16,58,0,0
6038,6027,5480,-4,-6,3,10240,-1.00,-1.00,2.21,2.15,6029,6024,5470,36,35,16,58,0,0
6046,6035,5481,2,0,6,10240,-1.00,-1.00,2.21,2.15,6030,6024,5471,36,35,16,58,0,0
6047,6037,5483,9,5,8,10240,-1.00,-1.00,2.21,2.15,6030,6025,5471,36,35,16,58,0,0
6052,6043,5486,15,11,11,10240,-1.00,-1.00,2.21,2.15,6031,6025,5472,36,35,16,58,0,0
6054,6045,5489,19,15,13,10240,-1.00,-1.00,2.21,2.15,6032,6026,5472,36,35,16,58,0,0
6061,6051,5490,22,18,15,10240,-1.00,-1.00,2.21,2.15,6033,6027,5473,36,35,16,58,0,0
6051,6047,5489,22,20,16,10240,-1.00,-1.00,2.21,2.15,6033,6028,5473,36,35,16,58,0,0
6057,6052,5489,22,21,16,10240,-1.00,-1.00,2.21,2.15,6034,6028,5474,36,35,16,61,0,0
6054,6053,5489,22,22,15,10240,-1.00,-1.00,2.21,2.15,6035,6029,5474,36,35,19,61,0,0
6070,6068,5491,23,26,15,10240,-1.00,-1.00,1.67,1.72,6036,6031,5475,36,35,19,61,0,0
6071,6068,5491,27,30,15,10240,-1.00,-1.00,1.67,1.72,6037,6032,5476,36,35,19,61,0,0
6067,6062,5491,29,31,15,10240,-1.00,-1.00,1.67,1.72,6038,6033,5476,36,35,19,61,0,0
6070,6061,5490,32,32,15,10240,-1.00,-1.00,1.67,1.72,6039,6034,5476,36,35,19,61,0,0
6083,6070,5493,34,31,15,10240,-1.00,-1.00,1.67,1.72,6041,6035,5477,36,45,19,61,0,0
6085,6071,5494,36,31,15,10240,-1.00,-1.00,1.67,1.72,6042,6036,5478,36,45,19,61,0,0
6101,6083,5497,43,35,16,10240,-1.00,-1.00,1.67,1.72,6044,6038,5478,36,45,19,61,0,0
6097,6076,5497,48,38,17,10240,-1.00,-1.00,1.67,1.72,6046,6039,5479,36,45,19,61,0,0
6105,6084,5498,52,40,17,10240,-1.00,-1.00,1.67,1.72,6048,6040,5480,36,45,19,61,0,0
6101,6079,5498,54,40,18,10240,-1.00,-1.00,1.67,1.72,6050,6042,5480,36,45,19,61,0,0
6111,6094,5502,54,42,18,10240,-1.00,-1.00,1.67,1.72,6052,6044,5481,36,45,19,61,0,0
6129,6121,5507,60,51,20,10240,-1.00,-1.00,1.67,1.72,6054,6046,5482,36,45,19,61,0,0
6128,6121,5508,64,58,22,10240,-1.00,-1.00,1.67,1.72,6057,6049,5483,36,45,19,61,0,0
6121,6114,5508,66,65,24,10240,-1.00,-1.00,1.67,1.72,6059,6051,5483,36,45,19,61,0,0
6125,6117,5509,68,68,25,10240,-1.00,-1.00,1.67,1.72,6061,6053,5484,36,45,19,61,0,0
6131,6125,5508,66,67,24,10240,-1.00,-1.00,1.67,1.72,6063,6055,5485,44,51,21,61,0,0
6124,6118,5509,63,64,24,10240,-1.00,-1.00,2.20,1.90,6065,6057,5486,44,51,21,61,0,0
6112,6103,5509,59,59,23,10240,-1.00,-1.00,2.20,1.90,6067,6059,5487,44,51,21,61,0,0
6120,6114,5508,55,57,22,10240,-1.00,-1.00,2.20,1.90,6069,6061,5487,44,51,21,61,0,0
6115,6110,5509,50,51,21,10240,-1.00,-1.00,2.20,1.90,6070,6062,5488,44,51,21,61,0,0
6110,6106,5508,44,46,20,10240,-1.00,-1.00,2.20,1.90,6072,6064,5489,44,51,21,61,0,0
6126,6126,5509,46,50,20,10240,-1.00,-1.00,2.20,1.90,6073,6066,5489,44,51,21,61,0,0
6147,6147,5512,51,57,20,10240,-1.00,-1.00,2.20,1.90,6076,6069,5490,44,51,21,61,0,0
6147,6147,5508,57,64,19,10240,-1.00,-1.00,2.20,1.90,6078,6071,5491,44,51,21,61,0,0
6146,6146,5507,64,71,18,10240,-1.00,-1.00,2.20,1.90,6080,6074,5491,44,51,21,61,0,0
6145,6145,5504,67,73,16,10240,-1.00,-1.00,2.20,1.90,6083,6076,5492,44,51,21,61,0,0
6147,6147,5503,64,71,14,10240,-1.00,-1.00,2.20,1.90,6085,6079,5492,39,45,21,61,0,0
6147,6147,5498,62,68,11,10240,-1.00,-1.00,2.20,1.90,6087,6081,5492,39,45,21,61,0,0
6147,6147,5497,60,66,8,10240,-1.00,-1.00,2.20,1.90,6089,6083,5492,39,45,21,61,100,0
6143,6143,5494,58,64,5,10240,-1.00,-1.00,2.20,1.90,6091,6085,5493,39,45,21,61,100,0
6062,6066,5486,35,42,1,10240,-1.00,-1.00,2.20,1.90,6090,6084,5492,39,45,21,61,100,0
6044,6056,5477,9,19,-3,10240,-1.00,-1.00,2.20,1.90,6088,6083,5492,39,45,21,61,100,0
6042,6056,5476,-16,-3,-8,10240,-1.00,-1.00,2.20,1.90,6087,6083,5491,39,45,21,61,100,0
6034,6048,5472,-42,-26,-13,10240,-1.00,-1.00,2.20,1.90,6085,6081,5491,39,45,21,61,100,0
6028,6041,5471,-48,-31,-17,10240,-1.00,-1.00,2.20,1.90,6083,6080,5490,39,45,21,61,100,0
6024,6039,5469,-52,-34,-18,10240,-1.00,-1.00,2.20,1.90,6081,6079,5489,39,45,21,61,100,0
6017,6032,5467,-56,-39,-20,10240,-1.00,-1.00,2.20,1.90,6079,6077,5489,39,45,21,61,100,0
6016,6031,5465,-58,-42,-21,10240,-1.00,-1.00,2.20,1.90,6077,6076,5488,39,45,21,61,100,0
6012,6028,5463,-60,-44,-22,10240,-1.00,-1.00,2.20,1.90,6075,6074,5487,39,45,21,61,100,0
6013,6031,5464,-61,-44,-22,10240,-1.00,-1.00,2.20,1.90,6072,6073,5486,39,45,21,61,100,0
6014,6029,5464,-60,-43,-22,10240,-1.00,-1.00,2.20,1.90,6071,6071,5485,39,45,21,61,100,0
6014,6024,5464,-58,-43,-22,10240,-1.00,-1.00,2.20,1.90,6069,6069,5485,39,45,21,61,100,0
6014,6023,5466,-56,-43,-20,10240,-1.00,-1.00,2.20,1.90,6067,6068,5484,39,45,21,61,100,0
6018,6028,5469,-53,-42,-18,10240,-1.00,-1.00,2.20,1.90,6065,6067,5484,39,45,21,61,100,0
6022,6038,5471,-49,-39,-16,10240,-1.00,-1.00,2.20,1.90,6064,6066,5483,39,45,21,61,100,0
6026,6034,5473,-44,-35,-13,10240,-1.00,-1.00,2.20,1.90,6062,6065,5483,39,45,21,61,100,0
6087,6087,5478,-25,-19,-10,10240,-1.00,-1.00,2.20,1.90,6063,6065,5483,39,45,21,61,100,0
6090,6090,5486,-7,-3,-6,10240,-1.00,-1.00,2.20,1.90,6064,6066,5483,39,45,21,61,100,0
6078,6078,5486,6,6,-2,10240,-1.00,-1.00,2.20,1.90,6065,6067,5483,39,45,21,61,100,0
6086,6086,5488,21,19,1,10240,-1.00,-1.00,2.20,1.90,6065,6067,5483,39,45,21,61,100,0
6103,6103,5490,24,22,4,10240,-1.00,-1.00,2.20,1.90,6067,6068,5483,39,45,21,61,100,0
6133,6125,5493,33,30,6,10240,-1.00,-1.00,2.20,1.90,6069,6070,5484,39,45,21,61,100,0
6139,6139,5497,47,43,8,10240,-1.00,-1.00,2.20,1.90,6071,6073,5484,39,45,21,61,100,0
6137,6137,5497,58,54,10,10240,-1.00,-1.00,2.20,1.90,6073,6075,5484,39,45,21,61,100,0
6121,6121,5499,60,57,12,10240,-1.00,-1.00,2.20,1.90,6075,6076,5485,39,45,21,61,100,0
6114,6112,5499,54,52,13,10240,-1.00,-1.00,2.20,1.90,6076,6077,5485,60,59,21,61,100,0
6123,6122,5501,48,46,14,10240,-1.00,-1.00,2.20,1.90,6078,6079,5486,60,59,21,61,100,0
6146,6146,5510,48,47,16,10240,-1.00,-1.00,2.20,1.90,6080,6081,5487,60,59,21,61,100,0
6126,6125,5501,48,46,16,10240,-1.00,-1.00,2.20,1.90,6082,6083,5487,60,59,21,61,100,0
6144,6144,5500,53,52,16,10240,-1.00,-1.00,2.20,1.90,6084,6085,5488,60,59,21,61,100,0
6146,6146,5497,57,56,14,10240,-1.00,-1.00,2.20,1.90,6086,6087,5488,60,59,25,61,100,0
6131,6131,5497,52,50,11,10240,-1.00,-1.00,2.13,2.16,6087,6088,5488,60,58,25,61,100,0
6101,6101,5492,44,43,8,10240,-1.00,-1.00,2.13,2.16,6088,6089,5488,60,58,25,61,100,0
6128,6128,5491,39,38,6,10240,-1.00,-1.00,2.13,2.16,6089,6090,5488,60,58,25,61,100,0
6124,6124,5490,32,31,4,10240,-1.00,-1.00,2.13,2.16,6090,6091,5489,60,58,25,61,100,0
6129,6129,5491,30,30,2,10240,-1.00,-1.00,2.13,2.16,6092,6092,5489,60,58,25,61,100,0
6139,6139,5491,39,38,2,10240,-1.00,-1.00,2.13,2.16,6093,6094,5489,60,58,25,61,100,0
6133,6133,5488,39,38,1,10240,-1.00,-1.00,2.13,2.16,6094,6095,5489,60,58,25,61,100,0
6128,6128,5486,38,38,0,10240,-1.00,-1.00,2.13,2.16,6096,6096,5489,60,58,25,61,100,0
6133,6133,5487,38,37,0,10240,-1.00,-1.00,2.13,2.16,6097,6098,5488,60,58,25,61,100,0
6123,6123,5487,33,32,-1,10240,-1.00,-1.00,2.13,2.16,6098,6098,5488,60,58,25,61,100,0
6094,6094,5485,22,22,-2,10240,-1.00,-1.00,2.13,2.16,6098,6098,5488,60,58,25,61,100,0
6057,6056,5481,4,3,-3,10240,-1.00,-1.00,2.13,2.16,6096,6097,5488,60,58,25,61,100,0
6100,6100,5479,-3,-4,-5,10240,-1.00,-1.00,2.13,2.16,6096,6097,5488,60,58,25,61,100,0
6106,6106,5478,-7,-8,-7,10240,-1.00,-1.00,2.13,2.16,6097,6097,5487,60,58,25,61,100,0
6035,6037,5469,-21,-21,-10,10240,-1.00,-1.00,2.13,2.16,6095,6095,5487,60,58,25,61,100,0
6018,6029,5459,-30,-27,-15,10240,-1.00,-1.00,2.13,2.16,6092,6093,5486,60,58,25,61,100,0
5986,6021,5442,-56,-45,-24,10240,-1.00,-1.00,2.13,2.16,6088,6091,5484,60,58,25,61,100,0
5979,6019,5439,-85,-65,-32,10240,-1.00,-1.00,2.13,2.16,6085,6088,5483,60,58,25,61,100,0
5974,6019,5438,-97,-67,-39,10240,-1.00,-1.00,2.13,2.16,6081,6086,5481,60,58,25,61,100,0
5971,6019,5437,-105,-67,-43,10240,-1.00,-1.00,2.13,2.16,6077,6084,5480,60,58,25,61,100,0
5968,6022,5437,-106,-65,-43,10240,-1.00,-1.00,2.13,2.16,6074,6082,5479,60,58,25,61,100,0
5967,6027,5439,-105,-61,-41,10240,-1.00,-1.00,2.13,2.16,6070,6080,5477,60,58,25,61,100,0
5966,6025,5439,-104,-57,-40,10240,-1.00,-1.00,2.13,2.16,6067,6078,5476,60,58,25,61,100,0
5964,6024,5438,-102,-54,-38,10240,-1.00,-1.00,2.13,2.16,6063,6076,5475,60,58,25,61,100,0
5961,6024,5435,-100,-52,-37,10240,-1.00,-1.00,2.13,2.16,6060,6074,5473,60,58,25,61,100,0
5959,6025,5436,-99,-50,-37,10240,-1.00,-1.00,2.13,2.16,6057,6073,5472,60,58,25,61,100,0
5953,6019,5432,-99,-50,-37,10240,-1.00,-1.00,2.13,2.16,6053,6071,5471,60,58,25,61,100,0
5949,6016,5431,-99,-50,-37,10240,-1.00,-1.00,2.13,2.16,6050,6069,5469,60,58,25,61,100,0
5946,6013,5428,-99,-51,-38,10240,-1.00,-1.00,2.13,2.16,6046,6067,5468,60,58,25,61,100,0
5944,6011,5427,-100,-53,-39,10240,-1.00,-1.00,2.13,2.16,6043,6065,5467,60,58,25,61,100,0
5941,6008,5425,-99,-54,-39,10240,-1.00,-1.00,2.13,2.16,6039,6064,5465,60,58,25,61,100,0
5934,5999,5420,-99,-56,-41,10240,-1.00,-1.00,2.13,2.16,6036,6061,5464,60,58,25,61,100,0
5930,5994,5418,-100,-59,-42,10240,-1.00,-1.00,2.13,2.16,6032,6059,5462,60,58,25,61,100,0
5923,5986,5413,-102,-63,-44,10240,-1.00,-1.00,2.13,2.16,6029,6057,5461,60,58,25,61,100,0
5918,5981,5410,-104,-67,-46,10240,-1.00,-1.00,2.13,2.16,6025,6054,5459,60,58,25,61,100,0
5917,5976,5409,-104,-71,-47,10240,-1.00,-1.00,2.13,2.16,6021,6052,5457,60,58,25,61,100,0
5906,5965,5403,-107,-76,-49,10240,-1.00,-1.00,2.13,2.16,6018,6049,5456,60,58,25,61,100,0
5899,5959,5401,-109,-80,-50,10240,-1.00,-1.00,2.13,2.16,6014,6046,5454,60,58,25,61,100,0
5897,5957,5399,-111,-83,-51,10240,-1.00,-1.00,2.13,2.16,6010,6043,5452,60,58,25,61,100,0
5894,5953,5398,-113,-86,-52,10240,-1.00,-1.00,2.13,2.16,6006,6040,5450,60,58,25,61,100,0
5893,5952,5398,-112,-86,-52,10240,-1.00,-1.00,2.13,2.16,6002,6037,5448,60,58,25,61,100,0
5896,5950,5399,-109,-85,-50,10240,-1.00,-1.00,2.13,2.16,5999,6034,5447,60,58,25,61,100,0
5893,5948,5398,-106,-84,-49,10240,-1.00,-1.00,2.13,2.16,5995,6031,5445,60,58,25,61,100,0
5892,5946,5397,-103,-83,-47,10240,-1.00,-1.00,2.13,2.16,5992,6028,5443,60,58,25,61,100,0
5893,5944,5397,-100,-82,-46,10240,-1.00,-1.00,2.13,2.16,5988,6025,5442,60,58,25,61,100,0
5892,5947,5397,-97,-80,-45,10240,-1.00,-1.00,2.13,2.16,5985,6023,5440,60,58,25,61,100,0
5892,5945,5397,-94,-78,-44,10240,-1.00,-1.00,2.13,2.16,5982,6020,5439,60,58,25,61,100,0
5895,5948,5399,-90,-75,-42,10240,-1.00,-1.00,2.13,2.16,5979,6018,5438,60,58,25,61,100,0
5901,5952,5402,-85,-71,-39,10240,-1.00,-1.00,2.13,2.16,5977,6016,5436,60,58,25,61,100,0
5906,5955,5405,-79,-67,-36,10240,-1.00,-1.00,2.13,2.16,5974,6014,5435,60,58,25,61,100,0
5906,5953,5404,-73,-62,-33,10240,-1.00,-1.00,2.13,2.16,5972,6011,5434,60,58,25,61,100,0
5913,5960,5409,-66,-57,-29,10240,-1.00,-1.00,2.13,2.16,5970,6010,5434,60,58,25,61,100,0
5915,5959,5409,-61,-54,-27,10240,-1.00,-1.00,2.13,2.16,5968,6008,5433,60,58,25,61,100,0
5917,5962,5410,-56,-50,-25,10240,-1.00,-1.00,2.13,2.16,5966,6007,5432,60,58,25,61,100,0
5920,5963,5412,-51,-46,-22,10240,-1.00,-1.00,2.13,2.16,5965,6005,5431,60,58,25,61,100,0
5921,5962,5412,-47,-44,-21,10240,-1.00,-1.00,2.13,2.16,5963,6004,5431,60,58,25,61,100,0
5922,5964,5412,-44,-41,-19,10240,-1.00,-1.00,2.13,2.16,5962,6002,5430,60,58,25,61,100,0
5920,5963,5412,-42,-40,-18,10240,-1.00,-1.00,2.13,2.16,5961,6001,5429,60,58,25,61,100,0
5922,5962,5412,-40,-39,-17,10240,-1.00,-1.00,2.13,2.16,5959,6000,5429,60,58,25,61,100,0
5924,5963,5413,-38,-37,-16,10240,-1.00,-1.00,2.13,2.16,5958,5998,5428,60,58,25,61,100,0
5926,5964,5414,-35,-36,-15,10240,-1.00,-1.00,2.13,2.16,5957,5997,5428,60,58,25,61,100,0
5926,5962,5412,-33,-35,-15,10240,-1.00,-1.00,2.13,2.16,5956,5996,5427,60,58,25,61,100,0
5924,5960,5411,-31,-34,-15,10240,-1.00,-1.00,2.13,2.16,5955,5995,5427,60,58,25,61,100,0
5923,5957,5411,-30,-34,-15,10240,-1.00,-1.00,2.13,2.16,5954,5994,5426,60,58,25,61,100,0
5920,5953,5409,-31,-36,-15,10240,-1.00,-1.00,2.13,2.16,5953,5992,5426,65,57,25,61,100,0
5914,5951,5406,-33,-37,-16,10240,-1.00,-1.00,2.13,2.16,5951,5991,5425,65,57,28,61,100,0
5908,5941,5403,-35,-41,-18,10240,-1.00,-1.00,1.84,2.12,5950,5989,5424,65,57,28,61,100,0
5906,5937,5401,-38,-44,-20,10240,-1.00,-1.00,1.84,2.12,5949,5988,5424,65,57,28,61,100,0
5905,5935,5399,-41,-47,-21,10240,-1.00,-1.00,1.84,2.12,5947,5986,5423,65,57,28,61,100,0
5906,5936,5400,-41,-49,-22,10240,-1.00,-1.00,1.84,2.12,5946,5984,5422,65,57,28,61,100,0
5906,5938,5401,-40,-48,-22,10240,-1.00,-1.00,1.84,2.12,5944,5983,5421,65,57,28,61,100,0
5906,5937,5401,-39,-47,-21,10240,-1.00,-1.00,1.84,2.12,5943,5981,5421,65,57,28,61,100,0
5902,5935,5400,-38,-45,-20,10240,-1.00,-1.00,1.84,2.12,5942,5980,5420,65,57,28,61,100,0
5904,5936,5401,-38,-44,-19,10240,-1.00,-1.00,1.84,2.12,5941,5978,5419,65,57,28,61,100,0
5905,5937,5401,-37,-42,-19,10240,-1.00,-1.00,1.84,2.12,5939,5977,5419,65,57,28,61,100,0
5904,5935,5403,-36,-41,-17,10240,-1.00,-1.00,1.84,2.12,5938,5975,5418,65,57,28,61,100,0
5903,5937,5403,-34,-39,-16,10240,-1.00,-1.00,1.84,2.12,5937,5974,5418,65,57,28,61,100,0
5903,5938,5403,-33,-38,-15,10240,-1.00,-1.00,1.84,2.12,5936,5973,5417,65,57,28,61,100,0
5903,5937,5403,-33,-36,-14,10240,-1.00,-1.00,1.84,2.12,5935,5972,5417,65,57,28,61,100,0
5903,5938,5402,-32,-35,-14,10240,-1.00,-1.00,1.84,2.12,5934,5971,5416,65,57,28,61,100,0
5903,5938,5403,-31,-33,-13,10240,-1.00,-1.00,1.84,2.12,5933,5969,5416,65,57,28,61,100,0
5907,5941,5406,-29,-31,-12,10240,-1.00,-1.00,1.84,2.12,5932,5968,5415,65,57,28,61,100,0
5909,5942,5407,-27,-29,-11,10240,-1.00,-1.00,1.84,2.12,5931,5968,5415,65,57,28,61,100,0
5909,5943,5406,-24,-27,-9,10240,-1.00,-1.00,1.84,2.12,5930,5967,5415,65,57,28,61,100,0
5911,5946,5409,-21,-24,-8,10240,-1.00,-1.00,1.84,2.12,5930,5966,5415,65,57,28,61,100,0
5910,5945,5409,-20,-22,-7,10240,-1.00,-1.00,1.84,2.12,5929,5965,5414,65,57,28,61,100,0
5913,5949,5410,-18,-20,-6,10240,-1.00,-1.00,1.84,2.12,5928,5965,5414,65,57,28,61,100,0
5914,5950,5410,-16,-17,-4,10240,-1.00,-1.00,1.84,2.12,5928,5964,5414,65,57,28,61,100,0
5914,5951,5410,-15,-15,-4,10240,-1.00,-1.00,1.84,2.12,5928,5964,5414,65,57,28,61,100,0
5914,5950,5410,-14,-14,-4,10240,-1.00,-1.00,1.84,2.12,5927,5963,5414,65,57,28,61,100,0
5915,5949,5410,-13,-13,-4,10240,-1.00,-1.00,1.84,2.12,5927,5963,5414,65,57,28,61,100,0
5917,5954,5412,-12,-12,-3,10240,-1.00,-1.00,1.84,2.12,5926,5963,5414,65,57,28,61,100,0
5914,5950,5410,-11,-12,-3,10240,-1.00,-1.00,1.84,2.12,5926,5962,5414,65,57,28,61,100,0
5911,5946,5408,-11,-12,-3,10240,-1.00,-1.00,1.84,2.12,5925,5962,5413,65,57,28,61,100,0
5908,5942,5406,-13,-14,-4,10240,-1.00,-1.00,1.84,2.12,5925,5961,5413,57,52,28,64,100,0
5905,5938,5405,-15,-17,-6,10240,-1.00,-1.00,1.84,2.12,5924,5960,5413,57,52,28,64,100,0
5901,5931,5401,-18,-21,-7,10240,-1.00,-1.00,1.84,2.12,5923,5959,5412,57,52,28,64,100,0
5900,5929,5401,-20,-24,-9,10240,-1.00,-1.00,1.84,2.12,5923,5958,5412,57,52,28,64,100,0
5896,5925,5398,-22,-27,-11,10240,-1.00,-1.00,1.84,2.12,5922,5957,5412,57,52,28,64,100,0
5895,5924,5397,-24,-30,-12,10240,-1.00,-1.00,1.84,2.12,5921,5956,5411,57,52,28,64,100,0
5895,5924,5399,-25,-31,-12,10240,-1.00,-1.00,1.84,2.12,5920,5955,5411,57,52,28,64,100,0
5895,5923,5399,-25,-31,-12,10240,-1.00,-1.00,1.84,2.12,5919,5954,5410,57,52,28,64,100,0
5893,5923,5398,-25,-31,-12,10240,-1.00,-1.00,1.84,2.12,5918,5953,5410,57,52,28,64,100,0
5894,5926,5399,-24,-29,-11,10240,-1.00,-1.00,1.84,2.12,5917,5952,5410,57,52,28,64,100,0
5894,5925,5399,-23,-28,-11,10240,-1.00,-1.00,1.84,2.12,5917,5951,5409,57,52,28,64,100,0
5893,5926,5400,-23,-26,-10,10240,-1.00,-1.00,1.84,2.12,5916,5950,5409,57,52,28,64,100,0
5895,5930,5401,-22,-24,-9,10240,-1.00,-1.00,1.84,2.12,5915,5950,5409,57,52,28,64,100,0
5894,5929,5401,-21,-22,-8,10240,-1.00,-1.00,1.84,2.12,5915,5949,5408,57,52,28,64,100,0
5896,5931,5402,-20,-20,-7,10240,-1.00,-1.00,1.84,2.12,5914,5948,5408,57,52,28,64,100,0
5894,5927,5401,-19,-19,-7,10240,-1.00,-1.00,1.84,2.12,5913,5948,5408,57,52,28,64,100,0
5897,5930,5401,-18,-18,-6,10240,-1.00,-1.00,1.84,2.12,5913,5947,5408,57,52,28,64,100,0
5899,5929,5404,-16,-18,-6,10240,-1.00,-1.00,1.84,2.12,5912,5946,5408,57,52,28,64,100,0
5902,5933,5405,-14,-17,-5,10240,-1.00,-1.00,1.84,2.12,5912,5946,5407,57,52,28,64,100,0
5902,5935,5406,-12,-14,-3,10240,-1.00,-1.00,1.84,2.12,5912,5946,5407,57,52,28,64,100,0
5903,5935,5406,-10,-12,-2,10240,-1.00,-1.00,1.84,2.12,5911,5945,5407,57,52,28,64,100,0
5905,5936,5406,-8,-10,-1,10240,-1.00,-1.00,1.84,2.12,5911,5945,5407,57,52,28,64,100,0
5906,5937,5406,-7,-9,-1,10240,-1.00,-1.00,1.84,2.12,5911,5945,5407,57,52,28,64,100,0
5908,5940,5409,-5,-8,0,10240,-1.00,-1.00,1.84,2.12,5911,5945,5407,57,52,28,64,100,0
5907,5941,5409,-4,-6,0,10240,-1.00,-1.00,1.84,2.12,5911,5944,5407,57,52,28,64,100,0
5909,5944,5409,-3,-4,1,10240,-1.00,-1.00,1.84,2.12,5911,5944,5407,57,52,28,64,100,0
5914,5949,5414,-1,-1,3,10240,-1.00,-1.00,1.84,2.12,5911,5945,5408,57,52,28,64,100,0
5920,5955,5417,1,2,4,10240,-1.00,-1.00,1.84,2.12,5911,5945,5408,57,52,28,64,100,0
5922,5956,5417,5,6,6,10240,-1.00,-1.00,1.84,2.12,5911,5945,5408,57,52,28,65,100,0
5921,5956,5417,8,8,8,10240,-1.00,-1.00,1.84,2.12,5912,5946,5409,57,52,28,65,100,0
5920,5955,5417,9,10,8,10240,-1.00,-1.00,1.84,2.12,5912,5946,5409,57,52,28,65,100,0
5916,5951,5414,8,8,7,10240,-1.00,-1.00,1.84,2.12,5912,5946,5409,51,49,28,65,100,0
5912,5947,5413,5,6,6,10240,-1.00,-1.00,1.84,2.12,5912,5946,5409,51,49,28,65,100,0
5910,5943,5410,2,3,4,10240,-1.00,-1.00,1.84,2.12,5912,5946,5409,51,49,28,65,100,0
5907,5940,5409,0,0,2,10240,-1.00,-1.00,1.84,2.12,5912,5946,5409,51,49,28,65,100,0
5904,5937,5406,-3,-4,0,10240,-1.00,-1.00,1.84,2.12,5912,5946,5409,51,49,28,65,100,0
5904,5935,5407,-5,-7,-1,10240,-1.00,-1.00,1.84,2.12,5911,5945,5409,51,49,28,65,100,0
5905,5937,5408,-6,-8,-1,10240,-1.00,-1.00,1.84,2.12,5911,5945,5409,51,49,28,65,100,0
5906,5938,5409,-6,-8,-1,10240,-1.00,-1.00,1.84,2.12,5911,5945,5409,51,49,28,65,100,0
5906,5937,5408,-5,-8,-1,10240,-1.00,-1.00,1.84,2.12,5911,5944,5409,51,49,28,65,100,0
5908,5940,5410,-4,-6,0,10240,-1.00,-1.00,1.84,2.12,5911,5944,5409,51,49,28,65,100,0
5910,5942,5411,-3,-5,0,10240,-1.00,-1.00,1.84,2.12,5911,5944,5409,51,49,28,65,100,0
5915,5946,5414,-1,-2,1,10240,-1.00,-1.00,1.84,2.12,5911,5944,5409,51,49,28,65,100,0
5919,5950,5416,2,0,3,10240,-1.00,-1.00,1.84,2.12,5911,5944,5409,51,49,28,65,100,0
5922,5953,5418,5,3,5,10240,-1.00,-1.00,1.84,2.12,5911,5945,5410,51,49,28,65,100,0
5925,5955,5419,9,6,7,10240,-1.00,-1.00,1.84,2.12,5912,5945,5410,51,49,28,65,100,0
5926,5955,5420,11,8,8,10240,-1.00,-1.00,1.84,2.12,5912,5945,5410,51,49,28,65,100,0
5929,5958,5420,13,10,9,10240,-1.00,-1.00,1.84,2.12,5913,5946,5411,51,49,28,65,100,0
5931,5962,5423,15,12,10,10240,-1.00,-1.00,1.84,2.12,5914,5946,5411,51,49,28,65,100,0
5934,5966,5424,16,14,10,10240,-1.00,-1.00,1.84,2.12,5914,5947,5412,51,49,28,65,100,0
5936,5967,5426,18,16,11,10240,-1.00,-1.00,1.84,2.12,5915,5948,5412,51,49,28,65,100,0
5937,5969,5426,19,18,12,10240,-1.00,-1.00,1.84,2.12,5916,5948,5413,51,49,28,65,100,0
5938,5970,5427,21,20,13,10240,-1.00,-1.00,1.84,2.12,5916,5949,5413,51,49,28,65,100,0
5938,5971,5429,21,20,14,10240,-1.00,-1.00,1.84,2.12,5917,5950,5414,51,49,28,65,100,0
5938,5975,5428,21,21,14,10240,-1.00,-1.00,1.84,2.12,5918,5951,5414,51,49,28,65,100,0
5939,5976,5428,20,22,14,10240,-1.00,-1.00,1.84,2.12,5919,5952,5414,45,49,28,65,100,0
5940,5977,5430,20,23,14,10240,-1.00,-1.00,1.84,2.12,5919,5952,5415,45,49,28,65,100,0
5943,5980,5431,21,25,14,10240,-1.00,-1.00,1.84,2.12,5920,5953,5416,45,49,28,65,100,0
5947,5984,5433,22,26,15,10240,-1.00,-1.00,1.84,2.12,5921,5954,5416,45,49,28,65,100,0
5949,5986,5435,24,28,16,10240,-1.00,-1.00,1.84,2.12,5922,5955,5417,45,49,28,65,100,0
5949,5987,5434,25,29,16,10240,-1.00,-1.00,1.84,2.12,5923,5957,5417,45,49,28,65,100,0
5949,5985,5433,26,29,16,10240,-1.00,-1.00,1.84,2.12,5924,5957,5418,45,49,28,65,100,0
5943,5979,5429,24,27,15,10240,-1.00,-1.00,1.84,2.12,5924,5958,5418,40,46,28,65,100,0
5941,5976,5428,21,24,13,10240,-1.00,-1.00,1.84,2.12,5925,5959,5419,40,46,28,65,100,0
5938,5972,5426,18,19,10,10240,-1.00,-1.00,1.84,2.12,5925,5959,5419,40,46,28,65,100,0
5936,5969,5424,14,15,8,10240,-1.00,-1.00,1.84,2.12,5926,5960,5419,40,46,28,65,100,0
5937,5969,5425,12,12,6,10240,-1.00,-1.00,1.84,2.12,5926,5960,5419,40,46,28,65,100,0
5937,5968,5424,11,9,5,10240,-1.00,-1.00,1.84,2.12,5926,5960,5419,40,46,28,65,100,0
5937,5970,5425,10,9,5,10240,-1.00,-1.00,1.84,2.12,5927,5960,5419,40,46,28,65,100,0
5937,5971,5425,10,9,5,10240,-1.00,-1.00,1.84,2.12,5927,5961,5420,40,46,28,65,100,0
5939,5974,5426,10,10,5,10240,-1.00,-1.00,1.84,2.12,5927,5961,5420,40,46,28,65,100,0
5940,5975,5426,11,11,5,10240,-1.00,-1.00,1.84,2.12,5928,5962,5420,40,46,28,65,100,0
5941,5974,5427,11,12,6,10240,-1.00,-1.00,1.84,2.12,5928,5962,5420,40,46,28,65,100,0
5944,5977,5429,13,13,6,10240,-1.00,-1.00,1.84,2.12,5929,5963,5421,40,46,28,65,100,0
5947,5979,5432,14,13,8,10240,-1.00,-1.00,1.84,2.12,5929,5963,5421,40,46,28,65,100,0
5949,5983,5432,16,15,9,10240,-1.00,-1.00,1.84,2.12,5930,5964,5421,40,46,28,65,100,0
5950,5983,5431,17,17,9,10240,-1.00,-1.00,1.84,2.12,5931,5964,5422,40,46,28,65,100,0
5948,5985,5432,18,18,10,10240,-1.00,-1.00,1.84,2.12,5931,5965,5422,40,46,28,65,100,0
5952,5988,5433,18,20,10,10240,-1.00,-1.00,1.84,2.12,5932,5966,5422,40,46,28,65,100,0
5952,5989,5434,18,20,10,10240,-1.00,-1.00,1.84,2.12,5933,5967,5423,40,46,28,65,100,0
5953,5990,5434,19,21,10,10240,-1.00,-1.00,1.84,2.12,5933,5967,5423,40,46,28,65,100,0
5954,5993,5435,19,23,11,10240,-1.00,-1.00,1.84,2.12,5934,5968,5424,40,46,28,65,100,0
5956,5993,5436,20,23,11,10240,-1.00,-1.00,1.84,2.12,5935,5969,5424,40,46,28,65,100,0
5960,6000,5438,21,25,12,10240,-1.00,-1.00,1.84,2.12,5936,5970,5424,40,46,28,65,100,0
5961,6000,5438,22,27,12,10240,-1.00,-1.00,1.84,2.12,5936,5971,5425,40,46,28,65,100,0
5962,6003,5439,23,28,13,10240,-1.00,-1.00,1.84,2.12,5937,5972,5425,40,46,28,65,100,0
5963,6005,5440,24,30,13,10240,-1.00,-1.00,1.84,2.12,5938,5973,5426,40,46,28,65,100,0
5965,6008,5442,25,31,14,10240,-1.00,-1.00,1.84,2.12,5939,5975,5426,40,46,28,65,100,0
5971,6013,5445,26,33,15,10240,-1.00,-1.00,1.84,2.12,5940,5976,5427,40,46,28,65,100,0
5970,6012,5445,27,34,16,10240,-1.00,-1.00,1.84,2.12,5941,5977,5428,40,46,28,65,100,0
5970,6013,5444,28,35,16,10240,-1.00,-1.00,1.84,2.12,5942,5978,5428,40,46,28,65,100,0
5968,6011,5441,28,34,15,10240,-1.00,-1.00,1.84,2.12,5943,5979,5429,40,41,28,65,100,0
5966,6010,5439,26,33,13,10240,-1.00,-1.00,1.84,2.12,5944,5980,5429,40,41,28,65,100,0
5961,6000,5435,23,29,11,10240,-1.00,-1.00,1.84,2.12,5944,5981,5429,40,41,28,65,100,0
5957,5996,5433,19,24,8,10240,-1.00,-1.00,1.84,2.12,5945,5981,5429,40,41,28,65,100,0
5955,5993,5432,15,18,5,10240,-1.00,-1.00,1.84,2.12,5945,5982,5429,40,41,28,65,100,0
5955,5991,5431,12,13,3,10240,-1.00,-1.00,1.84,2.12,5945,5982,5429,40,41,28,65,100,0
5953,5989,5428,9,10,2,10240,-1.00,-1.00,1.84,2.12,5946,5982,5429,40,41,28,65,100,0
5953,5989,5430,8,8,1,10240,-1.00,-1.00,1.84,2.12,5946,5983,5429,40,41,28,65,100,0
5953,5990,5430,7,7,0,10240,-1.00,-1.00,1.84,2.12,5946,5983,5429,40,41,28,65,100,0
5954,5991,5429,7,7,0,10240,-1.00,-1.00,1.84,2.12,5946,5983,5429,40,41,28,65,100,0
5955,5992,5430,7,7,0,10240,-1.00,-1.00,1.84,2.12,5947,5983,5429,40,41,28,65,100,0
5955,5992,5430,7,8,0,10240,-1.00,-1.00,1.84,2.12,5947,5984,5430,40,41,28,65,100,0
5960,5996,5433,9,9,1,10240,-1.00,-1.00,1.84,2.12,5947,5984,5430,40,41,28,65,100,0
5960,5997,5433,10,10,1,10240,-1.00,-1.00,1.84,2.12,5948,5985,5430,40,41,28,65,100,0
5960,5997,5432,11,11,2,10240,-1.00,-1.00,1.84,2.12,5948,5985,5430,40,41,28,65,100,0
5960,5998,5434,12,12,3,10240,-1.00,-1.00,1.84,2.12,5949,5985,5430,40,41,28,65,100,0
5962,6000,5434,12,12,3,10240,-1.00,-1.00,1.84,2.12,5949,5986,5430,40,41,28,65,100,0
5966,6006,5438,13,14,4,10240,-1.00,-1.00,1.84,2.12,5950,5987,5430,40,41,28,65,100,0
5967,6008,5439,14,16,6,10240,-1.00,-1.00,1.84,2.12,5950,5987,5431,40,41,28,65,100,0
5970,6010,5441,16,19,7,10240,-1.00,-1.00,1.84,2.12,5951,5988,5431,40,41,28,65,100,0
5973,6012,5442,18,21,9,10240,-1.00,-1.00,1.84,2.12,5952,5989,5431,40,41,28,65,100,0
5973,6014,5442,19,22,9,10240,-1.00,-1.00,1.84,2.12,5952,5990,5432,40,41,28,65,100,0
5977,6016,5444,21,23,10,10240,-1.00,-1.00,1.84,2.12,5953,5991,5432,40,41,28,65,100,0
5976,6017,5443,22,24,11,10240,-1.00,-1.00,1.84,2.12,5954,5991,5432,40,41,28,65,100,0
5977,6018,5443,22,25,10,10240,-1.00,-1.00,1.84,2.12,5955,5992,5433,40,41,28,65,100,0
5980,6021,5444,23,26,11,10240,-1.00,-1.00,1.84,2.12,5956,5993,5433,40,41,28,65,100,0
5980,6022,5446,23,27,11,10240,-1.00,-1.00,1.84,2.12,5956,5994,5434,40,41,28,65,100,0
5983,6026,5449,24,28,12,10240,-1.00,-1.00,1.84,2.12,5957,5995,5434,40,41,28,65,100,0
5985,6028,5449,25,29,13,10240,-1.00,-1.00,1.84,2.12,5958,5996,5435,40,41,28,65,100,0
5987,6030,5448,26,30,13,10240,-1.00,-1.00,1.84,2.12,5959,5998,5435,40,41,28,65,100,0
5989,6033,5451,27,32,14,10240,-1.00,-1.00,1.84,2.12,5960,5999,5436,40,41,28,65,100,0
5991,6034,5451,28,33,14,10240,-1.00,-1.00,1.84,2.12,5961,6000,5436,40,41,28,65,100,0
5986,6029,5448,27,32,13,10240,-1.00,-1.00,1.84,2.12,5962,6001,5436,35,37,28,65,100,0
5986,6026,5446,26,30,12,10240,-1.00,-1.00,1.84,2.12,5963,6002,5437,35,37,28,65,100,0
5983,6024,5444,24,27,10,10240,-1.00,-1.00,1.84,2.12,5963,6002,5437,35,37,28,65,100,0
5980,6020,5442,20,22,8,10240,-1.00,-1.00,1.84,2.12,5964,6003,5437,35,37,28,65,100,0
5976,6015,5439,17,18,5,10240,-1.00,-1.00,1.84,2.12,5964,6003,5437,35,37,28,65,100,0
5975,6013,5438,14,15,3,10240,-1.00,-1.00,1.84,2.12,5965,6004,5437,35,37,28,65,100,0
5977,6015,5438,12,12,2,10240,-1.00,-1.00,1.84,2.12,5965,6004,5437,35,37,28,65,100,0
5977,6015,5438,11,10,1,10240,-1.00,-1.00,1.84,2.12,5966,6004,5437,35,37,28,65,100,0
5977,6016,5439,11,10,1,10240,-1.00,-1.00,1.84,2.12,5966,6005,5437,35,37,28,65,100,0
5979,6020,5442,11,12,2,10240,-1.00,-1.00,1.84,2.12,5966,6005,5438,35,37,28,65,100,0
5983,6025,5443,12,14,3,10240,-1.00,-1.00,1.84,2.12,5967,6006,5438,35,37,28,65,100,0
5985,6027,5446,14,16,4,10240,-1.00,-1.00,1.84,2.12,5968,6007,5438,35,37,28,65,100,0
5985,6029,5446,15,19,6,10240,-1.00,-1.00,1.84,2.12,5968,6007,5438,35,37,28,65,100,0
5988,6034,5448,17,21,7,10240,-1.00,-1.00,1.84,2.12,5969,6008,5439,35,37,28,65,100,0
5989,6035,5448,18,23,8,10240,-1.00,-1.00,1.84,2.12,5969,6009,5439,35,37,28,65,100,0
5993,6038,5451,19,25,9,10240,-1.00,-1.00,1.84,2.12,5970,6010,5439,35,37,28,65,100,0
5992,6039,5452,20,27,10,10240,-1.00,-1.00,1.84,2.12,5971,6011,5440,35,37,28,65,100,0
5991,6039,5452,20,27,11,10240,-1.00,-1.00,1.84,2.12,5972,6012,5440,35,37,28,65,100,0
5993,6043,5452,21,28,11,10240,-1.00,-1.00,1.84,2.12,5972,6013,5441,35,37,28,65,100,0
5994,6042,5454,20,28,12,10240,-1.00,-1.00,1.84,2.12,5973,6014,5441,35,37,28,65,100,0
5999,6046,5456,21,29,12,10240,-1.00,-1.00,1.84,2.12,5974,6015,5442,35,37,28,65,100,0
6002,6053,5459,23,31,13,10240,-1.00,-1.00,1.84,2.12,5975,6016,5442,35,37,28,65,100,0
6004,6056,5460,25,33,15,10240,-1.00,-1.00,1.84,2.12,5976,6018,5443,35,37,28,65,100,0
6005,6058,5462,27,36,16,10240,-1.00,-1.00,1.84,2.12,5977,6019,5443,35,37,28,65,100,0
6007,6060,5463,28,38,18,10240,-1.00,-1.00,1.84,2.12,5978,6021,5444,35,37,28,65,100,0
6010,6062,5463,29,39,18,10240,-1.00,-1.00,1.84,2.12,5979,6022,5445,35,37,28,65,100,0
6013,6066,5466,30,40,19,10240,-1.00,-1.00,1.84,2.12,5980,6023,5445,35,37,28,65,100,0
6014,6070,5467,31,41,19,10240,-1.00,-1.00,1.84,2.12,5981,6025,5446,35,37,28,65,100,0
6016,6070,5467,32,43,20,10240,-1.00,-1.00,1.84,2.12,5982,6026,5447,35,37,28,65,100,0
6016,6071,5469,33,43,21,10240,-1.00,-1.00,1.84,2.12,5983,6028,5447,35,37,28,65,100,0
6017,6072,5470,33,43,21,10240,-1.00,-1.00,1.84,2.12,5985,6029,5448,35,37,28,65,100,0
6014,6069,5467,31,42,20,10240,-1.00,-1.00,1.84,2.12,5986,6031,5449,35,36,28,65,100,0
6011,6066,5465,29,39,19,10240,-1.00,-1.00,1.84,2.12,5986,6032,5449,35,36,28,65,100,0
6007,6062,5461,26,36,16,10240,-1.00,-1.00,1.84,2.12,5987,6033,5450,35,36,28,65,100,0
6005,6057,5458,22,31,13,10240,-1.00,-1.00,1.84,2.12,5988,6034,5450,35,36,28,65,100,0
