914682,1185473,1483382,915177.88,1187728.37,1485205.75
914569,1185759,1483833,915071.00,1187532.75,1485061.25
914319,1186110,1484030,914969.00,1187347.00,1484924.12
914807,1186057,1483943,914868.00,1187173.50,1484796.25
914362,1186431,1484055,914773.00,1187012.75,1484677.37
913859,1186590,1484586,914687.50,1186865.87,1484568.12
914674,1186366,1484092,914611.38,1186732.50,1484469.00
915021,1186551,1484285,914545.38,1186612.37,1484379.50
914789,1186660,1484433,914489.56,1186505.75,1484299.50
915025,1186658,1484342,914443.31,1186412.50,1484229.25
915240,1186754,1484309,914406.75,1186332.25,1484167.75
915285,1186782,1484474,914380.25,1186264.25,1484115.00
915322,1187396,1485276,914362.69,1186208.50,1484072.37
915866,1187307,1484866,914353.50,1186165.62,1484041.25
915803,1187550,1484797,914354.50,1186136.00,1484020.50
915808,1187618,1485650,914366.13,1186119.75,1484008.37
915468,1187814,1485130,914386.25,1186116.75,1484004.50
915825,1187934,1485417,914413.31,1186126.50,1484009.75
915915,1187872,1485411,914447.00,1186147.75,1484024.00
915269,1188491,1485580,914486.75,1186181.00,1484047.12
916233,1188313,1485688,914531.69,1186226.50,1484078.75
916718,1188686,1485729,914583.50,1186283.25,1484118.25
916586,1189198,1486114,914643.75,1186350.50,1484165.00
916779,1188996,1485985,914711.75,1186427.75,1484218.50
916488,1189024,1485859,914786.00,1186514.25,1484278.25
916700,1189044,1486062,914864.88,1186609.00,1484343.12
916693,1189243,1486427,914944.81,1186710.75,1484413.25
916894,1189322,1486189,915023.25,1186818.87,1484488.87
916552,1189311,1486271,915102.44,1186932.50,1484568.75
916617,1189787,1486687,915184.75,1187050.50,1484652.00
917435,1189817,1486785,915271.31,1187172.87,1484739.87
917404,1189897,1486578,915363.00,1187299.75,1484831.75
917440,1189764,1486892,915459.06,1187430.37,1484926.00
917736,1189948,1486915,915558.75,1187563.25,1485022.12
917456,1189976,1486849,915661.63,1187697.75,1485120.25
917751,1190025,1486975,915766.63,1187833.25,1485220.00
917288,1190506,1487571,915873.25,1187969.50,1485321.50
917943,1190374,1487156,915981.44,1188106.62,1485425.75
917942,1190298,1487021,916090.88,1188244.25,1485531.00
918038,1190580,1487920,916201.19,1188381.37,1485635.25
917516,1190768,1487553,916310.88,1188518.37,1485739.00
917903,1190647,1487154,916418.25,1188655.12,1485842.50
918195,1190894,1487407,916523.63,1188791.12,1485944.50
917121,1190965,1487649,916628.25,1188926.75,1486045.37
918230,1191058,1487441,916731.81,1189062.37,1486145.25
918519,1191079,1487616,916834.44,1189197.12,1486243.75
918297,1191578,1487795,916936.38,1189329.75,1486340.00
918637,1191160,1487728,917037.38,1189459.50,1486434.12
918525,1190684,1487471,917137.50,1189585.50,1486525.75
918380,1190211,1486854,917235.88,1189704.75,1486612.75
917190,1188863,1485946,917327.50,1189812.25,1486690.75
917190,1188286,1485509,917406.13,1189901.37,1486755.25
916491,1187742,1485155,917471.13,1189968.50,1486803.00
915611,1187124,1484511,917522.19,1190011.37,1486833.00
915901,1186587,1484093,917558.13,1190028.75,1486843.50
915292,1186197,1484090,917577.38,1190019.50,1486833.75
915001,1185951,1483799,917578.31,1189983.50,1486804.00
915005,1185462,1483423,917560.75,1189921.75,1486754.75
914988,1185312,1483271,917526.56,1189835.25,1486686.87
914629,1185285,1483375,917477.13,1189726.12,1486602.50
914476,1185184,1483797,917413.13,1189597.50,1486504.62
914703,1185059,1483299,917335.88,1189452.25,1486396.12
914827,1184950,1483104,917248.25,1189292.25,1486277.87
914737,1184871,1483584,917152.88,1189119.25,1486150.37
913854,1184669,1483045,917049.50,1188935.37,1486014.75
914082,1184726,1483218,916936.88,1188742.25,1485873.25
914436,1184697,1483031,916816.81,1188542.25,1485728.50
913150,1184877,1483104,916692.00,1188338.37,1485581.25
914464,1185024,1482945,916563.69,1188134.00,1485432.75
915040,1185134,1483240,916435.31,1187931.12,1485284.37
915185,1185855,1483588,916311.00,1187731.87,1485138.50
915326,1185782,1483869,916193.00,1187539.00,1484998.50
915534,1185787,1483664,916082.56,1187355.50,1484865.75
915780,1185832,1483629,915981.19,1187181.87,1484740.00
915761,1186150,1483940,915887.75,1187019.25,1484621.62
916150,1186176,1483864,915801.13,1186868.87,1484511.50
915990,1186203,1483961,915724.13,1186731.00,1484409.62
915870,1186687,1484254,915658.94,1186606.00,1484316.25
916161,1186543,1484241,915605.25,1186494.37,1484231.75
916010,1186578,1484144,915561.88,1186396.25,1484156.25
916384,1186435,1484921,915527.81,1186310.50,1484090.25
916691,1186711,1484427,915503.88,1186236.75,1484033.37
916572,1186935,1484576,915490.63,1186174.75,1483986.25
916843,1186961,1484550,915487.63,1186125.50,1483948.50
917022,1187696,1485363,915494.13,1186089.50,1483921.12
916891,1187542,1485029,915509.25,1186068.00,1483905.12
917417,1187703,1485120,915533.38,1186060.75,1483899.87
917580,1187949,1485823,915567.81,1186066.50,1483904.25
916951,1188224,1485558,915611.44,1186085.25,1483918.00
917282,1188452,1485311,915661.50,1186117.50,1483941.00
917644,1188427,1485681,915717.63,1186162.50,1483972.50
916699,1188616,1485616,915780.31,1186219.62,1484012.12
917522,1188806,1485893,915848.44,1186288.12,1484059.25
918096,1188829,1486028,915921.75,1186367.00,1484114.12
918030,1189581,1486530,916001.31,1186455.12,1484176.37
918120,1189282,1486117,916086.63,1186552.25,1484245.12
918052,1189222,1486282,916176.63,1186657.75,1484319.75
918366,1189294,1486124,916270.38,1186769.75,1484399.50
918090,1189412,1486360,916366.13,1186887.25,1484483.12
918087,1189534,1486258,916461.25,1187009.50,1484570.25
918434,1189495,1486352,916556.38,1187135.62,1484659.75
918382,1190218,1486733,916654.00,1187264.50,1484751.25
918447,1190068,1486846,916754.31,1187396.25,1484845.00
918358,1189860,1486685,916855.63,1187530.75,1484941.37
918704,1190008,1487173,916956.88,1187667.25,1485039.62
918925,1189996,1486647,917058.81,1187804.50,1485138.62
918752,1189922,1486590,917161.75,1187941.75,1485237.12
918715,1190053,1486673,917264.50,1188077.62,1485334.25
918690,1190391,1487625,917365.00,1188212.75,1485430.75
918915,1190421,1487123,917462.25,1188347.75,1485528.50
919305,1190271,1487022,917558.13,1188482.00,1485626.62
919216,1190359,1487818,917654.63,1188614.00,1485724.00
918748,1190712,1487141,917750.63,1188743.75,1485820.50
919147,1190775,1487477,917844.25,1188872.00,1485916.00
919452,1190915,1487494,917936.25,1188999.50,1486011.25
918374,1191069,1487679,918027.00,1189127.00,1486106.50
919122,1190892,1487559,918115.00,1189255.00,1486201.50
919170,1191056,1487401,918199.75,1189381.62,1486295.12
919330,1190814,1487162,918281.88,1189504.75,1486386.25
918648,1189888,1486617,918360.50,1189621.75,1486473.00
918303,1189211,1485964,918432.56,1189727.37,1486550.87
918543,1188758,1485572,918496.25,1189817.25,1486615.75
917595,1187632,1484762,918551.25,1189887.62,1486664.75
916315,1187144,1484592,918593.25,1189934.37,1486695.00
916439,1186575,1484188,918616.75,1189955.00,1486706.00
916040,1186352,1483909,918621.38,1189949.25,1486697.50
916058,1186004,1483820,918608.88,1189917.87,1486670.37
916015,1185894,1483871,918579.81,1189862.00,1486626.00
915707,1185906,1484144,918534.88,1189783.75,1486566.12
916094,1185688,1483886,918475.88,1189686.00,1486493.00
916011,1185462,1483592,918405.44,1189570.50,1486408.50
915447,1185339,1483512,918324.88,1189438.62,1486313.75
915096,1185439,1484003,918231.63,1189293.25,1486210.50
915519,1185136,1483508,918124.81,1189137.50,1486101.00
915904,1185188,1483596,918009.94,1188972.00,1485986.25
915690,1184993,1483929,917892.00,1188797.62,1485867.00
915670,1185397,1484059,917772.13,1188617.00,1485745.25
916294,1185396,1483843,917652.06,1188433.37,1485624.00
916504,1185628,1483758,917535.44,1188249.37,1485504.00
916257,1186036,1484028,917424.25,1188068.37,1485385.87
916819,1186314,1484380,917319.56,1187894.00,1485271.87
917155,1186450,1484386,917223.25,1187728.50,1485164.12
917635,1186846,1485039,917138.06,1187573.25,1485063.75
916559,1186751,1484793,917063.63,1187428.87,1484971.50
917285,1186726,1484741,916997.50,1187296.25,1484888.25
917668,1186773,1484543,916940.63,1187175.00,1484813.50
917631,1186862,1484756,916894.50,1187065.25,1484746.12
917382,1186919,1484734,916858.13,1186966.75,1484686.37
917391,1186874,1484571,916829.88,1186879.25,1484633.62
917573,1187269,1485006,916810.13,1186802.25,1484587.25
917743,1187143,1485022,916799.88,1186735.75,1484547.75
917833,1187365,1485039,916798.25,1186680.25,1484515.62
917895,1187487,1485182,916804.38,1186636.12,1484491.50
918324,1187728,1485474,916818.38,1186603.50,1484475.50
918547,1187857,1485498,916841.44,1186582.75,1484468.12
918448,1187788,1485246,916873.69,1186573.50,1484468.62
917838,1188683,1486035,916909.38,1186576.00,1484476.75
918391,1188502,1485941,916943.38,1186591.75,1484494.12
918827,1188341,1485736,916980.44,1186619.50,1484520.00
918111,1188566,1486439,917024.63,1186657.50,1484552.50
918903,1188926,1486221,917074.25,1186705.25,1484591.62
919158,1188910,1486202,917130.50,1186762.75,1484637.62
919071,1189097,1486379,917194.38,1186829.75,1484690.00
918970,1189424,1486272,917264.38,1186906.00,1484748.25
919250,1189500,1486470,917339.25,1186991.75,1484811.25
919437,1189519,1486734,917419.13,1187085.75,1484879.00
919332,1190324,1487178,917503.88,1187187.00,1484952.00
918961,1190008,1486803,917591.50,1187294.75,1485029.50
919681,1189955,1486952,917680.94,1187409.25,1485111.25
919830,1189991,1486897,917773.50,1187528.87,1485196.37
919797,1190201,1487205,917869.69,1187653.00,1485284.50
919695,1190180,1487048,917968.25,1187780.62,1485375.62
919972,1190280,1487390,918068.31,1187911.12,1485469.25
920023,1190553,1487442,918170.44,1188043.50,1485564.75
920283,1190539,1487313,918275.00,1188177.25,1485661.25
919984,1190407,1487418,918381.19,1188312.00,1485758.50
920141,1190618,1487545,918487.50,1188447.00,1485856.50
920547,1190796,1487864,918593.88,1188581.87,1485955.87
920704,1190889,1487800,918701.56,1188717.00,1486056.75
920814,1191066,1487845,918811.19,1188852.37,1486158.75
920096,1191873,1488728,918918.63,1188988.50,1486262.25
920664,1191382,1488269,919019.50,1189126.25,1486368.12
920902,1191509,1488169,919117.38,1189264.75,1486475.75
920680,1191341,1488444,919216.13,1189402.75,1486583.50
920944,1191581,1488167,919314.75,1189539.50,1486690.75
920916,1191512,1488192,919413.25,1189674.50,1486796.25
920687,1191270,1487781,919510.88,1189807.00,1486899.00
920317,1190232,1487201,919605.75,1189934.50,1486995.62
920096,1189712,1486668,919695.69,1190053.00,1487082.50
919695,1188894,1486265,919778.00,1190155.87,1487156.50
919529,1187940,1485713,919850.50,1190238.25,1487215.00
918576,1187540,1485414,919910.75,1190297.00,1487256.75
918562,1187072,1484892,919955.88,1190329.50,1487279.75
918061,1186887,1484776,919984.50,1190334.75,1487283.50
917821,1186801,1484586,919996.50,1190314.50,1487268.25
918079,1186549,1484518,919992.38,1190270.50,1487235.25
918076,1186529,1484429,919974.50,1190204.75,1487186.25
917315,1186717,1484363,919944.06,1190119.75,1487123.00
917492,1186325,1484309,919900.88,1190017.25,1487047.25
917967,1186170,1484526,919846.25,1189899.50,1486961.12
917622,1186292,1484481,919782.88,1189768.75,1486866.62
917828,1186156,1484411,919712.00,1189627.50,1486765.75
917650,1186246,1484373,919635.06,1189477.75,1486659.50
917738,1186268,1484525,919553.13,1189321.87,1486549.50
916669,1187197,1485017,919464.00,1189163.12,1486437.87
917673,1187045,1484868,919365.88,1189005.50,1486327.50
918578,1187043,1485054,919265.25,1188852.00,1486220.00
918390,1187484,1485361,919169.44,1188703.87,1486116.50
918893,1187706,1485523,919080.44,1188563.75,1486018.75
919481,1187789,1485718,919000.63,1188433.62,1485928.50
918709,1187864,1485652,918931.19,1188314.00,1485847.00
919035,1188041,1485939,918868.88,1188205.75,1485774.00
919358,1187849,1485595,918812.00,1188109.12,1485709.87
919372,1187864,1485768,918763.88,1188022.62,1485653.37
919601,1188278,1486077,918726.25,1187945.37,1485604.00
919050,1188275,1485973,918697.94,1187877.75,1485561.87
919478,1188079,1485974,918677.38,1187820.25,1485527.25
919794,1188175,1485830,918664.81,1187771.87,1485499.75
919391,1188851,1486244,918661.25,1187733.25,1485479.00
919507,1188817,1486414,918665.63,1187706.00,1485465.62
919956,1188986,1486481,918676.75,1187690.37,1485460.62
920233,1189464,1486921,918695.88,1187685.87,1485464.00
920587,1189438,1486913,918724.56,1187692.50,1485476.00
920649,1189412,1487230,918763.25,1187710.37,1485497.50
920630,1189506,1487037,918811.06,1187738.75,1485528.12
921249,1190010,1487365,918867.75,1187777.50,1485567.12
921586,1189985,1487482,918934.63,1187827.25,1485614.50
921232,1190187,1487468,919011.88,1187887.25,1485669.50
919217,1190815,1488352,919093.50,1187957.75,1485732.50
920908,1190777,1488090,919174.00,1188039.62,1485804.50
921738,1190860,1488000,919256.38,1188132.25,1485884.50
921443,1190942,1488361,919345.25,1188233.75,1485971.00
921387,1190812,1488199,919439.50,1188343.00,1486063.00
921697,1190971,1488011,919537.56,1188458.00,1486159.25
921931,1191127,1488195,919639.81,1188578.00,1486258.50
921372,1191168,1488621,919743.38,1188702.75,1486360.62
921845,1191385,1488433,919844.63,1188831.75,1486466.25
922150,1191535,1488503,919946.25,1188964.50,1486574.25
921968,1191577,1488967,920051.25,1189100.25,1486683.50
922266,1191665,1488709,920158.75,1189238.12,1486794.00
922079,1191501,1488624,920268.25,1189377.00,1486905.12
922418,1191841,1488803,920379.13,1189516.00,1487016.25
922316,1191953,1488912,920490.63,1189655.37,1487127.25
922794,1191937,1488632,920602.38,1189795.00,1487237.50
922710,1191975,1488891,920715.44,1189933.87,1487346.00
922512,1192162,1489592,920829.75,1190071.50,1487452.50
922678,1192215,1489212,920943.94,1190207.25,1487557.25
922511,1192203,1489035,921056.94,1190341.50,1487661.00
922744,1192352,1489080,921168.13,1190473.75,1487762.87
922934,1192500,1489286,921275.63,1190604.37,1487862.75
922918,1192324,1489185,921378.25,1190733.00,1487960.87
923078,1192447,1489447,921478.50,1190858.75,1488057.00
920220,1193197,1489813,921575.13,1190981.75,1488152.00
922365,1192539,1489539,921663.81,1191102.75,1488246.37
922780,1192176,1489110,921746.06,1191219.75,1488338.50
922603,1191506,1487971,921825.13,1191329.50,1488425.37
922137,1190532,1487434,921900.13,1191427.25,1488501.75
921850,1189773,1487167,921968.38,1191507.25,1488562.87
921045,1189076,1486711,922026.81,1191565.25,1488606.37
919819,1188255,1486200,922067.56,1191598.75,1488630.75
920363,1187899,1486046,922084.50,1191606.00,1488635.25
920265,1187764,1485815,922082.75,1191586.62,1488620.00
919853,1187649,1485822,922067.38,1191541.37,1488586.25
919418,1187114,1485505,922037.50,1191472.00,1488535.00
919568,1187072,1485420,921993.13,1191379.87,1488467.62
919575,1186873,1485227,921935.88,1191266.75,1488385.75
919122,1186926,1485290,921868.38,1191135.00,1488290.75
919261,1186813,1485166,921791.88,1190987.75,1488184.75
919340,1186684,1485162,921706.75,1190827.25,1488069.25
918295,1186624,1485648,921614.00,1190655.25,1487945.87
918879,1186501,1485215,921514.25,1190473.75,1487816.50
918965,1186586,1485022,921407.88,1190285.00,1487682.50
919350,1186556,1485178,921296.63,1190090.87,1487545.50
919504,1186929,1485558,921181.31,1189894.50,1487407.75
919926,1187278,1485655,921062.81,1189699.50,1487272.25
920377,1187404,1485754,920947.50,1189509.12,1487140.62
918392,1188247,1486716,920838.13,1189326.75,1487015.50
920245,1187892,1486112,920732.88,1189155.25,1486899.00
920120,1187967,1486094,920633.88,1188995.00,1486791.25
920805,1188048,1486564,920544.25,1188846.12,1486691.50
921123,1188313,1486480,920466.25,1188709.25,1486601.00
920968,1188305,1486326,920401.38,1188584.87,1486519.75
921084,1188273,1486346,920348.75,1188473.00,1486446.75
920798,1188223,1486681,920304.00,1188372.50,1486382.25
921110,1188294,1486709,920263.50,1188282.25,1486327.00
921313,1188616,1486689,920230.94,1188203.00,1486281.00
921543,1188960,1487168,920210.13,1188135.37,1486243.62
921359,1188911,1486863,920200.75,1188079.75,1486215.00
921764,1189095,1486951,920202.00,1188036.50,1486194.50
921778,1189164,1487273,920213.88,1188006.00,1486182.50
922012,1189621,1487528,920236.00,1187988.25,1486179.75
922248,1189738,1487605,920268.00,1187983.75,1486187.00
922460,1189945,1487852,920310.50,1187992.75,1486204.00
921960,1190110,1488419,920363.63,1188014.75,1486230.50
922365,1190346,1487903,920426.38,1188049.25,1486265.50
922831,1190312,1488164,920497.25,1188095.75,1486308.75
922878,1190536,1488026,920576.13,1188153.50,1486359.75
922151,1190766,1488406,920658.31,1188221.87,1486417.75
922712,1190908,1488430,920738.38,1188300.75,1486482.75
923372,1190757,1488510,920820.75,1188388.75,1486554.50
920996,1191803,1489356,920908.06,1188485.25,1486632.75
923152,1191472,1488785,920997.13,1188590.25,1486717.00
923009,1191358,1488880,921088.75,1188703.75,1486806.87
923484,1191511,1489264,921184.88,1188823.62,1486901.00
923580,1191686,1489188,921285.75,1188949.25,1486998.25
923556,1191629,1488907,921391.50,1189079.75,1487098.87
923726,1191812,1488864,921500.88,1189214.00,1487201.25
922069,1191970,1489560,921609.94,1189351.50,1487305.25
923637,1192011,1489493,921714.38,1189492.00,1487412.12
924187,1192047,1489400,921818.25,1189634.25,1487521.75
924221,1192584,1489703,921926.38,1189778.00,1487632.75
924217,1192318,1489707,922038.44,1189922.37,1487744.75
924243,1192544,1489806,922153.38,1190067.75,1487858.12
924109,1192580,1489880,922269.88,1190214.00,1487972.37
924286,1192657,1489833,922385.00,1190360.25,1488087.00
924540,1192651,1490128,922497.38,1190506.12,1488201.50
924768,1192844,1489893,922609.75,1190651.00,1488315.75
924817,1193194,1490854,922724.38,1190794.50,1488429.00
924918,1193135,1490410,922840.94,1190937.37,1488541.87
925013,1193061,1490348,922959.06,1191079.00,1488654.75
924937,1193133,1490318,923078.00,1191218.75,1488766.75
924666,1193254,1490485,923193.69,1191356.25,1488877.25
924633,1192899,1490213,923301.75,1191490.75,1488985.75
924780,1192730,1489856,923404.63,1191620.00,1489090.50
923031,1192197,1489544,923502.00,1191741.87,1489188.87
923864,1190990,1488617,923589.38,1191852.50,1489278.12
923673,1190400,1488296,923666.75,1191945.25,1489353.50
923340,1189811,1487431,923734.75,1192016.00,1489412.00
922663,1189090,1487071,923791.25,1192062.00,1489451.50
921948,1188447,1486958,923832.88,1192081.25,1489470.25
921960,1188305,1486607,923857.06,1192072.37,1489468.00
918929,1187694,1486884,923862.25,1192037.00,1489446.00
920656,1187630,1486430,923845.88,1191976.25,1489406.75
921008,1187401,1486094,923808.88,1191891.50,1489350.25
920953,1187366,1486263,923755.00,1191783.75,1489277.50
920917,1187212,1485889,923686.94,1191655.75,1489190.25
920706,1187005,1485964,923606.31,1191510.00,1489089.62
920378,1187016,1486000,923513.75,1191348.50,1488978.00
920242,1186825,1485966,923408.75,1191174.00,1488857.50
920494,1186836,1485816,923292.38,1190988.50,1488729.75
920641,1186819,1485644,923168.38,1190794.25,1488595.75
920671,1187053,1486512,923040.25,1190594.00,1488456.50
920721,1186868,1486134,922909.81,1190390.00,1488315.25
921028,1186851,1486144,922779.13,1190184.00,1488174.25
921213,1187246,1486416,922650.75,1189978.75,1488035.37
921463,1187824,1486678,922523.56,1189777.75,1487901.00
921890,1187938,1486708,922396.75,1189585.12,1487773.00
922087,1188149,1486751,922277.19,1189403.25,1487652.12
921264,1188924,1487514,922166.81,1189234.12,1487539.25
921845,1188634,1487297,922062.19,1189079.50,1487435.50
922288,1188539,1487097,921966.44,1188939.50,1487341.75
922547,1188424,1487283,921883.88,1188813.00,1487257.75
922150,1188517,1487203,921814.63,1188699.00,1487183.00
922369,1188493,1487071,921757.13,1188596.75,1487116.75
922829,1188461,1487096,921711.25,1188505.75,1487058.25
920966,1189051,1487878,921676.75,1188425.87,1487008.12
922563,1189132,1487475,921651.81,1188358.37,1486968.00
922930,1189319,1487674,921636.38,1188304.25,1486937.50
923417,1189584,1487860,921632.38,1188263.75,1486915.50
923365,1189496,1487914,921641.00,1188236.00,1486902.00
923763,1189693,1488095,921662.00,1188220.87,1486897.37
923652,1189674,1488072,921695.00,1188218.00,1486901.62
923877,1190070,1488544,921737.88,1188226.87,1486914.87
924340,1190197,1488483,921789.56,1188247.75,1486937.50
924320,1190436,1488617,921851.81,1188280.50,1486969.25
923885,1190751,1489144,921924.06,1188324.75,1487008.87
924211,1190684,1488897,922003.63,1188378.87,1487055.75
924531,1190952,1488780,922089.94,1188443.50,1487109.75
924622,1190981,1488997,922183.63,1188518.25,1487170.25
924395,1191288,1489382,922281.63,1188603.00,1487237.25
924861,1191373,1489363,922381.06,1188696.87,1487311.25
925105,1191441,1489427,922484.75,1188799.25,1487391.87
924400,1191990,1489903,922592.06,1188910.00,1487478.00
924505,1191833,1489670,922698.38,1189029.25,1487569.50
924918,1191847,1489813,922804.50,1189155.50,1487665.87
925146,1191890,1490137,922913.25,1189286.62,1487766.00
924731,1191997,1490018,923024.44,1189421.62,1487869.37
925422,1192192,1490148,923137.13,1189559.75,1487976.00
925411,1192246,1490287,923251.94,1189700.75,1488086.00
923646,1192719,1490409,923368.63,1189844.50,1488199.00
925197,1192504,1490083,923485.13,1189991.00,1488314.37
925552,1192725,1490412,923601.06,1190139.12,1488430.25
925627,1193061,1490580,923717.13,1190288.25,1488546.37
925630,1192811,1490531,923833.50,1190437.75,1488662.62
925652,1192962,1490538,923949.38,1190587.25,1488778.50
924949,1192934,1490382,924062.88,1190736.12,1488893.50
926328,1193051,1490819,924172.13,1190884.00,1489006.87
926187,1193159,1490854,924279.00,1191030.37,1489119.50
926182,1193304,1490964,924386.31,1191175.12,1489231.75
926207,1193903,1491547,924494.25,1191318.25,1489343.37
926416,1193498,1491369,924602.38,1191459.75,1489454.62
926519,1193634,1491275,924710.88,1191599.37,1489566.00
926346,1193459,1491155,924819.38,1191737.00,1489676.75
926053,1193201,1490812,924925.69,1191870.87,1489784.75
926144,1192727,1490356,925027.56,1191998.50,1489887.50
925934,1191904,1489818,925124.69,1192115.75,1489981.50
924895,1190890,1488653,925214.63,1192219.00,1490063.50
924573,1190127,1488374,925292.63,1192304.00,1490129.75
924324,1189489,1488197,925356.13,1192364.75,1490177.00
924045,1189239,1487871,925404.63,1192398.25,1490204.00
922432,1188469,1487372,925435.00,1192403.75,1490210.75
922915,1188195,1487211,925443.75,1192380.75,1490196.50
922606,1188001,1487101,925431.44,1192330.00,1490162.37
921355,1188090,1487131,925400.00,1192254.50,1490110.12
922032,1187784,1486878,925349.63,1192157.12,1490041.50
921858,1187681,1486889,925281.19,1192039.75,1489958.50
922032,1187819,1487096,925196.38,1191904.50,1489862.50
921931,1187404,1486752,925097.75,1191753.25,1489755.25
922199,1187379,1486634,924988.38,1191588.12,1489638.50
922021,1187277,1486675,924870.50,1191411.50,1489513.75
922201,1187314,1486641,924745.50,1191225.50,1489382.87
922242,1187267,1486547,924614.63,1191032.75,1489247.00
922330,1187218,1486592,924481.13,1190834.75,1489107.62
922404,1188164,1487494,924347.50,1190634.25,1488966.50
922737,1188121,1487283,924215.81,1190434.50,1488827.00
923053,1188131,1487290,924088.75,1190240.12,1488691.62
923265,1188275,1487404,923968.81,1190053.25,1488562.25
923688,1188897,1487916,923857.06,1189876.25,1488440.12
923805,1188944,1487687,923754.38,1189711.75,1488327.25
924117,1188974,1487904,923663.25,1189560.87,1488223.75
923009,1189734,1488093,923584.50,1189423.75,1488129.37
923579,1189326,1487882,923515.75,1189301.25,1488044.00
924013,1189304,1488097,923456.25,1189193.12,1487967.75
924044,1189174,1488527,923407.00,1189098.25,1487900.75
924191,1189540,1488345,923368.38,1189016.00,1487843.00
924480,1189653,1488159,923340.63,1188946.75,1487794.50
924545,1189862,1488515,923324.00,1188890.75,1487755.50
924324,1190187,1488759,923317.56,1188849.00,1487726.25
924864,1190089,1488642,923320.38,1188821.25,1487707.37
925032,1190289,1488833,923333.38,1188806.75,1487698.12
925591,1190849,1489360,923358.00,1188804.87,1487697.75
925352,1190965,1489119,923394.50,1188815.87,1487706.25
925374,1190981,1489491,923441.63,1188840.50,1487724.00
925692,1190997,1489447,923497.88,1188877.75,1487752.00
925668,1191534,1489902,923562.81,1188927.50,1487790.00
925941,1191618,1489946,923635.88,1188990.25,1487838.25
926006,1191762,1489840,923716.69,1189065.25,1487896.12
925848,1192466,1490352,923804.38,1189151.00,1487962.00
925472,1192346,1490279,923896.38,1189247.00,1488035.75
926413,1192267,1490365,923991.56,1189353.25,1488117.00
926420,1192336,1490627,924091.56,1189468.50,1488205.50
926672,1192783,1490600,924196.88,1189591.87,1488300.75
926967,1192719,1490625,924307.25,1189723.25,1488401.87
927118,1193031,1490713,924423.50,1189861.87,1488507.50
926657,1193373,1490930,924545.25,1190007.12,1488616.75
927102,1193291,1490884,924670.88,1190158.50,1488729.00
927236,1193215,1491040,924799.44,1190314.50,1488844.00
927258,1193274,1491478,924930.63,1190473.75,1488961.37
926506,1193291,1491041,925062.00,1190634.62,1489080.12
927143,1193403,1491219,925191.06,1190796.25,1489199.50
927595,1193698,1491412,925318.94,1190958.50,1489319.75
927269,1194119,1491541,925446.63,1191122.00,1489441.25
927368,1194001,1491697,925572.63,1191287.87,1489563.75
927614,1194156,1491652,925696.81,1191454.75,1489687.00
927565,1194262,1492390,925819.94,1191621.50,1489811.00
927967,1194340,1492067,925942.25,1191787.00,1489935.50
927796,1194461,1492069,926064.00,1191951.62,1490060.75
927918,1194434,1492078,926184.75,1192115.00,1490186.00
928152,1194835,1492399,926301.75,1192277.25,1490311.00
928349,1194855,1492383,926413.63,1192439.50,1490436.00
928033,1194870,1492346,926523.25,1192600.75,1490560.50
928418,1195643,1492949,926632.31,1192759.50,1490683.50
928313,1195297,1492641,926740.75,1192915.50,1490804.75
928568,1195264,1492684,926848.63,1193069.75,1490924.75
928790,1195097,1492569,926956.31,1193221.50,1491043.25
928091,1194484,1491822,927063.25,1193368.50,1491157.75
928266,1193817,1491476,927166.75,1193506.37,1491264.50
927961,1193263,1491012,927265.50,1193630.50,1491360.25
925448,1192379,1490407,927357.88,1193737.25,1491442.12
926520,1191662,1490055,927440.44,1193822.87,1491508.12
926278,1191034,1489684,927508.44,1193883.25,1491556.12
925843,1190757,1489443,927559.13,1193916.37,1491585.00
925612,1190109,1489047,927591.69,1193921.87,1491594.00
925445,1189969,1488945,927606.06,1193899.75,1491583.75
925147,1189962,1488793,927602.75,1193851.75,1491555.50
924361,1189965,1489012,927581.63,1193780.75,1491510.75
924490,1189684,1488718,927542.69,1193689.50,1491452.00
924889,1189622,1488830,927487.13,1193579.87,1491381.00
925142,1189516,1489216,927418.88,1193454.12,1491299.25
924938,1189540,1488865,927341.06,1193314.50,1491208.75
924750,1189257,1488771,927254.81,1193163.25,1491111.25
925045,1189456,1488573,927161.25,1193001.75,1491007.75
924230,1189370,1488704,927058.38,1192833.75,1490899.25
924806,1189476,1488637,926944.00,1192662.50,1490787.12
925229,1189678,1488843,926824.44,1192489.00,1490673.00
925973,1190457,1489617,926707.81,1192315.00,1490558.75
925642,1190379,1489446,926597.50,1192143.87,1490447.00
926249,1190526,1489633,926494.88,1191979.00,1490340.62
926445,1190823,1489548,926401.75,1191823.00,1490241.00
926671,1191041,1489596,926319.38,1191677.87,1490148.25
926635,1190992,1489678,926247.69,1191544.50,1490062.50
926901,1191059,1489814,926187.25,1191423.00,1489984.12
924535,1191120,1490272,926137.00,1191312.87,1489913.75
926488,1191202,1489944,926094.00,1191213.75,1489852.00
926743,1191235,1489888,926058.50,1191126.00,1489798.12
926830,1191222,1490221,926031.88,1191049.00,1489751.50
926974,1191615,1490148,926014.38,1190983.25,1489712.00
927447,1191635,1490302,926006.50,1190929.00,1489680.25
927364,1191715,1490362,926009.13,1190886.50,1489656.50
927410,1192479,1490797,926021.38,1190855.37,1489641.50
927651,1192263,1490874,926042.25,1190836.62,1489636.00
927757,1192223,1490711,926071.88,1190830.00,1489639.75
927504,1192457,1491555,926109.81,1190835.00,1489651.50
927952,1192817,1491408,926154.75,1190851.37,1489671.12
928517,1192873,1491390,926207.75,1190879.75,1489700.00
928549,1193067,1491508,926270.44,1190919.50,1489738.25
928006,1193421,1491740,926338.50,1190971.25,1489785.00
928296,1193383,1491707,926406.31,1191035.37,1489840.25
928620,1193577,1491819,926477.13,1191110.25,1489902.87
928712,1194386,1492485,926555.00,1191194.12,1489972.50
929039,1194161,1492263,926639.88,1191287.25,1490049.25
928952,1194050,1492200,926731.50,1191389.25,1490132.75
929307,1194139,1492224,926829.56,1191499.12,1490221.75
928899,1194345,1492378,926930.94,1191615.62,1490315.25
929253,1194455,1492491,927032.63,1191738.25,1490412.75
929236,1194690,1492608,927136.06,1191866.62,1490514.00
927525,1194830,1493014,927242.56,1192000.37,1490618.75
929153,1194928,1492982,927350.63,1192139.00,1490726.50
929608,1195018,1492864,927460.00,1192281.50,1490837.50
928954,1194947,1493183,927570.25,1192427.00,1490950.75
929898,1195297,1493192,927680.63,1192574.62,1491065.75
929958,1195179,1493410,927792.69,1192724.12,1491182.87
930173,1195382,1493372,927907.75,1192874.50,1491302.25
930234,1195726,1493725,928025.06,1193025.75,1491423.25
930202,1195581,1493436,928143.56,1193177.50,1491545.87
930130,1195457,1493523,928262.63,1193329.00,1491668.50
930196,1195757,1494020,928381.63,1193479.00,1491790.50
930064,1195893,1493755,928499.63,1193627.75,1491911.50
930823,1195883,1493610,928616.88,1193775.25,1492031.50
930674,1195958,1493853,928734.88,1193921.25,1492149.50
930308,1196162,1493978,928851.00,1194065.50,1492266.00
930363,1195920,1493966,928961.13,1194208.25,1492381.00
930702,1196127,1493928,929067.25,1194348.00,1492494.25
931024,1196675,1494450,929172.88,1194484.25,1492605.12
931155,1196171,1494073,929279.25,1194617.25,1492713.75
931010,1195984,1493841,929386.38,1194746.00,1492819.37
931146,1195691,1493565,929493.38,1194868.37,1492920.00
929706,1194670,1492859,929594.38,1194981.25,1493012.75
929975,1194160,1492339,929682.31,1195079.37,1493093.75
929111,1193478,1491950,929757.44,1195159.00,1493160.25
928083,1192713,1491657,929820.44,1195217.37,1493209.87
928822,1192362,1491034,929870.00,1195252.00,1493241.37
928596,1192118,1490976,929906.00,1195262.25,1493253.75
928206,1191820,1490799,929927.94,1195248.00,1493248.12
928484,1191654,1490656,929935.88,1195210.75,1493225.50
928468,1191480,1490759,929931.75,1195151.75,1493187.25
928118,1191518,1490563,929916.88,1195073.25,1493135.25
927658,1191674,1491274,929890.69,1194978.50,1493072.25
927752,1191282,1490530,929853.13,1194869.87,1493000.75
927788,1191342,1490342,929804.88,1194748.75,1492920.62
928042,1191406,1490859,929748.00,1194616.87,1492831.87
927810,1191523,1490562,929684.38,1194477.00,1492736.75
928328,1191587,1490720,929615.88,1194332.00,1492637.25
928436,1191878,1490849,929545.25,1194184.25,1492535.25
927859,1192447,1491204,929474.31,1194037.25,1492433.37
928741,1192685,1491387,929404.25,1193895.00,1492334.00
929158,1192937,1491594,929337.50,1193760.25,1492239.50
929648,1193662,1491768,929277.50,1193635.00,1492150.75
929740,1193250,1491798,929226.44,1193520.00,1492068.25
929731,1193232,1491921,929185.00,1193416.00,1491993.25
929824,1193415,1492013,929152.56,1193323.12,1491926.50
929686,1193317,1492099,929125.00,1193241.50,1491868.12
929709,1193412,1492099,929098.25,1193170.25,1491818.00
929958,1193344,1492105,929076.13,1193108.75,1491776.00
930183,1194009,1492347,929062.63,1193056.75,1491741.37
930302,1193658,1492089,929058.00,1193014.37,1491713.75
929441,1193791,1492379,929060.88,1192981.75,1491693.00
930214,1193885,1492786,929069.25,1192958.87,1491679.00
930483,1194291,1492631,929084.00,1192946.00,1491672.50
931231,1194273,1492872,929108.19,1192943.62,1491673.62
931052,1194453,1493012,929143.38,1192951.75,1491683.25
930753,1194895,1493658,929188.31,1192970.25,1491702.00
930783,1194799,1493295,929240.38,1192999.75,1491730.00
931185,1194934,1493191,929298.38,1193039.50,1491766.25
931348,1195145,1493960,929363.00,1193088.50,1491809.25
931040,1195388,1493762,929433.63,1193146.87,1491859.25
931542,1195633,1493887,929509.25,1193215.00,1491916.62
931858,1195863,1493978,929590.63,1193292.75,1491981.75
930747,1196069,1494005,929677.88,1193380.12,1492053.75
931433,1195956,1494294,929769.00,1193476.50,1492132.00
931919,1196124,1494158,929862.88,1193580.12,1492216.25
931815,1196811,1494771,929959.63,1193690.00,1492305.00
932211,1196512,1494485,930059.50,1193805.50,1492397.75
932391,1196743,1494692,930163.06,1193927.00,1492494.75
932283,1196716,1494576,930270.25,1194054.37,1492595.75
932471,1196833,1494879,930377.81,1194186.50,1492700.25
932627,1196887,1494788,930483.50,1194322.50,1492807.75
932318,1196814,1494730,930589.38,1194461.00,1492917.37
932525,1197263,1495120,930696.06,1194601.00,1493027.37
932747,1197125,1494910,930802.75,1194741.75,1493137.25
932665,1197164,1495105,930910.25,1194883.25,1493247.25
932938,1197360,1495736,931018.63,1195025.00,1493357.62
932955,1197414,1495241,931127.88,1195167.00,1493468.00
933277,1197456,1495364,931238.19,1195308.87,1493578.25
933134,1197617,1495371,931349.63,1195450.00,1493688.50
932778,1197749,1495978,931459.50,1195591.00,1493798.75
933379,1197716,1495408,931565.38,1195732.50,1493909.25
933456,1197877,1495621,931669.81,1195873.00,1494019.00
933600,1197967,1496221,931775.25,1196011.62,1494127.00
933285,1198105,1495627,931880.81,1196148.25,1494233.50
933879,1198210,1495738,931986.00,1196283.25,1494337.75
933692,1198099,1495433,932091.19,1196416.00,1494439.25
933469,1198454,1496023,932194.69,1196546.75,1494537.87
934200,1198386,1495644,932294.94,1196676.25,1494633.87
934221,1198100,1495787,932395.00,1196803.25,1494727.00
934060,1197715,1495434,932496.44,1196924.87,1494816.00
933487,1197064,1494891,932596.63,1197038.25,1494899.00
933191,1196341,1494141,932692.13,1197138.50,1494971.75
933049,1195734,1494026,932780.38,1197221.50,1495031.00
932432,1194866,1493295,932858.94,1197283.50,1495074.87
931479,1194376,1493064,932923.75,1197321.12,1495101.50
931815,1194005,1492641,932972.25,1197333.00,1495109.75
931326,1193820,1492577,933005.94,1197319.50,1495099.50
931426,1193515,1492432,933026.00,1197281.75,1495071.62
931418,1193373,1492275,933032.50,1197221.25,1495027.62
931155,1193180,1492548,933026.00,1197139.50,1494969.00
931451,1193255,1492278,933007.50,1197039.00,1494897.50
931151,1192981,1492008,932978.75,1196921.75,1494814.75
931043,1192998,1492275,932940.38,1196790.25,1494722.00
930568,1193217,1492747,932889.13,1196646.87,1494622.50
931242,1192921,1492208,932823.50,1196494.87,1494518.75
930933,1193030,1492196,932749.38,1196335.62,1494411.00
931285,1192931,1492549,932671.88,1196170.50,1494299.50
931756,1193415,1492397,932593.50,1196002.12,1494185.75
931924,1193631,1492627,932517.63,1195834.00,1494072.00
931998,1193858,1492847,932446.25,1195669.50,1493961.00
931958,1194284,1492990,932380.25,1195511.75,1493854.75
932330,1194355,1493198,932320.75,1195363.75,1493754.50
932582,1194376,1493292,932268.63,1195226.00,1493662.00
933144,1194850,1493809,932225.50,1195098.37,1493577.25
932241,1194796,1493583,932191.50,1194981.62,1493501.00
932630,1194858,1493600,932164.13,1194876.75,1493434.00
933276,1195036,1493710,932143.81,1194784.00,1493376.00
933177,1195135,1493726,932132.88,1194704.00,1493327.25
933093,1195406,1493636,932130.94,1194636.75,1493287.00
933252,1195131,1493592,932136.75,1194582.12,1493254.00
933057,1195679,1494169,932149.63,1194538.75,1493228.50
933362,1195791,1494106,932169.13,1194506.75,1493211.50
933729,1195684,1494002,932195.38,1194487.00,1493203.00
933801,1196007,1494421,932229.19,1194479.00,1493202.25
934125,1196162,1494711,932271.00,1194482.75,1493210.25
934193,1196324,1494724,932320.94,1194498.50,1493227.75
934048,1196328,1494766,932378.38,1194525.37,1493254.25
933743,1197258,1495507,932437.75,1194563.50,1493289.62
934197,1196907,1495203,932494.63,1194613.50,1493334.37
934619,1197066,1495366,932554.06,1194674.75,1493388.00
934810,1197183,1495836,932621.19,1194746.37,1493449.62
935056,1197622,1495370,932696.50,1194827.87,1493518.62
935038,1197733,1495781,932779.88,1194919.75,1493594.00
935130,1197817,1495762,932870.13,1195021.25,1493675.62
934807,1197887,1495887,932965.06,1195131.50,1493763.25
935152,1198004,1495988,933062.63,1195249.50,1493856.25
935093,1198010,1496147,933162.88,1195373.87,1493953.87
935605,1198106,1496405,933266.50,1195503.25,1494056.00
935414,1198132,1496306,933373.81,1195636.50,1494162.25
935438,1198232,1496240,933483.88,1195772.75,1494271.25
935788,1198237,1496437,933595.88,1195910.75,1494382.50
935619,1198553,1496442,933709.63,1196050.25,1494495.37
935705,1198385,1496497,933823.88,1196190.75,1494609.37
935712,1198357,1496362,933938.25,1196331.12,1494723.37
935956,1199057,1496709,934052.38,1196470.62,1494836.50
935809,1198854,1496749,934166.25,1196610.00,1494948.50
935950,1198954,1496657,934279.13,1196749.25,1495060.00
936048,1198909,1496804,934390.94,1196888.25,1495170.62
936359,1199233,1497055,934502.13,1197026.37,1495280.50
936551,1199193,1496985,934613.63,1197163.75,1495389.75
936482,1199184,1497137,934725.81,1197300.00,1495498.25
934607,1200022,1498070,934834.13,1197435.12,1495607.00
936400,1199554,1497499,934934.25,1197569.75,1495717.00
936497,1199397,1497219,935030.00,1197703.25,1495827.00
936509,1199567,1497346,935125.13,1197834.00,1495934.75
936770,1199841,1497348,935219.63,1197962.25,1496039.12
936862,1199820,1497473,935314.13,1198088.75,1496140.50
936911,1199911,1497501,935408.75,1198213.25,1496239.75
936689,1199875,1497777,935499.88,1198335.25,1496337.00
937033,1199556,1497446,935584.25,1198453.25,1496432.25
936994,1199017,1496963,935665.75,1198565.00,1496523.50
936752,1198071,1496247,935746.94,1198667.00,1496607.50
935932,1197545,1495665,935824.88,1198755.50,1496680.75
935989,1196920,1495238,935896.13,1198825.50,1496739.00
935661,1196426,1495074,935959.00,1198873.75,1496779.75
934779,1195702,1494550,936011.38,1198897.87,1496802.75
934565,1195481,1494167,936050.25,1198896.75,1496807.00
934830,1195000,1493980,936074.75,1198870.25,1496791.50
933961,1194905,1494131,936086.13,1198819.00,1496757.50
934140,1194759,1493809,936084.38,1198744.25,1496706.50
934384,1194495,1493660,936069.75,1198648.50,1496640.12
934198,1194474,1493529,936043.75,1198534.25,1496559.75
934038,1194526,1493736,936005.63,1198403.62,1496467.12
934259,1194336,1493639,935954.88,1198259.50,1496364.87
934190,1194369,1493595,935895.38,1198104.12,1496254.75
931620,1194863,1494108,935826.75,1197940.25,1496138.50
933905,1194359,1493492,935746.13,1197771.00,1496017.75
933336,1194242,1493651,935657.25,1197597.25,1495893.50
934144,1194492,1493926,935564.31,1197420.12,1495767.25
934577,1194666,1493862,935471.19,1197242.25,1495640.37
934948,1194880,1494018,935382.31,1197066.25,1495515.25
935043,1195266,1494068,935300.19,1196895.50,1495393.75
934934,1195671,1495471,935221.94,1196732.37,1495279.25
935573,1195795,1495020,935145.13,1196579.50,1495176.25
935580,1195772,1494790,935075.81,1196438.00,1495084.50
936213,1196304,1495312,935019.50,1196308.87,1495001.87
936090,1196300,1494986,934977.13,1196192.75,1494928.00
936263,1196121,1495106,934948.44,1196090.25,1494863.25
936015,1196191,1495048,934931.94,1196000.37,1494807.50
936643,1196461,1495102,934926.50,1195923.00,1494760.12
936664,1196485,1495253,934932.25,1195858.00,1494721.00
936699,1196681,1495184,934949.56,1195805.62,1494690.00
936514,1197242,1496099,934977.25,1195765.50,1494666.75
937073,1197133,1496095,935014.00,1195738.00,1494652.62
937081,1197247,1495807,935060.50,1195723.25,1494649.00
937299,1197467,1495966,935116.75,1195721.75,1494655.00
936970,1197874,1496261,935178.38,1195733.50,1494670.00
937370,1197964,1496370,935241.25,1195759.00,1494694.75
937720,1198098,1496534,935309.38,1195797.50,1494728.75
935307,1198950,1497068,935383.13,1195849.25,1494771.75
937406,1198612,1496709,935458.25,1195914.50,1494822.75
937492,1198614,1496985,935536.25,1195992.00,1494881.87
938043,1198834,1497292,935620.25,1196079.75,1494948.87
938443,1199170,1497337,935711.88,1196177.87,1495023.50
938543,1199238,1497283,935812.25,1196285.75,1495105.75
938391,1199240,1497372,935920.31,1196402.37,1495194.37
936533,1199384,1497604,936029.75,1196526.00,1495288.75
938284,1199335,1497611,936134.75,1196655.12,1495388.75
938930,1199357,1497612,936240.13,1196788.50,1495493.25
938717,1199823,1497889,936351.38,1196925.00,1495601.25
938959,1199730,1497769,936467.63,1197064.25,1495712.12
938723,1199879,1497897,936587.63,1197206.00,1495825.25
939018,1199929,1497822,936710.25,1197350.75,1495940.00
939325,1200045,1498209,936834.38,1197497.37,1496056.00
939569,1199898,1498148,936960.38,1197645.00,1496173.12
939273,1200205,1498221,937088.88,1197792.50,1496291.25
939734,1200269,1498897,937219.63,1197939.62,1496409.50
939582,1200229,1498387,937352.38,1198085.62,1496527.00
939408,1200296,1498361,937485.75,1198230.00,1496643.75
939922,1200478,1498262,937618.88,1198372.75,1496759.50
939628,1200660,1498688,937747.56,1198514.25,1496873.50
939743,1200634,1498498,937867.25,1198654.25,1496986.25
940030,1200905,1498614,937982.75,1198793.00,1497097.50
937743,1201525,1499509,938096.44,1198930.87,1497207.00
939484,1201114,1499135,938204.50,1199068.50,1497316.12
939957,1201242,1499134,938308.31,1199205.25,1497425.25
940110,1201051,1499431,938411.44,1199340.25,1497533.50
940154,1201237,1498981,938514.75,1199472.75,1497639.50
939820,1201279,1498947,938617.19,1199602.25,1497742.50
940085,1201270,1499033,938717.50,1199728.87,1497842.37
938134,1200706,1499225,938813.50,1199851.62,1497939.50
939609,1200161,1498279,938902.50,1199967.87,1498032.50
939710,1199506,1497812,938985.25,1200072.50,1498117.25
939474,1198640,1496867,939062.88,1200161.25,1498190.00
938893,1197668,1496500,939133.81,1200230.00,1498247.25
938605,1197478,1496108,939195.25,1200274.25,1498285.87
938232,1197014,1496103,939245.00,1200292.25,1498304.75
937533,1196327,1495608,939280.38,1200284.00,1498304.50
937638,1196101,1495344,939299.44,1200248.50,1498285.00
937423,1195954,1495276,939303.00,1200187.00,1498246.75
936984,1195800,1495490,939292.00,1200101.50,1498190.87
937001,1195613,1495037,939266.25,1199994.37,1498119.25
936809,1195262,1494931,939226.50,1199867.25,1498033.37
936802,1195112,1494601,939174.13,1199721.87,1497934.50
936577,1195203,1494798,939106.75,1199560.25,1497823.62
936854,1195081,1494839,939023.00,1199385.25,1497703.50
936769,1195089,1494785,938929.19,1199199.50,1497576.25
935697,1195724,1495059,938828.00,1199006.25,1497443.50
936553,1195097,1494780,938717.63,1198808.37,1497306.37
937011,1195289,1494850,938603.00,1198607.75,1497166.87
936997,1195387,1495226,938489.25,1198406.12,1497026.62
937349,1195920,1495251,938378.63,1198207.00,1496887.62
937624,1196041,1495455,938273.25,1198013.50,1496752.62
937851,1196271,1495465,938175.38,1197828.62,1496623.50
935994,1196522,1495943,938084.81,1197653.75,1496502.00
937973,1196393,1495717,938000.50,1197489.75,1496389.25
938442,1196535,1495793,937925.06,1197337.25,1496285.25
938310,1197075,1496178,937861.19,1197196.75,1496190.00
938495,1196904,1495965,937808.69,1197069.25,1496104.00
938810,1196915,1495955,937767.56,1196955.00,1496026.75
938666,1196986,1495981,937738.06,1196854.00,1495958.25
938854,1197084,1496559,937719.13,1196766.00,1495898.75
939156,1197221,1496340,937710.31,1196690.75,1495849.75
939226,1197395,1496547,937712.38,1196628.12,1495810.87
938868,1197785,1497195,937724.50,1196578.50,1495781.50
939378,1197665,1496815,937745.13,1196541.62,1495761.87
939653,1197992,1496916,937774.88,1196517.62,1495752.00
939527,1198053,1496928,937814.13,1196506.75,1495751.50
939697,1198489,1497361,937859.81,1196509.25,1495760.50
939846,1198421,1497485,937909.38,1196524.87,1495779.75
939864,1198539,1497227,937964.88,1196553.00,1495808.25
939507,1199321,1497317,938025.63,1196592.75,1495844.62
940204,1199010,1497673,938089.13,1196644.75,1495887.87
940386,1199102,1497520,938158.13,1196708.00,1495938.12
939994,1199180,1498146,938234.25,1196781.25,1495994.75
939011,1199369,1498121,938313.25,1196863.62,1496058.00
940166,1199484,1497962,938392.00,1196954.50,1496127.75
940490,1199650,1498108,938472.94,1197053.50,1496203.50
939169,1199910,1498576,938558.38,1197160.00,1496284.75
940690,1199754,1498353,938647.81,1197273.75,1496372.00
940888,1199991,1498412,938741.50,1197393.25,1496463.87
940785,1200237,1498679,938839.38,1197517.25,1496559.00
941095,1200073,1498491,938940.75,1197645.00,1496656.62
941085,1200129,1498593,939045.38,1197775.50,1496756.00
940848,1200169,1498568,939152.31,1197908.00,1496857.00
941182,1200519,1498979,939259.75,1198042.00,1496959.50
940981,1200639,1499034,939366.69,1198178.00,1497064.00
941500,1200633,1498937,939473.75,1198315.75,1497170.50
941181,1201107,1499350,939581.63,1198454.37,1497277.25
940857,1200801,1499012,939688.50,1198593.00,1497383.62
941616,1200769,1498982,939793.38,1198731.00,1497489.00
941886,1200829,1499194,939898.38,1198868.00,1497593.37
941623,1201127,1499260,940004.44,1199003.50,1497697.00
941682,1201237,1499305,940110.13,1199138.37,1497799.75
941672,1201236,1499567,940214.50,1199272.50,1497902.00
941341,1201891,1499594,940317.00,1199406.00,1498003.50
941876,1201535,1499617,940417.13,1199538.75,1498103.87
941972,1201555,1499654,940515.63,1199670.75,1498203.12
941862,1201739,1499942,940612.81,1199801.25,1498301.37
941442,1201535,1499567,940707.19,1199929.87,1498397.75
942134,1201238,1499612,940797.88,1200055.00,1498491.75
942195,1201044,1499259,940886.63,1200174.50,1498582.25
940818,1200331,1498800,940974.00,1200286.00,1498666.75
940959,1199479,1497978,941057.00,1200386.50,1498741.75
941026,1198913,1497498,941131.56,1200469.75,1498803.00
940558,1197978,1497092,941195.63,1200532.37,1498847.75
939548,1197392,1496674,941246.50,1200571.50,1498874.75
939970,1197027,1496388,941281.63,1200584.37,1498883.00
938984,1196833,1496169,941300.50,1200570.00,1498872.25
938796,1196561,1496269,941302.00,1200529.75,1498843.50
939151,1196460,1496112,941286.38,1200465.50,1498798.87
938627,1196221,1495873,941255.69,1200379.25,1498739.75
938875,1196673,1496515,941210.75,1200273.00,1498667.00
938647,1196188,1495897,941153.13,1200148.75,1498582.50
938877,1195988,1495728,941084.75,1200009.50,1498487.75
939014,1195985,1495659,941008.00,1199857.62,1498384.25
938578,1195920,1495575,940924.75,1199695.00,1498273.00
938384,1195635,1495459,940834.38,1199523.37,1498155.00
938502,1195571,1495539,940737.38,1199343.87,1498031.37
938693,1196588,1495960,940635.25,1199158.50,1497904.25
939341,1196625,1496145,940531.44,1198972.00,1497776.75
939696,1196791,1496178,940430.38,1198789.00,1497651.37
939775,1197195,1496843,940335.38,1198613.50,1497530.50
939456,1197092,1496717,940246.63,1198447.12,1497415.62
939983,1197298,1496513,940164.00,1198291.00,1497308.25
939947,1197251,1496557,940088.75,1198145.50,1497208.00
939541,1197225,1496723,940020.75,1198009.50,1497115.00
939758,1196983,1496547,939958.63,1197881.25,1497029.50
939853,1196918,1496304,939902.19,1197760.75,1496950.37
939867,1197505,1497109,939851.88,1197648.50,1496876.50
940236,1197641,1496974,939808.19,1197546.00,1496808.50
940752,1197733,1497034,939773.00,1197455.37,1496749.00
940499,1197791,1497229,939747.75,1197377.25,1496698.50
940761,1198382,1497545,939729.75,1197312.25,1496658.25
940732,1198398,1497507,939716.69,1197261.12,1496628.50
940833,1198474,1497597,939710.75,1197224.25,1496609.00
941095,1199450,1498316,939714.00,1197201.12,1496598.87
941216,1199293,1498178,939726.75,1197192.12,1496598.50
941426,1199415,1498229,939749.06,1197198.62,1496609.00
941717,1199471,1498278,939781.13,1197220.50,1496630.12
941777,1199916,1498515,939823.00,1197257.00,1496661.25
941929,1200043,1498493,939873.75,1197308.00,1496701.75
942072,1200071,1498667,939933.38,1197373.00,1496751.00
941966,1200796,1499428,940001.69,1197450.50,1496808.62
942476,1200678,1499089,940078.63,1197540.75,1496874.50
942416,1200802,1499320,940163.50,1197643.00,1496948.87
942587,1200882,1499900,940255.38,1197756.37,1497031.62
942260,1201229,1499440,940352.63,1197879.75,1497121.75
942608,1201307,1499475,940453.75,1198012.75,1497218.25
942718,1201206,1499618,940558.25,1198154.00,1497320.00
943004,1201755,1499887,940666.25,1198302.00,1497426.87
943099,1201501,1499644,940777.38,1198456.25,1497538.25
943603,1201594,1499812,940892.75,1198615.00,1497652.87
943650,1202043,1500904,941013.63,1198777.00,1497770.00
943557,1202247,1500367,941139.38,1198942.00,1497890.37
943403,1202377,1500596,941267.88,1199111.12,1498014.75
944198,1202319,1500596,941398.69,1199283.75,1498143.00
943450,1202236,1500369,941529.25,1199459.75,1498273.75
944154,1202139,1500291,941656.00,1199638.00,1498404.75
943995,1202264,1500544,941782.00,1199815.25,1498534.75
943859,1202500,1501029,941909.50,1199989.37,1498664.00
943524,1202425,1500541,942035.88,1200160.37,1498792.25
943718,1202078,1500456,942159.38,1200327.00,1498918.25
943820,1201938,1500388,942279.56,1200487.25,1499040.75
943814,1202054,1500754,942395.88,1200639.87,1499159.50
943987,1201923,1500425,942507.75,1200784.50,1499274.75
943999,1202023,1500622,942616.25,1200921.00,1499385.87
942547,1202372,1500775,942721.25,1201049.25,1499492.25
943753,1202136,1500581,942821.13,1201169.75,1499593.87
944041,1202379,1500715,942916.38,1201283.50,1499690.75
944190,1202585,1500959,943008.38,1201391.75,1499783.25
944266,1202787,1500770,943098.06,1201496.00,1499871.25
944316,1202203,1500507,943185.75,1201596.12,1499954.75
943982,1201798,1500084,943270.75,1201689.25,1500032.00
943177,1200546,1498944,943349.88,1201771.75,1500099.50
942968,1199976,1498710,943419.38,1201839.50,1500152.25
943022,1199326,1498351,943477.63,1201886.75,1500188.00
943078,1199232,1498459,943525.88,1201910.75,1500206.50
941793,1197696,1497620,943562.63,1201909.75,1500208.00
940621,1197038,1497147,943582.44,1201879.62,1500190.50
940336,1196241,1496299,943579.88,1201817.37,1500152.25
939132,1195355,1496068,943549.50,1201722.50,1500091.50
938893,1195323,1496072,943487.13,1201596.00,1500008.75
938975,1195095,1495781,943396.38,1201439.12,1499906.50
938918,1195365,1496125,943283.63,1201254.75,1499786.50
938951,1195238,1495803,943152.38,1201047.50,1499651.50
938910,1195282,1495750,943005.63,1200821.87,1499504.00
938975,1195410,1495752,942846.38,1200582.37,1499346.50
939465,1195791,1496103,942677.38,1200333.50,1499181.75
939996,1195863,1496202,942503.13,1200080.12,1499013.25
940134,1195927,1496271,942329.38,1199825.62,1498844.00
938117,1196549,1496651,942159.56,1199572.00,1498675.50
939892,1196168,1496206,941994.19,1199321.62,1498509.00
940888,1196547,1496518,941835.00,1199077.50,1498345.50
940964,1196698,1496650,941685.88,1198843.00,1498187.75
941177,1197108,1496833,941549.25,1198620.75,1498037.25
940991,1197360,1497104,941425.13,1198413.25,1497895.75
941638,1197535,1497232,941314.00,1198222.37,1497764.75
941279,1197896,1497652,941216.00,1198048.62,1497645.75
941213,1197891,1497533,941129.88,1197892.62,1497539.87
941455,1197985,1497221,941054.69,1197754.50,1497446.00
941275,1197596,1497583,940990.50,1197633.50,1497362.12
940747,1197268,1497282,940935.31,1197526.62,1497287.62
941109,1197101,1497070,940886.88,1197430.75,1497221.50
941508,1197171,1497109,940845.75,1197344.00,1497162.50
941296,1197343,1497354,940809.88,1197266.75,1497110.37
941770,1197707,1497383,940776.25,1197200.75,1497065.75
941813,1197826,1497532,940749.75,1197146.25,1497028.87
942303,1198884,1498096,940734.88,1197103.37,1497000.25
942150,1198485,1497983,940732.13,1197073.00,1496980.50
942439,1198385,1498087,940740.75,1197055.75,1496970.37
942300,1198518,1498070,940760.13,1197050.62,1496969.25
942009,1198836,1498341,940784.69,1197057.25,1496977.00
942358,1198685,1498392,940809.63,1197075.12,1496993.25
942449,1198801,1498318,940839.00,1197103.25,1497017.62
940785,1199400,1499056,940876.50,1197140.50,1497049.00
942416,1199293,1498750,940920.94,1197187.12,1497087.00
942696,1199436,1498749,940971.56,1197243.25,1497131.87
942527,1199409,1498869,941028.06,1197308.50,1497183.62
943176,1199911,1499170,941090.38,1197382.50,1497242.00
943183,1199985,1499180,941159.50,1197465.50,1497307.00
943242,1200085,1499165,941235.38,1197557.25,1497378.00
943000,1200619,1499996,941316.25,1197657.12,1497455.37
943116,1200357,1499738,941400.25,1197765.00,1497540.25
943442,1200411,1499442,941487.13,1197879.25,1497631.12
943598,1200513,1500200,941577.75,1197998.87,1497725.00
943321,1200784,1499853,941671.75,1198123.00,1497821.12
943562,1200754,1499445,941767.75,1198251.75,1497919.25
943824,1200990,1499841,941865.63,1198384.00,1498018.50
943365,1201227,1499941,941964.25,1198520.50,1498118.75
943778,1201047,1499920,942061.44,1198661.25,1498220.50
943836,1201324,1500086,942158.38,1198804.37,1498323.00
944102,1201748,1500205,942256.50,1198948.62,1498426.25
944085,1201511,1500347,942356.13,1199093.50,1498530.00
944269,1201535,1500329,942457.00,1199239.00,1498634.25
944628,1201802,1500444,942559.75,1199384.50,1498738.75
944309,1201867,1500501,942660.75,1199530.37,1498843.50
944737,1201839,1500558,942756.19,1199676.00,1498948.25
943971,1202078,1500690,942849.25,1199821.00,1499052.50
943851,1202488,1501007,942941.63,1199965.00,1499156.75
944806,1202236,1500957,943033.50,1200107.75,1499260.75
944939,1202248,1500733,943126.94,1200249.25,1499364.50
944765,1201773,1500598,943222.13,1200387.75,1499465.75
944215,1200751,1499678,943316.75,1200519.25,1499560.87
943849,1200233,1499170,943407.25,1200637.87,1499645.87
943730,1199877,1498818,943490.75,1200739.87,1499717.75
942687,1198752,1498682,943564.69,1200823.25,1499775.00
942571,1198242,1497981,943625.50,1200885.00,1499816.37
942221,1197754,1497390,943671.25,1200921.12,1499839.75
942017,1197476,1497751,943701.25,1200930.25,1499843.37
940979,1197373,1497174,943713.81,1200913.50,1499827.50
941618,1197006,1496935,943708.00,1200872.12,1499793.75
941363,1196982,1496942,943686.00,1200808.00,1499743.50
940192,1196764,1496833,943649.00,1200723.87,1499678.50
941092,1196467,1496676,943597.31,1200622.00,1499600.25
941454,1196399,1496543,943533.63,1200502.87,1499509.75
941361,1196867,1497065,943461.25,1200367.62,1499408.75
941309,1196519,1496601,943382.13,1200219.00,1499299.50
941124,1196315,1496430,943296.88,1200060.00,1499183.12
941021,1196397,1496634,943205.88,1199892.75,1499061.00
941301,1196637,1496879,943106.63,1199719.75,1498935.50
941598,1196948,1496974,942998.75,1199544.62,1498809.50
941642,1197140,1497145,942889.25,1199371.00,1498684.87
941618,1197741,1497413,942783.75,1199200.75,1498562.87
942418,1197451,1497348,942684.50,1199036.25,1498444.50
941358,1197592,1497383,942592.00,1198879.00,1498331.37
942150,1197705,1498198,942504.63,1198730.50,1498224.75
942725,1198009,1497878,942424.50,1198592.50,1498125.75
942768,1198270,1498022,942355.06,1198466.25,1498036.37
942576,1198268,1497970,942296.38,1198352.75,1497956.87
942562,1198436,1498480,942247.06,1198252.50,1497887.50
942893,1198279,1497989,942206.88,1198165.12,1497828.50
943065,1198356,1497946,942176.25,1198089.50,1497778.25
943054,1198426,1498402,942155.44,1198024.62,1497735.00
942831,1198650,1498371,942143.25,1197970.62,1497699.25
943436,1198815,1498150,942139.00,1197927.75,1497671.50
943466,1198973,1498499,942143.63,1197896.37,1497651.62
942410,1199294,1498674,942157.06,1197877.00,1497640.00
943254,1199423,1498921,942177.38,1197870.25,1497637.50
943680,1199481,1498694,942204.00,1197875.75,1497643.75
943814,1200077,1499380,942237.75,1197892.25,1497657.50
943889,1200047,1499286,942279.00,1197919.75,1497679.00
944311,1200120,1499215,942327.75,1197958.75,1497708.62
944121,1200199,1499360,942384.25,1198009.25,1497746.25
944296,1200426,1499607,942445.88,1198070.00,1497791.37
944548,1200561,1499602,942510.75,1198140.62,1497844.00
944482,1200713,1499890,942580.69,1198220.75,1497903.87
944429,1201175,1500157,942656.75,1198309.25,1497970.50
944939,1201098,1500147,942738.75,1198405.75,1498043.25
945025,1201030,1500226,942826.81,1198509.75,1498122.50
944846,1201092,1500772,942920.13,1198620.25,1498207.50
945015,1201385,1500322,943017.25,1198736.25,1498297.00
944914,1201357,1500245,943117.13,1198857.37,1498390.25
945143,1201534,1500394,943219.00,1198983.00,1498486.62
944989,1202216,1501173,943319.75,1199113.25,1498586.50
945463,1201819,1500793,943417.06,1199248.50,1498690.87
945448,1201824,1500540,943514.50,1199387.12,1498798.25
945581,1201853,1501372,943614.88,1199527.37,1498906.75
945575,1202157,1500899,943717.69,1199668.62,1499016.00
945510,1202252,1501039,943821.88,1199811.25,1499126.25
945764,1202318,1501015,943926.81,1199954.75,1499237.37
944939,1202603,1501088,944030.50,1200099.37,1499348.62
945280,1202477,1501137,944130.19,1200245.00,1499459.50
945753,1202508,1500967,944226.50,1200390.50,1499569.25
945891,1203055,1501497,944322.06,1200534.50,1499677.37
946215,1202930,1501502,944418.25,1200677.00,1499784.50
946196,1203003,1501573,944515.75,1200819.00,1499891.50
946221,1203091,1501660,944614.19,1200960.25,1499998.12
946155,1203076,1501611,944712.13,1201100.37,1500104.25
945624,1203188,1501520,944807.31,1201238.75,1500208.75
946202,1203015,1501710,944898.88,1201374.62,1500311.25
946509,1202975,1501380,944988.94,1201507.00,1500411.37
946206,1202322,1501222,945078.88,1201633.75,1500508.25
945720,1201643,1500456,945166.44,1201750.87,1500598.25
945842,1200974,1499898,945248.88,1201853.50,1500677.12
945034,1199952,1499202,945324.25,1201937.00,1500740.50
944606,1199589,1498830,945389.38,1201997.50,1500785.62
944234,1199254,1498809,945441.25,1202033.25,1500811.75
943441,1198896,1498945,945476.25,1202045.12,1500820.50
943761,1198450,1498173,945491.94,1202034.00,1500812.75
943798,1198320,1498081,945491.44,1201999.25,1500787.75
943607,1198132,1498351,945478.13,1201941.50,1500746.00
942715,1197911,1497908,945451.50,1201862.62,1500689.25
942886,1197748,1497767,945409.88,1201764.25,1500618.87
942879,1197849,1497879,945354.38,1201648.25,1500536.25
942033,1197644,1497732,945286.38,1201519.00,1500443.37
942850,1197755,1497749,945206.81,1201379.25,1500341.87
943227,1197613,1497794,945119.25,1201230.25,1500233.25
943019,1198045,1498147,945027.00,1201072.75,1500119.37
943226,1197920,1498055,944931.63,1200909.50,1500001.87
943919,1198124,1498056,944835.88,1200743.62,1499883.25
943944,1198375,1498283,944743.38,1200578.12,1499765.62
944172,1198999,1498720,944655.63,1200416.50,1499651.25
944415,1199158,1498943,944573.50,1200262.75,1499543.25
944826,1199319,1499060,944499.50,1200119.00,1499443.25
944210,1199555,1498917,944435.69,1199985.75,1499351.62
944618,1199478,1498965,944381.50,1199863.87,1499267.62
944640,1199477,1499013,944335.75,1199753.12,1499191.12
944853,1199497,1499473,944297.88,1199653.37,1499122.50
944779,1199615,1499082,944268.06,1199564.25,1499061.75
944812,1199513,1499125,944245.63,1199485.75,1499008.75
944925,1199657,1499164,944230.13,1199417.00,1498962.50
944508,1200065,1499876,944217.94,1199358.62,1498924.37
945328,1199908,1499477,944206.38,1199311.50,1498894.87
945307,1199973,1499505,944200.13,1199275.00,1498873.75
945707,1200126,1500331,944203.56,1199247.87,1498859.37
945597,1200561,1499950,944216.63,1199231.00,1498852.12
945800,1200595,1499990,944238.81,1199225.00,1498853.00
945910,1200941,1500138,944269.63,1199230.25,1498862.25
945796,1201156,1500361,944308.19,1199247.50,1498879.75
945991,1201185,1500280,944353.06,1199276.62,1498905.62
946380,1201321,1500362,944404.75,1199316.75,1498938.75
946491,1201717,1500948,944464.25,1199366.87,1498978.50
946196,1201616,1500904,944530.88,1199426.50,1499025.50
946556,1201640,1500700,944603.00,1199494.87,1499079.75
946616,1201711,1500900,944680.50,1199571.00,1499140.00
946726,1201832,1500864,944762.44,1199654.00,1499205.87
946565,1201897,1500899,944847.50,1199743.25,1499276.12
947022,1202048,1500984,944935.75,1199837.75,1499350.25
947033,1202496,1501467,945028.44,1199937.50,1499427.25
947227,1202511,1501358,945126.00,1200042.50,1499507.00
947157,1202400,1501368,945227.31,1200152.62,1499590.00
947119,1202492,1501821,945330.88,1200266.50,1499676.50
947305,1202681,1501544,945435.88,1200383.75,1499765.25
947410,1202646,1501462,945542.00,1200503.37,1499856.25
947497,1202822,1501494,945649.25,1200625.25,1499948.50
947127,1203241,1502224,945753.75,1200749.37,1500042.50
947853,1203072,1501836,945852.25,1200876.50,1500139.12
947930,1203120,1501759,945949.63,1201005.37,1500237.37
947796,1203056,1502355,946049.75,1201134.25,1500335.25
947836,1203666,1502104,946151.25,1201263.50,1500432.25
948378,1203452,1502082,946254.13,1201393.50,1500529.25
948490,1203395,1501950,946359.63,1201523.75,1500626.00
948165,1203820,1502138,946467.31,1201653.50,1500721.75
948270,1203736,1502048,946575.06,1201783.50,1500816.00
948462,1203923,1502157,946682.50,1201913.37,1500908.75
948555,1204207,1502810,946790.25,1202042.50,1500999.75
948407,1203891,1502434,946897.75,1202170.12,1501090.25
948729,1204081,1502350,947004.63,1202296.00,1501179.62
948651,1203849,1502242,947110.75,1202419.25,1501267.00
948159,1202851,1501641,947215.13,1202537.25,1501350.50
947963,1202119,1501083,947315.13,1202644.25,1501426.50
947536,1201629,1500654,947408.00,1202735.25,1501491.25
946788,1200957,1500064,947491.63,1202807.75,1501542.25
946911,1200246,1499735,947564.69,1202859.25,1501577.25
946543,1199740,1499276,947624.88,1202886.50,1501594.50
946106,1199384,1498935,947669.94,1202888.00,1501593.12
945576,1198960,1498879,947698.13,1202863.25,1501573.00
945407,1198675,1498607,947708.06,1202813.25,1501535.00
945345,1198661,1498594,947700.25,1202739.25,1501480.50
944248,1198816,1498808,947671.75,1202645.25,1501411.75
945033,1198619,1498735,947620.19,1202534.75,1501331.25
945334,1198303,1498318,947552.38,1202409.12,1501240.50
944566,1198269,1498578,947474.38,1202268.75,1501140.12
945052,1198388,1498657,947386.50,1202115.75,1501031.87
945425,1198199,1498269,947291.75,1201952.75,1500917.75
945474,1198357,1498451,947193.75,1201782.12,1500798.75
945152,1198500,1498277,947093.88,1201606.75,1500675.75
945729,1198811,1498437,946992.94,1201429.87,1500550.50
946112,1198921,1498801,946894.13,1201254.62,1500424.62
946225,1199471,1499459,946800.69,1201083.12,1500301.37
945989,1199523,1499074,946713.38,1200918.00,1500182.75
946487,1199566,1499245,946632.25,1200761.37,1500070.25
946760,1199576,1499213,946559.25,1200614.37,1499964.50
946988,1199758,1499311,946495.38,1200477.25,1499866.00
946595,1199772,1499318,946439.88,1200350.75,1499774.75
946799,1199752,1499436,946392.38,1200234.75,1499691.00
947012,1200108,1499573,946353.50,1200129.00,1499615.00
946606,1199900,1499364,946323.00,1200033.50,1499546.62
947016,1199795,1499179,946299.63,1199947.75,1499484.75
947089,1199948,1499416,946283.69,1199871.37,1499428.62
947388,1200285,1499694,946275.88,1199804.87,1499379.00
947560,1200427,1499986,946276.94,1199749.25,1499337.50
947506,1200626,1499965,946286.88,1199705.25,1499305.00
947024,1201527,1500713,946301.38,1199673.75,1499282.25
947744,1201208,1500521,946316.75,1199656.12,1499270.50
947951,1201230,1500483,946337.38,1199651.87,1499269.25
948041,1201413,1501068,946367.19,1199660.00,1499277.37
948293,1201741,1500830,946406.06,1199680.25,1499294.50
948181,1201724,1500813,946453.50,1199712.50,1499320.50
948067,1201754,1501061,946508.00,1199755.75,1499355.00
948320,1201982,1501271,946567.75,1199809.00,1499397.75
948705,1202193,1501297,946632.88,1199872.25,1499449.00
948492,1202107,1501337,946704.13,1199944.75,1499507.75
948592,1202458,1501779,946780.56,1200025.12,1499573.25
948579,1202474,1501480,946861.13,1200113.12,1499644.75
949090,1202479,1501675,946945.75,1200208.00,1499721.75
949241,1202608,1501552,947035.50,1200308.62,1499803.25
949089,1202767,1501901,947129.81,1200414.25,1499889.00
949255,1202856,1501888,947226.88,1200524.75,1499978.62
949272,1202910,1501876,947326.63,1200639.25,1500071.75
949604,1203393,1502241,947428.88,1200757.00,1500167.00
949524,1203090,1502000,947533.13,1200877.62,1500263.87
949710,1203221,1501965,947639.69,1201000.25,1500361.75
949737,1203243,1502165,947748.56,1201124.75,1500460.25
949601,1203393,1502382,947858.94,1201250.25,1500559.75
949870,1203408,1502452,947969.88,1201376.50,1500660.75
949823,1203489,1502306,948081.13,1201503.00,1500762.50
948020,1204257,1503112,948188.38,1201629.62,1500865.00
949755,1203812,1502668,948287.50,1201757.00,1500969.25
950102,1203846,1502621,948382.63,1201884.50,1501074.00
949840,1203907,1502566,948478.13,1202011.50,1501178.00
950263,1204009,1502694,948573.63,1202137.50,1501280.75
950140,1203967,1502728,948669.31,1202262.25,1501381.87
950378,1204152,1502726,948765.25,1202385.25,1501480.87
950096,1204121,1502975,948857.94,1202506.50,1501577.75
950476,1204080,1502902,948944.50,1202625.37,1501673.00
950578,1203934,1502796,949028.88,1202741.00,1501766.00
950565,1203226,1502285,949114.50,1202851.75,1501855.25
949915,1202584,1501440,949199.50,1202953.87,1501937.25
949555,1201818,1501033,949280.25,1203042.00,1502007.12
949422,1201146,1500398,949354.06,1203111.00,1502061.37
947934,1200127,1499703,949418.25,1203156.75,1502097.00
948006,1199527,1499460,949468.81,1203175.87,1502111.50
947198,1199054,1499130,949502.13,1203166.25,1502105.00
946366,1198586,1499123,949515.13,1203128.00,1502077.50
946186,1198552,1498688,949505.75,1203062.50,1502029.75
946149,1198244,1498574,949473.88,1202971.50,1501963.00
945720,1198114,1498543,949420.75,1202856.75,1501879.50
946027,1198159,1498399,949347.50,1202721.25,1501781.00
946031,1197765,1498268,949256.63,1202567.50,1501669.50
945852,1197706,1498443,949151.75,1202397.25,1501546.50
942948,1198167,1498711,949032.38,1202213.37,1501415.37
945085,1197577,1498282,948896.13,1202019.25,1501278.25
945519,1197502,1497931,948747.06,1201816.00,1501135.00
945207,1197363,1498090,948590.50,1201605.00,1500985.75
945696,1197673,1498136,948429.00,1201388.62,1500831.25
946095,1197693,1498287,948266.31,1201169.75,1500674.87
946042,1197921,1498203,948106.00,1200951.62,1500519.00
946136,1198393,1498772,947946.13,1200737.00,1500365.62
946876,1198563,1498701,947786.13,1200529.50,1500217.50
947152,1198859,1498848,947633.88,1200331.87,1500075.87
947438,1198956,1499327,947496.00,1200145.87,1499941.62
947451,1199036,1499100,947373.38,1199972.12,1499815.37
947717,1199023,1499012,947266.13,1199811.50,1499698.00
947469,1198886,1499100,947173.75,1199663.50,1499589.75
947023,1198831,1499150,947094.25,1199527.50,1499490.50
947498,1198777,1498988,947025.50,1199402.25,1499400.00
947304,1198702,1498986,946967.25,1199287.25,1499317.50
946824,1199082,1499675,946919.50,1199181.37,1499242.25
947865,1199133,1499268,946882.81,1199085.00,1499174.50
947937,1199248,1499278,946857.63,1198999.75,1499115.00
947961,1199325,1499432,946843.13,1198926.12,1499063.75
947903,1199634,1499584,946836.50,1198864.50,1499021.50
947838,1199703,1499589,946834.38,1198815.25,1498987.87
948432,1199773,1499615,946839.13,1198778.12,1498962.75
946322,1200853,1500633,946851.50,1198753.87,1498946.00
948628,1200775,1500354,946869.38,1198744.25,1498939.00
948355,1200880,1500539,946894.88,1198750.25,1498943.00
948800,1200993,1500513,946929.31,1198771.00,1498958.12
949070,1200929,1500772,946973.13,1198805.37,1498983.75
949617,1201131,1500653,947027.63,1198851.75,1499019.00
949375,1201221,1500702,947093.25,1198909.00,1499062.50
948724,1201465,1501165,947165.13,1198976.50,1499113.50
949417,1201463,1501025,947238.44,1199053.37,1499172.50
949732,1201495,1501125,947316.38,1199138.75,1499238.62
949862,1202369,1501565,947402.50,1199231.25,1499310.75
950215,1202384,1501692,947497.00,1199331.50,1499389.00
950274,1202309,1501711,947599.69,1199440.50,1499474.25
950496,1202189,1501511,947710.25,1199557.75,1499565.37
950102,1202068,1501580,947827.13,1199680.50,1499660.50
950412,1202253,1501812,947948.38,1199807.00,1499759.00
950624,1202578,1501992,948073.25,1199936.75,1499860.75
950778,1203090,1503087,948202.06,1200070.62,1499966.75
950930,1203051,1502658,948334.63,1200209.50,1500078.00
950747,1202786,1502322,948470.00,1200352.25,1500194.00
950385,1202937,1502197,948605.81,1200496.75,1500312.50
950305,1202961,1502204,948735.63,1200642.00,1500431.25
950506,1202843,1502302,948855.00,1200787.00,1500549.12
951007,1203231,1502527,948969.25,1200930.87,1500666.25
948394,1203885,1503032,949081.31,1201075.25,1500783.25
950439,1203520,1502670,949187.50,1201221.50,1500900.50
950929,1203501,1502638,949289.38,1201368.12,1501017.00
951105,1203440,1502713,949390.81,1201513.00,1501131.75
951127,1203061,1502661,949492.56,1201654.37,1501244.25
950275,1202394,1502160,949592.75,1201789.00,1501352.87
950501,1201883,1501653,949688.13,1201912.50,1501454.75
947632,1200440,1500696,949773.50,1202021.50,1501545.25
948814,1199781,1499995,949842.38,1202111.50,1501619.50
948869,1199497,1499688,949894.38,1202176.50,1501673.75
948465,1199278,1499602,949931.94,1202213.75,1501707.75
947795,1199229,1499460,949953.94,1202224.75,1501722.50
947668,1199056,1499618,949958.56,1202211.75,1501719.62
947466,1199048,1499373,949945.75,1202177.50,1501701.00
946773,1198285,1498947,949913.81,1202123.00,1501667.25
946892,1198129,1498788,949861.00,1202048.00,1501618.00
946707,1197912,1498783,949790.56,1201952.75,1501554.25
947136,1198442,1499512,949706.88,1201840.50,1501478.00
946746,1198509,1499302,949612.75,1201715.25,1501392.75
946894,1198401,1499208,949509.63,1201580.75,1501301.62
947029,1198406,1498911,949399.38,1201439.00,1501205.37
946356,1198065,1498889,949280.69,1201291.00,1501104.12
946973,1197917,1498792,949151.69,1201137.25,1500998.50
947222,1197914,1498843,949018.63,1200978.25,1500889.25
946213,1198416,1499526,948884.25,1200816.25,1500777.87
947606,1198471,1499249,948747.63,1200654.75,1500666.25
947665,1198603,1499334,948614.75,1200496.25,1500557.00
948259,1199028,1499828,948491.50,1200343.12,1500451.75
948829,1199584,1499920,948381.00,1200198.50,1500352.75
948806,1199588,1499859,948285.56,1200065.50,1500261.50
949521,1199687,1500059,948206.50,1199944.50,1500178.25
946917,1200011,1500702,948142.25,1199836.50,1500105.00
948943,1199944,1500323,948088.94,1199741.62,1500042.50
949442,1200218,1500209,948047.31,1199660.25,1499990.00
949922,1200338,1500400,948020.75,1199591.75,1499946.00
949807,1200131,1500476,948010.06,1199535.50,1499910.25
949848,1200237,1500381,948014.13,1199490.50,1499882.50
949978,1200501,1500547,948031.25,1199456.50,1499862.37
950010,1200579,1501015,948059.75,1199433.75,1499850.00
950364,1200664,1501114,948098.25,1199422.00,1499847.00
950298,1200672,1501077,948147.25,1199420.50,1499853.50
949742,1201074,1501799,948205.44,1199428.75,1499868.00
950599,1201270,1501317,948270.63,1199446.50,1499890.00
950504,1201167,1501272,948343.38,1199474.50,1499919.25
950698,1201356,1501496,948423.94,1199512.25,1499955.50
950244,1201819,1501906,948507.31,1199559.50,1499999.00
950889,1201889,1501760,948589.38,1199617.00,1500050.37
950750,1201811,1501637,948674.06,1199684.12,1500108.25
950478,1202586,1502373,948761.88,1199760.25,1500171.12
950262,1202470,1502009,948848.38,1199845.75,1500238.87
950855,1202262,1502191,948934.63,1199939.75,1500311.75
951229,1202596,1502787,949024.50,1200040.75,1500390.00
951280,1202805,1502497,949119.31,1200148.25,1500474.50
951775,1202870,1502601,949219.63,1200262.50,1500564.12
951820,1203070,1502401,949326.06,1200382.62,1500657.50
949954,1202957,1502891,949437.38,1200508.50,1500754.12
951855,1203014,1502768,949551.50,1200639.00,1500853.75
952236,1203223,1502835,949668.88,1200772.50,1500956.25
952077,1203493,1503114,949790.25,1200908.25,1501060.25
952248,1203495,1503030,949914.75,1201045.75,1501165.37
952182,1203453,1503127,950041.31,1201184.50,1501271.75
952196,1203357,1503138,950168.88,1201323.62,1501379.00
952206,1203639,1503514,950295.88,1201462.00,1501487.25
952441,1203551,1503332,950421.75,1201599.25,1501596.50
952455,1203476,1503212,950546.81,1201734.75,1501706.00
952314,1203898,1503835,950670.88,1201867.37,1501813.62
952674,1204002,1503606,950793.38,1201997.12,1501919.62
952821,1204159,1503619,950914.94,1202125.75,1502024.75
952709,1204176,1503601,951035.63,1202253.75,1502129.25
952655,1204421,1503894,951153.00,1202381.25,1502232.75
953226,1204316,1503885,951265.75,1202508.00,1502335.75
953137,1204293,1503954,951376.81,1202633.37,1502438.00
951941,1204607,1504051,951484.38,1202756.50,1502539.25
952433,1204066,1503623,951582.88,1202877.25,1502638.25
952747,1203738,1503328,951674.44,1202992.75,1502732.75
952275,1203275,1502698,951761.63,1203099.87,1502820.25
951014,1201953,1501883,951840.88,1203194.25,1502896.25
951274,1201366,1501358,951907.63,1203269.75,1502956.75
950656,1200839,1500858,951960.38,1203322.62,1502998.37
948218,1200035,1500535,951997.31,1203351.50,1503019.75
949130,1199315,1500027,952015.00,1203354.75,1503020.25
949199,1198889,1499766,952011.38,1203329.75,1502999.25
948992,1198848,1499700,951987.00,1203275.50,1502957.25
948533,1198508,1499467,951943.25,1203194.25,1502895.75
948434,1198466,1499298,951880.25,1203088.62,1502816.50
947194,1198287,1499294,951797.31,1202961.25,1502721.25
947724,1197909,1499035,951693.81,1202814.37,1502611.50
947696,1197429,1498835,951572.63,1202648.50,1502488.50
947554,1197399,1498703,951437.25,1202464.87,1502353.50
947430,1197707,1499136,951289.38,1202265.37,1502207.75
946915,1197260,1498785,951129.81,1202052.75,1502054.25
947236,1197120,1498694,950959.69,1201829.75,1501894.50
947367,1197062,1498696,950781.88,1201598.50,1501730.25
947858,1197576,1498876,950599.25,1201362.25,1501563.50
948047,1197639,1499035,950414.63,1201125.25,1501396.62
948111,1197751,1498955,950232.63,1200890.50,1501231.50
948292,1198654,1499209,950055.50,1200661.00,1501069.50
948646,1198359,1499413,949884.13,1200440.00,1500911.75
949098,1198421,1499504,949722.75,1200229.62,1500761.00
948774,1198500,1499596,949574.31,1200030.75,1500618.50
948634,1198491,1499620,949437.75,1199843.62,1500484.62
948940,1198563,1499646,949312.25,1199668.75,1500359.87
949213,1198712,1499699,949198.56,1199506.50,1500244.50
948874,1199093,1499854,949097.88,1199357.75,1500138.87
949623,1198814,1499650,949010.56,1199223.00,1500042.87
949767,1198915,1499796,948937.50,1199101.75,1499955.87
949738,1199376,1500433,948878.75,1198993.37,1499878.00
950115,1199371,1500027,948833.94,1198898.25,1499810.00
949968,1199541,1500118,948802.75,1198817.25,1499751.75
949882,1199850,1500535,948783.81,1198751.25,1499703.50
950225,1199921,1500575,948775.88,1198700.75,1499666.50
950170,1199832,1500479,948778.56,1198665.00,1499640.25
949648,1200011,1500608,948790.25,1198642.25,1499623.50
950432,1200959,1501570,948809.19,1198632.50,1499615.87
950078,1200705,1501107,948835.75,1198636.25,1499618.00
950808,1200690,1501131,948870.19,1198653.75,1499630.12
950802,1200722,1501204,948913.50,1198684.12,1499652.00
950937,1201141,1501168,948964.88,1198726.50,1499682.25
951181,1201321,1501458,949023.00,1198781.25,1499720.50
951336,1201611,1501511,949089.00,1198848.37,1499766.62
951442,1202551,1502155,949163.50,1198927.50,1499820.25
951746,1202265,1502172,949246.13,1199019.00,1499881.87
952039,1202525,1502408,949337.13,1199123.25,1499952.62
952343,1202947,1503305,949437.38,1199240.37,1500033.12
952294,1203163,1502842,949546.38,1199370.50,1500123.25
952512,1203321,1502847,949663.25,1199513.00,1500222.50
952648,1203433,1503029,949787.00,1199666.62,1500329.50
952483,1203871,1503356,949916.88,1199829.75,1500444.00
952744,1203742,1503197,950051.63,1200001.00,1500565.50
953102,1203915,1503329,950190.63,1200179.37,1500692.62
953255,1204938,1504026,950334.19,1200364.50,1500823.87
953318,1204442,1503707,950482.13,1200556.12,1500959.00
953347,1204383,1503632,950633.50,1200753.37,1501097.50
953471,1204576,1503644,950787.00,1200954.50,1501238.62
953637,1204990,1504072,950940.25,1201159.25,1501381.50
953925,1204803,1503909,951091.50,1201367.25,1501526.25
953611,1204773,1503845,951242.63,1201576.75,1501671.50
953631,1205442,1504582,951394.00,1201785.00,1501816.12
953646,1205277,1504305,951543.88,1201992.00,1501960.00
954616,1205159,1504313,951693.38,1202197.62,1502103.50
954568,1205068,1504362,951844.75,1202400.87,1502246.50
954292,1205270,1504202,951997.63,1202600.50,1502387.87
954284,1204994,1504020,952148.88,1202795.25,1502525.87
954086,1204660,1503613,952297.38,1202983.00,1502658.25
952908,1203492,1502880,952441.75,1203160.25,1502782.00
952928,1202524,1502065,952578.88,1203320.75,1502893.12
952809,1201787,1501735,952704.25,1203457.62,1502986.75
952157,1201234,1501373,952814.75,1203566.62,1503060.00
950934,1200126,1500688,952906.50,1203644.75,1503111.75
950843,1199608,1500392,952975.00,1203689.00,1503140.12
950297,1199351,1500011,953019.13,1203698.75,1503145.00
949718,1199266,1500095,953039.13,1203675.75,1503127.25
949726,1198600,1499828,953035.50,1203622.12,1503088.75
949273,1198319,1499590,953008.31,1203538.75,1503031.00
949298,1197875,1499867,952957.88,1203427.00,1502955.12
948754,1197520,1499352,952885.50,1203288.37,1502862.75
948422,1197327,1499170,952791.75,1203124.25,1502755.50
948864,1197356,1499014,952678.50,1202937.50,1502634.50
948587,1197630,1499068,952546.25,1202732.62,1502501.75
948647,1197329,1498994,952395.13,1202514.25,1502359.25
948290,1197310,1499025,952230.50,1202284.50,1502208.87
948364,1197627,1499461,952057.25,1202045.37,1502052.50
948143,1197401,1499032,951876.63,1201799.75,1501891.75
949246,1197539,1499155,951692.38,1201551.00,1501728.87
949159,1197794,1499255,951509.63,1201302.12,1501566.25
949926,1198402,1499788,951331.69,1201057.50,1501406.50
949964,1198401,1499794,951161.13,1200821.00,1501252.75
949782,1198427,1499727,951000.38,1200594.50,1501106.25
948433,1198798,1500373,950850.63,1200379.12,1500966.87
949617,1198633,1499966,950711.75,1200175.75,1500835.25
949892,1198664,1499899,950582.75,1199985.00,1500712.25
949912,1198545,1500491,950463.31,1199806.75,1500598.00
949642,1198769,1499953,950353.38,1199640.75,1500492.25
950002,1198931,1499962,950252.25,1199487.75,1500395.00
950540,1199255,1500148,950161.50,1199348.75,1500306.50
950876,1200143,1500774,950082.81,1199225.62,1500227.87
951172,1200224,1500876,950017.19,1199120.50,1500161.50
951262,1200427,1500990,949966.38,1199035.25,1500108.25
951342,1200267,1501145,949931.00,1198969.50,1500067.25
951401,1199914,1500903,949910.13,1198920.50,1500037.75
951410,1200164,1500928,949902.38,1198885.62,1500018.00
951551,1200266,1500825,949906.94,1198864.00,1500007.00
951515,1200937,1501535,949919.38,1198856.00,1500004.87
951602,1201116,1501615,949935.81,1198863.37,1500013.00
951987,1201228,1501576,949959.75,1198886.25,1500031.75
952100,1201611,1501838,949995.25,1198923.75,1500059.75
951863,1201217,1501831,950041.31,1198974.25,1500096.12
952070,1200986,1501459,950096.13,1199035.12,1500139.87
952214,1200965,1501566,950158.88,1199103.50,1500189.00
952532,1201265,1501760,950228.88,1199178.12,1500242.50
952855,1201433,1501919,950306.00,1199259.00,1500301.00
952263,1201555,1501835,950390.38,1199346.12,1500364.00
950767,1202160,1502527,950479.75,1199439.50,1500431.00
952207,1202351,1502186,950571.88,1199539.50,1500502.37
953038,1202307,1502375,950666.88,1199647.25,1500578.00
952997,1202476,1502850,950766.63,1199762.12,1500657.50
953393,1202740,1502796,950871.69,1199883.50,1500741.00
953151,1202896,1502952,950981.75,1200011.50,1500829.50
953053,1202764,1502749,951095.00,1200144.87,1500922.25
953006,1203053,1502876,951209.06,1200282.25,1501018.12
953474,1203150,1502975,951323.06,1200422.87,1501116.25
953699,1203298,1502874,951438.63,1200566.75,1501216.25
953652,1203301,1503615,951556.63,1200713.25,1501317.50
952641,1203578,1503541,951674.44,1200862.25,1501421.25
953354,1203689,1503425,951788.63,1201013.25,1501527.62
953717,1203795,1503582,951900.19,1201166.00,1501635.87
953598,1204274,1503857,952007.75,1201321.12,1501745.87
953743,1204264,1503840,952108.38,1201479.00,1501858.00
953894,1204297,1503694,952205.75,1201639.12,1501971.25
954047,1204575,1504122,952304.19,1201799.62,1502084.00
953913,1204189,1503889,952403.25,1201958.87,1502196.00
954155,1203783,1503572,952502.50,1202115.00,1502306.50
954114,1203269,1503088,952601.63,1202264.87,1502412.87
952480,1201999,1502167,952695.75,1202403.12,1502511.00
952430,1201309,1501473,952777.00,1202523.25,1502595.50
951982,1200759,1501091,952843.81,1202620.50,1502662.37
949227,1199910,1500944,952895.94,1202692.75,1502710.00
950452,1199464,1500440,952929.69,1202737.87,1502737.75
950449,1199135,1500143,952942.75,1202754.37,1502745.25
950235,1199056,1500249,952935.63,1202743.00,1502733.37
950275,1199291,1500118,952910.06,1202706.50,1502703.87
950334,1199248,1499933,952868.25,1202648.75,1502658.75
950411,1198877,1499852,952812.81,1202572.25,1502599.00
949712,1198748,1500135,952745.38,1202478.25,1502527.00
949866,1198666,1499966,952666.06,1202368.75,1502445.00
949384,1198421,1499532,952574.88,1202244.75,1502354.00
949405,1198187,1499910,952471.94,1202107.37,1502253.75
949101,1198171,1499579,952358.00,1201957.75,1502145.50
949668,1197972,1499254,952235.19,1201797.50,1502030.50
949470,1198009,1499456,952106.63,1201628.62,1501909.50
948809,1198301,1499563,951973.63,1201453.87,1501784.62
949973,1198471,1499672,951837.75,1201277.50,1501658.25
950328,1198839,1499940,951703.31,1201102.00,1501532.50
950480,1199372,1500275,951574.25,1200930.00,1501409.50
950696,1199139,1500182,951452.38,1200763.87,1501291.00
950685,1199212,1500212,951338.88,1200605.25,1501178.25
950922,1199103,1500213,951234.38,1200454.75,1501071.50
950479,1199013,1500102,951135.31,1200312.00,1500970.87
950919,1199045,1500157,951038.25,1200176.62,1500875.75
950814,1199181,1500276,950947.38,1200049.12,1500786.75
951048,1199954,1500687,950867.63,1199930.87,1500704.50
951536,1199808,1500665,950800.75,1199823.87,1500630.12
950942,1199610,1500627,950745.94,1199728.75,1500564.25
951618,1199728,1501030,950701.25,1199644.37,1500506.25
951469,1199747,1500801,950667.00,1199570.37,1500455.75
951988,1199990,1500589,950643.88,1199506.75,1500412.75
951802,1200383,1500917,950631.88,1199454.37,1500377.25
951693,1201135,1501716,950630.75,1199415.50,1500350.50
952443,1201081,1501488,950640.63,1199392.00,1500335.00
952479,1201226,1501564,950661.94,1199383.75,1500330.12
952795,1201270,1502455,950694.50,1199389.87,1500335.12
952822,1201451,1501961,950738.13,1199409.25,1500349.75
952778,1201190,1501755,950791.69,1199440.50,1500373.75
952784,1201367,1501611,950853.56,1199481.62,1500405.00
952029,1201194,1501593,950922.00,1199531.87,1500441.75
952941,1201433,1501727,950995.88,1199590.62,1500483.00
953033,1201508,1501755,951074.88,1199656.50,1500528.12
952756,1201914,1502009,951158.19,1199728.25,1500577.50
953143,1201940,1502156,951244.69,1199806.12,1500631.50
953440,1201933,1502324,951334.75,1199890.00,1500690.37
953578,1202133,1502324,951429.38,1199979.25,1500754.00
953275,1202340,1502492,951527.25,1200073.75,1500822.00
952370,1202274,1502494,951624.00,1200173.25,1500893.75
953347,1202233,1502406,951717.75,1200276.50,1500968.75
953529,1202595,1502658,951811.75,1200382.25,1501045.50
953833,1202455,1502564,951909.00,1200490.25,1501123.62
953517,1202532,1502536,952008.50,1200599.75,1501202.62
953597,1202696,1503498,952108.13,1200710.87,1501282.87
953661,1203106,1503376,952206.88,1200823.87,1501365.75
954206,1203305,1503265,952305.63,1200940.00,1501452.37
954252,1203653,1503485,952405.75,1201060.00,1501542.75
953962,1204212,1504312,952504.38,1201185.75,1501637.25
954670,1203974,1503878,952598.50,1201318.00,1501736.75
954928,1204283,1503978,952693.31,1201455.37,1501840.75
954060,1204190,1504237,952791.25,1201596.75,1501947.50
954818,1204328,1504006,952890.00,1201740.87,1502056.12
954708,1204378,1504057,952989.63,1201887.00,1502165.87
954960,1204470,1503948,953090.81,1202034.12,1502276.25
954399,1204256,1503468,953192.50,1202181.75,1502385.37
954474,1203896,1503325,953292.50,1202328.25,1502490.25
954496,1203309,1502893,953389.44,1202468.87,1502588.25
954416,1202515,1502390,953482.88,1202599.62,1502677.50
953083,1202121,1502013,953569.88,1202716.75,1502755.12
953091,1201548,1501591,953645.63,1202816.12,1502818.62
952579,1201174,1501275,953707.50,1202895.00,1502866.00
952314,1200570,1500854,953754.06,1202951.75,1502895.87
952033,1200166,1500770,953784.25,1202984.75,1502908.00
951833,1199979,1500428,953798.00,1202993.75,1502902.62
951037,1199837,1500425,953795.69,1202979.50,1502880.62
951322,1199382,1500273,953777.38,1202943.00,1502843.25
951354,1199330,1500237,953743.81,1202885.25,1502791.87
951498,1199147,1500388,953696.88,1202808.00,1502728.12
950927,1198701,1500000,953638.00,1202712.50,1502653.75
951088,1198649,1499652,953567.63,1202599.62,1502568.62
950944,1198516,1499801,953486.75,1202470.75,1502473.25
948732,1199030,1500610,953394.00,1202329.25,1502369.87
950697,1198623,1500016,953287.75,1202178.00,1502261.75
951361,1198695,1499919,953173.63,1202019.12,1502150.25
951296,1198892,1500491,953058.38,1201854.75,1502035.87
951423,1199215,1500518,952944.00,1201688.25,1501921.25
951638,1199324,1500474,952832.13,1201522.75,1501809.12
951902,1199400,1500616,952724.69,1201360.50,1501700.50
951478,1199807,1500923,952619.75,1201203.25,1501597.25
951812,1199780,1500791,952514.50,1201052.87,1501500.25
952111,1199905,1500635,952413.56,1200910.87,1501409.25
952324,1199674,1500910,952322.06,1200777.50,1501323.50
951875,1199715,1500814,952240.13,1200651.75,1501242.75
952322,1199496,1500604,952166.75,1200533.50,1501167.37
952305,1199605,1500569,952102.38,1200422.25,1501097.12
951825,1199815,1500767,952046.31,1200318.00,1501031.50
952147,1199857,1500773,951997.13,1200222.12,1500971.37
952021,1199935,1500820,951954.19,1200135.00,1500917.00
951995,1200231,1501495,951917.69,1200056.50,1500868.62
952699,1200221,1501109,951888.75,1199987.25,1500827.00
952984,1200413,1501141,951869.00,1199928.00,1500792.50
952889,1200468,1501378,951859.06,1199879.00,1500765.00
952695,1200741,1501650,951854.88,1199840.25,1500745.12
952999,1200825,1501698,951852.75,1199812.37,1500733.87
953074,1200816,1501626,951856.13,1199795.00,1500730.75
950720,1201603,1502357,951864.75,1199787.50,1500735.00
952506,1201392,1502033,951874.06,1199790.50,1500746.50
953363,1201393,1502050,951886.50,1199804.12,1500765.75
953702,1201618,1502302,951907.25,1199828.25,1500792.00
953508,1202011,1502254,951937.75,1199862.75,1500824.62
952941,1202008,1502406,951975.50,1199908.37,1500863.75
953602,1202107,1502518,952018.13,1199964.25,1500909.37
951992,1202578,1503281,952063.00,1200029.75,1500962.50
953743,1202779,1503036,952107.88,1200105.75,1501024.75
954013,1203008,1503035,952156.50,1200192.50,1501094.75
954402,1203530,1503395,952213.25,1200289.25,1501170.75
954431,1203507,1503402,952278.75,1200395.87,1501251.75
954871,1203626,1503605,952353.00,1200512.00,1501338.50
954871,1203885,1503644,952436.19,1200637.62,1501431.25
954975,1204018,1503806,952526.75,1200772.00,1501529.75
954851,1203998,1503769,952622.25,1200914.00,1501632.75
954840,1204127,1503817,952722.25,1201062.37,1501739.50
955511,1204700,1504967,952827.25,1201216.00,1501849.25
955395,1204706,1504271,952938.13,1201374.75,1501962.00
955315,1204895,1504238,953054.00,1201539.00,1502078.00
955694,1204974,1504307,953173.75,1201708.25,1502196.37
955676,1205461,1504485,953293.13,1201882.25,1502316.50
955834,1205602,1504730,953408.38,1202061.50,1502438.37
956077,1205495,1504718,953524.00,1202245.25,1502562.25
955561,1206076,1505156,953640.88,1202432.25,1502687.25
955658,1205960,1505044,953754.00,1202622.50,1502812.75
956070,1205768,1505052,953865.88,1202814.50,1502938.87
955978,1205850,1504942,953979.75,1203006.12,1503065.50
955399,1204907,1504235,954094.00,1203194.25,1503189.50
955380,1204067,1503535,954205.44,1203373.00,1503306.50
954984,1203407,1503013,954311.75,1203536.25,1503411.62
952160,1202437,1502383,954410.00,1203679.87,1503501.50
953371,1201573,1501782,954495.50,1203800.00,1503572.50
953296,1201051,1501372,954564.38,1203891.37,1503622.50
952906,1200915,1501122,954615.38,1203951.75,1503650.50
952377,1200484,1500854,954647.56,1203982.00,1503656.75
952300,1200342,1500832,954660.19,1203983.75,1503642.00
951571,1200128,1500655,954652.88,1203958.37,1503608.37
952213,1200100,1500826,954625.00,1203908.37,1503557.62
952172,1199818,1500510,954578.88,1203836.00,1503492.00
952589,1199784,1500503,954520.00,1203743.00,1503412.75
951673,1200223,1501181,954451.50,1203632.00,1503321.25
951956,1199658,1500656,954372.88,1203505.50,1503219.75
952258,1199750,1500510,954285.75,1203365.87,1503110.75
952180,1199760,1500398,954193.38,1203216.12,1502995.37
952343,1200014,1500736,954095.94,1203059.00,1502875.37
952521,1199848,1500677,953994.13,1202897.37,1502753.00
953167,1200020,1501062,953892.75,1202733.00,1502630.62
952603,1201003,1501173,953795.88,1202568.50,1502510.37
952891,1200848,1501375,953703.50,1202407.87,1502394.25
953559,1200855,1501496,953616.75,1202254.00,1502283.75
953648,1200817,1501991,953538.75,1202107.75,1502180.50
953648,1201255,1501645,953470.50,1201970.25,1502084.62
953880,1201063,1501657,953412.00,1201842.50,1501996.50
953896,1201118,1501476,953363.38,1201724.37,1501916.00
953250,1201654,1501759,953323.31,1201616.12,1501842.50
953954,1201467,1501844,953290.25,1201518.87,1501776.75
953966,1201446,1501629,953264.88,1201432.50,1501718.50
954049,1201697,1502131,953247.75,1201356.75,1501667.12
953942,1201610,1501999,953238.19,1201290.87,1501622.62
954499,1201850,1502187,953236.13,1201235.37,1501586.00
954333,1202083,1502101,953242.19,1201190.75,1501557.50
954473,1202431,1502579,953254.00,1201158.37,1501537.25
955025,1202443,1502511,953269.88,1201138.75,1501526.12
954950,1202600,1502688,953293.56,1201131.50,1501524.00
955065,1203449,1503592,953326.94,1201135.87,1501530.25
954646,1203173,1503210,953368.13,1201152.00,1501545.25
954887,1203143,1503108,953415.06,1201180.25,1501569.62
955276,1203290,1503276,953467.50,1201219.87,1501602.87
955698,1203612,1503447,953526.13,1201270.25,1501644.50
955810,1203483,1503383,953591.31,1201331.12,1501694.00
955531,1203564,1503193,953663.38,1201400.87,1501749.87
955494,1204104,1503899,953741.44,1201478.25,1501810.75
955718,1203812,1503433,953824.38,1201562.75,1501876.62
955742,1203876,1503720,953911.50,1201653.50,1501947.00
956074,1203817,1504158,954002.38,1201749.75,1502021.25
956073,1204180,1503977,954097.13,1201850.50,1502099.62
956144,1204139,1503950,954195.38,1201955.62,1502182.00
955743,1203982,1503919,954295.50,1202064.25,1502267.50
956034,1204429,1504090,954395.56,1202175.37,1502355.50
956107,1204327,1504119,954495.13,1202288.87,1502445.50
956111,1204409,1503996,954594.38,1202404.25,1502537.00
956183,1204686,1504885,954693.31,1202520.87,1502629.25
956282,1204581,1504492,954791.63,1202638.37,1502723.00
955889,1204544,1504310,954888.38,1202756.00,1502818.12
956612,1204654,1504508,954983.13,1202873.25,1502913.75
956121,1204984,1504642,955074.13,1202990.87,1503009.75
956342,1204958,1504463,955158.88,1203109.87,1503105.75
956202,1204831,1504443,955239.25,1203229.00,1503200.75
956244,1205708,1505523,955317.63,1203346.37,1503294.00
956012,1205468,1505039,955393.13,1203462.75,1503386.25
956416,1205613,1505051,955465.38,1203579.50,1503478.75
956587,1205526,1504799,955535.75,1203697.00,1503571.50
956824,1205540,1504991,955605.38,1203814.25,1503663.12
956825,1205341,1505144,955674.94,1203930.12,1503753.62
956766,1205421,1504905,955744.38,1204043.25,1503843.00
954230,1204584,1504367,955812.63,1204152.00,1503929.25
955504,1203693,1503330,955876.00,1204252.50,1504007.37
955518,1202918,1502681,955931.00,1204338.12,1504072.25
954920,1202323,1502150,955975.25,1204403.50,1504120.00
954310,1201247,1501636,956006.69,1204445.12,1504149.00
953888,1201052,1501543,956022.38,1204460.12,1504157.50
953717,1200850,1501373,956021.06,1204448.37,1504146.00
952711,1200710,1501342,956002.50,1204411.87,1504115.50
953240,1200637,1501269,955966.56,1204353.00,1504068.50
953390,1200411,1501162,955915.13,1204273.50,1504006.25
953122,1200341,1501736,955850.50,1204175.37,1503930.75
953526,1200427,1501300,955774.75,1204061.00,1503843.75
953015,1200396,1501094,955689.63,1203933.25,1503747.75
953174,1200079,1501065,955596.19,1203794.00,1503643.87
952628,1200223,1501142,955491.63,1203645.37,1503533.50
953038,1200480,1501185,955374.00,1203491.00,1503418.50
953270,1200530,1501213,955249.69,1203333.12,1503300.62
954105,1201389,1501895,955126.56,1203173.50,1503181.75
954176,1201289,1501870,955009.00,1203015.25,1503064.25
954538,1201502,1501850,954899.63,1202862.37,1502951.00
954491,1201662,1502111,954799.63,1202717.37,1502843.62
954775,1201875,1502353,954709.13,1202581.75,1502743.37
954847,1201927,1502182,954627.94,1202456.50,1502651.37
954911,1201901,1502355,954557.25,1202342.00,1502567.37
952346,1202104,1502661,954496.38,1202237.75,1502491.25
954072,1202061,1502371,954442.38,1202143.75,1502422.87
954956,1201999,1502434,954394.25,1202059.87,1502362.12
954848,1202024,1502548,954354.13,1201985.50,1502308.87
955147,1202185,1502289,954323.06,1201920.37,1502262.37
955065,1202131,1502431,954301.00,1201864.50,1502222.00
955255,1202267,1502549,954287.56,1201817.50,1502187.87
955046,1202828,1503074,954282.31,1201779.75,1502161.00
955288,1202629,1502929,954284.63,1201752.25,1502142.75
955373,1202938,1502758,954293.88,1201735.00,1502132.50
955898,1203170,1503719,954310.81,1201728.62,1502128.50
956057,1203556,1503406,954336.75,1201733.75,1502131.62
956067,1203749,1503688,954371.88,1201751.12,1502143.37
956187,1203788,1503830,954415.50,1201781.00,1502164.75
955797,1203955,1503935,954462.75,1201822.75,1502195.75
955937,1204000,1503929,954508.63,1201876.25,1502235.62
956226,1203811,1503939,954556.38,1201939.00,1502283.25
956159,1204465,1504306,954610.19,1202009.25,1502337.50
956639,1204326,1504223,954670.00,1202087.00,1502398.00
956927,1204301,1504268,954736.88,1202171.50,1502464.37
956961,1204548,1504459,954811.50,1202262.25,1502536.37
956442,1204893,1504617,954890.81,1202359.25,1502614.00
957070,1204926,1504485,954971.75,1202463.00,1502696.62
956894,1204767,1504617,955055.88,1202572.25,1502783.00
955198,1205133,1505005,955143.88,1202685.25,1502872.37
956891,1205034,1504698,955234.25,1202801.25,1502963.87
957487,1205206,1504944,955327.25,1202920.00,1503057.50
957153,1205170,1504846,955423.44,1203041.37,1503153.25
957305,1205571,1504972,955521.88,1203164.75,1503250.25
957369,1205599,1505117,955621.63,1203290.75,1503348.62
957561,1205507,1505220,955722.75,1203418.75,1503448.25
956900,1205978,1505498,955825.19,1203547.62,1503549.37
957674,1205902,1505290,955928.88,1203677.62,1503652.00
957542,1205938,1505434,956032.81,1203808.50,1503755.25
957863,1206135,1505992,956136.50,1203940.00,1503858.25
957813,1206442,1505755,956239.94,1204072.25,1503961.25
958268,1206457,1505665,956343.69,1204206.00,1504064.50
957744,1206552,1505671,956447.56,1204340.50,1504167.50
957917,1206811,1506087,956548.00,1204476.25,1504270.12
957925,1206807,1506012,956642.38,1204614.00,1504373.00
958421,1206899,1505860,956734.00,1204752.25,1504475.87
958335,1207025,1506102,956826.13,1204890.00,1504577.25
957965,1206557,1505814,956917.94,1205025.75,1504676.50
957663,1205869,1505293,957006.81,1205156.00,1504771.87
957634,1205304,1504758,957090.63,1205276.50,1504859.75
956553,1203977,1503872,957163.94,1205381.75,1504936.25
956341,1203122,1503147,957220.50,1205465.25,1504996.00
955367,1202664,1502758,957259.94,1205522.50,1505036.00
954016,1201938,1502803,957282.31,1205551.75,1505055.00
954936,1201783,1502034,957286.44,1205552.75,1505052.75
954603,1201468,1502019,957272.75,1205525.87,1505029.75
954451,1201343,1502003,957241.38,1205472.87,1504987.37
954239,1201204,1501815,957193.19,1205395.87,1504928.25
954357,1201206,1501855,957129.63,1205297.37,1504853.50
954525,1201055,1501714,957053.31,1205180.25,1504765.50
954109,1201150,1502422,956966.13,1205047.00,1504667.00
954692,1201043,1501742,956869.75,1204899.75,1504561.00
954453,1201108,1501632,956766.88,1204741.75,1504447.87
954439,1201069,1502496,956659.63,1204575.50,1504328.00
953882,1201283,1502001,956547.75,1204403.50,1504204.00
954420,1201382,1502139,956431.50,1204228.50,1504078.37
954962,1201368,1502129,956314.06,1204053.12,1503953.12
954165,1201974,1502458,956199.13,1203880.25,1503829.75
955159,1202140,1502621,956088.19,1203713.75,1503710.50
955519,1202244,1502538,955983.38,1203555.62,1503596.87
955710,1203047,1503008,955887.13,1203407.00,1503489.75
956131,1202667,1503011,955801.38,1203269.75,1503390.25
956310,1202549,1503142,955727.50,1203143.87,1503299.62
955881,1202630,1503071,955665.56,1203028.75,1503218.12
955838,1202605,1502945,955609.88,1202924.00,1503145.00
956091,1202655,1502964,955556.25,1202829.50,1503079.25
956304,1202799,1503088,955509.44,1202744.87,1503020.75
956327,1203173,1503378,955474.00,1202670.37,1502969.25
956523,1203010,1503131,955450.13,1202606.12,1502924.50
956363,1203027,1503207,955436.69,1202552.00,1502886.75
956541,1203239,1504000,955432.25,1202508.12,1502855.50
957024,1203560,1503689,955437.00,1202474.75,1502831.75
957373,1203846,1503798,955452.50,1202453.25,1502816.50
956917,1203900,1503884,955478.81,1202444.00,1502810.12
957180,1204315,1504668,955513.13,1202447.25,1502813.25
957269,1204356,1504515,955553.75,1202463.25,1502827.00
957514,1204417,1504276,955601.75,1202491.25,1502850.75
957899,1204610,1504929,955658.25,1202530.37,1502883.00
957015,1204926,1504819,955722.25,1202580.37,1502923.50
957440,1204961,1504825,955790.63,1202641.00,1502972.25
957804,1204997,1504868,955862.88,1202711.75,1503029.00
956916,1205406,1505039,955940.31,1202791.62,1503092.75
957618,1205306,1504964,956022.00,1202880.50,1503162.75
957961,1205387,1505129,956106.81,1202977.25,1503238.25
957985,1205546,1505409,956194.63,1203080.12,1503318.25
958336,1205256,1505083,956285.88,1203187.50,1503402.25
958313,1205438,1505138,956380.69,1203298.00,1503488.75
958009,1205194,1505186,956478.06,1203410.25,1503577.12
957957,1205630,1505283,956574.25,1203523.75,1503667.00
958259,1205632,1505409,956667.13,1203638.50,1503758.12
958190,1205819,1505500,956758.69,1203754.75,1503850.50
958224,1206442,1505750,956850.38,1203872.25,1503943.87
958692,1205964,1505591,956942.81,1203990.62,1504037.25
958472,1206185,1505655,957036.19,1204109.75,1504130.75
958532,1206149,1506224,957129.63,1204229.75,1504224.37
958763,1206272,1505883,957222.75,1204350.00,1504317.75
958744,1206480,1505873,957315.69,1204470.37,1504411.25
959107,1206461,1505979,957408.88,1204591.00,1504504.50
958303,1206990,1506784,957499.25,1204712.12,1504598.75
959081,1206743,1506245,957583.38,1204834.12,1504694.62
959164,1206698,1506092,957665.00,1204956.25,1504791.00
959422,1206698,1506624,957748.44,1205076.75,1504885.75
958964,1206672,1506279,957833.00,1205195.00,1504978.62
958819,1206179,1505719,957916.50,1205309.50,1505068.87
958663,1205735,1505287,957996.75,1205416.87,1505153.50
957274,1204523,1504315,958071.88,1205514.50,1505228.25
957349,1203840,1503601,958138.25,1205598.25,1505288.00
957115,1203249,1503282,958192.06,1205661.50,1505329.25
956547,1202475,1503198,958231.06,1205699.62,1505350.50
955445,1201999,1502438,958252.19,1205711.25,1505351.75
956059,1201631,1502321,958253.44,1205695.00,1505332.25
955562,1201453,1502188,958236.44,1205651.12,1505293.00
954822,1201170,1502005,958202.25,1205581.50,1505235.75
954619,1201083,1501918,958149.94,1205488.25,1505161.50
954971,1201003,1501781,958079.75,1205373.75,1505072.25
954271,1200984,1501709,957993.56,1205240.25,1504969.37
954320,1200803,1501629,957892.69,1205090.25,1504854.50
954568,1200775,1501787,957778.31,1204926.25,1504730.00
954505,1200540,1501636,957653.31,1204750.75,1504598.00
954660,1200681,1501950,957520.31,1204565.62,1504460.50
954517,1200668,1501977,957381.44,1204373.50,1504320.50
954641,1200475,1501743,957238.38,1204176.50,1504179.25
954288,1201245,1502248,957089.25,1203976.75,1504038.00
955224,1201092,1502328,956933.38,1203778.00,1503899.00
955631,1201292,1502376,956779.31,1203583.25,1503764.87
955292,1201842,1503081,956633.56,1203395.00,1503636.50
956036,1202209,1503056,956497.00,1203217.12,1503515.75
956358,1202387,1502848,956372.38,1203052.50,1503404.50
956566,1202494,1502991,956261.94,1202902.12,1503302.87
956348,1202708,1503213,956165.88,1202767.00,1503211.00
956640,1202499,1503191,956083.44,1202647.25,1503129.37
956747,1202591,1503170,956014.38,1202541.50,1503057.75
956686,1202770,1503602,955958.50,1202448.75,1502995.50
956516,1202832,1503336,955914.38,1202368.75,1502942.25
956906,1202720,1503327,955880.75,1202301.37,1502897.87
957047,1202798,1503255,955858.13,1202245.25,1502861.75
957219,1203040,1503776,955846.69,1202200.12,1502833.75
957460,1202968,1503586,955846.25,1202165.75,1502814.50
957712,1203283,1503695,955857.38,1202142.25,1502804.00
957761,1203839,1504029,955880.63,1202128.87,1502801.25
957613,1203892,1503947,955914.88,1202126.62,1502806.50
957878,1203728,1504068,955958.50,1202136.00,1502819.50
958249,1204057,1504362,956011.19,1202156.87,1502840.50
958558,1204288,1504688,956074.00,1202189.00,1502870.25
958816,1204446,1504675,956147.50,1202232.75,1502909.37
958526,1204435,1504630,956230.88,1202287.00,1502956.62
957934,1205307,1505448,956317.88,1202352.00,1503011.50
958429,1204902,1505186,956402.75,1202427.50,1503074.00
958827,1204946,1505056,956489.38,1202512.50,1503144.25
958707,1204947,1505818,956582.00,1202605.25,1503220.50
958949,1205422,1505346,956680.00,1202705.00,1503301.87
958985,1205214,1505454,956782.75,1202811.87,1503388.50
958939,1205356,1505364,956889.38,1202924.37,1503479.75
958705,1205320,1505504,956998.19,1203041.50,1503574.50
958651,1205333,1505387,957106.94,1203162.00,1503671.75
959130,1205704,1505597,957215.13,1203285.25,1503770.75
959205,1205869,1505959,957324.00,1203410.87,1503871.25
958758,1205795,1505786,957432.88,1203538.75,1503973.25
959537,1205836,1505752,957541.00,1203668.00,1504076.25
959496,1206040,1505922,957649.44,1203798.25,1504179.62
959426,1206353,1506113,957758.00,1203929.87,1504283.75
959707,1206620,1506170,957865.31,1204063.62,1504389.00
959864,1206576,1506264,957972.63,1204199.87,1504494.87
959760,1206972,1506490,958080.88,1204337.62,1504601.50
960030,1206670,1506392,958189.63,1204476.00,1504708.75
960061,1206492,1506451,958298.88,1204613.87,1504816.12
959584,1206262,1506172,958407.19,1204749.25,1504922.12
959360,1205170,1505304,958511.88,1204878.00,1505023.75
958724,1204353,1504446,958609.81,1204994.50,1505115.75
958208,1203795,1503978,958697.25,1205093.00,1505192.50
955734,1203160,1503944,958767.31,1205171.25,1505252.50
956517,1202193,1503110,958812.88,1205226.37,1505294.75
956738,1201770,1502787,958835.25,1205254.50,1505317.50
955756,1201583,1502638,958837.50,1205254.25,1505318.75
955773,1200991,1502252,958818.75,1205226.50,1505299.12
955725,1200900,1502061,958779.75,1205171.75,1505259.50
954559,1200689,1501943,958720.94,1205092.25,1505201.12
954534,1200468,1502016,958639.19,1204990.00,1505126.25
954986,1200271,1501875,958534.88,1204867.62,1505036.87
955251,1200476,1501811,958415.06,1204727.12,1504935.00
955272,1200200,1502050,958285.69,1204571.25,1504822.50
954666,1199978,1501639,958148.25,1204402.00,1504700.50
954664,1199856,1501683,958002.63,1204220.62,1504571.00
954713,1199820,1501487,957849.75,1204028.75,1504435.12
954359,1200395,1501767,957691.06,1203829.62,1504294.50
955103,1200573,1501875,957528.69,1203628.00,1504151.50
955656,1200697,1501800,957367.25,1203427.50,1504008.12
956193,1201342,1502938,957211.75,1203230.75,1503866.50
956118,1201242,1502720,957065.06,1203040.00,1503729.75
956449,1201353,1502535,956929.00,1202858.00,1503600.37
957076,1201588,1502644,956805.88,1202686.50,1503479.00
956425,1201703,1502698,956696.06,1202527.00,1503365.50
956582,1201526,1502663,956597.25,1202379.50,1503260.37
956890,1201458,1502767,956509.38,1202243.25,1503163.50
953678,1202121,1503217,956430.75,1202118.00,1503075.00
956360,1201790,1503138,956357.00,1202004.25,1502995.87
956606,1201637,1502853,956290.00,1201901.75,1502925.87
956904,1201809,1502869,956233.25,1201810.00,1502864.50
957197,1201927,1502779,956188.13,1201728.75,1502810.62
957518,1201959,1503111,956155.69,1201658.37,1502764.00
957441,1202144,1503170,956136.31,1201598.75,1502724.75
956838,1202517,1503807,956124.88,1201550.25,1502694.50
957780,1202737,1503441,956117.06,1201514.00,1502674.00
957959,1202754,1503690,956118.00,1201490.50,1502662.75
958049,1203293,1504043,956132.25,1201479.12,1502659.87
957917,1203254,1503865,956158.38,1201479.75,1502665.00
958410,1203447,1503943,956195.50,1201493.00,1502678.00
958558,1203491,1503928,956243.81,1201518.62,1502698.50
958635,1203834,1504309,956302.75,1201556.25,1502726.37
959039,1203881,1504730,956371.50,1201605.50,1502762.50
958660,1204077,1504781,956449.75,1201665.87,1502808.25
958311,1204549,1505213,956535.88,1201737.00,1502862.87
959050,1204524,1505074,956628.25,1201818.50,1502925.62
958906,1204650,1504924,956726.75,1201910.25,1502995.75
959108,1204498,1505088,956830.25,1202010.62,1503072.50
959236,1204987,1505331,956935.00,1202118.62,1503155.00
959359,1205148,1505294,957037.88,1202234.25,1503243.12
959717,1205338,1505562,957143.00,1202357.87,1503336.62
957576,1205768,1506269,957250.75,1202489.00,1503435.50
959322,1205675,1505809,957356.88,1202627.62,1503540.50
959537,1205746,1505911,957462.94,1202772.50,1503650.00
959962,1205744,1505950,957572.13,1202922.00,1503763.12
960172,1206083,1506285,957685.63,1203075.25,1503879.25
960031,1206140,1506014,957803.25,1203232.00,1503998.25
959928,1206115,1506107,957923.56,1203391.50,1504118.62
959899,1206450,1506594,958041.81,1203552.75,1504240.12
960326,1206609,1506690,958155.19,1203715.25,1504363.87
960599,1206759,1506426,958268.13,1203879.50,1504489.50
960637,1207005,1506978,958384.44,1204045.50,1504615.25
960719,1206806,1506502,958503.69,1204212.37,1504739.75
960650,1206511,1506127,958624.88,1204378.25,1504862.00
960537,1205968,1505812,958746.50,1204539.87,1504979.25
959574,1204687,1504751,958866.00,1204691.50,1505087.50
959246,1203890,1504337,958978.75,1204826.50,1505181.75
958684,1203231,1503893,959080.38,1204938.75,1505258.75
957586,1202350,1503919,959167.38,1205026.00,1505317.00
957211,1201979,1503125,959236.13,1205086.00,1505355.62
957047,1201739,1502888,959283.63,1205117.12,1505373.87
956762,1201485,1502613,959308.88,1205120.00,1505371.75
955919,1201269,1502571,959309.25,1205096.00,1505350.00
956280,1201038,1502299,959282.50,1205047.00,1505310.12
955999,1200726,1502033,959233.63,1204974.12,1505253.00
953644,1201076,1502646,959163.88,1204879.75,1505179.75
955408,1200649,1502225,959071.38,1204767.12,1505093.50
955489,1200521,1502196,958960.75,1204638.00,1504996.50
955798,1200553,1502209,958838.06,1204494.00,1504890.00
955719,1200621,1502029,958706.88,1204338.25,1504775.75
955825,1200467,1501922,958569.50,1204173.25,1504654.50
955586,1200496,1502128,958427.50,1204000.62,1504528.25
955053,1200796,1502470,958278.44,1203822.75,1504399.50
956106,1201043,1502326,958121.19,1203642.75,1504270.75
956524,1201142,1502383,957964.06,1203464.25,1504143.25
956707,1201908,1502796,957814.38,1203289.87,1504017.87
957579,1201701,1502734,957675.38,1203122.00,1503896.00
957362,1201737,1503050,957550.00,1202962.75,1503779.87
957569,1201595,1502931,957438.75,1202813.00,1503671.25
957320,1201952,1503138,957340.50,1202672.75,1503570.50
957471,1201730,1502972,957254.25,1202542.75,1503477.75
957457,1202021,1503029,957179.31,1202422.75,1503392.50
957578,1202404,1503996,957115.50,1202313.75,1503315.00
958141,1202379,1503581,957063.25,1202216.50,1503246.37
957823,1202489,1503370,957023.50,1202131.62,1503187.25
957898,1202571,1503438,956994.88,1202059.25,1503137.00
957747,1202953,1503789,956972.13,1201999.75,1503095.37
958700,1202980,1503873,956952.19,1201953.50,1503063.25
958791,1203111,1504035,956942.06,1201920.25,1503040.75
956461,1204068,1504838,956943.50,1201900.50,1503028.75
958543,1203795,1504746,956952.00,1201895.50,1503028.00
958449,1203762,1504517,956968.63,1201904.75,1503039.00
959357,1203757,1504839,956995.88,1201926.50,1503060.00
959308,1204158,1504840,957035.50,1201960.00,1503090.25
959481,1204263,1504878,957087.50,1202005.00,1503129.50
959280,1204441,1504929,957150.25,1202061.25,1503176.75
958159,1204602,1505544,957218.25,1202128.50,1503232.50
959378,1204600,1505325,957286.88,1202205.62,1503297.00
959568,1204822,1504938,957359.63,1202291.62,1503368.50
960073,1205304,1505612,957440.50,1202385.75,1503444.25
960027,1205211,1505561,957530.25,1202487.37,1503524.37
960393,1205278,1505627,957628.44,1202596.50,1503609.50
960849,1205575,1505828,957735.50,1202712.75,1503699.50
960196,1205611,1505831,957849.25,1202835.75,1503794.25
960467,1205680,1505964,957965.25,1202965.00,1503892.87
960761,1205478,1505744,958084.50,1203098.25,1503994.50
960684,1205980,1506570,958208.69,1203234.25,1504097.87
960352,1205970,1506260,958335.94,1203372.50,1504203.00
960796,1205919,1506248,958464.50,1203513.00,1504310.12
960910,1206122,1506478,958594.38,1203655.25,1504419.50
960433,1206323,1506608,958721.88,1203798.75,1504530.75
961077,1206398,1506469,958843.06,1203943.75,1504643.75
961036,1206362,1506615,958962.13,1204089.50,1504757.25
959700,1207311,1507175,959079.63,1204236.12,1504871.25
961425,1206975,1506877,959192.56,1204384.87,1504986.12
961237,1207005,1506928,959304.63,1204535.37,1505101.25
961465,1206893,1507397,959418.50,1204686.00,1505216.50
961727,1207189,1507115,959534.06,1204835.75,1505331.37
961506,1206723,1506795,959651.19,1204983.75,1505445.12
961466,1206316,1506465,959768.50,1205127.25,1505555.37
958762,1205176,1505892,959881.56,1205263.12,1505659.00
959888,1204677,1505256,959984.31,1205387.00,1505752.00
959840,1203918,1504378,960074.19,1205492.62,1505830.00
959300,1203362,1504020,960150.94,1205574.75,1505889.50
958628,1202815,1503846,960212.25,1205631.62,1505929.00
958639,1202344,1503434,960256.00,1205661.50,1505948.50
957872,1201871,1503050,960281.31,1205663.62,1505947.50
957323,1201348,1502940,960286.38,1205637.62,1505925.75
956905,1201064,1502584,960269.38,1205583.75,1505884.37
956947,1201058,1502624,960230.50,1205503.75,1505824.37
956666,1201097,1502993,960171.56,1205400.25,1505747.50
956912,1201021,1502775,960094.88,1205276.25,1505656.50
956599,1200969,1502651,960002.88,1205135.50,1505554.25
956504,1200909,1502583,959897.25,1204980.62,1505443.00
955979,1200808,1502599,959775.88,1204814.00,1505323.75
956641,1200924,1502656,959638.13,1204638.12,1505198.75
957098,1200845,1502514,959491.75,1204455.25,1505069.50
956445,1201940,1503356,959341.63,1204268.75,1504937.62
956551,1201696,1503193,959186.50,1204083.25,1504806.25
957224,1201814,1503206,959029.94,1203901.75,1504677.75
958154,1201798,1503660,958879.00,1203726.00,1504553.87
958086,1202353,1503628,958738.56,1203557.75,1504435.87
958613,1202455,1503605,958610.88,1203399.62,1504325.25
958816,1202401,1503536,958497.63,1203252.87,1504222.12
956569,1202636,1504193,958398.63,1203118.00,1504127.50
958379,1202548,1503742,958311.38,1202995.87,1504042.25
958799,1202636,1503744,958235.38,1202885.50,1503965.75
958974,1202998,1504189,958172.00,1202786.25,1503896.62
959285,1202999,1504085,958122.13,1202698.62,1503835.50
958724,1203069,1504254,958085.13,1202623.00,1503783.00
959424,1203038,1504088,958059.38,1202559.37,1503739.62
959818,1203639,1504466,958044.63,1202507.87,1503705.00
959948,1203637,1504567,958041.44,1202469.62,1503679.37
960045,1203801,1504417,958051.13,1202444.75,1503662.87
959829,1204562,1505415,958073.63,1202432.50,1503654.75
960131,1204405,1505038,958107.38,1202432.87,1503655.87
960357,1204451,1504955,958151.75,1202446.75,1503666.50
960552,1204829,1505356,958207.00,1202474.25,1503686.00
960836,1205017,1505649,958271.25,1202515.37,1503715.25
961064,1205236,1505666,958343.00,1202570.00,1503754.87
961065,1205441,1505742,958424.00,1202637.75,1503803.87
960826,1205937,1506347,958513.63,1202718.25,1503861.37
961060,1205721,1505904,958609.00,1202810.37,1503926.75
961451,1205759,1506068,958710.56,1202913.00,1503999.00
961816,1205668,1506616,958820.25,1203024.25,1504077.50
961248,1206042,1506390,958937.25,1203142.75,1504161.37
961854,1206226,1506385,959059.63,1203268.12,1504251.00
961725,1206199,1506438,959186.75,1203400.12,1504345.75
960769,1206538,1507093,959317.63,1203537.62,1504445.75
961779,1206562,1506865,959450.75,1203680.00,1504551.75
961928,1206504,1506704,959585.50,1203826.37,1504662.25
962262,1206946,1507198,959721.88,1203975.50,1504775.50
962646,1206830,1507030,959860.88,1204126.62,1504890.75
962365,1206632,1506829,960002.88,1204279.00,1505007.25
961968,1206837,1506928,960145.19,1204431.50,1505124.12
962334,1207589,1507582,960285.13,1204584.75,1505241.50
962563,1207650,1507513,960422.50,1204740.75,1505361.00
962226,1207741,1507646,960558.00,1204899.75,1505482.50
962763,1208276,1508246,960691.38,1205060.50,1505605.50
962798,1207881,1507827,960823.25,1205221.87,1505729.50
963156,1207919,1507853,960954.81,1205383.37,1505854.12
963191,1207891,1507947,961086.38,1205544.50,1505978.75
963004,1207950,1507886,961217.00,1205704.00,1506103.00
962929,1207553,1507578,961344.31,1205860.25,1506225.25
962799,1207091,1507043,961467.56,1206010.75,1506342.75
961707,1206222,1506154,961585.38,1206151.00,1506451.62
961355,1205223,1505614,961693.63,1206276.25,1506547.75
961215,1204615,1505113,961788.19,1206380.50,1506626.62
960815,1204206,1504875,961866.94,1206459.75,1506685.75
959834,1203299,1504287,961927.75,1206512.50,1506724.25
959561,1203000,1504131,961967.38,1206536.50,1506741.25
959569,1202877,1504043,961985.25,1206532.00,1506737.25
959061,1202988,1504117,961982.50,1206502.00,1506714.25
959178,1202933,1504048,961960.13,1206449.37,1506674.62
959634,1202825,1503993,961920.75,1206377.25,1506620.50
959027,1202957,1504491,961867.38,1206287.50,1506553.50
959176,1202556,1504168,961800.81,1206182.00,1506475.87
958667,1202653,1504157,961721.63,1206062.75,1506390.00
958864,1202578,1503909,961630.75,1205932.00,1506297.37
959266,1202883,1504244,961527.88,1205793.37,1506199.25
959773,1202934,1504301,961415.00,1205650.00,1506097.75
959793,1203044,1504452,961299.69,1205504.25,1505995.25
960149,1204249,1505266,961187.50,1205357.75,1505893.25
960142,1203913,1504936,961080.19,1205214.12,1505793.37
960715,1204050,1505045,960979.69,1205076.87,1505698.37
960632,1204214,1505017,960887.88,1204948.25,1505609.50
961081,1204487,1505409,960805.13,1204829.62,1505527.25
961137,1204255,1505330,960731.81,1204721.50,1505453.25
961194,1204375,1505504,960669.31,1204623.25,1505387.25
959351,1204533,1505367,960617.63,1204534.75,1505329.37
960977,1204396,1505329,960575.38,1204456.00,1505278.75
961192,1204288,1505444,960541.50,1204386.25,1505234.50
961225,1204402,1505571,960516.06,1204324.25,1505196.75
961509,1204689,1505684,960499.25,1204270.62,1505165.00
961567,1204636,1505607,960491.38,1204225.50,1505140.12
961509,1204680,1505515,960492.13,1204189.00,1505121.50
961451,1205479,1506112,960500.31,1204161.00,1505109.25
961838,1205334,1506165,960515.38,1204143.00,1505104.75
962510,1205441,1506181,960538.94,1204135.87,1505108.37
962342,1205636,1506970,960572.63,1204139.12,1505119.62
962932,1205825,1506692,960616.75,1204153.00,1505139.00
962343,1205914,1506664,960670.50,1204177.25,1505166.50
962356,1205986,1506560,960731.25,1204211.50,1505201.75
962125,1206393,1506934,960793.63,1204255.50,1505243.50
962526,1206387,1507107,960854.13,1204310.00,1505292.37
962413,1206661,1507056,960916.00,1204374.00,1505348.25
962879,1207227,1507501,960982.75,1204446.50,1505410.25
963165,1206869,1507421,961055.13,1204527.00,1505477.37
963317,1206929,1507268,961134.25,1204614.87,1505549.75
963290,1206967,1507380,961219.75,1204709.37,1505626.75
963317,1207089,1507552,961309.63,1204809.37,1505707.50
963429,1207052,1507548,961402.50,1204914.12,1505792.00
963186,1207103,1507463,961497.88,1205022.37,1505879.25
961894,1207508,1507889,961595.06,1205133.00,1505968.00
963144,1207383,1507763,961693.00,1205245.62,1506058.12
963792,1207441,1507798,961791.63,1205360.25,1506149.75
963558,1207518,1507744,961891.63,1205476.50,1506242.75
963613,1207670,1507939,961992.69,1205594.37,1506336.75
963965,1207702,1507779,962094.25,1205713.25,1506431.00
964138,1207740,1508015,962197.25,1205832.75,1506525.00
963662,1208207,1508469,962301.75,1205952.37,1506619.12
964323,1207886,1508133,962407.00,1206071.50,1506714.50
964091,1208108,1508143,962512.88,1206190.00,1506809.50
964197,1208243,1508811,962618.44,1206308.50,1506903.62
963445,1208175,1508376,962721.63,1206427.00,1506996.75
964066,1208140,1508377,962820.50,1206544.25,1507089.00
963909,1207804,1508073,962915.50,1206659.00,1507179.25
963048,1206939,1507092,963003.00,1206769.37,1507264.37
962551,1206118,1506542,963076.69,1206871.25,1507339.00
962303,1205471,1506004,963136.00,1206957.50,1507398.87
961907,1204826,1505285,963181.94,1207022.75,1507441.37
961072,1204033,1504904,963212.38,1207063.50,1507463.87
960709,1203561,1504607,963224.38,1207077.62,1507465.25
960342,1203233,1504371,963216.63,1207064.62,1507445.75
959824,1202985,1504356,963187.00,1207025.25,1507406.50
959964,1202879,1504323,963134.50,1206961.12,1507349.37
959726,1202797,1504191,963062.81,1206874.75,1507276.75
957384,1202694,1504311,962974.75,1206768.50,1507190.25
959102,1202523,1504054,962870.63,1206644.50,1507091.50
959428,1202479,1504156,962752.00,1206505.00,1506982.50
959490,1202343,1504408,962622.44,1206352.25,1506865.00
959791,1202385,1504251,962485.63,1206188.50,1506741.50
959956,1202432,1504232,962344.88,1206016.12,1506613.75
959932,1202567,1504338,962202.75,1205837.87,1506483.87
960014,1203173,1504898,962060.06,1205656.62,1506354.37
960446,1203093,1504468,961918.00,1205475.50,1506227.50
960897,1203319,1504898,961780.94,1205298.12,1506104.25
961094,1203596,1505225,961653.00,1205127.00,1505985.62
961118,1204067,1505272,961535.75,1204965.12,1505873.00
961420,1204120,1505228,961429.63,1204814.87,1505768.37
961495,1204051,1504995,961335.44,1204676.87,1505671.62
961086,1204301,1505589,961249.88,1204551.50,1505582.75
961307,1204382,1505226,961168.75,1204439.50,1505502.75
961794,1204317,1505492,961096.00,1204340.37,1505431.00
961623,1204602,1505396,961035.63,1204252.75,1505367.50
961580,1204279,1505342,960986.88,1204176.00,1505311.25
961885,1204461,1505573,960948.88,1204109.25,1505262.37
961961,1204682,1505785,960921.69,1204053.00,1505221.37
961586,1204847,1505932,960901.63,1204007.75,1505189.25
962310,1205087,1506096,960884.88,1203974.25,1505166.25
962521,1205243,1506250,960876.75,1203952.50,1505152.75
960826,1205973,1506859,960881.38,1203943.00,1505148.62
962632,1205883,1506739,960897.94,1203946.25,1505153.75
963263,1205916,1506746,960926.38,1203962.62,1505169.00
962858,1205856,1506849,960966.75,1203991.25,1505194.00
963162,1206461,1506967,961017.50,1204031.25,1505227.50
963306,1206296,1507055,961077.69,1204083.00,1505269.50
963176,1206468,1507155,961146.63,1204145.37,1505319.50
962777,1206964,1507688,961222.63,1204217.50,1505378.00
963418,1206948,1507502,961304.50,1204299.50,1505445.00
963952,1207042,1507458,961392.75,1204390.75,1505519.62
963760,1207130,1508369,961488.13,1204490.75,1505600.25
963913,1207372,1507952,961589.63,1204598.62,1505687.12
964341,1207454,1507882,961696.63,1204713.87,1505779.87
964382,1207452,1507869,961809.81,1204835.50,1505877.25
963426,1207581,1508251,961924.75,1204963.00,1505978.50
963779,1207505,1508037,962035.75,1205096.25,1506083.50
964120,1207670,1508231,962144.56,1205232.75,1506191.12
964344,1208166,1507870,962254.88,1205370.75,1506300.75
964467,1208241,1508266,962367.31,1205510.75,1506411.62
964807,1208074,1508466,962482.38,1205653.00,1506523.50
964587,1208260,1508445,962599.88,1205797.00,1506635.87
964036,1208502,1508724,962714.56,1205942.00,1506749.00
964240,1208583,1508868,962820.88,1206088.62,1506863.00
964682,1208490,1508757,962922.50,1206236.00,1506977.75
962824,1208875,1509372,963024.50,1206382.75,1507092.25
964231,1208805,1509185,963126.31,1206528.75,1507206.50
964949,1208758,1508895,963226.56,1206673.75,1507320.25
964769,1208824,1509058,963326.00,1206817.25,1507433.00
964978,1208903,1509037,963425.06,1206958.75,1507543.75
965273,1208905,1508974,963524.00,1207097.75,1507652.00
964987,1208762,1508935,963623.06,1207233.25,1507757.50
964399,1207829,1508413,963720.31,1207363.87,1507858.25
964356,1206955,1507591,963812.88,1207484.75,1507950.62
963829,1206280,1506998,963898.13,1207589.12,1508030.00
963242,1205564,1506911,963972.69,1207671.50,1508092.62
961966,1204303,1505745,964031.94,1207728.00,1508135.62
961713,1204037,1505462,964071.00,1207754.37,1508156.75
961199,1203612,1505237,964087.69,1207750.25,1508156.00
960134,1203135,1504749,964079.38,1207717.50,1508133.25
960341,1202838,1504542,964043.50,1207657.62,1508089.25
959743,1202763,1504255,963982.38,1207571.25,1508024.12
960008,1202926,1504403,963899.00,1207459.62,1507939.75
959650,1202525,1504243,963795.75,1207325.62,1507838.87
959401,1202554,1504235,963674.50,1207172.50,1507723.62
959454,1202400,1504247,963536.75,1207003.00,1507596.37
958950,1202241,1504389,963381.19,1206819.87,1507459.75
959574,1202044,1504293,963207.38,1206624.62,1507316.25
959564,1202124,1504287,963023.19,1206419.25,1507167.75
958491,1202335,1504183,962835.31,1206206.25,1507015.12
959668,1202323,1504312,962645.69,1205988.75,1506859.87
960595,1202554,1504523,962458.00,1205769.75,1506704.25
960308,1202846,1504820,962276.50,1205553.25,1506550.50
960933,1203347,1504828,962103.50,1205342.50,1506400.25
