455184,804463,1012745,454768.56,804252.75,1012493.13
455373,804901,1013137,454683.19,804171.63,1012435.50
455631,804852,1012987,454612.78,804103.25,1012387.94
455966,805046,1013160,454558.16,804048.19,1012350.50
456069,805163,1013597,454519.81,804006.75,1012323.38
456249,805464,1013533,454497.44,803979.00,1012306.88
456595,805938,1013812,454490.81,803965.63,1012301.56
456929,806018,1014085,454500.31,803967.56,1012307.88
457519,806792,1014543,454526.22,803985.31,1012326.88
457685,807041,1014849,454568.69,804020.13,1012359.50
457829,807278,1014894,454628.19,804072.63,1012406.06
457993,807715,1015706,454704.19,804142.13,1012465.63
458469,807780,1015622,454795.94,804227.50,1012538.00
458528,808005,1015629,454903.00,804328.50,1012623.50
459030,808306,1015933,455024.88,804444.63,1012721.56
458801,808703,1016091,455158.94,804575.63,1012831.31
459188,808942,1016165,455302.00,804721.31,1012951.88
459449,809180,1016380,455455.00,804880.88,1013082.13
459707,809620,1016940,455619.22,805052.69,1013220.50
460048,809526,1016839,455794.28,805235.13,1013366.13
460143,809593,1016809,455979.50,805426.88,1013519.00
460200,809640,1016820,456173.38,805626.75,1013678.06
460466,810043,1016749,456374.13,805833.13,1013841.38
460513,810035,1016960,456580.34,806045.31,1014007.25
460596,810010,1017027,456790.94,806261.81,1014175.06
459688,810163,1017409,457004.47,806480.63,1014344.31
460775,810341,1017298,457219.50,806700.56,1014514.63
461185,810279,1017387,457435.69,806920.88,1014685.44
461068,810458,1017726,457653.00,807140.38,1014856.00
461468,810885,1017599,457870.81,807358.81,1015025.75
461523,811008,1017805,458088.75,807576.94,1015194.56
461669,811232,1017860,458306.38,807794.75,1015362.50
461858,811561,1018261,458522.81,808012.00,1015529.50
461898,811739,1018473,458737.19,808228.69,1015696.69
462293,811908,1018419,458949.81,808445.25,1015864.06
462476,811997,1019156,459161.53,808661.56,1016031.13
462624,812304,1018996,459372.63,808877.31,1016198.00
462685,812217,1018796,459582.63,809092.13,1016365.00
462570,811707,1018479,459790.31,809303.88,1016529.88
461314,809566,1016785,459991.56,809508.50,1016687.25
460222,807598,1014883,460178.44,809696.00,1016826.44
458878,806019,1013634,460342.94,809850.00,1016936.31
457323,804075,1012371,460477.00,809958.38,1017009.63
454690,803008,1011341,460570.31,810014.94,1017041.88
454029,802461,1011041,460613.25,810015.75,1017030.50
453484,802268,1010757,460603.25,809961.75,1016976.69
452827,802134,1010660,460541.38,809858.00,1016884.00
453068,802135,1010802,460430.47,809710.13,1016757.13
452958,802183,1010804,460277.38,809524.31,1016601.25
452306,802469,1011380,460088.81,809306.69,1016421.75
453244,802599,1011278,459870.50,809063.75,1016224.00
453662,802624,1011400,459629.50,808801.50,1016013.25
453382,802741,1011753,459371.75,808524.94,1015793.25
454064,803151,1011761,459102.19,808239.06,1015568.00
454260,803218,1011758,458826.50,807948.88,1015340.75
454377,803334,1011803,458549.56,807658.25,1015114.00
454810,803953,1012361,458274.53,807370.38,1014890.63
455194,804126,1012554,458005.13,807089.25,1014674.25
455479,804381,1012815,457745.97,806819.00,1014467.94
455952,804756,1013581,457501.00,806562.75,1014273.69
456370,805341,1013420,457273.25,806323.81,1014093.69
456633,805425,1013597,457065.38,806104.75,1013929.63
456627,805454,1013628,456878.22,805906.31,1013782.06
456410,805389,1013560,456709.78,805728.50,1013650.50
456668,805169,1013434,456557.81,805570.25,1013533.63
456603,805191,1013304,456422.84,805428.94,1013429.69
456656,805565,1013556,456305.25,805302.25,1013337.56
456836,805395,1013339,456204.25,805189.69,1013256.63
456816,805335,1013452,456119.38,805091.19,1013186.13
456921,805399,1013563,456049.75,805006.25,1013125.88
457123,805700,1013765,455992.63,804934.63,1013076.00
457380,805886,1014010,455946.13,804876.69,1013037.19
457498,806080,1014021,455913.06,804832.94,1013009.50
457549,806658,1014651,455895.44,804803.50,1012993.00
458114,806825,1014554,455893.16,804789.06,1012987.88
458534,806974,1014821,455907.19,804790.50,1012994.75
458684,807235,1015196,455938.31,804808.00,1013014.19
459023,807865,1015360,455986.19,804841.88,1013046.38
459255,807866,1015513,456050.47,804892.75,1013091.38
459573,808085,1015698,456130.81,804959.81,1013149.00
459834,808684,1016508,456226.75,805042.13,1013219.63
460145,808931,1016327,456337.69,805140.06,1013304.25
460637,809057,1016379,456463.75,805253.63,1013401.50
460748,809176,1017089,456604.81,805381.69,1013509.25
460609,809502,1016666,456759.25,805522.88,1013626.25
460837,809567,1016827,456924.38,805676.00,1013751.75
461072,809651,1016783,457098.78,805839.75,1013884.63
460656,809795,1016980,457281.25,806012.75,1014023.56
461407,809922,1017051,457470.41,806194.00,1014167.63
461468,810001,1017050,457665.56,806381.63,1014315.75
461736,810391,1017271,457866.06,806573.50,1014466.38
461608,810223,1017257,458070.63,806768.25,1014618.63
461716,810271,1017505,458277.50,806965.00,1014772.31
461877,810417,1017494,458485.38,807163.13,1014927.50
461868,810541,1017566,458691.88,807361.63,1015083.50
462306,810691,1017823,458895.06,807560.25,1015239.63
462424,810968,1017923,459097.25,807758.75,1015396.13
462764,811496,1018126,459299.91,807957.31,1015552.69
462992,811488,1018252,459502.81,808156.38,1015708.94
462645,811719,1018456,459705.81,808356.25,1015865.38
463072,811982,1018970,459907.91,808557.38,1016021.94
463549,812356,1019012,460109.56,808760.25,1016178.88
463611,812530,1019065,460311.97,808965.25,1016337.25
463708,812629,1019099,460514.88,809172.13,1016497.00
463705,812303,1019088,460717.31,809380.00,1016657.50
463341,811208,1017958,460917.53,809584.88,1016816.00
462467,809629,1016706,461111.19,809777.50,1016964.63
461238,807793,1014215,461291.44,809945.88,1017093.50
458022,805078,1013208,461446.56,810077.13,1017192.63
457057,804153,1012522,461562.50,810159.75,1017253.44
455918,803589,1011894,461631.59,810189.38,1017272.56
454645,803100,1011490,461651.63,810168.00,1017250.50
454497,802950,1011465,461622.25,810099.44,1017189.63
454337,802812,1011321,461545.25,809987.31,1017093.75
454412,803192,1011582,461424.97,809836.25,1016967.25
454585,803144,1011679,461267.69,809652.38,1016815.25
454718,803190,1011720,461079.84,809442.00,1016642.94
454926,803322,1011723,460867.63,809210.75,1016454.75
455229,803644,1011980,460636.13,808963.88,1016254.44
455145,803800,1012264,460389.81,808706.75,1016046.38
455519,803741,1012177,460133.97,808443.44,1015834.38
455767,804360,1012621,459874.06,808177.25,1015621.13
456010,804388,1012762,459614.31,807912.00,1015409.75
456262,804620,1012833,459358.63,807651.75,1015203.38
456904,805020,1013828,459110.94,807400.25,1015004.75
457498,805666,1013834,458876.06,807161.19,1014817.25
457936,805957,1014035,458658.38,806938.56,1014644.13
458038,806067,1014184,458460.28,806734.50,1014486.75
457715,806210,1014397,458280.31,806549.69,1014345.69
457822,805837,1013990,458115.66,806383.25,1014220.25
457753,805729,1013811,457966.56,806233.00,1014108.25
457538,805540,1013901,457833.13,806096.63,1014007.38
457496,805477,1013680,457713.50,805972.25,1013916.25
457680,805516,1013628,457606.75,805859.13,1013834.00
457796,805614,1013631,457512.91,805756.81,1013759.94
457860,805870,1013970,457432.22,805665.75,1013694.25
458353,806029,1014019,457365.31,805586.75,1013637.75
458607,806187,1014129,457313.25,805520.25,1013590.88
458539,806616,1014735,457276.19,805466.50,1013553.50
458735,806718,1014704,457253.19,805426.00,1013526.38
459154,806994,1014809,457244.13,805399.63,1013510.50
459405,807364,1015060,457249.78,805388.25,1013506.25
460025,807796,1015565,457270.25,805392.75,1013514.25
459963,807946,1015628,457305.22,805413.75,1013535.56
460253,808231,1015974,457355.22,805451.13,1013570.25
460534,808732,1016373,457420.63,805504.38,1013617.69
460876,808914,1016308,457501.41,805573.38,1013677.38
461178,809103,1016569,457597.44,805658.31,1013749.19
461264,809267,1016669,457708.00,805758.38,1013832.88
461574,809706,1017108,457832.06,805873.00,1013928.25
461673,809805,1017044,457968.56,806001.56,1014034.69
461818,809837,1016987,458116.22,806142.75,1014150.75
461319,810422,1017764,458271.81,806294.88,1014274.94
461944,810147,1017346,458432.16,806456.75,1014407.13
462342,810113,1017233,458598.31,806626.50,1014545.38
462328,810034,1017372,458771.59,806801.81,1014687.25
462491,810224,1017308,458950.94,806980.69,1014831.13
462675,810286,1017190,459135.19,807162.13,1014975.81
462527,810368,1017383,459323.06,807345.13,1015120.25
462545,810664,1017785,459511.97,807529.13,1015264.75
462807,810703,1017626,459699.88,807713.88,1015409.75
463244,810950,1017832,459888.13,807899.13,1015554.56
463325,811484,1018463,460078.13,808084.88,1015698.88
463556,811498,1018376,460269.94,808271.25,1015843.25
463818,811588,1018475,460463.31,808458.88,1015988.63
463786,811712,1018483,460658.03,808647.38,1016134.94
463933,811802,1018429,460853.19,808836.25,1016281.19
463890,811313,1018111,461047.75,809023.50,1016425.50
463544,810219,1017303,461239.75,809204.50,1016564.38
461154,807276,1015221,461424.97,809371.13,1016691.56
459822,805991,1013854,461593.50,809511.44,1016797.63
458421,804739,1013009,461731.75,809612.31,1016872.13
457266,804116,1012379,461830.03,809666.88,1016910.13
455385,803129,1011572,461882.47,809673.88,1016910.19
454969,802803,1011332,461884.75,809633.31,1016872.25
454785,802776,1011377,461837.00,809548.13,1016798.75
453304,803163,1011847,461741.31,809423.63,1016694.38
454183,803000,1011486,461600.44,809265.75,1016564.31
454132,802984,1011682,461420.59,809080.31,1016412.81
454520,803150,1011962,461209.31,808872.38,1016244.13
455073,803374,1011965,460974.19,808647.00,1016062.38
455145,803517,1011931,460722.56,808409.38,1015871.50
455505,803742,1012331,460460.19,808164.00,1015674.88
455478,804005,1012582,460190.31,807915.00,1015476.63
455715,804092,1012625,459915.50,807666.13,1015280.06
456277,804386,1012817,459641.38,807420.56,1015087.38
456541,805186,1013294,459374.31,807181.44,1014900.63
457263,805522,1013525,459118.63,806952.88,1014722.31
457652,805761,1013770,458878.75,806739.25,1014555.63
457735,805791,1014032,458657.44,806543.25,1014402.69
457943,806049,1014163,458455.03,806365.13,1014264.75
458122,805968,1013900,458271.50,806204.88,1014141.63
458043,805908,1013914,458107.41,806061.75,1014031.63
457783,805874,1014230,457961.75,805934.13,1013933.50
457918,805731,1013774,457832.56,805820.25,1013846.44
457946,805600,1013772,457719.00,805718.81,1013769.25
458000,805633,1013759,457620.44,805628.75,1013701.00
457995,805945,1014022,457534.31,805549.75,1013641.81
458287,806006,1014024,457458.69,805482.50,1013591.88
458456,806160,1014260,457395.97,805427.13,1013551.38
458073,806656,1014983,457346.50,805383.75,1013520.44
458699,806717,1014712,457308.25,805352.75,1013499.50
459009,806720,1014756,457283.25,805334.69,1013489.25
459344,806981,1015276,457273.81,805329.38,1013489.56
459795,807733,1015451,457280.88,805337.69,1013500.88
460056,807811,1015566,457305.13,805361.25,1013524.38
460324,808154,1015756,457346.69,805400.50,1013560.13
459381,808551,1016263,457404.22,805455.13,1013608.38
460801,808724,1016331,457476.25,805525.13,1013669.63
461116,808908,1016393,457563.38,805610.13,1013743.13
461297,809323,1016794,457666.06,805709.19,1013827.50
461481,809442,1016781,457783.25,805821.50,1013922.00
461655,809501,1016769,457913.75,805946.44,1014025.88
461917,809522,1016862,458056.50,806082.75,1014137.88
462106,809825,1017121,458210.06,806228.69,1014256.94
462270,809986,1017279,458373.06,806383.56,1014382.75
462346,810066,1017321,458544.72,806546.50,1014514.88
462258,810390,1017717,458723.81,806716.25,1014652.13
462591,810300,1017566,458908.50,806891.63,1014793.63
462653,810391,1017670,459097.97,807071.50,1014938.75
462774,810429,1017560,459291.38,807254.44,1015086.44
462969,810547,1017834,459486.63,807439.38,1015235.63
463180,810684,1017846,459682.38,807625.38,1015385.75
463044,810743,1017798,459879.09,807811.75,1015536.25
463137,811327,1018070,460074.75,807998.25,1015685.88
463424,811246,1018209,460267.06,808184.88,1015834.25
463743,811384,1018270,460458.38,808371.88,1015982.00
463802,811539,1018648,460650.81,808559.13,1016129.50
463537,811944,1018779,460843.19,808746.63,1016277.13
464261,812025,1018819,461034.56,808934.94,1016425.25
464333,812172,1018984,461225.88,809123.88,1016573.81
463986,812058,1018901,461417.38,809313.13,1016722.13
464096,811120,1018009,461607.44,809499.75,1016867.50
463290,809659,1016909,461792.38,809675.88,1017003.88
461951,806677,1014513,461965.66,809831.00,1017122.81
458685,805277,1013464,462114.97,809952.50,1017214.63
457179,804215,1012572,462224.91,810028.63,1017270.25
455729,803505,1011982,462285.13,810053.88,1017285.63
454062,802651,1011598,462291.56,810028.00,1017260.69
453582,802573,1011312,462242.38,809952.63,1017197.50
453022,802386,1011134,462137.09,809831.94,1017098.81
452623,802556,1011486,461977.75,809671.13,1016968.44
452193,802335,1011283,461768.59,809475.56,1016811.00
452237,802320,1011329,461514.75,809250.69,1016631.50
452141,802479,1011431,461222.56,809001.75,1016434.25
452232,802526,1011486,460898.19,808734.13,1016223.50
452247,802589,1011418,460547.63,808452.50,1016002.63
452178,802544,1011561,460177.00,808160.81,1015774.44
451742,802886,1011605,459791.44,807862.44,1015541.63
452116,802611,1011405,459395.41,807560.50,1015306.25
452379,802786,1011537,458993.19,807258.13,1015070.13
452316,802826,1011959,458589.19,806958.19,1014836.19
453001,803425,1011971,458188.00,806664.25,1014607.50
453227,803640,1012268,457795.06,806380.31,1014386.63
453729,803945,1012527,457415.31,806109.81,1014176.13
453930,804575,1012949,457052.47,805855.06,1013978.50
454323,804526,1012924,456709.47,805618.25,1013795.75
454410,804408,1012988,456388.56,805400.31,1013628.13
454767,804775,1013517,456091.31,805201.19,1013475.31
455056,804947,1013328,455819.09,805021.25,1013337.31
455088,805011,1013429,455572.75,804861.25,1013214.88
455212,805017,1013384,455351.88,804721.00,1013108.06
455270,805033,1013360,455154.81,804599.69,1013015.81
455675,805090,1013398,454980.41,804496.63,1012937.00
455672,805261,1013415,454829.81,804410.50,1012870.81
455792,805682,1013971,454703.31,804340.31,1012816.56
455938,805547,1013868,454599.63,804285.56,1012774.38
456292,805726,1013981,454518.25,804246.13,1012744.75
456464,805812,1013927,454459.09,804222.00,1012727.31
456882,806303,1014137,454421.28,804213.13,1012721.25
457235,806421,1014401,454404.38,804219.81,1012726.31
457456,806655,1014782,454409.25,804242.13,1012743.25
457307,807252,1015353,454435.81,804279.25,1012772.75
458067,807514,1015277,454483.25,804331.75,1012815.00
458252,807743,1015568,454551.00,804400.50,1012870.19
458551,807923,1015897,454638.06,804485.63,1012938.19
458925,808294,1015931,454743.69,804586.25,1013018.06
459143,808374,1016143,454867.25,804701.63,1013109.63
459153,808485,1016082,455007.22,804830.50,1013212.13
459409,808875,1016510,455161.19,804971.13,1013324.50
459550,808873,1016578,455327.19,805122.38,1013446.38
459687,808996,1016496,455504.25,805283.19,1013576.50
459701,808942,1016752,455690.94,805452.00,1013712.81
460095,809030,1016626,455885.75,805626.75,1013853.38
459919,809224,1016558,456087.50,805806.13,1013997.25
459911,809190,1016672,456293.94,805989.13,1014143.38
459877,809422,1016745,456501.13,806175.00,1014290.75
460169,809523,1016737,456706.38,806363.50,1014438.63
460559,809506,1016916,456911.66,806553.25,1014586.31
460491,810491,1017690,457118.72,806743.00,1014733.63
461001,810575,1017655,457327.22,806934.00,1014881.38
461281,810700,1017785,457537.75,807128.00,1015031.25
461348,810936,1017965,457750.56,807325.69,1015183.69
461721,811569,1018416,457964.41,807527.31,1015339.13
462081,811799,1018547,458178.75,807734.13,1015498.38
462260,811822,1018691,458395.28,807946.00,1015661.25
461430,811605,1018412,458614.31,808161.44,1015826.81
461989,810988,1018007,458833.69,808376.88,1015992.63
461667,809893,1016982,459050.28,808585.63,1016153.00
460232,808401,1014708,459258.59,808778.81,1016300.63
457452,805572,1013675,459447.13,808944.13,1016425.88
455956,804451,1012718,459601.31,809068.50,1016518.63
454387,803604,1012076,459710.63,809145.13,1016573.38
452175,802586,1011352,459768.63,809172.63,1016588.56
451693,802324,1011158,459770.56,809151.75,1016564.69
451059,802179,1011141,459714.56,809084.50,1016504.38
450549,802044,1011234,459602.00,808974.56,1016411.75
449984,802041,1011026,459436.31,808827.06,1016290.75
449977,801996,1010809,459221.88,808647.13,1016145.13
449914,802095,1010921,458964.88,808439.88,1015978.06
449381,802385,1011184,458671.06,808210.88,1015793.88
449655,802368,1011264,458345.44,807965.63,1015597.25
449875,802490,1011289,457994.44,807708.38,1015391.88
449739,802877,1011358,457624.56,807442.75,1015180.50
449912,802595,1011210,457240.94,807171.75,1014965.31
450033,802677,1011513,456848.56,806898.88,1014748.63
450221,802683,1011404,456452.44,806626.88,1014533.00
450763,803271,1011823,456055.69,806359.06,1014320.69
451383,803665,1012221,455662.69,806099.69,1014115.00
451811,803977,1012537,455281.91,805852.75,1013919.38
452413,804744,1013301,454920.53,805621.25,1013736.50
452896,804723,1013193,454582.50,805407.75,1013568.50
452787,804754,1013107,454270.50,805213.75,1013416.63
452761,804658,1013141,453984.41,805038.94,1013280.38
453138,804472,1012870,453723.63,804881.63,1013158.19
453114,804533,1012844,453488.44,804740.25,1013048.50
453155,804301,1012764,453278.19,804613.38,1012950.13
453056,804656,1013177,453091.25,804500.06,1012862.44
453242,804524,1012934,452926.06,804400.13,1012785.25
453275,804538,1012990,452782.09,804313.13,1012718.38
453513,804625,1013439,452659.00,804238.00,1012661.00
453661,805028,1013358,452556.41,804175.19,1012613.19
454039,805173,1013396,452474.34,804125.44,1012575.63
454234,805454,1013606,452413.00,804089.44,1012548.75
454338,806027,1014189,452372.00,804068.00,1012533.44
454937,806255,1014343,452351.06,804062.56,1012531.25
455267,806636,1014385,452351.03,804073.88,1012542.38
455459,807206,1014969,452372.06,804102.13,1012565.88
455917,807190,1014989,452413.69,804146.88,1012601.50
456152,807333,1015041,452475.69,804207.94,1012649.63
456508,807417,1015359,452557.53,804284.63,1012710.13
456794,807770,1015376,452657.75,804375.69,1012782.38
456724,807835,1015583,452774.25,804480.38,1012865.50
457048,807927,1015705,452905.91,804597.38,1012958.56
457261,808462,1015826,453052.06,804725.13,1013060.44
457352,808285,1015784,453211.41,804862.50,1013169.50
457645,808375,1015956,453382.56,805008.63,1013284.94
457629,808294,1015914,453564.28,805161.88,1013406.00
457604,808563,1016065,453754.44,805320.75,1013531.50
457694,808567,1016111,453950.66,805484.25,1013660.69
457925,808662,1016166,454151.50,805651.25,1013792.63
457907,809067,1016999,454354.47,805821.31,1013927.00
458254,808885,1016434,454557.25,805993.94,1014063.63
458325,808823,1016179,454761.28,806167.69,1014201.19
458203,808711,1016461,454967.13,806340.38,1014337.38
458269,808816,1016187,455172.84,806510.63,1014470.88
458345,808941,1016330,455377.13,806677.75,1014601.38
458589,809173,1016464,455579.50,806842.00,1014729.25
458904,809530,1016686,455779.31,807004.19,1014854.94
459044,809451,1016799,455976.31,807164.75,1014979.06
459066,809496,1016584,456171.47,807323.38,1015101.38
458925,808455,1015873,456364.63,807478.63,1015220.06
457513,807145,1014886,456551.53,807624.88,1015330.75
456751,806068,1013844,456724.75,807752.19,1015425.88
455314,805148,1013189,456876.56,807852.56,1015499.00
452204,803373,1011738,456999.06,807919.81,1015545.25
451629,802859,1011436,457082.63,807948.25,1015560.25
450878,802545,1011256,457119.06,807936.38,1015543.63
449876,802292,1011143,457105.69,807886.56,1015497.63
449089,802041,1010830,457042.47,807801.38,1015424.63
448878,801980,1010907,456930.06,807684.38,1015327.38
448694,801976,1010873,456771.97,807539.38,1015208.94
448545,802079,1011047,456572.78,807370.88,1015073.13
448568,802053,1011007,456337.31,807183.13,1014923.25
448391,802099,1011067,456071.69,806980.06,1014762.63
447314,802811,1011516,455779.75,806765.63,1014593.75
448507,802502,1011321,455465.03,806544.38,1014419.56
448700,802622,1011399,455134.88,806319.63,1014243.00
449110,802756,1011662,454796.69,806094.13,1014066.25
449727,803300,1011766,454457.00,805871.50,1013891.69
450314,803570,1012077,454122.44,805655.63,1013722.00
450608,803781,1012274,453798.69,805449.63,1013560.00
450802,804202,1012827,453488.06,805255.63,1013408.25
451374,804331,1012854,453192.31,805075.44,1013269.00
451707,804350,1012739,452916.22,804910.38,1013142.81
451794,804403,1012908,452663.19,804760.69,1013028.75
451565,804277,1012750,452432.88,804625.75,1012926.19
451706,804258,1012576,452223.91,804504.38,1012834.13
451908,804329,1012653,452035.75,804395.56,1012751.38
451712,804401,1012820,451868.06,804299.13,1012677.81
452108,804399,1012779,451719.94,804214.50,1012613.50
452141,804668,1012950,451591.41,804141.63,1012558.38
452387,804906,1013518,451482.31,804080.88,1012512.38
452653,804949,1013247,451392.69,804032.38,1012475.75
452893,805105,1013250,451322.75,803996.13,1012448.69
453064,805309,1013441,451272.38,803972.38,1012431.00
453362,805753,1013973,451239.25,803961.63,1012423.38
453852,805959,1014076,451221.91,803964.75,1012427.25
454079,806189,1014157,451223.38,803982.13,1012442.63
454028,807092,1015063,451243.88,804014.25,1012469.13
454647,807080,1014948,451281.06,804062.13,1012507.31
454998,807238,1015006,451336.81,804126.13,1012558.00
455057,807460,1015383,451412.31,804205.50,1012620.88
455509,807750,1015379,451506.31,804299.50,1012694.81
455827,808021,1015496,451618.31,804407.69,1012779.50
455995,808117,1015561,451747.72,804529.25,1012874.00
455275,808662,1016238,451892.63,804663.50,1012978.25
456224,808578,1016185,452050.88,804809.50,1013092.75
456498,808753,1016347,452221.16,804966.13,1013216.88
456835,809202,1016394,452402.84,805132.38,1013348.88
457140,809087,1016380,452595.59,805307.50,1013487.13
457225,809107,1016352,452798.63,805489.63,1013630.00
457201,809128,1016430,453010.00,805676.94,1013776.31
457485,809411,1016792,453227.31,805868.00,1013925.38
457611,809356,1016692,453448.97,806062.00,1014077.13
457892,809610,1016834,453674.88,806258.00,1014230.63
457972,810031,1017394,453904.78,806454.88,1014385.13
458118,810040,1017351,454137.63,806652.38,1014540.88
458372,810216,1017276,454372.44,806850.88,1014698.00
458702,810498,1017342,454609.19,807050.94,1014855.81
458898,810987,1017842,454846.94,807253.13,1015014.13
458991,811135,1017966,455084.50,807458.25,1015173.88
459353,811190,1018209,455322.41,807666.13,1015335.50
459519,811331,1018122,455560.94,807875.88,1015498.94
459067,810651,1017438,455798.19,808085.38,1015661.88
458715,809635,1016740,456031.06,808288.94,1015819.00
457607,807944,1014457,456254.94,808477.25,1015963.38
454205,805214,1013193,456458.22,808637.63,1016085.25
452766,804146,1012256,456624.75,808757.25,1016174.00
451371,803193,1011646,456743.63,808829.38,1016224.31
448521,802372,1011095,456809.63,808852.88,1016235.38
447987,801937,1010723,456817.56,808828.69,1016207.75
447516,801830,1010623,456763.09,808758.38,1016143.88
447026,801634,1010637,456647.31,808645.56,1016047.25
446141,801718,1010599,456474.03,808495.25,1015922.19
445991,801621,1010483,456246.81,808312.75,1015772.75
445649,801660,1010544,455970.81,808102.88,1015602.38
445509,801844,1010590,455652.25,807870.75,1015415.00
445498,801768,1010433,455297.50,807621.25,1015213.88
445078,801738,1010601,454912.13,807358.25,1015002.00
445341,802217,1010953,454501.25,807085.13,1014782.50
445515,801935,1010805,454071.38,806805.50,1014558.63
445556,802027,1010856,453629.06,806522.88,1014333.25
445832,802095,1010717,453179.94,806240.50,1014108.63
446554,802596,1011171,452729.50,805961.63,1013886.50
446800,802852,1011537,452283.69,805690.38,1013670.50
447239,803109,1011746,451849.34,805430.25,1013463.88
447602,803637,1011955,451431.81,805183.50,1013268.75
447880,803443,1011901,451034.50,804951.88,1013086.13
447903,803334,1011744,450660.00,804736.00,1012915.88
448042,803389,1012073,450309.47,804535.44,1012757.63
448114,803345,1011852,449983.31,804349.88,1012611.50
448068,803388,1011812,449681.53,804178.88,1012477.00
448244,803431,1011833,449403.72,804022.25,1012353.50
448507,803760,1012128,449149.56,803879.75,1012241.13
448588,803519,1012007,448918.94,803751.25,1012140.44
448726,803702,1012069,448712.47,803636.63,1012050.88
449074,803961,1012695,448530.66,803535.63,1011971.81
449234,804089,1012390,448373.81,803448.63,1011903.25
449302,804163,1012452,448241.50,803376.00,1011845.75
449516,804213,1012633,448132.69,803317.63,1011799.63
449945,804814,1013065,448045.63,803274.00,1011765.50
450477,805073,1013151,447979.69,803246.81,1011744.25
450659,805291,1013224,447937.59,803236.50,1011735.75
451067,805904,1013985,447920.75,803242.50,1011739.81
451261,805978,1013838,447928.44,803265.00,1011756.88
451586,806107,1014084,447959.91,803304.13,1011787.25
451927,806218,1014351,448014.25,803359.13,1011830.88
452237,806544,1014413,448090.25,803429.00,1011887.50
452422,806823,1014568,448186.41,803513.38,1011956.13
452520,807007,1014681,448301.63,803611.88,1012035.75
451906,807182,1015223,448434.25,803723.50,1012125.19
452912,807237,1015078,448582.38,803846.63,1012223.63
453125,807399,1014952,448744.78,803980.19,1012330.50
453205,807455,1015394,448919.94,804122.88,1012444.56
453755,807578,1015173,449106.78,804273.38,1012564.69
453645,807535,1015096,449304.50,804430.06,1012689.63
453691,807685,1015176,449511.13,804591.50,1012817.75
453902,807921,1015465,449724.25,804756.56,1012948.50
454085,807929,1015679,449942.69,804924.63,1013082.13
454240,808055,1015512,450165.69,805095.00,1013218.44
454261,808142,1016098,450392.06,805267.00,1013355.88
454738,808388,1015836,450621.06,805440.13,1013493.50
454945,808622,1016098,450852.84,805614.50,1013632.06
455075,808785,1016162,451087.22,805790.31,1013772.13
455378,809469,1016691,451321.94,805968.50,1013914.00
455676,809525,1016699,451555.50,806150.31,1014058.63
455802,809592,1016617,451789.84,806335.63,1014205.50
455859,809371,1016435,452025.94,806522.75,1014352.75
455234,808137,1015465,452261.13,806707.31,1014497.13
454037,806871,1014461,452489.44,806880.88,1014631.75
452893,805659,1013483,452702.41,807034.13,1014749.44
449636,803434,1011672,452890.00,807157.44,1014842.50
448275,802627,1011112,453039.41,807241.69,1014903.75
446875,801981,1010587,453138.38,807282.56,1014930.13
443663,801719,1010450,453180.09,807280.63,1014922.13
443479,801336,1009985,453159.75,807238.19,1014881.19
442714,801182,1009960,453073.38,807158.06,1014809.75
442119,800934,1009836,452921.63,807043.44,1014711.50
441330,800923,1009807,452708.31,806898.00,1014589.94
441244,800959,1009820,452438.06,806726.00,1014448.13
440950,800888,1009798,452117.19,806531.75,1014289.00
440214,801062,1009977,451752.19,806319.44,1014116.00
440209,801019,1009915,451348.38,806093.25,1013932.63
440286,801009,1009997,450911.25,805856.63,1013741.63
440063,801048,1010346,450447.13,805612.38,1013545.25
439746,801291,1010071,449961.31,805363.75,1013345.75
440076,801299,1010067,449458.88,805114.00,1013145.31
440232,801381,1010203,448946.41,804865.88,1012946.13
440349,801998,1010471,448429.81,804622.13,1012750.38
441224,802232,1010760,447915.22,804386.75,1012561.00
441735,802459,1010838,447410.94,804163.00,1012380.25
442040,802792,1010987,446923.94,803952.88,1012209.50
442346,802544,1010960,446458.25,803756.88,1012049.13
442432,802438,1010966,446016.72,803574.88,1011899.63
442432,802449,1011028,445600.56,803406.06,1011760.88
442154,802312,1010780,445208.31,803249.75,1011632.44
442456,802445,1010929,444838.25,803105.50,1011513.56
442519,802582,1010864,444492.53,802973.25,1011403.88
442687,802839,1011189,444172.97,802853.63,1011303.50
442979,802851,1011200,443880.00,802747.06,1011212.63
443119,802930,1011232,443614.38,802653.69,1011131.94
443247,802957,1011910,443376.28,802573.19,1011061.50
443854,803500,1011740,443166.00,802505.88,1011001.63
443955,803576,1011813,442984.50,802452.88,1010953.50
444283,803699,1011913,442831.81,802414.38,1010917.38
444845,804157,1012581,442707.38,802390.25,1010892.94
445145,804201,1012331,442611.31,802381.00,1010880.50
445584,804375,1012305,442544.59,802386.25,1010879.69
445724,804622,1012944,442507.41,802405.63,1010889.63
445994,805006,1012795,442498.34,802439.13,1010909.88
446357,805049,1012902,442516.13,802486.88,1010941.00
446685,805141,1012953,442559.81,802547.88,1010982.69
446803,805545,1013231,442627.56,802621.38,1011034.38
447215,805617,1013296,442717.06,802707.25,1011095.63
447298,805601,1013324,442827.69,802804.25,1011165.75
447784,805966,1013708,442958.75,802910.88,1011243.63
447734,805964,1013496,443108.81,803026.13,1011328.38
447837,805869,1013509,443275.38,803149.00,1011419.13
447978,805977,1013567,443455.88,803277.75,1011514.50
448124,806062,1013719,443647.69,803411.13,1011613.94
448322,805974,1013679,443848.69,803547.88,1011716.75
448320,806280,1013822,444057.88,803687.13,1011822.19
448559,806515,1014095,444273.75,803828.50,1011929.75
448719,806460,1014048,444494.75,803971.63,1012039.13
448906,806619,1014027,444720.41,804116.38,1012150.13
449159,806723,1014219,444950.38,804262.25,1012262.19
449426,807154,1014564,445184.16,804409.75,1012375.69
449654,807365,1014776,445421.50,804559.50,1012491.63
449888,807487,1014915,445662.00,804712.13,1012610.63
450096,808165,1015455,445903.63,804867.75,1012733.00
450396,807854,1015223,446144.69,805026.69,1012859.25
450279,807258,1014697,446386.25,805186.75,1012987.31
449729,806792,1013567,446627.22,805343.38,1013112.63
447296,804628,1012255,446859.16,805489.25,1013228.13
445666,803553,1011472,447068.56,805613.63,1013324.75
444126,802633,1010632,447243.34,805708.63,1013396.50
440574,801277,1009573,447373.97,805770.38,1013439.13
439244,801026,1009274,447449.25,805796.38,1013449.88
437819,800693,1009266,447458.38,805785.44,1013429.31
436673,800521,1009210,447396.38,805738.69,1013380.63
434951,800354,1009052,447262.19,805659.00,1013306.88
434317,800243,1008919,447055.63,805549.75,1013210.75
433754,800206,1008832,446780.19,805414.69,1013094.56
432732,800228,1008859,446442.06,805257.50,1012961.06
432700,800129,1008750,446047.38,805081.63,1012812.94
432364,800250,1008838,445601.84,804890.63,1012652.75
432130,800408,1009139,445112.00,804687.75,1012483.25
432060,800416,1009015,444585.06,804476.38,1012307.06
431954,800399,1009010,444028.28,804259.63,1012127.00
431995,800387,1009013,443448.72,804040.13,1011945.25
432559,801043,1009503,442853.19,803820.75,1011764.19
432906,801191,1009551,442249.69,803605.88,1011587.00
433071,801398,1009629,441647.13,803398.69,1011415.88
432575,802057,1010212,441051.94,803201.63,1011251.94
433820,801772,1010025,440468.94,803016.88,1011097.13
433583,801596,1009793,439903.59,802844.50,1010951.88
433969,801622,1009713,439359.44,802683.50,1010815.56
433759,801347,1009495,438838.50,802533.13,1010687.13
433670,801306,1009643,438341.75,802392.13,1010565.81
433573,801318,1009534,437869.06,802259.88,1010451.50
433207,801384,1009739,437418.50,802136.25,1010344.44
433598,801336,1009596,436988.63,802021.38,1010244.88
433742,801563,1009653,436582.56,801915.38,1010152.56
434125,801772,1010014,436203.78,801818.81,1010067.44
434204,801831,1009879,435853.63,801732.13,1009989.94
434532,801997,1009991,435532.94,801656.00,1009920.69
434810,802169,1010254,435242.44,801591.38,1009860.31
435334,802425,1010506,434982.81,801538.69,1009809.88
435717,802625,1010503,434755.06,801498.50,1009770.00
435983,802832,1010634,434560.38,801471.31,1009740.38
436514,803421,1011224,434399.44,801457.25,1009720.81
436973,803359,1011146,434272.69,801456.63,1009711.88
437448,803561,1011346,434180.56,801469.81,1009714.19
437680,803822,1011475,434122.75,801496.88,1009728.06
438062,804097,1011585,434096.09,801537.75,1009753.00
438343,804135,1011733,434097.59,801592.13,1009788.63
438544,804240,1011755,434127.94,801658.88,1009833.94
438360,804711,1012039,434185.63,801737.19,1009888.00
439019,804565,1011889,434267.22,801826.88,1009949.88
439231,804525,1011891,434372.50,801926.13,1010018.50
439332,804437,1012142,434500.81,802032.75,1010092.63
439658,804718,1012158,434649.81,802145.06,1010171.63
439751,804654,1012167,434817.56,802262.44,1010255.38
439951,804878,1012207,435001.94,802384.06,1010343.25
439004,805064,1012647,435200.13,802509.63,1010435.25
439925,805174,1012348,435409.00,802638.88,1010531.25
440576,805243,1012379,435627.25,802771.50,1010630.00
440969,805770,1012788,435855.63,802906.88,1010730.13
441215,805902,1012748,436094.38,803045.25,1010831.88
441431,805909,1012934,436342.56,803187.50,1010935.75
441789,806018,1013032,436599.09,803333.13,1011041.88
441980,806204,1013318,436862.50,803481.50,1011150.44
441837,805972,1012979,437130.31,803631.63,1011261.00
441555,805365,1012479,437400.19,803780.50,1011370.88
440905,803397,1011198,437668.13,803923.25,1011475.38
437448,802312,1010118,437923.25,804051.38,1011567.63
435586,801444,1009330,438147.84,804154.25,1011639.81
433714,800766,1008903,438327.38,804225.69,1011687.31
429369,799804,1008207,438450.63,804262.88,1011708.38
427817,799458,1007751,438504.34,804264.19,1011701.81
426082,799251,1007543,438476.31,804230.50,1011667.63
423120,799144,1007535,438360.09,804164.63,1011607.19
422235,798794,1007192,438152.69,804069.50,1011522.69
421674,798753,1007068,437855.16,803947.63,1011416.44
420774,798629,1007285,437473.53,803801.94,1011291.13
419274,798545,1007007,437013.38,803635.56,1011149.56
419078,798484,1006863,436479.75,803451.50,1010994.25
418747,798389,1006912,435881.13,803252.63,1010827.25
417513,798431,1007015,435226.91,803042.06,1010651.25
417479,798470,1006743,434524.41,802823.13,1010468.63
417439,798492,1006843,433780.78,802598.25,1010280.88
417105,798747,1007079,433004.25,802369.69,1010089.75
417513,798942,1007143,432203.81,802140.50,1009897.75
417828,799136,1007306,431389.56,801914.44,1009707.94
418006,799225,1007347,430571.28,801694.31,1009522.50
418531,799488,1007524,429757.63,801482.25,1009343.19
418787,799555,1007578,428956.66,801280.13,1009171.38
418697,799648,1007484,428174.53,801089.13,1009007.75
418676,799745,1007701,427414.91,800909.63,1008852.50
418368,799498,1007482,426679.88,800741.13,1008705.69
418341,799447,1007396,425970.75,800583.25,1008567.13
418304,799384,1007496,425288.94,800435.50,1008436.50
418341,799521,1007513,424635.81,800297.81,1008314.25
418570,799572,1007469,424012.97,800170.38,1008200.31
418662,799676,1007558,423422.75,800053.63,1008094.63
418281,800147,1007757,422866.81,799947.75,1007997.00
418912,800023,1007683,422345.81,799853.50,1007907.50
419318,800215,1007890,421861.13,799771.50,1007826.88
419614,800133,1008414,421414.44,799701.75,1007755.88
420101,800463,1008237,421007.34,799644.13,1007695.00
420431,800633,1008292,420641.06,799599.00,1007644.75
420903,800762,1008425,420316.44,799566.63,1007605.38
421555,801359,1008651,420033.94,799547.38,1007576.69
421782,801302,1008816,419793.63,799542.00,1007559.13
422106,801382,1008949,419595.59,799550.13,1007552.75
422410,801722,1009409,419439.13,799570.75,1007557.13
422913,801814,1009241,419323.13,799603.38,1007571.94
423045,801908,1009293,419246.31,799647.81,1007596.81
423447,802046,1009315,419206.75,799703.75,1007631.13
423973,802320,1009629,419202.00,799770.88,1007674.25
424213,802301,1009574,419229.88,799849.13,1007726.00
424271,802286,1009512,419289.44,799936.63,1007785.13
424679,802932,1010019,419379.13,800031.13,1007850.38
424936,802596,1009766,419496.81,800131.75,1007921.13
425217,802546,1009709,419640.50,800238.00,1007996.75
425279,802599,1009752,419807.78,800348.88,1008076.13
425512,802681,1009868,419995.50,800463.31,1008158.69
425676,802814,1009787,420200.88,800580.63,1008243.69
425938,802841,1009931,420422.19,800700.38,1008330.50
425584,803332,1010280,420657.97,800821.94,1008418.75
426580,803356,1010446,420907.06,800945.63,1008509.13
426884,803470,1010436,421168.34,801072.00,1008602.38
427279,803636,1010874,421441.00,801201.19,1008698.38
427917,803978,1010968,421724.84,801333.38,1008797.38
427856,804088,1010852,422019.44,801468.94,1008899.63
428078,804173,1010884,422322.69,801607.75,1009004.50
427850,803860,1010465,422632.06,801748.94,1009110.00
427394,802985,1009955,422943.63,801889.19,1009212.88
426080,802001,1009087,423250.00,802021.38,1009308.50
424061,800984,1007834,423539.88,802137.94,1009391.38
419929,799305,1006967,423795.75,802231.13,1009455.44
417338,798538,1006449,423996.13,802293.75,1009495.25
415096,797924,1005832,424124.94,802321.75,1009507.88
410378,797119,1005163,424170.63,802314.94,1009492.00
408280,796699,1004940,424119.88,802273.50,1009447.13
406463,796328,1004735,423962.31,802197.31,1009374.63
404914,796313,1004635,423695.69,802087.50,1009276.38
402243,795825,1004245,423320.84,801947.13,1009154.38
401242,795692,1004157,422838.81,801778.81,1009011.00
400140,795500,1004029,422255.06,801585.63,1008848.88
398466,795437,1003760,421578.38,801370.75,1008670.25
397683,795242,1003811,420816.31,801137.50,1008477.25
397229,795190,1003654,419976.38,800888.75,1008272.25
394698,795122,1003727,419067.69,800627.38,1008058.00
394868,794979,1003536,418098.31,800356.38,1007836.63
394649,795000,1003501,417074.88,800078.13,1007610.13
394421,795103,1003740,416007.41,799795.50,1007380.25
394822,795338,1003780,414908.31,799511.94,1007149.88
395085,795611,1003955,413790.88,799231.13,1006921.75
395542,795919,1004200,412667.94,798956.88,1006698.88
395759,796179,1004428,411551.06,798692.06,1006483.75
395984,796117,1004164,410449.75,798438.75,1006277.88
395865,796089,1004233,409371.19,798197.88,1006081.38
395794,796051,1004329,408320.34,797969.81,1005893.88
395518,795991,1004128,407300.69,797754.38,1005715.63
395800,796004,1004168,406315.44,797551.50,1005546.69
395676,796079,1004122,405368.06,797361.19,1005387.25
395727,796287,1004424,404459.63,797184.38,1005238.00
395913,796213,1004459,403591.06,797021.88,1005099.75
396072,796440,1004369,402766.59,796873.38,1004972.75
396520,796799,1004693,401990.38,796738.88,1004856.75
397387,796770,1004643,401265.91,796619.06,1004752.06
397597,796883,1004784,400596.81,796514.13,1004659.00
398149,797053,1005051,399984.81,796424.31,1004577.94
398714,797420,1005453,399428.84,796350.00,1004510.13
399121,797688,1005366,398927.75,796292.00,1004456.25
399447,797662,1005465,398484.34,796250.56,1004415.63
400066,798394,1006152,398100.06,796224.88,1004387.75
400938,798413,1005960,397774.84,796215.19,1004372.88
401605,798522,1006194,397510.13,796222.13,1004371.25
401868,798724,1006552,397305.66,796245.25,1004382.94
402549,799089,1006456,397159.31,796284.06,1004407.63
402876,799250,1006607,397068.88,796338.50,1004444.38
403031,799367,1006683,397031.25,796407.75,1004492.50
403664,799584,1007245,397042.44,796490.75,1004551.94
404155,799686,1007062,397099.88,796586.38,1004622.75
404413,799795,1006979,397201.38,796693.63,1004703.25
404708,799834,1007390,397343.84,796810.75,1004791.25
404866,800015,1007360,397523.22,796936.56,1004885.75
405410,800112,1007223,397736.00,797070.00,1004986.50
405633,800182,1007411,397979.38,797209.88,1005092.38
405599,800190,1007378,398249.94,797355.19,1005202.44
406261,800310,1007404,398544.19,797504.63,1005315.63
406610,800447,1007502,398859.97,797657.31,1005431.00
406841,800970,1007808,399195.19,797812.25,1005548.00
407574,801063,1007855,399547.97,797969.56,1005666.63
407715,801107,1008041,399917.00,798130.13,1005787.25
408050,801325,1008234,400300.19,798293.94,1005910.25
408523,801677,1008601,400694.06,798461.00,1006036.13
408778,801821,1008761,401096.06,798631.63,1006165.56
409042,801933,1008723,401505.88,798805.56,1006298.50
409295,802006,1008696,401922.69,798981.75,1006434.06
409054,801198,1008137,402343.75,799157.50,1006570.06
408079,800171,1007288,402763.16,799327.13,1006701.50
406923,799012,1005981,403171.97,799482.75,1006821.75
403132,797215,1004960,403555.50,799615.50,1006923.94
401157,796361,1004307,403894.25,799716.88,1007001.25
398778,795770,1003842,404172.50,799782.25,1007050.19
394273,795061,1003748,404378.56,799811.25,1007070.75
392390,794676,1002978,404498.81,799804.19,1007063.75
390635,794259,1002631,404520.31,799761.13,1007028.63
389166,793992,1002740,404438.28,799683.13,1006965.50
386663,793777,1002171,404252.25,799572.75,1006876.13
385905,793651,1002145,403962.50,799433.00,1006763.00
385180,793460,1002102,403574.69,799267.19,1006629.38
383099,793467,1001912,403097.00,799079.25,1006478.13
383040,793378,1001863,402536.06,798873.00,1006311.38
382639,793111,1001729,401899.31,798650.94,1006131.50
382155,793399,1001813,401196.13,798415.06,1005941.00
381449,793249,1001799,400435.72,798168.75,1005742.44
381388,793250,1001616,399626.75,797915.31,1005538.00
381401,793255,1001864,398779.31,797657.50,1005329.69
381892,793654,1002186,397904.13,797398.38,1005120.56
382310,793810,1002433,397012.59,797141.75,1004914.38
382747,794096,1002503,396117.19,796891.13,1004713.88
383207,794534,1002725,395228.69,796649.25,1004520.69
383277,794421,1002686,394354.97,796418.13,1004336.00
383356,794174,1002699,393502.31,796198.75,1004160.75
383597,794248,1002603,392675.69,795990.94,1003995.19
383535,794129,1002576,391879.00,795794.38,1003839.00
383654,794201,1002532,391115.03,795609.00,1003691.75
383619,794137,1002497,390385.75,795434.88,1003553.38
383593,794526,1003132,389691.00,795272.38,1003424.63
384018,794555,1002772,389030.94,795122.75,1003306.94
384228,794505,1002841,388409.72,794986.25,1003199.88
384181,794652,1003254,387830.25,794862.63,1003102.75
385021,794936,1003169,387293.69,794752.25,1003016.00
385383,794977,1003432,386802.50,794655.69,1002940.63
386043,795218,1003481,386359.06,794573.13,1002877.25
386650,795444,1003865,385964.25,794505.13,1002826.38
387149,795615,1003899,385618.63,794451.81,1002788.50
387729,795905,1004105,385323.94,794413.50,1002763.38
388109,796399,1004668,385081.00,794390.63,1002751.06
388781,796473,1004571,384889.25,794383.44,1002751.56
389366,796585,1004633,384748.31,794392.00,1002765.00
389805,796787,1004829,384657.41,794415.75,1002790.63
390426,797110,1005018,384614.41,794454.25,1002828.25
390989,797272,1005109,384617.41,794507.44,1002877.38
391270,797249,1005215,384665.44,794574.25,1002937.00
391897,797731,1005460,384756.00,794653.25,1003006.00
392215,797661,1005447,384886.00,794743.56,1003083.31
392421,797866,1005436,385053.31,794844.69,1003168.25
392531,797753,1005370,385254.81,794955.50,1003259.75
393138,797855,1005613,385486.75,795074.13,1003356.50
393270,797903,1005626,385746.66,795199.25,1003458.00
393719,797976,1005655,386031.69,795329.38,1003563.50
393319,798568,1005957,386337.56,795464.13,1003672.63
394440,798384,1006008,386660.59,795603.31,1003785.63
394790,798444,1006185,387000.81,795746.50,1003902.13
395150,798549,1006528,387358.13,795892.69,1004021.31
395970,799020,1006629,387731.41,796041.88,1004143.13
396264,799270,1006780,388120.25,796194.88,1004268.31
396618,799443,1006854,388523.19,796352.38,1004397.00
396913,799666,1007273,388936.56,796513.94,1004529.25
397341,799781,1007155,389357.22,796679.25,1004665.13
397541,799526,1007008,389785.13,796847.13,1004803.25
397306,798304,1006166,390218.81,797014.63,1004940.75
395539,797225,1005224,390650.69,797175.13,1005072.38
393950,796409,1004401,391068.00,797319.06,1005190.69
392221,795492,1003899,391457.25,797439.25,1005289.88
388002,794226,1002741,391805.72,797530.50,1005366.13
386205,793855,1002449,392097.63,797588.50,1005415.75
384167,793427,1002175,392315.56,797612.38,1005437.88
380658,792770,1002040,392449.38,797602.94,1005433.44
379664,792626,1001647,392493.25,797561.56,1005403.56
378676,792522,1001510,392441.88,797489.63,1005349.81
377775,792365,1001392,392295.94,797389.63,1005274.31
376478,792427,1001445,392060.44,797265.00,1005179.63
376016,792306,1001154,391740.56,797119.25,1005068.00
375588,792301,1001117,391343.44,796955.69,1004941.38
374108,792503,1001592,390876.94,796777.63,1004802.31
374840,792228,1001347,390348.94,796588.56,1004654.13
374858,792386,1001254,389769.31,796390.63,1004499.00
375006,792305,1001447,389148.75,796186.13,1004338.94
375507,792741,1001760,388498.13,795978.25,1004176.63
376041,793007,1001946,387828.81,795770.69,1004015.50
376564,793283,1002192,387151.69,795567.31,1003858.19
377356,793694,1002616,386475.25,795371.06,1003707.44
378270,793863,1002782,385808.03,795184.63,1003565.88
378711,793905,1002735,385161.28,795009.88,1003434.88
378695,793901,1002721,384542.31,794847.81,1003314.06
378899,793902,1002648,383953.56,794698.38,1003202.81
378913,793706,1002595,383396.50,794560.50,1003100.50
379040,793742,1002578,382872.19,794433.00,1003006.63
379215,793809,1002732,382380.94,794315.50,1002920.88
379319,793685,1002595,381923.22,794207.75,1002843.25
379612,793914,1002539,381500.03,794109.50,1002773.06
379877,794400,1003209,381112.63,794020.88,1002710.13
380813,794423,1003312,380762.81,793942.94,1002655.81
380855,794460,1003367,380452.75,793876.81,1002612.00
381416,794715,1003527,380182.94,793823.13,1002579.00
382104,795103,1003801,379952.09,793782.44,1002557.06
382771,795274,1003808,379760.22,793755.81,1002546.31
383242,795499,1004154,379610.63,793743.50,1002546.69
383509,796207,1004723,379503.78,793746.00,1002558.56
384251,795966,1004492,379437.63,793763.50,1002582.19
384867,796106,1004588,379413.25,793795.38,1002616.94
385380,796429,1005227,379431.44,793840.75,1002662.56
386145,796887,1005196,379491.50,793899.94,1002719.38
386405,796960,1005214,379592.25,793973.38,1002787.25
386912,796934,1005460,379731.50,794059.81,1002865.38
386465,797381,1005788,379905.81,794157.81,1002953.38
387585,797409,1005692,380111.75,794266.63,1003051.13
388214,797665,1005783,380347.91,794385.88,1003157.06
388718,797941,1005871,380613.72,794514.63,1003269.69
389053,797907,1005891,380907.34,794651.88,1003387.88
389448,797835,1005929,381226.25,794796.25,1003510.44
389640,797971,1005971,381567.50,794946.31,1003636.38
389969,797956,1006104,381927.63,795100.63,1003764.88
390254,798092,1006313,382303.25,795258.00,1003895.50
390639,798213,1006161,382692.69,795417.63,1004027.81
390554,798613,1006962,383093.75,795579.06,1004160.88
391559,798785,1006778,383504.34,795742.50,1004294.94
391888,798823,1007013,383924.50,795908.25,1004431.13
392283,799076,1006947,384353.75,796076.38,1004569.63
392977,799642,1007311,384789.28,796247.25,1004710.13
393377,799777,1007424,385229.19,796422.19,1004852.75
393656,799935,1007904,385674.88,796601.13,1004998.13
393680,800604,1008087,386125.16,796784.38,1005146.63
394047,800058,1007702,386576.28,796971.50,1005297.13
394003,799628,1007238,387027.31,797159.50,1005446.75
393608,798645,1005944,387475.81,797342.38,1005591.63
390533,796336,1004846,387911.69,797511.00,1005724.75
389038,795331,1003940,388318.56,797653.63,1005837.19
387006,794426,1003204,388681.97,797762.63,1005922.88
381638,793512,1002446,388989.69,797835.50,1005978.69
379838,792879,1002060,389224.69,797870.75,1006002.75
378226,792892,1002143,389369.03,797867.50,1005996.06
376681,793470,1003458,389415.06,797828.38,1005962.69
374441,793651,1003957,389361.28,797759.50,1005910.38
373351,793888,1004445,389206.75,797667.94,1005848.38
372647,794153,1004924,388955.06,797559.50,1005783.31
371502,794559,1005899,388613.56,797439.13,1005720.50
371032,794755,1006190,388189.75,797311.38,1005665.13
370749,795091,1006681,387691.31,797180.25,1005620.50
370353,795843,1007831,387127.13,797048.75,1005588.75
369793,795754,1007752,386506.06,796920.13,1005572.31
369579,795843,1008067,385836.19,796797.19,1005573.25
369518,796018,1008223,385126.25,796681.88,1005592.00
369559,796419,1008946,384384.94,796575.63,1005628.88
369806,796667,1009130,383621.44,796480.38,1005684.75
370248,796884,1009536,382846.13,796397.63,1005759.63
370918,797746,1010014,382069.56,796328.38,1005852.75
371592,797493,1010165,381301.56,796273.63,1005963.25
372007,797718,1010198,380551.66,796234.19,1006090.75
372281,797781,1010592,379826.94,796209.88,1006233.31
372430,797725,1010373,379131.72,796199.69,1006388.75
372676,797866,1010376,378469.19,796202.25,1006554.88
372747,797917,1010502,377841.59,796216.44,1006729.75
372926,798072,1010812,377250.44,796241.19,1006912.00
373402,798217,1010760,376697.38,796275.50,1007100.75
373705,798236,1010902,376184.66,796319.38,1007294.50
373611,798498,1011544,375713.16,796372.25,1007491.81
374619,798768,1011411,375283.59,796433.75,1007692.06
374806,798807,1011400,374898.03,796504.50,1007895.19
375266,799094,1011638,374557.50,796584.25,1008100.56
376038,799468,1012017,374260.94,796673.25,1008308.00
376728,799687,1012151,374008.63,796772.38,1008517.88
377389,799899,1012226,373804.00,796881.31,1008729.56
377890,800577,1012841,373649.31,796999.56,1008942.19
378668,800540,1012744,373544.31,797127.00,1009155.38
379239,800563,1012838,373488.72,797263.75,1009369.38
379664,800749,1013074,373481.44,797408.75,1009583.88
380695,801150,1013284,373520.25,797561.75,1009798.75
381136,801402,1013476,373603.75,797722.75,1010013.88
381571,801552,1013640,373731.50,797891.50,1010229.13
381706,801969,1014095,373901.44,798067.38,1010444.00
382682,801939,1013966,374110.81,798249.25,1010658.13
383149,802140,1013891,374357.78,798436.75,1010870.75
383457,802096,1014431,374639.81,798628.88,1011081.19
383961,802506,1014170,374953.66,798824.69,1011288.81
384590,802485,1014273,375296.81,799023.63,1011493.25
384732,802504,1014323,375666.84,799224.75,1011693.94
385401,802800,1014762,376059.88,799426.38,1011891.00
385840,802966,1014706,376473.00,799628.06,1012085.13
386152,802959,1014664,376905.13,799829.94,1012275.75
386483,803076,1015254,377354.25,800031.25,1012461.81
387067,803413,1015032,377817.94,800231.56,1012643.56
387444,803497,1015194,378294.59,800431.25,1012821.44
387689,803663,1015395,378782.06,800630.13,1012995.88
388339,804244,1015771,379276.25,800828.44,1013167.75
388787,804287,1015851,379774.50,801027.25,1013338.00
389257,804594,1015975,380278.31,801226.94,1013506.75
389697,805356,1016583,380788.69,801427.63,1013674.13
390239,805302,1016478,381304.56,801629.94,1013840.81
390629,805264,1016507,381825.06,801834.38,1014007.00
390864,805069,1016318,382348.66,802039.56,1014171.56
389783,803463,1015021,382870.97,802240.31,1014330.50
388920,802407,1014289,383383.50,802427.50,1014476.88
387247,801194,1013510,383875.19,802592.25,1014604.63
382638,799582,1012455,384333.41,802728.19,1014709.56
380972,798963,1011847,384740.69,802829.88,1014787.75
379014,798649,1011621,385077.06,802893.38,1014836.69
376634,798153,1011419,385328.81,802918.06,1014856.19
373534,797855,1011366,385486.19,802905.38,1014848.13
372223,797689,1011407,385540.88,802857.38,1014815.50
371221,797665,1011451,385492.31,802777.56,1014761.88
369900,798198,1012134,385345.47,802670.19,1014691.38
369430,798112,1012103,385106.50,802540.50,1014609.13
369011,798132,1012338,384781.94,802393.38,1014518.69
368726,798256,1013125,384380.31,802232.50,1014422.88
368411,798603,1013270,383911.22,802061.88,1014325.75
368534,798695,1013397,383384.50,801885.38,1014231.19
368193,798751,1013480,382810.06,801706.25,1014141.56
367974,799175,1013930,382195.69,801527.50,1014058.25
368405,799401,1014101,381549.34,801352.75,1013983.25
368830,799557,1014374,380882.06,801184.38,1013918.13
369104,800345,1014981,380204.56,801024.13,1013864.00
370367,800411,1015250,379527.09,800874.94,1013822.75
370934,800619,1015306,378860.78,800739.38,1013795.94
371396,800749,1015650,378214.41,800618.63,1013783.75
372057,800955,1015910,377592.31,800513.13,1013786.56
372355,801057,1015796,376998.09,800423.00,1013803.88
372244,801132,1016027,376436.84,800348.00,1013834.38
372774,801350,1016298,375911.56,800287.38,1013876.75
373365,801371,1016288,375424.31,800240.25,1013929.88
373348,801514,1016451,374977.69,800206.75,1013993.69
373861,801609,1016817,374572.44,800186.63,1014067.75
374738,801900,1016837,374210.19,800179.63,1014151.25
374976,802184,1016916,373893.09,800186.00,1014244.13
375456,802256,1016973,373621.56,800205.88,1014345.63
376279,802711,1017919,373395.19,800238.88,1014456.13
377010,802941,1017697,373214.84,800285.31,1014576.75
377482,803052,1017863,373082.25,800345.31,1014706.81
377869,803246,1018576,372997.19,800418.25,1014844.75
378730,803770,1018373,372958.63,800503.88,1014990.13
379285,803894,1018519,372966.25,800602.63,1015142.88
379828,804177,1018665,373019.19,800714.19,1015302.38
380272,804737,1019002,373115.44,800838.50,1015468.13
381267,804815,1019027,373253.56,800975.75,1015639.75
381726,805053,1019373,373433.00,801125.38,1015816.63
382215,805617,1019582,373652.13,801285.88,1015998.25
383223,805650,1019699,373909.19,801456.56,1016184.00
383534,805770,1019929,374202.94,801637.25,1016373.56
383993,805865,1020086,374530.78,801826.94,1016566.88
384597,806213,1020313,374888.53,802024.38,1016763.25
385024,806203,1020256,375272.75,802228.63,1016962.19
385273,806311,1020324,375681.81,802438.25,1017162.06
386065,806734,1020684,376113.72,802651.88,1017361.94
386572,806807,1020779,376566.56,802869.00,1017561.75
386826,806814,1020771,377038.69,803089.00,1017761.38
387143,806961,1021474,377527.19,803310.69,1017959.63
387777,807233,1021122,378029.31,803533.31,1018156.25
388244,807387,1021220,378543.59,803756.75,1018351.13
388636,807638,1021351,379068.38,803980.69,1018544.25
389166,808149,1022124,379600.38,804205.63,1018736.00
389521,808073,1021783,380136.63,804431.88,1018927.00
389910,808426,1022102,380677.25,804659.00,1019117.25
390223,808591,1022745,381221.88,804886.75,1019306.63
390827,809054,1022472,381769.06,805115.50,1019495.63
391427,809403,1022791,382318.34,805345.94,1019684.50
391944,809662,1022960,382869.69,805578.88,1019873.63
392028,809840,1022993,383421.84,805814.75,1020062.88
392416,809352,1022887,383972.44,806052.00,1020251.13
392030,808496,1022100,384518.63,806285.38,1020435.25
391447,806088,1020506,385055.41,806506.75,1020609.75
388649,804876,1019521,385571.94,806705.50,1020766.50
387046,803979,1018645,386052.59,806870.13,1020897.19
385222,803383,1018413,386483.75,806994.88,1020997.25
381821,802801,1018160,386855.00,807078.63,1021066.63
380391,802551,1018185,387155.00,807121.88,1021107.00
379351,802638,1018290,387373.88,807127.25,1021121.50
377449,802616,1018543,387508.13,807098.50,1021113.25
376987,802673,1018614,387558.50,807039.75,1021085.56
376606,802815,1018741,387527.16,806955.63,1021042.56
376347,802796,1018970,387419.81,806850.81,1020987.94
376120,803010,1019409,387244.09,806729.06,1020925.38
376136,803178,1019426,387008.06,806594.25,1020858.25
376092,803177,1019549,386720.03,806450.00,1020788.75
375878,803717,1020240,386386.56,806299.75,1020719.06
376202,803683,1020181,386014.00,806147.25,1020652.13
376370,803792,1020260,385611.81,805994.88,1020589.63
376557,804044,1020883,385189.25,805844.63,1020532.56
377808,804812,1021012,384755.03,805699.69,1020482.69
378305,804927,1021215,384319.50,805564.06,1020442.13
378908,805270,1021536,383891.25,805440.13,1020412.25
379926,805590,1021910,383476.47,805329.38,1020394.19
380381,805610,1021982,383081.28,805233.13,1020388.75
380545,805560,1022022,382711.13,805150.75,1020395.63
380927,805660,1022222,382368.94,805081.13,1020413.13
380771,805742,1022182,382055.31,805023.75,1020440.00
381196,805859,1022137,381770.13,804978.25,1020475.88
381528,805960,1022364,381514.00,804944.50,1020520.13
381807,806130,1022732,381288.03,804922.25,1020573.00
382389,806350,1022579,381093.19,804911.56,1020634.50
382682,806476,1022837,380930.25,804912.44,1020703.75
383390,806998,1023438,380799.44,804924.75,1020780.06
383904,806920,1023365,380701.38,804948.31,1020863.50
384611,807142,1023468,380638.03,804983.44,1020954.69
384999,807427,1023810,380610.59,805030.38,1021054.00
385965,807879,1024179,380619.50,805089.56,1021161.88
386451,808149,1024047,380665.63,805161.88,1021278.38
386892,808337,1024394,380748.56,805247.50,1021402.25
386794,809281,1025217,380865.31,805346.00,1021533.63
388002,809060,1025031,381013.31,805457.75,1021673.31
388562,809283,1025109,381193.44,805582.63,1021820.94
389220,809476,1025544,381406.50,805719.88,1021975.63
390102,809868,1025654,381652.22,805868.81,1022136.88
390446,810022,1025639,381929.94,806029.13,1022304.44
390757,810151,1025917,382237.31,806199.88,1022477.25
391238,810446,1026100,382569.28,806379.50,1022654.75
391671,810439,1026091,382921.63,806566.88,1022836.38
392028,810554,1026152,383294.47,806760.63,1023020.56
392460,811034,1026400,383687.63,806959.50,1023206.00
392932,810968,1026301,384098.97,807162.63,1023391.69
393317,810971,1026351,384526.53,807369.25,1023576.75
393623,811077,1026523,384968.13,807578.25,1023760.63
394192,811287,1026753,385421.50,807788.50,1023943.25
394506,811385,1026994,385884.88,807999.56,1024125.06
394839,811589,1026906,386356.75,808210.75,1024305.88
395525,812019,1027691,386835.41,808422.06,1024485.06
396072,812263,1027474,387320.00,808633.88,1024662.81
396420,812425,1027584,387810.78,808846.94,1024839.81
396795,812843,1027837,388307.09,809061.63,1025016.38
397150,813350,1028301,388805.31,809279.00,1025193.38
397598,813445,1028257,389302.38,809500.00,1025371.31
397928,813425,1028528,389799.69,809723.69,1025550.13
397188,814066,1028878,390296.94,809949.25,1025729.44
398213,813141,1028009,390790.94,810175.00,1025907.63
397920,812130,1027322,391279.66,810395.63,1026080.25
397024,810887,1025585,391758.50,810602.56,1026241.00
394353,808587,1024800,392216.50,810785.38,1026382.44
392460,807919,1024199,392637.84,810933.75,1026497.25
390892,807286,1023873,393009.06,811042.63,1026582.38
387001,806416,1023624,393320.09,811111.88,1026637.75
386206,806349,1023352,393560.25,811141.94,1026664.63
385408,806080,1023230,393721.50,811134.00,1026664.38
384472,806157,1023269,393802.81,811090.38,1026639.25
383209,806066,1023317,393805.72,811014.81,1026592.13
382828,806016,1023302,393732.38,810911.63,1026526.25
382725,806029,1023396,393588.38,810784.88,1026444.69
382427,806198,1023616,393381.28,810638.38,1026350.63
382333,806231,1023532,393118.38,810476.38,1026247.06
382314,806368,1023691,392807.41,810302.50,1026136.25
382319,806569,1024194,392456.13,810120.00,1026020.25
382634,806644,1024025,392072.47,809932.25,1025901.63
383054,806858,1024219,391664.94,809742.44,1025783.00
383459,807201,1024409,391242.19,809554.00,1025666.88
384431,807654,1024936,390810.56,809370.63,1025555.75
385055,807978,1025134,390377.31,809196.00,1025452.56
385545,808169,1025248,389953.13,809032.63,1025359.00
386100,808767,1025799,389545.13,808882.88,1025275.81
386262,808460,1025652,389156.19,808748.00,1025203.88
386571,808425,1025456,388790.50,808627.38,1025143.00
387082,808424,1025871,388451.84,808519.38,1025092.13
387347,808518,1025776,388142.44,808423.63,1025050.94
387589,808577,1025707,387863.44,808339.63,1025019.31
387889,808738,1025742,387615.22,808267.38,1024996.63
387525,808885,1026327,387397.88,808207.00,1024983.00
388472,809186,1026341,387211.25,808158.94,1024979.81
389206,809306,1026466,387056.31,808123.56,1024987.13
389561,809962,1027014,386934.56,808101.13,1025004.44
390451,810027,1026996,386847.28,808092.13,1025031.75
391058,810209,1027199,386796.06,808097.69,1025069.88
391338,810404,1027336,386781.44,808118.13,1025118.88
392393,810957,1027888,386802.03,808153.50,1025179.19
392933,811294,1027986,386857.56,808204.88,1025251.38
393308,811401,1028183,386949.47,808272.38,1025335.25
393666,812143,1029367,387077.06,808355.00,1025430.13
394554,812197,1028879,387238.91,808452.38,1025536.00
395102,812367,1028934,387434.66,808565.00,1025653.06
395400,812662,1029135,387663.13,808692.38,1025780.75
396027,813074,1029291,387920.94,808834.13,1025917.88
396448,813121,1029440,388205.44,808989.63,1026063.50
396851,813354,1029700,388515.88,809157.50,1026217.06
397410,813964,1029974,388850.16,809336.38,1026377.81
397696,813671,1029986,389205.44,809525.38,1026544.88
398141,813741,1030149,389580.44,809722.50,1026717.50
398478,813776,1030377,389973.94,809925.88,1026894.81
398799,814066,1030214,390383.44,810134.00,1027075.38
399326,814282,1030387,390806.88,810346.38,1027258.00
399508,814330,1030345,391242.38,810562.38,1027441.75
399856,814654,1030827,391687.38,810781.13,1027626.13
400288,814637,1030732,392139.59,811002.00,1027811.25
400754,814718,1030685,392598.22,811223.88,1027996.13
401075,815055,1031126,393062.47,811445.50,1028179.44
401600,815112,1030999,393531.31,811666.44,1028360.81
401934,815282,1031168,394003.81,811886.69,1028540.31
402282,815643,1031406,394479.00,812106.31,1028718.06
402826,816101,1031705,394955.56,812326.25,1028894.75
403069,816201,1031910,395432.56,812547.31,1029071.13
403300,816382,1031955,395909.19,812769.38,1029247.38
403705,817133,1032724,396384.31,812992.00,1029423.13
404051,817011,1032396,396857.16,813215.75,1029598.75
404358,816750,1032281,397327.13,813439.88,1029773.69
404322,816227,1031908,397792.81,813661.50,1029946.00
402945,813719,1029838,398250.88,813872.38,1030109.38
401418,812258,1028858,398692.63,814059.25,1030253.56
399874,811151,1028187,399104.09,814211.63,1030371.25
395902,810026,1027165,399472.69,814324.13,1030458.88
394412,809152,1026728,399784.81,814393.13,1030514.31
392992,808800,1026688,400025.31,814417.00,1030536.69
391550,808533,1026568,400186.09,814397.13,1030528.00
389226,808270,1026343,400263.25,814336.69,1030490.75
388540,808109,1026285,400253.56,814239.13,1030427.75
388015,808108,1026284,400159.63,814108.50,1030341.88
387151,808434,1026645,399987.97,813949.44,1030237.00
386982,808199,1026447,399745.16,813766.88,1030117.19
386792,808227,1026628,399438.13,813565.06,1029985.19
386774,808606,1027052,399074.88,813347.94,1029843.88
386644,808423,1026901,398664.03,813119.56,1029696.38
386361,808409,1026809,398213.13,812883.38,1029545.25
386399,808446,1026876,397729.00,812642.25,1029392.13
386725,808784,1027167,397218.31,812399.38,1029238.88
387069,809026,1027501,396688.94,812158.88,1029088.63
387402,809237,1027627,396150.31,811923.75,1028943.88
388005,810132,1028455,395611.31,811696.88,1028807.06
388882,810149,1028340,395080.38,811481.63,1028680.38
389653,810225,1028438,394566.19,811281.06,1028565.75
389963,810376,1028579,394075.47,811096.38,1028463.69
390556,810609,1028574,393612.06,810928.25,1028374.13
390712,810491,1028629,393178.63,810776.88,1028296.69
390958,810567,1028607,392777.44,810641.50,1028230.56
391316,811100,1028964,392410.03,810521.50,1028175.13
391471,810737,1028624,392076.94,810416.38,1028129.75
392001,810862,1029025,391779.00,810326.00,1028094.13
392158,810986,1029409,391516.88,810250.06,1028068.88
392834,811392,1029476,391291.16,810189.00,1028054.63
393365,811577,1029698,391102.94,810143.50,1028052.13
393954,811749,1029903,390953.44,810113.75,1028061.94
394701,812512,1030163,390842.56,810100.19,1028084.13
395192,812571,1030374,390770.19,810103.75,1028118.88
395719,812732,1030538,390737.56,810124.75,1028165.88
396012,813374,1031339,390744.81,810162.69,1028224.75
397210,813438,1031157,390791.38,810217.63,1028295.44
397420,813772,1031332,390877.63,810289.63,1028378.25
398179,814043,1031467,391002.63,810378.63,1028472.81
398813,814444,1031869,391163.06,810484.25,1028578.75
399187,814653,1031913,391355.81,810606.38,1028695.63
399441,814866,1032168,391580.88,810743.88,1028822.75
399853,815539,1032853,391837.31,810895.13,1028959.00
400485,815505,1032476,392122.78,811059.25,1029103.31
401008,815583,1032483,392435.75,811235.75,1029254.81
401179,815707,1032595,392774.09,811423.38,1029412.38
401897,816024,1032972,393134.59,811620.75,1029575.25
402087,816032,1033021,393514.59,811826.63,1029743.31
402513,816158,1032975,393912.53,812039.38,1029915.50
402041,816375,1033367,394325.94,812257.00,1030090.38
403050,816492,1033293,394751.69,812478.13,1030267.25
403611,816622,1033279,395188.25,812702.25,1030445.44
403966,816779,1033773,395634.88,812928.75,1030623.94
404422,817025,1033670,396090.25,813157.06,1030802.50
404839,817141,1033946,396553.13,813386.63,1030981.25
405172,817443,1034072,397022.19,813617.06,1031160.50
405657,818163,1034458,397495.56,813848.56,1031340.50
405942,818223,1034573,397971.69,814081.88,1031521.75
406232,818382,1034776,398449.69,814317.63,1031704.13
406680,818754,1035403,398928.88,814555.88,1031887.69
407346,819108,1035393,399409.00,814796.88,1032072.75
407563,819387,1035507,399890.03,815041.06,1032259.81
407850,819591,1035619,400370.94,815288.25,1032448.75
407918,819359,1035506,400848.63,815538.19,1032638.31
408002,818596,1034858,401319.75,815787.88,1032825.63
407662,817327,1033957,401782.56,816029.00,1033005.38
406619,814638,1031779,402232.88,816250.88,1033170.63
403448,813236,1030768,402658.56,816441.88,1033312.31
402067,812488,1030340,403043.38,816590.50,1033421.88
400454,811847,1029869,403375.53,816691.88,1033496.00
397314,810995,1029502,403646.25,816745.44,1033535.00
396187,810780,1029312,403845.94,816751.88,1033540.25
395277,810707,1029282,403968.25,816714.13,1033514.25
393137,810714,1029695,404012.75,816636.63,1033460.13
393484,810584,1029390,403981.63,816524.00,1033381.38
393564,810761,1029553,403879.19,816381.31,1033282.50
393486,810681,1029846,403713.06,816213.81,1033167.75
393509,810978,1029897,403491.75,816026.19,1033040.81
393491,811079,1029854,403223.25,815823.25,1032905.25
393652,811180,1030024,402915.38,815609.38,1032763.63
393584,811421,1030430,402575.25,815388.13,1032619.00
393958,811427,1030440,402209.81,815162.81,1032474.50
394310,811588,1030562,401826.72,814936.50,1032332.31
394680,811854,1031335,401433.56,814712.50,1032194.00
395469,812547,1031238,401037.88,814494.56,1032062.00
396089,812780,1031449,400647.50,814287.13,1031939.00
396636,813028,1031613,400269.44,814093.00,1031826.75
397204,813431,1031884,399908.81,813914.13,1031726.31
397767,813335,1031969,399570.13,813751.75,1031638.44
398160,813348,1031854,399257.38,813605.56,1031562.88
398417,813605,1032035,398973.00,813474.50,1031498.63
398734,813535,1031852,398718.00,813357.88,1031444.50
399002,813554,1032114,398492.91,813255.75,1031400.25
399222,813660,1032311,398297.84,813168.00,1031366.25
399623,813961,1032471,398130.97,813094.44,1031343.06
400197,814131,1032509,397991.34,813035.63,1031330.63
400612,814337,1032668,397882.16,812991.75,1031328.50
401325,814934,1033081,397805.47,812962.75,1031336.38
401813,814947,1033189,397761.50,812948.75,1031354.38
401935,815155,1033451,397750.81,812950.50,1031383.38
402657,815477,1034053,397773.13,812968.44,1031423.94
403833,816049,1034182,397829.38,813003.06,1031476.44
404193,816190,1034412,397921.44,813055.13,1031541.94
404556,816437,1034466,398048.63,813124.25,1031620.50
405161,817250,1035217,398208.56,813210.13,1031711.56
405675,817364,1035065,398399.72,813313.56,1031815.50
406077,817505,1035298,398621.13,813434.25,1031931.38
406399,817740,1035893,398870.94,813570.69,1032058.19
406935,818149,1035804,399146.94,813722.00,1032195.25
407580,818378,1035934,399447.75,813887.63,1032342.13
407760,818755,1036206,399771.94,814066.94,1032498.31
408249,819127,1036349,400116.88,814259.88,1032663.13
408763,819140,1036387,400480.41,814465.75,1032835.31
408923,819214,1036517,400861.06,814682.19,1033013.50
409120,819555,1036697,401256.09,814906.50,1033196.25
409493,819358,1036518,401662.69,815136.75,1033382.13
409832,819484,1036651,402078.81,815371.13,1033569.50
410208,819535,1036550,402502.97,815608.00,1033757.00
410662,819729,1036840,402932.88,815846.06,1033943.69
410411,819861,1036899,403365.63,816084.50,1034129.25
410911,819907,1036946,403799.47,816322.50,1034313.25
411456,820335,1037185,404234.28,816558.94,1034495.06
411727,820501,1037454,404669.81,816793.75,1034674.69
412017,820849,1037600,405105.63,817028.00,1034853.13
412462,821070,1038167,405541.19,817262.50,1035031.13
413103,821440,1038247,405976.66,817497.56,1035209.44
413378,821773,1038351,406412.56,817733.88,1035388.75
413582,821766,1038520,406848.16,817971.50,1035568.88
413903,822120,1038823,407280.75,818210.00,1035749.81
414104,821657,1038264,407708.06,818448.44,1035930.75
413771,820710,1037508,408129.66,818681.94,1036107.25
413212,819486,1035895,408542.69,818902.38,1036272.88
410686,816670,1034521,408937.88,819098.25,1036419.06
409417,815592,1033649,409301.78,819256.63,1036536.25
407859,814844,1033034,409623.38,819370.25,1036619.00
405052,813991,1032414,409894.41,819438.19,1036665.88
404006,813580,1032271,410106.25,819460.94,1036677.00
403345,813352,1032255,410251.69,819439.25,1036654.81
402613,813425,1032562,410329.44,819375.81,1036603.00
401776,813363,1032455,410341.44,819275.63,1036525.75
401814,813469,1032556,410290.94,819143.94,1036427.56
402003,813629,1032670,410184.63,818986.25,1036312.50
402397,813985,1032978,410030.50,818808.31,1036184.75
402481,814129,1032964,409836.38,818615.50,1036047.88
402777,814179,1033008,409610.75,818412.38,1035904.56
403070,814332,1033242,409361.09,818202.06,1035757.00
403002,814521,1033522,409093.00,817987.75,1035607.88
403704,814620,1033573,408812.69,817772.94,1035460.38
404134,814944,1033803,408527.38,817560.63,1035316.63
405306,815639,1034477,408244.69,817354.69,1035179.50
405839,815990,1034593,407972.50,817159.75,1035052.38
406300,816164,1034747,407716.50,816978.81,1034936.75
406860,816772,1035344,407478.47,816813.69,1034833.38
407227,816674,1035038,407259.78,816665.88,1034742.63
407338,816500,1034842,407064.19,816535.13,1034664.13
407466,816328,1035084,406893.56,816419.50,1034596.38
407688,816347,1034759,406747.31,816317.06,1034537.75
407958,816482,1034804,406625.16,816227.13,1034487.69
408350,816471,1034784,406527.31,816149.25,1034445.63
408627,816631,1035107,406452.81,816083.25,1034411.63
409069,817028,1035143,406400.78,816029.56,1034386.19
409278,816995,1035382,406372.69,815988.63,1034369.63
409731,817655,1035912,406369.56,815960.50,1034362.13
410271,817805,1036018,406391.56,815945.63,1034364.75
410789,818041,1036008,406439.31,815945.50,1034378.13
411382,818258,1036257,406513.44,815960.75,1034402.38
411661,818839,1036643,406613.53,815991.69,1034437.63
412368,818943,1036693,406738.84,816039.00,1034484.19
412755,819346,1037032,406889.69,816102.50,1034542.00
413486,819880,1037736,407065.81,816181.88,1034611.00
413758,820154,1037773,407266.25,816277.19,1034691.69
414222,820380,1037906,407490.50,816389.00,1034784.63
414471,820616,1038056,407737.31,816516.81,1034889.63
415086,821103,1038441,408004.25,816660.13,1035006.00
415380,821289,1038534,408289.38,816818.63,1035133.25
415819,821301,1038539,408592.41,816990.88,1035270.31
414793,822073,1039093,408910.63,817175.06,1035415.88
416107,821873,1038864,409239.88,817370.13,1035568.88
416315,821794,1038895,409579.31,817574.56,1035728.00
416660,821828,1038801,409928.44,817786.19,1035891.81
416975,821843,1038698,410285.84,818002.50,1036058.31
417352,821853,1038983,410650.38,818221.50,1036225.63
417271,821917,1038891,411020.38,818441.50,1036392.75
417564,821942,1039189,411391.69,818661.19,1036559.25
418032,822049,1039130,411761.63,818879.38,1036724.88
418386,822213,1039120,412132.19,819095.38,1036888.75
418564,822660,1039608,412504.72,819308.88,1037049.88
418921,822773,1039627,412878.22,819520.25,1037208.63
419195,822876,1039573,413252.00,819730.13,1037365.69
419577,823087,1039861,413625.63,819938.63,1037521.00
420086,823562,1040030,413998.56,820146.19,1037675.13
420276,823828,1040113,414370.31,820354.00,1037828.19
420545,823877,1040257,414741.19,820562.50,1037980.13
420636,823006,1040021,415110.69,820770.38,1038130.31
419952,821744,1038632,415475.88,820972.13,1038274.75
419237,820484,1037683,415830.94,821157.13,1038405.75
417812,819058,1036647,416168.00,821315.25,1038516.00
414441,816875,1035136,416475.38,821436.88,1038598.75
413196,816097,1034591,416738.50,821513.38,1038648.13
411795,815601,1034439,416945.94,821541.88,1038662.88
408738,815418,1034358,417090.63,821524.31,1038644.75
408567,814952,1033994,417167.06,821464.00,1038596.25
408001,814877,1033922,417173.19,821364.06,1038520.00
407541,814705,1034237,417111.69,821228.19,1038418.88
407050,814919,1033870,416987.34,821061.19,1038295.88
406758,814956,1034029,416805.25,820868.50,1038154.88
406735,814985,1033997,416571.47,820655.25,1038000.00
406012,815097,1034594,416292.63,820425.75,1037835.06
406898,815253,1034453,415975.69,820184.44,1037664.44
407379,815464,1034421,415629.50,819935.63,1037490.50
407444,815641,1034712,415262.81,819682.88,1037315.00
407704,815738,1034826,414882.31,819429.44,1037140.63
408079,815920,1034918,414494.06,819178.56,1036969.50
408512,816333,1035240,414104.56,818933.63,1036804.00
409395,816830,1035703,413719.41,818698.63,1036646.63
410026,817000,1035808,413344.94,818476.81,1036500.13
410350,817264,1035844,412988.34,818270.38,1036365.63
410753,817667,1036459,412654.41,818080.75,1036243.38
411206,817448,1036132,412345.81,817908.25,1036133.63
411383,817545,1036071,412064.56,817752.75,1036036.50
411772,817450,1035981,411811.63,817613.63,1035950.88
411594,817654,1036183,411585.75,817490.19,1035876.13
412098,817684,1036239,411385.06,817382.13,1035812.00
412345,817850,1036284,411211.25,817289.13,1035758.63
412716,818424,1036761,411065.09,817211.25,1035715.63
412725,818264,1036739,410944.88,817148.63,1035683.50
413383,818378,1036746,410851.63,817101.25,1035662.38
413923,818471,1037266,410787.63,817068.75,1035651.94
414482,819120,1037334,410754.06,817051.25,1035652.13
415213,819333,1037429,410752.06,817050.19,1035663.94
415568,819520,1037792,410782.22,817065.88,1035687.75
415182,820043,1038134,410843.38,817098.13,1035724.13
416308,820185,1038079,410933.56,817147.06,1035773.13
416932,820352,1038265,411052.47,817212.31,1035833.75
417115,821137,1038668,411199.63,817293.25,1035904.88
417869,821168,1038919,411373.81,817389.75,1035986.44
418162,821441,1039056,411574.28,817502.13,1036079.13
418567,821602,1039020,411799.66,817630.00,1036182.50
418941,821773,1039482,412047.38,817772.00,1036295.38
419217,822076,1039264,412315.03,817926.81,1036417.00
419506,822084,1039584,412601.19,818093.25,1036546.25
419642,822730,1040270,412904.00,818269.63,1036682.13
420129,822678,1039991,413221.25,818454.81,1036824.13
420541,822717,1039967,413551.69,818648.38,1036972.00
420696,822756,1039990,413894.06,818849.00,1037124.50
420733,822938,1040110,414245.59,819054.94,1037280.25
421150,823001,1040034,414603.63,819264.94,1037438.13
421362,822915,1040191,414967.00,819477.38,1037597.00
421729,823661,1040341,415334.19,819690.75,1037756.13
421891,823445,1040372,415703.44,819904.56,1037915.38
422192,823555,1040718,416074.28,820119.00,1038074.50
422459,823606,1040735,416446.34,820333.31,1038233.38
422617,823849,1040774,416818.56,820546.75,1038391.38
423092,824027,1040876,417190.13,820759.25,1038548.00
423378,824377,1041132,417560.94,820971.00,1038703.63
423562,824981,1041443,417930.44,821182.75,1038858.88
423940,824886,1041597,418297.66,821394.81,1039014.50
424502,825094,1041516,418663.19,821607.50,1039170.38
424424,824779,1041567,419027.44,821820.13,1039325.38
424290,823973,1040731,419388.31,822029.63,1039477.00
424005,822871,1039921,419742.50,822228.63,1039620.06
422897,821568,1038782,420084.84,822408.50,1039748.00
419818,818864,1037010,420406.84,822558.69,1039852.75
418404,817844,1036380,420695.50,822667.25,1039926.44
416798,817295,1035898,420936.00,822728.69,1039965.88
415589,817010,1035650,421118.78,822743.50,1039971.13
413223,816416,1035523,421237.56,822713.88,1039943.75
412543,816309,1035304,421286.88,822642.38,1039886.94
412046,816172,1035348,421266.75,822532.88,1039803.69
411377,816321,1035408,421181.88,822390.13,1039697.63
411271,816355,1035582,421037.50,822219.63,1039572.88
411209,816363,1035583,420839.31,822026.13,1039433.25
411121,816804,1035775,420594.03,821814.00,1039281.75
411311,816650,1035677,420309.03,821587.88,1039121.06
411450,816768,1035842,419991.69,821352.00,1038954.13
411613,816898,1036064,419649.13,821110.25,1038783.94
411939,817041,1036203,419288.19,820866.13,1038613.50
412076,817161,1036318,418915.50,820622.56,1038445.25
412517,817423,1036421,418537.00,820382.50,1038281.19
413479,818258,1037135,418158.94,820149.38,1038123.88
414137,818454,1037310,417788.69,819927.13,1037976.75
414793,818830,1037395,417434.19,819719.75,1037841.88
415121,819022,1038040,417101.38,819529.75,1037719.81
415780,819055,1037959,416793.72,819357.56,1037611.75
416066,819278,1037716,416514.03,819203.56,1037517.88
416295,819181,1037670,416263.75,819067.56,1037436.88
416266,819433,1037870,416041.28,818949.19,1037367.50
416826,819463,1037888,415845.00,818848.25,1037309.56
417026,819412,1037941,415677.00,818763.75,1037262.75
417121,819833,1038277,415538.34,818693.88,1037226.25
417765,819793,1038111,415428.53,818638.25,1037199.44
418107,819945,1038239,415348.13,818597.06,1037182.38
418479,820002,1038457,415297.44,818570.38,1037175.19
419294,820640,1038935,415275.41,818558.38,1037178.69
419493,820770,1039029,415281.63,818562.06,1037193.88
419750,821076,1039197,415316.69,818581.75,1037220.88
419598,821597,1039937,415380.31,818617.38,1037259.25
420663,821856,1039756,415471.47,818669.00,1037309.25
421111,821955,1039883,415589.75,818737.13,1037370.88
421628,822202,1040303,415734.66,818821.13,1037443.63
422109,822674,1040087,415905.66,818920.38,1037526.44
422441,822721,1040385,416101.69,819034.63,1037618.63
422753,823000,1040558,416321.06,819162.88,1037720.00
423121,823473,1041102,416561.38,819304.00,1037830.88
423441,823590,1041128,416820.28,819457.44,1037951.75
423959,823852,1041216,417097.13,819622.88,1038081.81
424013,823963,1041543,417390.81,819799.50,1038220.00
424290,824328,1041683,417698.94,819986.38,1038365.88
424743,824391,1041651,418019.50,820182.50,1038518.50
425079,824585,1041704,418351.44,820386.69,1038676.38
425253,824679,1041778,418692.06,820598.19,1038838.00
425497,824655,1041675,419038.25,820816.00,1039001.75
425678,824722,1041641,419389.63,821037.19,1039166.06
426092,824974,1042080,419746.25,821259.25,1039329.50
426204,824911,1042065,420106.94,821480.88,1039491.75
426538,824998,1042236,420470.38,821701.44,1039653.50
426894,825237,1042336,420835.59,821920.50,1039815.13
426875,825651,1042569,421200.38,822138.50,1039976.50
427412,825735,1042553,421562.38,822356.00,1040137.38
427415,826050,1042774,421922.44,822573.13,1040297.50
427985,826536,1043274,422281.25,822789.81,1040457.00
428377,826823,1043376,422638.88,823006.63,1040616.63
428588,826949,1043450,422995.94,823225.00,1040777.13
428807,827056,1043873,423352.06,823444.88,1040938.63
429123,826905,1043386,423706.50,823665.00,1041100.31
429101,826084,1042816,424058.44,823881.75,1041259.25
428423,824905,1041776,424404.75,824088.63,1041410.13
425746,822096,1040050,424739.13,824276.75,1041546.00
424723,820674,1038908,425050.50,824434.63,1041658.63
423389,819867,1038125,425325.25,824550.13,1041739.88
422147,819284,1037810,425553.81,824618.25,1041785.81
419765,818482,1037396,425728.56,824639.00,1041796.88
419339,818336,1037243,425842.81,824613.50,1041774.75
418696,818240,1037080,425895.66,824545.13,1041722.13
417704,818243,1037188,425890.31,824439.63,1041642.13
417935,818139,1037391,425830.53,824302.31,1041539.13
417841,818273,1037342,425720.69,824137.25,1041417.38
418060,818703,1037803,425566.69,823948.44,1041280.38
418107,818737,1037701,425375.47,823741.38,1041131.88
418330,818803,1037630,425153.81,823521.38,1040975.25
418501,818877,1037897,424908.19,823292.75,1040813.06
418841,819139,1038084,424644.25,823058.88,1040648.50
418929,819112,1038112,424367.38,822823.19,1040484.13
419469,819362,1038136,424083.50,822588.50,1040321.63
420241,820150,1038939,423798.66,822357.69,1040162.88
420765,820332,1038879,423518.94,822134.69,1040010.63
421332,820587,1039170,423251.00,821923.75,1039867.75
421741,820698,1039348,423000.19,821727.56,1039736.38
422306,821195,1039800,422769.81,821547.50,1039618.00
422314,821117,1039471,422562.06,821385.00,1039513.50
422584,821009,1039505,422377.31,821239.38,1039421.50
422469,821371,1039784,422213.88,821109.81,1039341.25
422782,820987,1039577,422069.81,820995.38,1039272.44
423031,821070,1039406,421946.50,820894.88,1039213.81
423010,821067,1039677,421845.13,820807.31,1039163.88
423555,821329,1039715,421765.19,820732.38,1039122.31
423927,821271,1039690,421707.38,820670.00,1039089.44
423713,821396,1040001,421671.50,820619.63,1039065.44
424594,822061,1040254,421655.38,820581.38,1039051.00
425168,822117,1040372,421659.25,820556.13,1039046.88
425613,822523,1040636,421686.75,820545.31,1039053.13
425914,822960,1041167,421739.47,820550.00,1039070.19
426478,823225,1041211,421817.06,820570.75,1039098.50
426875,823477,1041291,421919.31,820608.00,1039138.38
427277,823653,1041483,422045.88,820661.88,1039189.56
427648,824046,1041782,422195.22,820731.63,1039251.75
428166,824149,1041932,422366.09,820816.88,1039324.88
428361,824581,1041950,422558.22,820917.25,1039408.25
428444,825048,1042795,422770.31,821031.81,1039500.88
429220,825100,1042698,423000.75,821160.06,1039602.88
429304,825327,1042755,423248.59,821301.63,1039714.75
429665,825368,1042721,423512.22,821455.75,1039835.50
429955,825632,1043024,423787.69,821620.81,1039963.88
430251,825680,1042962,424071.75,821795.50,1040099.00
430466,825693,1042950,424365.47,821978.00,1040239.19
429721,826228,1043411,424667.88,822166.88,1040383.19
430581,825913,1043169,424975.13,822360.88,1040530.13
431001,825956,1043181,425286.81,822558.38,1040679.00
431226,826057,1043237,425603.41,822757.69,1040828.75
431695,826295,1043431,425924.47,822958.00,1040978.63
431836,826353,1043433,426249.50,823159.00,1041128.44
432086,826710,1043675,426577.50,823360.25,1041277.94
431592,827053,1043961,426905.47,823562.06,1041427.50
432600,827219,1043945,427231.06,823764.63,1041577.50
433056,827352,1044163,427556.25,823968.25,1041727.63
433367,827842,1044537,427883.31,824173.00,1041877.88
433859,827898,1044584,428212.44,824378.75,1042028.75
433911,827693,1044438,428543.50,824585.13,1042179.81
434023,827486,1044167,428875.13,824790.00,1042329.50
432860,825581,1042735,429203.53,824987.56,1042473.00
431938,824261,1041792,429521.38,825167.31,1042602.50
430737,822932,1040908,429819.44,825319.38,1042711.00
429420,821108,1039888,430089.13,825436.63,1042793.50
427163,820716,1039304,430320.53,825513.88,1042846.19
426101,820222,1038949,430503.91,825548.13,1042867.44
425104,819916,1038748,430633.66,825539.75,1042857.88
424022,819855,1038769,430707.19,825491.75,1042819.63
423919,819765,1038684,430724.09,825408.00,1042756.19
423913,819885,1038803,430689.00,825293.25,1042670.69
423198,820241,1039293,430606.91,825152.50,1042566.81
423713,820137,1039031,430481.94,824990.75,1042448.13
423872,820348,1039240,430321.19,824812.75,1042318.38
423963,820267,1039287,430132.00,824622.44,1042180.81
424267,820496,1039442,429920.25,824423.13,1042037.88
424687,820765,1039488,429692.19,824218.50,1041892.31
424993,820881,1039603,429454.00,824012.31,1041746.31
424979,821547,1040439,429210.94,823807.88,1041603.06
426162,821770,1040479,428968.38,823609.06,1041466.63
426833,822054,1040463,428733.19,823419.69,1041338.88
427311,822780,1040981,428511.31,823242.63,1041220.44
427884,822871,1040909,428306.88,823080.38,1041112.50
428198,822792,1041034,428122.81,822934.63,1041015.81
428179,822685,1040939,427960.28,822804.81,1040930.25
428564,822652,1041138,427818.44,822689.50,1040855.25
428524,822524,1040855,427696.50,822587.25,1040790.19
428702,822511,1040945,427594.63,822496.75,1040733.94
428687,822979,1041318,427512.38,822417.00,1040685.44
429118,822817,1041115,427449.25,822348.13,1040644.44
429298,822853,1041080,427405.25,822290.38,1040611.13
429684,822868,1041047,427380.63,822243.38,1040585.13
430079,823273,1041492,427374.56,822207.25,1040566.50
430487,823567,1041780,427386.75,822182.88,1040556.56
430789,823801,1041867,427418.78,822171.38,1040556.38
431452,824664,1042147,427470.81,822173.63,1040565.50
431870,824672,1042441,427542.19,822190.81,1040584.00
432096,824765,1042442,427634.88,822223.56,1040612.81
432429,825165,1043148,427749.56,822271.63,1040652.38
432480,825464,1043204,427884.50,822335.06,1040703.13
433191,825671,1043275,428038.47,822413.75,1040765.75
433351,825928,1043417,428211.06,822507.25,1040839.50
433635,826479,1043981,428401.31,822614.88,1040924.19
434332,826573,1043987,428608.38,822736.50,1041020.25
434657,826800,1044116,428832.38,822871.88,1041127.00
434850,827161,1044239,429072.50,823019.63,1041242.81
435095,826992,1044226,429326.81,823178.13,1041366.13
435204,827281,1044337,429593.25,823346.13,1041496.00
435426,827326,1044478,429869.69,823522.88,1041631.38
436026,827442,1044495,430154.38,823706.75,1041771.50
436049,827702,1044483,430446.06,823896.75,1041915.00
436234,827682,1044398,430744.13,824091.69,1042060.44
436266,827964,1045049,431047.16,824290.25,1042206.38
436556,827912,1044749,431353.28,824490.94,1042352.63
436836,827825,1044644,431661.56,824692.69,1042498.81
436980,827987,1044775,431971.31,824894.13,1042644.00
437348,828214,1045026,432281.31,825094.69,1042787.88
437667,828266,1044958,432590.97,825294.25,1042930.75
437799,828646,1045102,432900.63,825492.75,1043072.00
438093,829062,1045610,433210.31,825690.50,1043211.75
438563,829210,1045795,433520.03,825888.06,1043350.88
438879,829443,1045819,433830.19,826086.25,1043490.75
438953,829564,1046444,434140.50,826285.63,1043631.75
439155,829767,1046207,434449.88,826485.75,1043773.88
439243,829418,1045872,434757.19,826685.38,1043916.38
439084,828740,1045197,435060.81,826881.00,1044055.81
437453,826175,1043293,435357.44,827066.50,1044185.00
435992,824643,1042230,435638.44,827230.88,1044294.13
434543,823287,1041344,435890.94,827360.06,1044375.63
433086,821827,1040495,436103.94,827445.00,1044425.63
430416,821348,1040003,436267.69,827482.50,1044442.00
429262,820916,1039823,436372.19,827471.56,1044424.75
428558,820699,1039666,436413.22,827414.38,1044375.81
427198,820633,1039599,436391.13,827315.63,1044298.38
427132,820562,1039542,436307.38,827180.63,1044195.63
426756,820518,1039629,436166.06,827013.75,1044071.19
426591,820855,1040082,435972.84,826819.00,1043928.88
426333,820732,1039880,435733.50,826601.63,1043772.63
426378,820691,1039788,435454.00,826366.38,1043605.88
426621,820801,1039927,435141.25,826117.50,1043431.13
426707,821009,1040130,434802.25,825859.13,1043251.38
426700,821060,1039949,434442.88,825595.19,1043069.13
426821,821116,1039999,434068.94,825329.00,1042885.88
426293,821503,1040509,433685.72,825063.38,1042703.13
427345,821762,1040595,433298.44,824801.75,1042523.75
428017,822141,1040876,432913.38,824548.38,1042350.88
428389,822173,1041417,432537.13,824306.44,1042187.44
429568,822942,1041523,432176.13,824078.63,1042035.50
429835,823120,1041680,431836.66,823868.19,1041897.13
430155,823050,1041677,431522.44,823676.50,1041773.06
430236,823282,1041797,431234.44,823503.25,1041663.13
430422,823202,1041803,430972.69,823348.38,1041566.75
430541,823035,1041547,430737.25,823210.50,1041482.94
430750,823163,1042003,430528.19,823088.00,1041410.31
431156,823340,1041929,430345.56,822980.56,1041348.75
431310,823533,1041941,430189.88,822888.38,1041298.38
431720,823684,1042328,430061.06,822811.50,1041259.38
432043,823933,1042555,429957.44,822750.31,1041232.50
432571,824135,1042565,429877.69,822704.69,1041218.00
433082,824368,1042707,429825.06,822674.88,1041215.38
433217,825201,1043157,429801.69,822660.88,1041223.94
433669,825023,1043279,429806.69,822662.63,1041243.88
434141,825434,1043354,429839.38,822681.31,1041275.63
434542,825606,1043683,429899.56,822717.50,1041319.31
435076,826037,1043900,429985.53,822771.00,1041374.88
435381,826101,1043971,430095.56,822841.50,1041442.25
435691,826390,1044171,430230.06,822927.94,1041520.31
435219,826835,1044675,430388.31,823029.44,1041608.75
436129,827039,1044691,430568.03,823145.63,1041707.25
436687,827170,1044738,430767.75,823276.13,1041815.63
436669,827421,1045142,430986.34,823420.00,1041932.88
437505,827708,1045289,431222.41,823576.38,1042058.50
437603,827713,1045193,431475.44,823744.13,1042192.19
437834,827860,1045226,431743.88,823921.50,1042332.31
437881,828087,1045480,432025.00,824107.00,1042477.50
438153,828142,1045417,432316.41,824299.31,1042627.13
438644,828210,1045509,432616.72,824497.13,1042779.88
438674,828155,1045944,432925.06,824698.75,1042934.50
438660,828193,1045819,433239.25,824902.19,1043090.38
439080,828469,1045745,433557.03,825106.25,1043247.19
439504,828569,1045796,433878.00,825310.63,1043404.13
439320,828960,1045908,434201.13,825515.50,1043560.25
439816,829013,1046070,434524.56,825720.81,1043715.38
440054,829104,1046097,434848.09,825926.25,1043869.31
440187,829872,1046565,435171.56,826131.13,1044021.63
440870,829673,1046670,435494.84,826335.75,1044172.63
441129,829964,1046873,435818.75,826540.75,1044323.75
441136,830112,1046888,436143.06,826746.50,1044475.38
441318,830466,1047204,436464.56,826953.13,1044627.50
441562,830346,1046938,436780.88,827160.38,1044779.50
441454,829673,1046597,437092.81,827365.63,1044929.31
440038,827467,1044827,437399.63,827563.25,1045072.88
439151,826213,1043907,437694.53,827743.75,1045202.75
437821,824938,1042913,437966.63,827894.13,1045309.56
436221,823896,1041898,438205.25,828005.75,1045386.94
433567,822685,1041387,438399.50,828073.88,1045432.00
432641,822093,1041147,438538.75,828095.75,1045443.38
431914,821972,1040991,438618.88,828072.00,1045422.13
430424,821713,1041531,438640.28,828006.81,1045371.50
430311,821837,1041222,438603.75,827905.25,1045295.75
429968,821788,1041062,438511.53,827771.44,1045198.56
429870,821847,1041624,438368.03,827609.75,1045082.94
429448,821972,1041521,438178.59,827425.00,1044952.56
429631,822224,1041401,437948.63,827222.25,1044811.50
429773,822276,1041680,437684.63,827006.31,1044662.69
429773,822509,1041832,437394.06,826781.81,1044509.31
430009,822559,1041919,437083.31,826552.88,1044354.25
430124,822575,1041913,436757.56,826321.81,1044199.38
430191,823018,1042165,436421.38,826090.88,1044046.25
430808,823222,1042318,436080.00,825863.31,1043896.75
431322,823494,1042521,435739.94,825642.88,1043753.13
431935,823850,1042769,435407.59,825432.75,1043617.38
432717,824547,1043308,435088.09,825236.31,1043491.88
432861,824624,1043424,434785.53,825056.75,1043379.00
433206,824593,1043390,434503.69,824894.88,1043279.38
433719,824916,1043560,434245.81,824750.13,1043192.25
433805,824853,1043441,434013.63,824622.31,1043116.63
434025,824734,1043534,433807.50,824510.75,1043052.25
434156,824845,1043816,433627.00,824414.31,1042999.00
434525,824959,1043799,433471.94,824332.38,1042957.13
434757,824984,1043826,433342.50,824264.44,1042926.25
434933,825212,1043971,433238.53,824210.13,1042905.75
435199,825590,1044518,433157.75,824169.63,1042895.81
435645,825596,1044264,433098.69,824143.31,1042896.75
436027,825831,1044298,433063.56,824130.88,1042907.75
436391,826076,1045170,433054.19,824132.50,1042928.00
436909,826357,1044938,433070.56,824148.13,1042958.13
437374,826614,1044934,433113.06,824178.00,1042998.50
437866,826935,1045208,433181.78,824222.38,1043048.75
438187,827481,1045608,433275.72,824281.63,1043109.13
438706,827725,1045897,433393.56,824356.50,1043180.50
438972,827960,1045863,433535.34,824447.13,1043262.81
439129,828363,1046431,433700.06,824552.63,1043355.06
439383,828500,1046394,433885.38,824672.13,1043456.75
440008,828628,1046668,434089.84,824805.00,1043568.00
440206,828893,1046788,434312.88,824950.63,1043688.63
440712,829216,1046929,434552.81,825108.13,1043817.75
440617,829387,1047101,434807.38,825276.88,1043954.63
440776,829362,1046996,435074.47,825455.63,1044097.88
441207,829848,1047277,435352.28,825642.38,1044245.88
441550,829879,1047302,435639.88,825836.38,1044397.38
441638,829726,1047210,435936.38,826036.38,1044551.75
441760,829803,1047328,436239.88,826240.38,1044707.88
441902,830015,1047433,436548.19,826446.75,1044864.88
442194,829947,1047544,436859.81,826654.56,1045022.31
442376,830188,1047567,437173.75,826862.63,1045179.56
441504,830705,1047995,437487.41,827070.38,1045336.13
442758,830561,1047913,437798.44,827277.88,1045492.00
443142,830769,1048122,438108.19,827484.94,1045647.50
443247,830890,1048478,438417.88,827691.63,1045802.50
443808,831457,1048415,438727.44,827898.25,1045957.13
443935,831510,1048553,439037.06,828105.75,1046111.38
444139,831713,1048730,439346.38,828314.00,1046265.50
444239,831835,1048908,439652.63,828522.88,1046419.50
444403,831348,1048422,439953.22,828730.63,1046572.50
444141,830307,1047800,440248.63,828932.38,1046720.75
443352,827845,1045766,440536.94,829120.13,1046858.50
440585,826482,1044657,440808.44,829282.75,1046976.75
439333,825437,1043999,441049.25,829408.50,1047066.50
438224,824695,1043413,441249.50,829491.00,1047123.50
435883,823825,1042842,441403.44,829528.56,1047146.69
435306,823704,1043014,441505.13,829521.38,1047137.00
434586,823553,1043033,441550.84,829472.38,1047097.88
433728,823396,1043244,441540.88,829385.94,1047033.25
433922,823627,1043024,441478.69,829266.75,1046946.00
433873,823476,1043005,441368.94,829119.69,1046839.88
433735,823775,1043060,441217.06,828949.38,1046718.38
433683,824044,1043516,441026.59,828761.13,1046584.94
434082,824061,1043502,440801.88,828559.94,1046443.88
434100,824147,1043492,440551.81,828349.56,1046297.88
433356,824809,1043961,440282.88,828133.81,1046149.19
434492,824517,1043789,439999.06,827916.63,1046000.69
434691,824775,1043867,439706.94,827700.63,1045853.81
435207,824910,1044505,439412.97,827488.38,1045709.50
436289,825623,1044528,439123.69,827283.13,1045569.88
436592,826031,1044901,438846.19,827089.38,1045438.63
437159,826264,1044961,438585.19,826910.19,1045318.13
436531,826382,1045578,438342.88,826747.44,1045210.19
437553,826510,1045360,438120.19,826601.63,1045116.06
437657,826400,1045235,437918.50,826472.25,1045034.88
437811,826399,1045276,437738.59,826357.50,1044964.75
438086,826384,1045329,437580.56,826256.06,1044904.31
438108,826356,1045116,437444.31,826167.31,1044853.25
438314,826545,1045157,437329.19,826090.75,1044810.63
438513,826624,1045455,437234.38,826026.25,1044776.00
438921,826753,1045481,437159.56,825973.75,1044749.88
439143,826894,1045689,437105.66,825933.19,1044732.50
439351,827350,1046349,437072.94,825904.38,1044723.69
439967,827555,1046291,437061.50,825887.81,1044724.00
440293,827699,1046427,437072.13,825884.63,1044734.75
440685,827996,1046495,437105.19,825895.38,1044756.50
441091,828555,1046951,437158.59,825920.75,1044789.13
441550,828846,1047053,437230.69,825961.81,1044833.13
441784,829032,1047163,437323.53,826019.00,1044888.25
442194,829845,1047730,437437.28,826092.13,1044953.88
442806,829988,1047968,437570.50,826181.75,1045030.50
443269,830037,1048115,437724.94,826288.00,1045118.88
443410,830278,1048615,437901.28,826409.63,1045218.44
443561,830704,1048542,438097.25,826545.63,1045327.94
443747,830748,1048555,438310.25,826695.38,1045447.19
444175,830900,1048572,438538.50,826857.50,1045575.13
443513,831298,1048934,438780.72,827030.75,1045710.69
444659,831252,1048928,439035.44,827214.50,1045853.25
444883,831273,1048886,439301.25,827406.63,1046001.56
444976,831425,1049060,439576.50,827604.56,1046153.63
445300,831341,1049002,439859.38,827806.50,1046308.13
445477,831493,1049051,440148.63,828011.00,1046464.13
445297,831606,1049064,440442.31,828216.88,1046620.63
445817,831735,1049386,440737.81,828423.50,1046777.25
446212,831828,1049423,441034.56,828630.00,1046934.06
446537,832157,1049551,441333.75,828836.19,1047090.88
446624,832989,1050409,441635.50,829042.38,1047247.31
446990,832938,1050254,441938.84,829249.63,1047403.88
447337,832984,1050172,442243.56,829458.75,1047561.75
447816,833276,1050415,442550.06,829669.63,1047720.75
448059,833417,1050316,442858.38,829881.88,1047880.25
447725,832845,1050069,443166.88,830093.75,1048038.50
447584,831992,1049404,443472.53,830300.50,1048192.25
445463,829553,1047451,443770.94,830494.63,1048336.25
444091,828290,1046379,444052.25,830665.69,1048462.00
443217,827061,1045766,444303.91,830801.50,1048560.25
441962,826273,1044976,444517.38,830894.88,1048626.37
439691,825429,1044631,444685.25,830943.38,1048659.12
439163,825149,1044515,444800.13,830946.94,1048659.25
438434,824928,1044635,444859.91,830907.75,1048629.37
437810,825303,1044692,444866.38,830830.19,1048573.69
437726,825321,1044625,444822.53,830720.19,1048495.88
437453,825269,1044786,444732.06,830583.19,1048399.31
437692,825381,1045430,444599.91,830423.25,1048287.63
437732,825455,1045140,444432.34,830244.38,1048164.63
437751,825628,1045172,444235.38,830051.25,1048033.56
437964,825560,1045254,444014.44,829847.88,1047897.06
438176,826013,1045457,443774.50,829638.25,1047757.50
438514,826069,1045580,443520.78,829426.44,1047617.25
438612,826304,1045777,443259.13,829215.56,1047478.75
438979,827314,1046775,442994.69,829008.00,1047343.81
439827,827213,1046543,442732.69,828807.50,1047214.75
440624,827552,1046853,442480.13,828618.06,1047095.19
441083,827917,1047162,442242.94,828443.13,1046987.88
441577,828479,1047333,442024.78,828285.25,1046894.13
441845,828335,1047374,441827.78,828145.94,1046814.38
442151,828354,1047383,441653.69,828024.63,1046748.00
441801,828527,1047441,441503.31,827920.06,1046693.88
442194,828234,1047395,441375.78,827830.88,1046650.94
442459,828321,1047326,441269.81,827755.63,1046618.19
442606,828498,1047496,441184.75,827693.50,1046594.75
443040,828644,1047691,441120.56,827644.50,1046580.25
443475,828894,1047928,441077.97,827608.63,1046575.44
443578,829247,1047967,441057.28,827586.63,1046580.75
443957,829700,1048329,441057.50,827579.00,1046596.13
444252,829692,1048463,441077.88,827585.75,1046622.00
444756,830003,1048605,441119.03,827607.13,1046658.38
445010,830186,1049488,441181.50,827643.38,1046704.88
445604,830654,1049323,441265.25,827694.44,1046762.13
445775,830832,1049528,441370.16,827760.69,1046830.88
445987,831000,1049443,441495.06,827841.63,1046910.75
446433,831680,1049963,441636.16,827937.13,1047001.00
446688,831833,1050052,441790.50,828047.94,1047101.50
447201,832010,1050279,441960.56,828173.50,1047212.06
447332,832799,1050806,442148.31,828312.50,1047331.75
447851,832727,1050746,442352.69,828464.25,1047460.00
448161,832670,1050719,442573.00,828628.31,1047596.31
448348,832778,1050815,442808.06,828803.00,1047739.75
448585,833175,1051038,443055.94,828986.88,1047889.13
448705,833217,1050986,443314.44,829179.13,1048043.50
448765,833275,1050986,443581.69,829378.38,1048201.44
448178,833338,1051279,443855.63,829582.81,1048361.50
449228,833320,1051201,444134.75,829790.38,1048522.75
449274,833551,1051060,444417.88,829999.88,1048684.37
449582,833533,1051607,444703.78,830210.38,1048844.75
450076,833770,1051587,444992.22,830420.94,1049003.62
450199,833997,1051466,445283.38,830631.25,1049161.75
450279,834033,1051630,445576.22,830841.25,1049318.62
450698,834532,1051968,445869.16,831050.19,1049474.37
450735,834596,1051951,446161.16,831258.25,1049629.50
451103,834639,1052168,446452.38,831465.75,1049783.75
451335,834892,1052918,446743.25,831672.56,1049937.25
451496,835475,1052785,447033.47,831879.31,1050090.75
451975,835590,1052860,447322.88,832087.25,1050245.37
452135,835879,1052854,447611.81,832296.75,1050400.75
452224,835860,1052958,447898.34,832508.13,1050556.12
452080,835205,1052430,448179.44,832719.75,1050709.62
451798,834070,1051493,448454.38,832924.75,1050857.00
451144,831416,1049497,448720.81,833113.31,1050991.25
448352,829956,1048424,448969.84,833273.75,1051104.25
446837,828944,1047569,449187.50,833394.06,1051186.25
445511,828002,1047096,449362.75,833467.81,1051233.00
443212,827140,1046573,449487.88,833493.00,1051244.00
442570,826912,1046354,449556.25,833470.00,1051220.00
441556,826743,1046451,449565.13,833401.75,1051164.00
440414,826750,1046644,449515.66,833293.00,1051079.62
440576,826600,1046500,449410.66,833148.50,1050971.25
440544,826679,1046617,449254.44,832973.38,1050843.00
440459,826889,1047052,449052.75,832772.88,1050698.75
440486,827128,1046964,448812.00,832553.00,1050542.75
440299,827046,1046940,448538.19,832318.63,1050378.50
440404,827237,1047001,448236.75,832073.63,1050208.50
440522,827469,1047718,447913.19,831821.88,1050036.12
440626,827455,1047537,447573.06,831567.00,1049865.37
440631,827606,1047501,447221.72,831312.00,1049697.87
440969,827874,1048135,446863.94,831060.13,1049534.50
441727,828358,1048215,446505.75,830814.75,1049377.62
442508,828623,1048427,446154.63,830579.88,1049230.12
442894,829045,1048720,445817.31,830358.50,1049094.25
442867,829555,1049122,445497.59,830153.75,1048971.62
443637,829620,1049281,445198.06,829968.25,1048864.12
444039,829777,1049197,444921.81,829802.19,1048771.75
444259,829996,1049304,444671.13,829655.19,1048693.75
444318,829834,1049211,444446.50,829526.50,1048628.50
444552,829870,1049412,444247.63,829415.13,1048575.63
444747,829930,1049565,444074.19,829320.13,1048534.94
445117,830206,1049731,443924.91,829241.25,1048506.63
445375,830296,1049776,443798.81,829178.25,1048490.38
445486,830411,1049809,443697.31,829130.88,1048485.44
446054,830988,1050324,443621.38,829098.63,1048491.50
446472,831056,1050423,443571.31,829081.75,1048509.38
446823,831234,1050645,443547.91,829080.75,1048539.25
447140,831563,1051494,443551.16,829095.94,1048580.87
447665,832116,1051392,443580.69,829127.81,1048634.87
448200,832318,1051282,443636.66,829177.13,1048701.50
448297,832600,1051470,443718.66,829243.75,1048779.75
448865,833283,1052441,443824.19,829327.38,1048869.37
449267,833256,1052207,443951.53,829428.06,1048971.25
449593,833511,1052405,444101.50,829544.94,1049085.25
449808,833862,1053031,444273.84,829677.38,1049210.00
449976,834364,1052898,444466.38,829825.13,1049344.75
450170,834368,1052969,444676.72,829987.88,1049489.37
450681,834576,1052988,444903.16,830163.88,1049642.37
450576,834948,1053228,445144.25,830352.13,1049802.37
451073,834878,1053311,445398.00,830551.50,1049968.37
451281,834989,1053411,445663.06,830759.69,1050139.50
451460,835480,1053658,445938.09,830974.63,1050314.62
451598,835419,1053598,446221.22,831195.19,1050492.75
451669,835339,1053538,446510.38,831420.25,1050672.75
451996,835496,1053754,446803.81,831648.00,1050853.00
452409,835643,1053950,447100.59,831877.19,1051033.50
452509,835748,1053952,447400.06,832107.00,1051213.75
452533,835894,1053899,447701.19,832336.63,1051392.75
452895,836394,1054237,448002.94,832565.13,1051569.62
453195,836388,1054266,448304.78,832792.38,1051744.12
453414,836568,1054406,448606.78,833018.75,1051916.50
453592,836704,1055002,448908.47,833244.56,1052086.75
454065,837346,1055176,449209.59,833470.13,1052255.75
454489,837557,1055211,449510.84,833696.81,1052425.12
454630,837748,1055181,449812.69,833925.13,1052594.87
454507,837926,1055532,450112.19,834155.38,1052764.50
454805,837293,1055015,450406.19,834386.13,1052933.00
454499,836414,1054104,450695.13,834611.50,1053096.25
453331,834762,1052235,450976.44,834822.13,1053247.50
450958,832124,1051080,451239.81,835005.88,1053377.75
449742,831049,1050310,451472.38,835149.75,1053478.00
448542,830120,1049782,451665.00,835247.13,1053544.00
446299,829376,1049141,451812.06,835296.88,1053574.25
445527,829106,1049078,451907.63,835300.50,1053569.75
444975,828902,1049106,451947.44,835259.56,1053533.12
444628,828791,1049219,451931.94,835177.19,1053468.25
444035,829096,1049320,451864.38,835058.75,1053379.50
444145,829079,1049419,451748.75,834910.13,1053271.37
444165,829260,1049529,451590.88,834736.63,1053147.75
444302,829450,1049664,451397.00,834543.38,1053012.25
444198,829531,1049934,451172.69,834335.31,1052868.37
444356,829537,1049840,450923.75,834116.38,1052719.25
444688,830162,1050150,450656.28,833890.13,1052567.12
444616,830125,1050289,450375.75,833660.75,1052414.62
444906,830110,1050353,450086.59,833431.75,1052264.00
445356,830401,1050590,449793.75,833205.88,1052117.50
446095,830983,1051220,449503.31,832986.50,1051977.75
446660,831234,1051353,449221.63,832777.56,1051847.87
446998,831684,1051702,448953.88,832582.25,1051730.00
446795,832622,1052613,448701.56,832403.63,1051626.25
447756,832318,1052171,448465.91,832244.44,1051537.87
448124,832250,1052035,448251.00,832104.38,1051464.50
448138,832190,1052303,448059.72,831981.75,1051404.00
448413,832378,1052092,447891.94,831875.56,1051355.25
448573,832302,1052096,447747.38,831785.00,1051317.50
448718,832300,1052132,447625.81,831708.94,1051290.00
448822,832459,1052539,447525.00,831646.50,1051272.50
449231,832776,1052457,447443.28,831597.75,1051265.37
449364,832694,1052422,447382.34,831562.75,1051268.00
449616,833250,1053109,447343.28,831540.50,1051279.00
449861,833142,1052980,447325.41,831530.56,1051298.75
450257,833522,1053222,447328.47,831533.75,1051328.25
450758,833747,1053209,447352.78,831550.88,1051367.50
451039,834328,1053790,447398.44,831582.63,1051416.87
451477,834492,1053612,447465.03,831630.00,1051476.37
451847,834821,1054007,447552.72,831693.00,1051545.62
451997,835305,1054828,447661.31,831771.13,1051624.50
452563,835419,1054548,447789.88,831863.94,1051713.25
452535,835628,1054639,447937.38,831971.38,1051812.00
453015,835711,1054904,448102.09,832092.69,1051920.00
453261,836361,1055243,448281.31,832227.25,1052037.50
453644,836445,1055346,448472.72,832375.25,1052164.12
453952,836515,1055281,448677.63,832535.69,1052298.87
453088,837157,1055941,448895.31,832707.13,1052440.37
454179,837056,1055625,449122.41,832889.00,1052588.00
454413,836879,1055608,449358.63,833079.50,1052740.37
454711,836901,1055862,449604.25,833275.88,1052896.00
455066,837344,1055771,449858.50,833476.56,1053053.87
455125,837213,1055835,450120.53,833680.94,1053213.00
455269,837181,1055953,450388.59,833887.38,1053372.75
454643,837609,1056326,450659.19,834094.13,1053533.12
455546,837680,1056273,450929.31,834300.81,1053694.25
455784,837900,1056290,451199.94,834507.88,1053855.50
456127,838460,1056737,451472.59,834715.19,1054015.75
456494,838576,1056812,451747.38,834923.25,1054174.75
456790,838806,1057192,452024.50,835133.00,1054334.25
457098,839018,1057080,452304.06,835345.00,1054495.12
457431,839437,1057621,452584.38,835559.38,1054657.25
457411,839348,1057367,452863.53,835776.00,1054820.50
457483,839192,1057215,453141.84,835993.25,1054983.50
457469,837502,1056295,453419.13,836207.38,1055142.87
455913,835978,1055016,453690.69,836409.63,1055292.75
454767,834685,1053934,453947.44,836587.19,1055424.12
453265,833491,1052897,454179.41,836730.19,1055529.25
450810,831997,1051956,454376.38,836832.25,1055603.12
449969,831396,1051615,454528.34,836888.50,1055642.75
449164,831157,1051413,454629.81,836898.69,1055648.50
447659,831280,1051781,454678.56,836866.50,1055623.00
447926,831132,1051575,454674.38,836796.94,1055570.00
447939,831002,1051484,454621.25,836694.25,1055493.37
447984,831187,1051854,454525.56,836562.63,1055396.62
447937,831533,1051901,454393.03,836407.38,1055283.00
447944,831569,1052105,454228.94,836234.06,1055157.62
448126,831746,1052104,454038.38,836047.25,1055024.25
447330,832122,1052575,453826.63,835850.88,1054886.00
448461,832219,1052494,453598.69,835649.06,1054746.12
448747,832206,1052481,453359.78,835445.31,1054606.25
449258,833069,1053031,453115.59,835241.94,1054467.62
450258,833198,1053218,452872.69,835042.31,1054332.50
450715,833584,1053569,452638.13,834851.63,1054204.50
451025,833890,1053817,452416.75,834673.88,1054086.75
451961,834428,1054302,452211.28,834511.63,1053981.25
452068,834602,1054270,452024.59,834367.19,1053889.50
452281,834549,1054328,451859.31,834241.00,1053811.50
452254,834729,1054567,451716.06,834132.13,1053746.25
452337,834550,1054283,451593.75,834039.50,1053692.75
452406,834341,1054151,451491.13,833961.25,1053649.75
452544,834399,1054266,451407.41,833895.38,1053616.00
452734,834589,1054304,451340.59,833841.25,1053590.75
452944,834760,1054476,451289.19,833798.94,1053573.75
453137,834814,1054603,451254.56,833768.38,1053565.37
453532,835777,1054701,451236.66,833749.88,1053565.50
453650,835586,1055107,451234.16,833744.50,1053574.00
454338,835756,1055261,451249.19,833753.13,1053592.25
454414,835904,1055721,451284.00,833775.31,1053620.75
454532,836369,1055921,451337.63,833811.13,1053660.37
455105,836739,1056037,451409.19,833861.19,1053711.37
455471,836985,1056160,451499.06,833926.25,1053773.50
455375,837558,1056807,451607.06,834006.50,1053846.50
456044,837695,1056725,451732.47,834102.25,1053931.50
456356,837814,1057005,451874.56,834212.75,1054027.50
456571,838428,1057305,452032.59,834337.06,1054133.75
456909,838412,1057324,452205.53,834474.38,1054249.37
457336,838538,1057534,452392.78,834624.13,1054374.00
457496,838829,1057591,452593.75,834785.19,1054506.87
457597,839051,1057829,452806.69,834956.81,1054647.00
457945,839225,1057879,453029.78,835138.25,1054793.87
458050,839225,1057916,453262.00,835327.94,1054946.00
458260,839709,1058206,453502.22,835524.00,1055102.25
458421,839618,1058108,453749.00,835725.13,1055261.50
458702,839643,1058135,454001.25,835930.69,1055422.75
458769,839452,1058028,454257.91,836138.88,1055584.75
459027,839654,1058284,454517.19,836347.63,1055746.25
459010,839807,1058158,454777.31,836556.00,1055906.75
459230,839877,1058298,455037.69,836763.50,1056065.50
459257,840658,1058656,455297.88,836970.13,1056222.00
459711,840450,1058625,455557.31,837176.19,1056376.75
459936,840596,1058879,455816.31,837382.00,1056530.00
460120,840784,1059400,456075.00,837587.19,1056682.00
460404,841276,1059335,456333.13,837792.31,1056833.25
460825,841428,1059319,456591.06,837998.25,1056984.37
461021,841727,1059564,456849.25,838205.38,1057135.25
460962,841813,1059418,457107.16,838414.13,1057285.50
461074,840901,1058992,457363.03,838622.38,1057433.37
460321,839520,1058031,457614.34,838822.50,1057574.25
459346,836558,1056060,457855.59,839004.00,1057701.50
456541,835323,1054937,458076.09,839154.56,1057806.12
455186,834198,1054134,458262.16,839262.25,1057879.25
453843,833476,1053481,458403.94,839320.94,1057916.87
451993,832715,1053167,458495.72,839330.75,1057918.25
451367,832496,1053048,458533.22,839293.75,1057884.87
450474,832226,1053024,458514.31,839212.13,1057820.25
450168,832636,1053401,458439.91,839089.44,1057727.87
449435,832356,1053110,458312.91,838931.13,1057611.75
449580,832439,1053249,458137.47,838743.25,1057476.00
449299,832527,1053208,457919.22,838531.25,1057325.00
449159,832670,1053399,457663.84,838300.25,1057162.00
449150,832595,1053459,457376.66,838054.75,1056990.37
449293,832600,1053496,457063.31,837798.25,1056812.87
448802,832916,1053624,456729.13,837534.06,1056632.00
449028,833012,1053654,456378.19,837266.00,1056450.00
449327,833010,1053709,456015.19,836997.69,1056268.75
449424,833199,1054105,455645.44,836732.00,1056090.50
450138,833852,1054493,455274.69,836472.50,1055917.87
450686,834273,1054708,454909.53,836223.75,1055754.50
451184,834524,1055016,454556.19,835989.56,1055602.87
451667,835125,1055492,454219.00,835772.13,1055465.12
451990,835161,1055260,453901.19,835573.00,1055342.50
452286,835080,1055525,453606.00,835393.44,1055234.50
452279,835160,1056087,453335.19,835232.88,1055140.75
452617,835197,1055624,453089.06,835090.56,1055060.62
452841,835230,1055727,452868.13,834965.75,1054994.00
452759,835269,1055589,452672.31,834857.44,1054940.00
453089,835531,1055890,452498.91,834765.63,1054898.00
453361,835716,1055979,452346.06,834690.94,1054867.62
453667,835738,1056114,452216.69,834632.63,1054849.12
454152,836520,1056571,452113.41,834589.88,1054841.87
454477,836462,1056649,452036.88,834563.25,1054845.75
454636,836587,1056660,451986.88,834553.13,1054861.75
455014,836915,1056815,451962.50,834559.50,1054889.00
455476,837445,1057245,451962.25,834582.69,1054927.87
455864,837720,1057415,451985.03,834623.63,1054978.50
456288,837912,1057644,452032.34,834682.31,1055041.25
455609,838436,1058134,452104.44,834758.00,1055115.75
456633,838598,1058189,452199.22,834850.63,1055202.25
456894,838806,1058394,452315.13,834959.50,1055300.25
457116,839076,1058735,452450.88,835083.88,1055409.00
457550,839449,1058840,452605.25,835223.00,1055527.87
457917,839589,1058822,452777.53,835376.38,1055656.25
458114,839675,1059016,452966.91,835542.50,1055793.12
458475,840094,1059598,453171.56,835719.69,1055938.25
458664,840132,1059374,453389.81,835907.00,1056091.50
458936,840356,1059539,453620.75,836103.38,1056251.75
458944,840332,1059841,453863.00,836307.25,1056416.50
459062,840650,1059677,454114.25,836517.38,1056584.75
459329,840680,1059571,454372.44,836732.63,1056755.12
459553,840659,1059655,454636.56,836951.38,1056926.50
459346,841008,1059905,454904.88,837172.38,1057098.00
459802,840996,1059970,455175.38,837395.13,1057269.62
460102,841065,1060078,455447.66,837618.38,1057441.00
460408,841817,1060493,455722.09,837840.94,1057611.75
460588,841714,1060464,455998.38,838063.13,1057782.25
460998,841986,1060628,456276.28,838285.69,1057952.37
461043,841953,1060813,456555.50,838508.69,1058122.25
461313,842517,1061009,456833.38,838731.88,1058291.75
461714,842677,1061156,457108.06,838955.75,1058461.25
461805,843014,1061469,457381.88,839181.06,1058630.75
462212,843238,1061625,457656.25,839407.50,1058800.75
462159,842785,1061244,457930.44,839633.63,1058969.50
461989,842006,1060595,458202.94,839855.56,1059134.50
461475,840682,1059066,458470.56,840066.19,1059290.00
459077,837943,1057695,458725.38,840254.00,1059428.25
457630,836587,1056637,458954.63,840405.50,1059539.25
456184,835666,1056044,459147.31,840512.13,1059616.75
453744,834786,1055698,459295.38,840571.94,1059659.50
452964,834302,1055150,459391.53,840585.38,1059668.00
452338,834106,1054937,459431.16,840552.94,1059643.00
452039,833970,1055383,459414.84,840477.19,1059586.75
451086,834147,1054974,459345.28,840363.31,1059503.00
451127,834077,1055135,459225.25,840216.81,1059396.12
450891,834204,1055238,459059.56,840042.94,1059270.50
450612,834497,1055531,458853.53,839847.38,1059130.50
450874,834604,1055453,458612.44,839635.75,1058979.75
450959,834580,1055661,458342.72,839412.13,1058821.62
451173,834793,1055929,458050.88,839179.56,1058658.37
451083,834927,1055942,457742.38,838941.63,1058492.75
451416,834975,1055935,457422.06,838701.75,1058327.25
451640,835089,1056059,457095.19,838463.00,1058163.75
452425,835740,1056638,456766.59,838228.44,1058005.00
452630,835998,1056840,456441.31,838002.50,1057854.25
453334,836523,1057108,456126.03,837788.88,1057713.75
454139,837183,1057666,455826.47,837590.50,1057585.62
454025,837252,1057734,455546.00,837409.88,1057471.62
454603,837310,1057715,455287.56,837248.50,1057372.50
454653,837461,1057630,455053.44,837106.69,1057287.25
455027,837338,1057901,454844.38,836983.56,1057215.25
454941,837400,1057829,454660.38,836877.81,1057156.00
455188,837277,1057864,454500.56,836788.00,1057109.00
455092,838171,1058513,454362.69,836713.88,1057073.75
455700,837854,1058265,454245.19,836656.38,1057050.75
455910,837890,1058287,454150.19,836614.94,1057039.50
456176,838025,1058591,454079.31,836587.81,1057038.75
456628,838427,1058789,454032.38,836574.88,1057048.62
457033,838547,1058741,454009.88,836576.44,1057069.25
456914,838823,1058957,454011.19,836592.50,1057100.25
457593,839367,1059538,454033.34,836623.19,1057141.75
458052,839584,1059746,454075.19,836668.94,1057195.37
458444,840015,1059862,454139.41,836730.63,1057261.00
458617,840550,1060411,454227.19,836808.94,1057338.25
459006,840723,1060386,454337.25,836903.88,1057426.37
459194,840989,1060631,454468.13,837015.44,1057525.75
459448,841169,1060732,454618.38,837142.81,1057635.75
459650,841472,1060889,454786.06,837284.94,1057755.75
460152,841733,1061129,454969.81,837441.00,1057884.87
460346,841778,1061288,455169.13,837609.75,1058022.50
460676,842165,1061885,455383.28,837789.50,1058167.50
460806,842282,1061679,455610.88,837979.25,1058319.00
461135,842437,1061663,455850.25,838178.00,1058476.75
461208,842372,1061632,456099.75,838384.25,1058639.25
461310,842623,1061843,456356.31,838596.00,1058805.00
461578,842601,1061765,456617.25,838811.94,1058973.00
461834,842726,1061889,456882.75,839030.50,1059142.00
460746,843308,1062499,457151.22,839251.25,1059312.00
461882,843180,1062177,457419.16,839474.25,1059483.37
461996,843223,1062097,457686.78,839698.50,1059654.50
462545,843366,1062633,457955.34,839922.38,1059824.00
462848,843853,1062734,458225.56,840145.81,1059992.12
462862,843940,1062520,458497.38,840369.50,1060159.25
463121,844140,1062818,458769.69,840593.25,1060325.00
462752,844708,1063440,459040.13,840817.00,1060490.25
463762,844914,1063596,459307.25,841041.75,1060656.87
464090,845047,1063575,459573.75,841268.00,1060825.12
464234,845282,1063690,459841.75,841495.19,1060994.00
464312,844632,1063242,460110.31,841721.13,1061161.75
463909,843616,1062290,460377.25,841940.94,1061324.00
463164,842208,1061336,460638.13,842146.44,1061474.50
460645,839532,1059416,460885.75,842326.00,1061604.37
459335,838508,1058643,461109.06,842467.00,1061705.12
458079,837530,1057899,461295.44,842562.63,1061771.75
457115,836686,1057762,461436.97,842610.88,1061803.37
455795,836422,1057311,461529.63,842611.88,1061800.87
455303,836216,1057201,461571.00,842568.00,1061766.25
454957,836195,1057211,461561.94,842483.13,1061702.62
454404,836223,1057335,461503.78,842362.38,1061613.75
454538,836305,1057279,461398.88,842210.88,1061503.75
454486,836498,1057469,461254.25,842034.25,1061376.12
454188,836991,1057736,461076.06,841837.88,1061234.37
454528,836748,1057517,460868.25,841626.88,1061081.50
454794,836773,1057610,460637.75,841405.06,1060920.25
455035,836893,1057996,460391.44,841175.50,1060754.25
454996,837087,1058105,460134.31,840941.63,1060586.50
455579,837428,1058216,459870.88,840707.25,1060420.25
455959,837606,1058432,459606.56,840476.13,1060257.50
455947,838427,1059057,459346.25,840251.75,1060101.00
457033,838728,1059130,459094.38,840038.50,1059954.50
457403,839020,1059360,458856.06,839840.19,1059819.25
457765,839346,1059762,458635.06,839658.88,1059696.25
458059,839264,1059657,458433.50,839495.19,1059586.00
458247,839283,1059588,458252.63,839348.88,1059488.75
457982,839119,1059483,458092.06,839218.88,1059403.37
458224,839138,1059521,457950.19,839103.75,1059329.00
458337,839033,1059458,457826.09,839002.13,1059264.37
458509,839037,1059531,457720.06,838912.88,1059209.00
458338,839558,1060103,457631.59,838835.44,1059162.37
458759,839487,1059801,457559.75,838770.13,1059124.12
458977,839493,1059818,457504.75,838717.25,1059094.75
459121,839646,1059912,457466.81,838676.63,1059074.12
459700,840178,1060340,457445.50,838648.50,1059062.75
460047,840489,1060465,457441.31,838634.44,1059061.37
460355,840835,1060802,457455.81,838635.69,1059070.75
460739,841435,1061148,457489.69,838652.69,1059091.62
461173,841607,1061432,457542.75,838685.88,1059124.75
461229,841670,1061536,457615.19,838735.75,1059170.25
461855,842010,1061885,457706.63,838801.69,1059227.87
462014,842480,1062135,457816.81,838883.63,1059297.25
462454,842566,1062227,457945.31,838981.56,1059378.50
462393,842682,1062184,458090.81,839094.25,1059470.75
462606,843237,1062476,458250.69,839220.13,1059572.75
462694,843155,1062567,458422.28,839358.25,1059683.75
462849,843129,1062553,458604.59,839507.38,1059802.50
463196,843535,1063202,458796.94,839666.13,1059927.87
463453,843608,1062952,458998.75,839833.56,1060058.75
463521,843537,1062818,459209.16,840008.50,1060195.00
463699,843858,1062993,459426.63,840189.50,1060334.75
463653,843856,1062942,459647.88,840376.00,1060477.25
464051,843882,1063074,459870.19,840567.06,1060621.25
464188,844059,1063114,460094.94,840760.75,1060766.25
464170,844654,1063715,460323.03,840955.75,1060911.25
464594,844677,1063647,460553.31,841151.88,1061056.37
464799,844841,1063803,460785.75,841350.00,1061202.75
465038,844977,1063856,461020.34,841550.50,1061351.00
465503,845444,1064202,461256.69,841753.06,1061500.50
465637,845598,1064220,461494.69,841958.38,1061651.75
465964,845862,1064393,461734.88,842166.50,1061804.25
465299,846271,1064881,461977.38,842376.75,1061958.00
466202,846208,1064982,462221.34,842588.75,1062113.50
466356,846105,1064676,462465.88,842801.50,1062270.75
466200,845369,1063190,462709.59,843012.38,1062426.50
464663,842716,1062013,462947.75,843212.25,1062573.50
463503,841257,1060958,463171.25,843387.25,1062701.00
462112,840143,1060094,463370.56,843526.81,1062801.25
459874,838714,1059227,463537.19,843625.56,1062869.75
459159,838071,1058892,463663.19,843680.13,1062904.62
458395,837695,1058611,463742.81,843688.63,1062906.12
457879,837701,1058771,463774.47,843652.94,1062876.25
457037,837588,1058529,463758.69,843577.75,1062818.37
457032,837525,1058464,463697.06,843467.56,1062735.75
457017,837723,1058622,463593.94,843327.38,1062632.00
456968,838001,1058895,463453.44,843162.69,1062511.25
457312,838011,1058871,463280.25,842979.19,1062377.62
457442,838193,1059027,463082.13,842781.19,1062234.37
457835,838902,1059040,462866.41,842572.63,1062084.37
458029,838695,1059308,462638.81,842357.75,1061930.50
458131,838716,1059560,462404.03,842140.56,1061775.87
458479,838961,1059588,462165.94,841924.19,1061622.75
458813,839529,1060120,461926.75,841712.13,1061473.50
459419,839889,1060239,461689.38,841508.63,1061331.00
459756,840253,1060671,461460.75,841317.06,1061198.00
460183,840949,1061211,461246.25,841140.25,1061076.25
460590,840932,1060900,461048.50,840980.38,1060967.00
460868,840832,1061045,460870.06,840838.13,1060870.37
461013,840942,1061006,460712.25,840713.00,1060785.75
461103,840694,1060936,460575.00,840603.50,1060712.00
460890,840724,1060828,460457.19,840508.00,1060648.25
461104,840696,1060852,460357.16,840425.19,1060593.50
461244,840980,1061467,460274.06,840354.25,1060548.25
461606,841085,1061266,460208.00,840295.31,1060513.25
