27658,189833,201191,34,-21,1024,1
27576,189852,201142,34,-22,1032,1
27632,189808,201183,23,-18,1032,1
27611,189816,201135,23,-18,1027,1
27576,189770,201244,26,-18,1029,1
27632,189766,201178,31,-9,1029,1
27559,189736,201130,25,-9,1020,1
27551,189783,201104,25,-22,1050,1
27552,189792,201127,26,-18,1050,1
27679,189772,201158,30,-18,1018,1
27615,189788,201210,30,-15,1035,1
27557,189784,201102,23,-23,1035,1
27573,189713,201140,25,-23,1032,1
27564,189725,201121,25,-26,1005,1
27583,189834,201110,23,-29,1005,1
27524,189744,201109,23,-29,1037,1
27535,189800,201184,23,-20,1021,1
27593,189715,201121,28,-21,1021,1
27553,189744,201138,24,-21,1018,1
27579,189738,201031,24,-23,1026,1
27533,189700,201038,18,-25,1026,1
27499,189724,201033,29,-15,1024,1
27514,189664,201030,24,-15,1027,1
27516,189702,201061,24,-27,1027,1
27461,189609,201015,27,-31,1043,1
27529,189754,201050,27,-31,1024,1
27504,189683,201079,27,-26,1027,1
27501,189691,201044,17,-26,1027,1
27509,189690,201037,17,-21,1024,1
27518,189653,201032,18,-21,1027,1
27519,189655,200998,28,-18,1027,1
27539,189667,201051,20,-18,1018,1
27458,189547,200992,20,-18,1044,1
27481,189595,200986,8,-21,1044,1
27477,189667,200997,24,-21,1043,1
27463,189627,200913,24,-22,1030,1
27447,189607,200930,29,-24,1030,1
27504,189700,200925,29,-24,1017,1
27426,189698,200908,29,-25,1026,1
27550,189680,201039,16,-22,1026,1
27438,189588,200966,27,-22,1029,1
27528,189633,200987,27,-18,1033,1
27517,189646,200943,37,-26,1033,1
27445,189581,200881,29,-26,1032,1
27445,189673,200948,29,-22,1020,1
27485,189626,200933,19,-13,1020,1
27493,189616,200964,18,-13,1026,1
27479,189640,200945,18,-20,1035,1
27523,189760,200984,21,-23,1035,1
27569,189762,201011,24,-23,1043,1
27542,189670,200973,29,-25,1026,1
27559,189727,200982,29,-21,1040,1
27536,189660,200930,18,-21,1040,1
27473,189746,200951,18,-20,1016,1
27524,189752,201073,13,-21,1016,1
27593,189655,201015,21,-21,1040,1
27548,189786,201014,26,-28,1040,1
27569,189790,200971,26,-21,1035,1
27501,189731,200974,25,-20,1035,1
27540,189818,201024,17,-20,1017,1
27533,189792,200940,17,-20,1007,1
27588,189843,200999,21,-21,1007,1
27566,189874,200908,25,-21,1035,1
27609,189827,200939,25,-25,1027,1
27605,189808,200966,21,-27,1027,1
27616,189774,200965,26,-27,1040,1
27523,189735,200935,26,-17,1030,1
27604,189798,200907,17,-22,1030,1
27578,189817,200888,19,-22,1018,1
27561,189821,200923,19,-15,1044,1
27608,189841,200958,25,-19,1044,1
27672,189864,201027,20,-19,1037,1
27584,189818,200966,20,-24,1046,1
27618,189806,200899,19,-18,1046,1
27566,189873,200937,21,-21,1049,1
27622,189910,200957,18,-21,1023,1
27664,189895,200952,18,-16,1020,1
27622,189824,200962,24,-24,1020,1
27654,189924,200980,24,-24,1033,1
27620,189892,201000,29,-21,1033,1
27625,189914,201022,25,-21,1020,1
27634,189899,200992,25,-24,1030,1
27710,189900,201056,21,-18,1030,1
27583,189932,200947,30,-34,1030,1
27704,189935,201015,27,-34,1044,1
27653,189907,200963,27,-27,1024,1
27644,189914,200960,12,-18,1024,1
27694,189909,200981,30,-18,1026,1
27659,189961,200959,30,-17,1035,1
27653,189936,200949,32,-19,1035,1
27591,189966,200929,21,-19,1016,1
27611,189902,200901,21,-18,1029,1
27608,189865,200905,21,-18,1029,1
27614,189948,200904,21,-18,1032,1
27580,189924,200924,21,-30,1052,1
27686,189924,200864,29,-6,1052,1
27615,189913,200865,24,-6,1007,1
27604,189936,200851,24,-22,1030,1
27604,189903,200804,17,-19,1030,1
27659,189916,200827,21,-19,1024,1
27652,189960,200924,21,-21,1044,1
27599,189940,200925,14,-24,1044,1
27603,189923,200950,19,-15,1044,1
27621,189970,200942,19,-15,1026,1
27573,189903,200910,19,-18,1026,1
27641,189957,200826,18,-18,1018,1
27563,189916,200821,18,-19,1027,1
27586,189905,200827,7,-21,1027,1
27608,189886,200852,25,-28,1027,1
27544,189825,200804,21,-28,1024,1
27652,189964,200850,21,-19,1032,1
27632,189886,200884,20,-18,1032,1
27577,189894,200767,17,-18,1008,1
27630,189923,200846,17,-15,1037,1
27558,189905,200839,26,-18,1037,1
27621,189958,200855,24,-18,1027,1
27604,189911,200843,24,-21,1029,1
27642,189922,200860,23,-15,1029,1
27616,189991,200865,20,-15,1040,1
27566,189935,200813,20,-25,1011,1
27542,189960,200842,17,-27,1011,1
27575,189964,200861,21,-27,1032,1
27586,189973,200838,21,-19,1049,1
27548,189940,200833,29,-15,1049,1
27535,189977,200854,24,-15,1050,1
27588,189939,200904,24,-15,1020,1
27574,189879,200832,18,-15,1020,1
27549,189919,200822,20,-17,1029,1
27551,189941,200862,12,-17,1035,1
27577,189962,200830,12,-14,1038,1
27525,190051,200880,15,-14,1038,1
27605,189978,200834,15,-9,1040,1
27631,190003,200900,17,-18,1044,1
27625,189976,200842,14,-19,1044,1
27673,189999,200899,15,-19,1044,1
27610,190008,200866,15,-18,1038,1
27672,189977,200852,20,-23,1038,1
27663,190027,200830,27,-23,1027,1
27668,190055,200879,27,-19,1029,1
27568,190016,200893,27,-13,1029,1
27587,190093,200920,15,-13,1030,1
27629,190009,200844,15,-14,1020,1
27694,189987,200922,23,-23,1020,1
27673,190012,200830,18,-23,1018,1
27699,189947,200903,18,-15,1021,1
27651,190051,200853,18,-15,1021,1
27655,189953,200817,24,-15,1029,1
27681,189988,200815,24,-17,1021,1
27628,190039,200804,24,-20,1021,1
27608,189995,200760,25,-20,1038,1
27528,189943,200776,25,-17,1032,1
27642,189958,200786,18,-24,1032,1
27607,190047,200820,29,-24,1046,1
27625,190014,200847,29,-15,1027,1
27592,190046,200868,24,-12,1027,1
27577,189980,200856,26,-12,1020,1
27587,189867,200772,31,-21,1020,1
27595,189952,200721,31,-14,1020,1
27638,189986,200805,24,-18,1020,1
27630,189990,200754,24,-18,1010,1
27620,189997,200859,18,-9,1027,1
27668,189923,200730,30,-21,1027,1
27603,189974,200726,28,-21,1030,1
27595,190017,200704,28,-18,1035,1
27697,190066,200808,23,-18,1035,1
27643,190036,200786,17,-18,1033,1
27649,189944,200760,17,-18,1026,1
27750,190026,200765,24,-18,1026,1
27651,189990,200796,28,-18,1035,1
27570,189946,200707,28,-16,1029,1
27641,190053,200736,21,-18,1029,1
27665,190040,200788,29,-18,1038,1
27597,189961,200668,29,-20,1044,1
27612,189997,200701,24,-18,1044,1
27616,190056,200775,25,-18,1035,1
27699,190039,200792,25,-19,1018,1
27646,190036,200800,27,-12,1018,1
27600,190019,200794,23,-12,1029,1
27680,189973,200782,23,-24,1017,1
27710,190030,200749,23,-20,1017,1
27681,190033,200727,24,-20,1021,1
27652,190063,200750,17,-21,1023,1
27586,189976,200677,17,-20,1035,1
27582,190031,200717,16,-17,1035,1
27660,190019,200770,16,-17,1029,1
27630,189962,200726,24,-23,1030,1
27634,189997,200730,19,-19,1030,1
27582,189939,200757,24,-19,1040,1
27638,190013,200695,24,-12,1023,1
27603,189957,200660,20,-20,1023,1
27673,189898,200629,21,-20,1026,1
27675,189953,200614,21,-21,1043,1
27583,189862,200618,21,-19,1043,1
27581,189885,200630,19,-19,1027,1
27581,189964,200597,19,-21,1037,1
27573,189914,200531,27,-18,1037,1
27567,189892,200635,27,-18,1032,1
27512,189788,200563,27,-17,1040,1
27543,189838,200463,27,-12,1040,1
27565,189851,200595,24,-12,1038,1
27543,189857,200624,24,-13,1024,1
27487,189825,200527,25,-20,1024,1
27489,189717,200473,23,-20,1033,1
27476,189737,200545,23,-18,1043,1
27483,189804,200547,24,-22,1043,1
27525,189808,200507,24,-22,1032,1
27383,189869,200496,24,-19,1023,1
27483,189737,200479,24,-18,1023,1
27400,189787,200446,30,-18,1038,1
27467,189730,200566,30,-24,1050,1
27513,189708,200546,30,-15,1040,1
27608,189780,200547,20,-15,1040,1
27422,189774,200505,20,-19,1037,1
27462,189771,200457,28,-21,1041,1
27482,189746,200503,25,-18,1041,1
27447,189707,200436,24,-18,1035,1
27496,189758,200395,24,-16,1029,1
27467,189748,200538,15,-19,1029,1
27447,189694,200429,19,-19,1037,1
27432,189758,200487,19,-20,1026,1
27450,189728,200456,29,-18,1026,1
27479,189792,200487,23,-18,1026,1
27512,189755,200459,23,-23,1043,1
27432,189746,200463,24,-14,1043,1
27483,189721,200502,27,-14,1026,1
27479,189754,200473,27,-17,1044,1
27485,189782,200566,21,-15,1044,1
27470,189814,200438,25,-15,1038,1
27500,189746,200451,25,-20,1029,1
27531,189760,200502,26,-9,1029,1
27509,189825,200418,27,-9,1050,1
27510,189759,200408,27,-12,1004,1
27476,189761,200441,27,-20,1027,1
27475,189739,200494,23,-20,1027,1
27441,189712,200456,23,-20,1017,1
27490,189726,200451,20,-14,1017,1
27420,189786,200471,24,-14,1035,1
27431,189782,200489,25,-15,1047,1
27483,189760,200453,25,-22,1044,1
27494,189752,200410,31,-18,1044,1
27510,189718,200373,24,-18,1035,1
27471,189758,200508,24,-21,1021,1
27487,189759,200383,19,-19,1021,1
27490,189773,200365,30,-19,1021,1
27546,189735,200364,30,-15,1026,1
27425,189807,200429,27,-16,1026,1
27485,189786,200465,27,-16,1026,1
27519,189720,200481,27,-12,1026,1
27473,189766,200436,26,-19,1026,1
27475,189741,200401,21,-19,1035,1
27467,189727,200402,21,-18,1032,1
27459,189771,200451,16,-19,1032,1
27456,189729,200424,27,-19,1027,1
27513,189688,200419,27,-24,1017,1
27522,189731,200368,27,-23,1017,1
27494,189798,200408,16,-23,1040,1
27542,189741,200355,16,-11,1030,1
27472,189743,200368,26,-20,1030,1
27477,189769,200417,21,-20,1037,1
27498,189841,200389,21,-18,1032,1
27560,189729,200341,23,-14,1030,1
27464,189817,200397,21,-22,1030,1
27585,189771,200385,21,-22,1023,1
27476,189764,200325,23,-14,1023,1
27497,189826,200359,27,-14,1032,1
27427,189786,200402,30,-23,1041,1
27591,189793,200347,30,-15,1027,1
27564,189847,200379,28,-13,1027,1
27535,189786,200434,26,-13,1041,1
27489,189823,200400,26,-19,1041,1
27461,189798,200373,19,-18,1041,1
27558,189773,200406,24,-18,1043,1
27541,189844,200416,24,-12,1016,1
27460,189813,200408,26,-16,1016,1
27543,189839,200385,24,-16,1030,1
27545,189859,200434,24,-26,1047,1
27475,189805,200359,21,-14,1047,1
27487,189775,200377,23,-14,1004,1
27516,189906,200373,23,-24,1044,1
27560,189849,200383,24,-21,1044,1
27493,189794,200332,29,-21,1043,1
27440,189719,200326,29,-21,1020,1
27442,189829,200332,28,-25,1050,1
27505,189772,200317,32,-25,1050,1
27533,189841,200309,32,-21,1038,1
27507,189742,200307,28,-19,1038,1
27514,189729,200255,19,-19,1024,1
27436,189873,200373,19,-17,1016,1
27512,189780,200266,18,-18,1016,1
27514,189724,200301,26,-19,1032,1
27532,189764,200273,26,-19,1024,1
27419,189723,200189,18,-21,1047,1
27474,189816,200294,28,-20,1047,1
27473,189664,200265,20,-20,1007,1
27378,189670,200271,20,-20,1024,1
27458,189680,200223,21,-19,1024,1
27456,189635,200251,30,-19,1027,1
27414,189697,200320,30,-14,1030,1
27446,189673,200267,27,-13,1030,1
27458,189663,200153,26,-13,1035,1
27453,189686,200221,26,-16,1030,1
27343,189599,200172,32,-15,1030,1
27453,189657,200208,27,-15,1032,1
27423,189570,200182,27,-18,1024,1
27372,189627,200224,30,-18,1024,1
27370,189570,200172,18,-18,1030,1
27364,189651,200183,18,-20,1047,1
27341,189601,200218,26,-24,1047,1
27378,189570,200066,32,-17,1046,1
27352,189575,200097,24,-17,1033,1
27394,189582,200163,24,-21,1030,1
27324,189604,200127,17,-18,1030,1
27394,189637,200171,17,-18,1021,1
27383,189507,200048,26,-15,1021,1
27324,189559,200051,23,-15,1020,1
27343,189590,200114,23,-19,1018,1
27395,189545,200088,26,-15,1035,1
27357,189592,200061,23,-21,1035,1
27311,189639,200121,27,-21,1018,1
27310,189598,200118,27,-15,1021,1
27297,189531,200012,25,-17,1021,1
27410,189526,200026,27,-17,1044,1
27279,189539,200117,27,-15,1030,1
27342,189555,200078,24,-19,1030,1
27315,189578,200110,28,-19,1008,1
27334,189560,200020,28,-14,1023,1
27342,189605,200080,19,-14,1023,1
27349,189622,200157,27,-14,1021,1
27288,189541,200040,27,-16,1032,1
27324,189592,200055,27,-14,1032,1
27357,189577,200061,27,-14,1029,1
27428,189632,200114,27,-18,1024,1
27349,189667,200054,30,-15,1024,1
27461,189635,200132,30,-15,1040,1
27356,189628,200026,30,-14,1032,1
27361,189642,200033,30,-18,1032,1
27366,189620,200068,27,-18,1024,1
27351,189662,200068,25,-19,1035,1
27357,189593,200012,25,-17,1029,1
27357,189652,199975,26,-17,1029,1
27420,189666,200043,26,-19,1037,1
27385,189577,200071,32,-22,1014,1
27368,189572,200044,25,-18,1014,1
27383,189606,200095,30,-18,1026,1
27396,189564,200031,30,-19,1043,1
27349,189542,200011,32,-14,1043,1
27354,189635,200040,28,-14,1035,1
27342,189594,200063,28,-24,1021,1
27311,189539,200028,21,-15,1021,1
27351,189535,200018,21,-15,1037,1
27358,189486,199962,21,-23,1023,1
27346,189532,199998,30,-15,1023,1
27245,189474,199913,26,-15,1054,1
27328,189643,200029,26,-18,1046,1
27467,189559,200016,27,-14,1046,1
27376,189609,199981,18,-14,1027,1
27346,189615,200029,18,-13,1046,1
27277,189534,199987,30,-21,1035,1
27385,189532,199884,21,-24,1035,1
27313,189489,199963,21,-24,1016,1
27324,189479,199932,32,-18,1016,1
27294,189508,199906,24,-18,1030,1
27352,189516,199936,35,-15,1004,1
27273,189542,199950,35,-21,1026,1
27310,189534,199968,35,-21,1026,1
27322,189483,199847,30,-18,1041,1
27332,189459,199910,30,-18,1024,1
27293,189564,199946,21,-14,1024,1
27413,189608,199914,26,-14,1014,1
27357,189587,199943,26,-18,1029,1
27307,189496,199904,30,-6,1029,1
27317,189544,199868,23,-6,1046,1
27368,189503,199892,23,-19,1024,1
27292,189544,199915,21,-17,1024,1
27313,189518,199941,21,-17,1014,1
27343,189538,199952,21,-20,1037,1
27296,189475,199805,21,-18,1037,1
27278,189467,199857,29,-18,1049,1
27374,189498,199888,29,-12,1020,1
27374,189471,199820,27,-19,1020,1
27353,189534,199865,34,-19,1033,1
27293,189481,199889,26,-13,1029,1
27378,189499,199843,26,-24,1017,1
27354,189481,199888,36,-24,1017,1
27431,189499,199871,36,-18,1030,1
27346,189407,199791,28,-16,1030,1
27343,189411,199772,27,-16,1023,1
27343,189484,199819,27,-22,1053,1
27368,189427,199850,31,-16,1035,1
27303,189378,199755,23,-30,1035,1
27305,189390,199710,14,-30,1016,1
27223,189411,199779,14,-3,1033,1
27273,189352,199768,27,-15,1033,1
27288,189474,199862,24,-15,1029,1
27242,189390,199821,24,-6,1041,1
27241,189374,199825,25,-55,1041,1
27229,189328,199692,31,-55,1020,1
27278,189275,199823,31,-30,1004,1
27314,189435,199814,-11,-31,1004,1
27244,189332,199929,6,-31,1027,1
27255,189363,199863,6,-39,1018,1
27211,189295,199774,35,-40,1018,1
27261,189191,199810,-105,-40,1008,1
27123,189195,199657,-105,-14,985,1
27126,189112,199635,-105,-30,985,1
27218,189166,199668,139,-30,1007,1
27144,189125,199588,139,-18,1059,1
27137,189140,199629,9,-15,1043,1
27209,189245,199599,-41,-15,1043,1
27156,189213,199619,9,-23,1059,1
27164,189199,199577,9,-15,1037,1
27218,189269,199628,205,-15,1037,1
27229,189248,199576,205,-9,1021,1
27194,189217,199686,-32,-21,1038,1
27233,189195,199657,-9,-29,1038,1
27192,189179,199617,-10,-29,1040,1
27140,189227,199531,-10,-19,1017,1
27146,189204,199554,-135,-15,1017,1
27117,189190,199543,-10,-15,1016,1
27184,189287,199568,-10,-6,999,1
27265,189297,199640,153,-24,999,1
27225,189294,199607,13,-24,1043,1
27207,189238,199542,13,-27,1026,1
27236,189283,199584,15,-9,1026,1
27232,189287,199569,21,-9,1032,1
27242,189338,199601,21,-11,1033,1
27241,189326,199524,-18,-26,1033,1
27207,189372,199564,9,-26,1033,1
27217,189394,199590,9,-37,1029,1
27178,189414,199557,-6,-29,1029,1
27270,189432,199574,-13,-29,1033,1
27216,189417,199582,9,-20,1029,1
27202,189434,199654,9,-16,1008,1
27285,189573,199539,1,-16,1008,1
27326,189553,199663,5,-12,1020,1
27361,189570,199634,5,-21,1030,1
27235,189585,199626,-5,-21,1030,1
27305,189573,199631,5,-21,1008,1
27293,189634,199632,5,-17,1053,1
27334,189681,199615,-7,-14,1053,1
27370,189583,199654,8,-14,1050,1
27370,189641,199545,8,-21,1035,1
27327,189593,199629,-4,-21,1035,1
27328,189676,199680,3,-21,1033,1
27386,189708,199659,3,-16,1035,1
27345,189635,199695,1,-15,1035,1
27382,189753,199635,-2,-15,1033,1
27356,189763,199682,-2,-18,1023,1
27351,189704,199720,1,-15,1023,1
27408,189800,199626,3,-15,1021,1
27412,189726,199665,3,-18,1011,1
27433,189761,199707,0,-14,1011,1
27450,189754,199665,-3,-14,1026,1
27415,189810,199716,-3,-23,1035,1
27406,189883,199676,7,-19,1035,1
27389,189852,199721,6,-19,1035,1
27421,189784,199700,6,-24,1040,1
27433,189791,199682,2,-16,1040,1
27375,189830,199674,12,-16,1029,1
27379,189838,199729,0,-17,1035,1
27455,189875,199667,0,-20,1033,1
27462,189894,199694,-7,-19,1033,1
27402,189825,199691,-7,-19,1017,1
27514,189863,199705,6,-21,1046,1
27474,189840,199663,4,-18,1046,1
27424,189843,199697,9,-18,1024,1
27433,189829,199672,9,-24,1037,1
27421,189799,199652,-4,-15,1037,1
27391,189895,199592,2,-15,1052,1
27468,189907,199723,2,-4,1037,1
27472,189910,199711,-3,-27,1037,1
27445,189975,199768,-3,-27,1032,1
27470,189971,199674,-3,-19,1023,1
27525,189966,199665,-7,-24,1023,1
27446,189975,199626,-3,-24,1037,1
27500,189980,199696,-3,-15,1037,1
27553,190020,199711,8,-13,1037,1
27549,190016,199731,4,-13,1047,1
27478,189994,199748,4,-15,1029,1
27476,190098,199788,3,-17,1029,1
27505,190050,199690,0,-17,1021,1
27515,190012,199702,0,-19,1041,1
27574,190116,199671,-3,-17,1041,1
27526,190052,199686,2,-17,1035,1
27487,190078,199675,6,-15,1047,1
27525,190050,199643,6,-17,1032,1
27599,190065,199672,1,-21,1032,1
27515,190014,199721,1,-21,1026,1
27514,190088,199750,-3,-23,1035,1
27529,190085,199802,6,-20,1035,1
27593,190065,199731,-4,-20,1030,1
27519,189997,199644,-4,-12,1032,1
27534,189973,199593,7,-19,1032,1
27552,190008,199600,9,-19,1026,1
27449,189928,199649,9,-21,1020,1
27413,189951,199546,-9,-21,1020,1
27535,189992,199558,-6,-21,1014,1
27443,189918,199574,-6,-15,1050,1
27385,189913,199531,-2,-24,1050,1
27530,189920,199580,-5,-24,1049,1
27515,189967,199629,-5,-20,1026,1
27451,189896,199492,7,-15,1026,1
27424,190002,199583,1,-15,1049,1
27417,190021,199557,1,-13,1035,1
27440,190076,199608,3,-4,1035,1
27421,189966,199604,0,-4,1037,1
27449,190038,199577,0,-18,1032,1
27438,189917,199528,-2,-14,1030,1
27406,189979,199571,4,-14,1030,1
27412,190045,199629,4,-16,1035,1
27318,189945,199565,-2,-19,1035,1
27389,189971,199569,-2,-19,1046,1
27470,189978,199533,-2,-17,1038,1
27426,189988,199486,4,-12,1038,1
27431,190051,199517,0,-12,1037,1
27492,190000,199565,0,-12,1035,1
27420,190003,199518,-2,-20,1035,1
27547,190078,199469,7,-15,1035,1
27434,189965,199539,5,-15,1033,1
27428,189946,199482,5,-10,1026,1
27438,189915,199463,6,-14,1026,1
27463,189942,199503,0,-14,1011,1
27396,189897,199519,0,-9,1038,1
27440,189932,199445,-12,-20,1038,1
27375,189917,199496,7,-20,1026,1
27370,189865,199395,7,-11,1035,1
27391,189912,199410,12,-19,1035,1
27372,189872,199388,-3,-19,988,1
27442,189896,199427,-3,-11,1020,1
27476,189947,199393,5,-18,1020,1
27408,189892,199455,8,-18,1044,1
27447,190020,199478,8,-15,1029,1
27437,189971,199435,1,-14,1029,1
27453,190070,199410,-2,-14,1035,1
27408,189979,199447,-2,-15,1044,1
27445,190033,199457,9,-12,1044,1
27475,190029,199430,9,-12,1035,1
27404,189999,199429,3,-21,1043,1
27427,190012,199445,3,-19,1026,1
27526,189964,199466,1,-19,1026,1
27455,190135,199435,-4,-12,1030,1
27567,189980,199499,-4,-20,1026,1
27544,189977,199514,10,-24,1026,1
27473,190018,199445,12,-24,1035,1
27508,190073,199472,12,-17,1035,1
27515,190128,199491,5,-16,1035,1
27531,190032,199446,9,-16,1020,1
27544,189992,199432,9,-11,1029,1
27548,190068,199417,8,-21,1029,1
27570,190101,199472,2,-21,1033,1
27555,190043,199444,2,-11,1047,1
27550,190015,199486,5,-24,1047,1
27527,190066,199423,9,-24,1024,1
27519,190021,199386,9,-15,1033,1
27483,190044,199378,2,-18,1033,1
27541,190086,199434,-3,-18,1038,1
27547,190081,199388,-3,-22,1024,1
27581,190121,199491,4,-19,1024,1
27590,190055,199461,5,-19,1035,1
27563,190060,199464,5,-27,1037,1
27602,190135,199546,6,-25,1037,1
27590,190167,199526,4,-25,1033,1
27568,190119,199412,4,-13,1044,1
27480,190147,199464,0,-18,1044,1
27578,190146,199439,-5,-18,1033,1
27566,190190,199451,-5,-13,1037,1
27627,190093,199406,-3,-16,1037,1
27624,190152,199474,0,-17,1033,1
27534,190132,199417,12,-17,1021,1
27621,190151,199423,12,-16,1014,1
27584,190156,199453,9,-18,1014,1
27612,190142,199393,3,-18,1017,1
27532,190170,199479,3,-21,1040,1
27584,190156,199452,6,-15,1040,1
27649,190129,199373,15,-15,1005,1
27568,190174,199375,15,-28,1027,1
27556,190152,199420,2,-9,1027,1
27558,190156,199394,9,-9,1041,1
27646,190163,199435,9,-17,1013,1
27528,190148,199449,12,-12,1013,1
27608,190291,199473,7,-12,1032,1
27658,190225,199456,7,-13,1044,1
27550,190111,199353,0,-15,1044,1
27637,190260,199444,8,-15,1029,1
27601,190153,199434,8,-19,1029,1
27582,190158,199483,0,-25,1029,1
27648,190209,199427,7,-14,1026,1
27614,190110,199373,8,-14,1032,1
27700,190174,199423,8,-11,1029,1
27629,190178,199448,8,-18,1029,1
27612,190196,199405,8,-18,1016,1
27706,190169,199423,9,-24,1016,1
27649,190162,199376,3,-24,1021,1
27522,190165,199344,3,-15,1033,1
27553,190163,199370,-6,-13,1029,1
27621,190223,199443,7,-12,1029,1
27636,190131,199399,3,-12,1043,1
27608,190127,199354,3,-22,1040,1
27594,190083,199379,10,-17,1040,1
27651,190085,199380,3,-17,1026,1
27568,190137,199344,3,-16,1032,1
27562,190102,199286,0,-18,1032,1
27600,190105,199324,12,-18,1044,1
27556,190151,199344,12,-17,1017,1
27541,190065,199300,3,-15,1017,1
27565,190128,199234,5,-15,1040,1
27548,190083,199335,5,-20,1020,1
27513,190115,199311,10,-18,1020,1
27470,190134,199260,8,-18,1024,1
27558,190135,199233,8,-23,1016,1
27519,190103,199298,5,-19,1016,1
27559,190081,199248,4,-19,1013,1
27561,190111,199235,4,-18,1018,1
27536,190115,199231,-2,-22,1018,1
27622,190086,199285,6,-18,1026,1
27514,190091,199232,6,-18,1029,1
27466,190114,199222,6,-14,1033,1
27490,190093,199221,3,-14,1033,1
27465,190040,199142,3,-19,1033,1
27604,189987,199215,3,-17,1033,1
27530,190062,199215,9,-19,1040,1
27533,190187,199142,2,-19,1018,1
27535,190079,199184,2,-18,1038,1
27577,190068,199219,-2,-14,1038,1
27504,190117,199244,3,-14,1026,1
27510,190010,199252,3,-14,1029,1
27531,190152,199240,6,-17,1029,1
27543,190127,199149,6,-17,1054,1
27556,190081,199138,6,-17,1017,1
27518,190112,199147,-6,-15,1017,1
27570,190068,199159,3,-15,1032,1
27522,190063,199255,3,-18,1044,1
27550,190097,199151,2,-26,1044,1
27536,190115,199198,-5,-26,1026,1
27599,190125,199229,-5,-12,1053,1
27464,190123,199226,1,-17,1053,1
27585,190181,199233,7,-17,1018,1
27583,190139,199168,7,-21,1038,1
27493,190123,199207,6,-17,1029,1
27515,190138,199193,9,-18,1029,1
27576,190098,199156,-2,-18,1029,1
27613,190171,199210,-2,-14,1044,1
27579,190120,199108,6,-14,1044,1
27546,190107,199126,6,-15,1017,1
27596,190161,199246,8,-15,1017,1
27566,190132,199236,-3,-15,1026,1
27497,190179,199231,-3,-20,1041,1
27540,190156,199147,0,-18,1021,1
27528,190099,199054,2,-15,1021,1
27555,190155,199153,14,-15,1035,1
27618,190180,199180,14,-22,1050,1
27556,190206,199124,10,-19,1050,1
27576,190209,199138,-3,-19,1029,1
27661,190237,199163,-3,-15,1043,1
27593,190134,199122,-5,-20,1043,1
27624,190148,199160,-6,-20,1021,1
27650,190247,199217,-6,-11,1035,1
27582,190217,199133,2,-13,1035,1
27556,190163,199153,0,-13,1024,1
27515,190224,199145,0,-16,1014,1
27662,190246,199096,4,-17,1014,1
27639,190229,199049,9,-17,1041,1
27533,190184,199138,9,-13,1027,1
27633,190283,199139,3,-18,1043,1
27622,190260,199146,2,-20,1043,1
27632,190196,199189,2,-20,1024,1
27601,190212,199177,3,-19,1024,1
27714,190202,199099,8,-19,1026,1
27651,190169,199075,8,-18,1056,1
27584,190251,199175,1,-24,1056,1
27584,190261,199064,-3,-18,1035,1
27615,190304,199202,-3,-18,1023,1
27651,190202,199109,3,-10,1041,1
27619,190222,199008,8,-13,1041,1
27628,190287,199197,7,-13,1035,1
27703,190339,199209,7,-20,1035,1
27730,190276,199161,1,-21,1035,1
27645,190246,199183,-2,-21,1038,1
27648,190276,199151,-2,-21,1020,1
27646,190265,199098,8,-20,1020,1
27704,190261,199088,6,-20,1037,1
27653,190259,199045,6,-15,1027,1
27729,190339,199083,0,-21,1027,1
27649,190276,199102,5,-21,1010,1
27638,190181,199090,5,-12,1044,1
27642,190148,199038,4,-16,1044,1
27658,190162,199068,-2,-16,1043,1
27630,190273,198991,-2,-18,1026,1
27649,190239,199087,8,-18,1026,1
27634,190132,199094,3,-18,1046,1
27621,190180,199105,3,-20,1037,1
27591,190122,199003,-9,-19,1037,1
27613,190163,198973,-3,-19,1023,1
27515,190174,198960,-3,-15,1027,1
27621,190165,199002,7,-8,1027,1
27521,190097,198933,6,-15,1020,1
27540,190093,198911,2,-15,1032,1
27643,190178,198994,2,-19,1027,1
27586,190106,198968,6,-12,1027,1
27651,190142,198932,6,-12,1026,1
27566,190085,198985,6,-11,1029,1
27549,190141,198942,9,-20,1029,1
27529,190175,198987,12,-20,1035,1
27577,190118,198934,12,-15,1029,1
27613,190069,198938,-3,-22,1029,1
27531,190044,198825,8,-22,1033,1
27573,190059,198955,8,-15,1027,1
27485,190085,198933,9,-18,1027,1
27502,190005,198823,6,-18,1035,1
27496,190016,198824,6,-10,1032,1
27501,190059,198878,1,-15,1032,1
27471,190033,198796,3,-15,1035,1
27556,189968,198818,3,-24,1054,1
27594,189980,198844,3,-15,1054,1
27483,190002,198792,-3,-15,1030,1
27500,189986,198792,-3,-18,1023,1
27564,189995,198858,-3,-21,1023,1
27511,190087,198884,1,-21,1041,1
27564,190056,198841,1,-11,1027,1
27484,190026,198825,3,-13,1027,1
27540,190019,198781,0,-19,1018,1
27586,190015,198860,0,-19,1040,1
27496,190059,198904,6,-11,1035,1
27534,189993,198809,5,-15,1035,1
27493,190011,198774,-6,-15,1027,1
27480,189994,198818,-6,-21,1043,1
27622,190113,198781,5,-18,1043,1
27485,190086,198932,-2,-18,1037,1
27517,189982,198812,-2,-17,1020,1
27542,189960,198781,3,-18,1020,1
27552,190029,198784,4,-18,1038,1
27595,189999,198816,4,-16,1026,1
27544,189992,198705,6,-9,1026,1
27523,190013,198746,5,-9,1050,1
27549,190064,198797,5,-23,1032,1
27505,190070,198812,1,-18,1032,1
27546,190026,198775,2,-18,1038,1
27510,190051,198784,2,-22,1040,1
27516,190065,198805,5,-18,1040,1
27625,190103,198767,5,-18,1038,1
27614,190158,198871,5,-18,1024,1
27580,190119,198802,0,-15,1024,1
27562,190247,198890,7,-15,1032,1
27617,190196,198852,7,-15,1035,1
27655,190201,198870,9,-18,1035,1
27621,190182,198868,7,-18,1038,1
27577,190212,198769,0,-23,1043,1
27685,190213,198884,0,-15,1054,1
27642,190203,198855,1,-22,1054,1
27545,190243,198861,1,-22,1018,1
27605,190285,198853,8,-20,1027,1
27651,190349,198939,-6,-15,1027,1
27705,190463,198957,2,-15,1027,1
27704,190404,199005,2,-18,1032,1
27582,190408,198992,0,-20,1032,1
27707,190453,198979,0,-20,1030,1
27682,190466,198992,0,-19,1033,1
27686,190516,199031,-7,-20,1033,1
27580,190558,199052,16,-20,1014,1
27738,190586,199039,16,-21,1024,1
27748,190626,199132,2,-20,1024,1
27715,190620,199070,3,-20,1029,1
27713,190610,199172,3,-18,1032,1
27779,190671,199199,8,-19,1032,1
27733,190641,199158,3,-19,1018,1
27749,190696,199126,3,-16,1030,1
27751,190769,199195,-3,-17,1050,1
27739,190668,199206,5,-18,1050,1
27780,190742,199206,5,-18,1052,1
27746,190908,199250,3,-17,1052,1
27757,190836,199255,0,-17,1044,1
27833,190771,199228,0,-14,1032,1
27796,190807,199221,0,-15,1032,1
27766,190840,199162,4,-15,1047,1
27786,190824,199262,-5,-20,1027,1
27800,190817,199256,-5,-17,1029,1
27809,190871,199232,1,-15,1029,1
27779,190833,199216,0,-15,1040,1
27858,190907,199351,0,-12,1035,1
27771,190897,199206,3,-16,1035,1
27835,190819,199195,-2,-16,1021,1
27712,190876,199120,-2,-21,1029,1
27765,190847,199130,0,-19,1029,1
27788,190909,199291,0,-19,1014,1
27801,190999,199309,0,-24,1030,1
27811,190951,199332,-5,-21,1030,1
27819,190964,199307,4,-21,1030,1
27751,190967,199346,4,-18,1027,1
27744,191033,199348,4,-21,1027,1
27847,190963,199354,5,-21,1053,1
27824,190952,199363,5,-17,1035,1
27727,190946,199363,4,-18,1035,1
27780,190925,199285,1,-18,1044,1
27763,190985,199403,1,-15,1046,1
27850,190924,199372,3,-17,1046,1
27846,190967,199371,1,-22,1017,1
27721,190943,199307,3,-22,1035,1
27840,191002,199342,3,-18,1043,1
27788,191022,199308,-2,-18,1043,1
27811,190985,199350,-2,-12,1032,1
27747,190919,199343,6,-18,1040,1
27819,190942,199311,1,-12,1040,1
27777,190914,199360,8,-12,1033,1
27732,190953,199372,8,-21,1026,1
27812,190967,199385,4,-15,1026,1
27859,190990,199344,12,-15,1047,1
27767,190992,199333,12,-21,1026,1
27787,191005,199343,4,-9,1026,1
27840,191152,199413,8,-9,1043,1
27817,190969,199350,8,-19,1030,1
27768,191001,199308,-2,-21,1030,1
27774,190965,199362,6,-21,1037,1
27782,190966,199405,6,-17,1010,1
27754,190957,199347,14,-15,1010,1
27808,191005,199336,3,-15,1024,1
27779,190994,199363,3,-25,1026,1
27762,190982,199383,-5,-16,1026,1
27752,190998,199359,0,-16,1037,1
27772,191088,199351,0,-15,1035,1
27750,191055,199441,0,-16,1035,1
27847,191051,199367,4,-20,1014,1
27787,191033,199381,4,-20,1017,1
27782,191083,199356,3,-16,1017,1
27788,191178,199397,3,-12,1010,1
27807,191020,199365,9,-12,1035,1
27790,191014,199307,9,-21,1030,1
27854,191053,199351,1,-24,1030,1
27841,191034,199379,6,-24,1016,1
27816,191001,199405,6,-23,1033,1
27786,191095,199350,-5,-9,1033,1
27871,191129,199368,-2,-9,1029,1
27865,191051,199407,-2,-20,1035,1
27860,191084,199369,5,-15,1035,1
27914,191147,199455,9,-15,1043,1
27870,191175,199347,9,-10,1035,1
27745,191068,199398,6,-14,1035,1
27887,191046,199350,10,-14,1013,1
27831,191179,199385,10,-17,1044,1
27894,191151,199371,2,-25,1044,1
27820,191134,199399,5,-25,1021,1
27907,191156,199341,5,-10,1026,1
27887,191104,199390,5,-18,1026,1
27873,191156,199437,5,-18,1040,1
27838,191059,199460,5,-14,1017,1
27942,191203,199388,1,-13,1026,1
27842,191100,199381,5,-13,1026,1
27817,191062,199389,5,-16,1038,1
27936,191086,199352,4,-25,1038,1
27924,191143,199350,5,-25,1024,1
27847,191212,199324,5,-12,1037,1
27894,191138,199372,8,-20,1037,1
27905,191169,199389,1,-20,1043,1
27848,191157,199426,1,-17,1043,1
27838,191143,199348,1,-18,1029,1
27836,191203,199407,1,-14,1029,1
27902,191171,199409,2,-14,1018,1
27849,191229,199494,2,-20,1035,1
27900,191240,199365,0,-10,1035,1
27927,191216,199347,7,-10,1043,1
27931,191232,199410,7,-21,1037,1
27903,191255,199387,-2,-24,1037,1
28006,191202,199428,6,-24,1035,1
27954,191199,199331,6,-15,1033,1
27934,191239,199445,0,-9,1033,1
27931,191350,199440,4,-9,1033,1
28021,191190,199342,4,-14,1038,1
27868,191271,199346,6,-28,1038,1
27918,191238,199450,6,-28,1047,1
27938,191284,199444,6,-19,1032,1
27880,191297,199356,2,-23,1032,1
27942,191259,199392,0,-23,1033,1
27901,191259,199339,0,-21,1035,1
27987,191181,199337,3,-22,1040,1
27924,191230,199327,3,-22,1040,1
27917,191270,199400,3,-21,1043,1
27918,191214,199324,0,-16,1043,1
27961,191198,199360,4,-10,1016,1
27903,191240,199324,2,-10,1040,1
27905,191204,199279,2,-11,1047,1
27909,191239,199204,6,-20,1047,1
27928,191125,199283,9,-20,1035,1
27943,191186,199336,9,-14,1027,1
27915,191109,199304,13,-12,1027,1
27907,191129,199279,3,-12,1033,1
27899,191159,199380,3,-19,1037,1
27838,191187,199332,-3,-17,1037,1
27897,191176,199321,-3,-17,1030,1
27916,191123,199351,-3,-20,1038,1
27928,191162,199317,6,-12,1038,1
27887,191237,199345,4,-12,1044,1
27878,191209,199362,4,-15,1013,1
27900,191075,199308,1,-18,1013,1
27853,191084,199277,5,-18,1035,1
27843,191014,199275,5,-17,1033,1
27841,191127,199248,0,-15,1033,1
27848,191053,199217,-3,-15,1044,1
27842,191088,199223,-3,-17,1017,1
27795,190992,199188,3,-22,1017,1
27855,191012,199150,1,-22,1050,1
27859,191007,199227,1,-15,1033,1
27814,191017,199240,4,-18,1033,1
27769,190959,199143,0,-18,1026,1
27751,191040,199181,0,-13,1035,1
27735,190971,199141,9,-13,1035,1
27826,190980,199253,6,-6,1033,1
27771,190974,199131,-4,-6,1030,1
27743,190910,199195,-4,-21,1035,1
27739,190965,199138,6,-15,1035,1
27777,190933,199109,2,-15,1026,1
27807,191082,199240,2,-12,1035,1
27801,190995,199276,4,-9,1035,1
27835,190955,199131,0,-9,1040,1
27771,190963,199154,0,-16,1043,1
27783,190947,199195,1,-18,1043,1
27777,191026,199187,-7,-18,1020,1
27772,190978,199210,-7,-18,1027,1
27867,190927,199165,0,-14,1027,1
27701,190935,199172,1,-14,1033,1
27761,190980,199161,1,-18,1040,1
27808,191003,199108,6,-14,1040,1
27692,191033,199232,-4,-14,1030,1
27841,191046,199194,-4,-13,988,1
27768,190964,199143,-3,-15,988,1
27819,191012,199156,4,-15,1032,1
27753,191037,199170,4,-18,1035,1
27838,191061,199163,10,-22,1011,1
27811,191068,199197,5,-22,1011,1
27800,191077,199181,5,-18,1035,1
27811,191044,199181,7,-18,1029,1
27823,191021,199100,6,-18,1029,1
27828,191121,199149,3,-18,1035,1
27831,191007,199199,3,-18,1023,1
27869,191126,199300,0,-11,1023,1
27821,191043,199165,-4,-11,1023,1
27777,191011,199162,-4,-14,1030,1
27801,191114,199215,3,-15,1030,1
27872,191136,199182,6,-15,1035,1
27841,191085,199192,6,-8,1032,1
27813,191051,199251,0,-14,1032,1
27833,191018,199198,7,-14,1035,1
27829,191083,199206,7,-15,1043,1
27865,191066,199213,4,-18,1043,1
27823,191014,199137,3,-18,1035,1
27826,191034,199198,3,-13,1044,1
27814,191063,199148,5,-12,1044,1
27763,191162,199191,3,-12,1052,1
27878,191115,199166,3,-18,1024,1
27798,191022,199140,3,-18,1024,1
27852,191054,199129,6,-18,1032,1
27876,191109,199215,5,-18,1044,1
27751,191149,199240,5,-20,1017,1
27859,191106,199167,4,-20,1017,1
27817,191032,199109,4,-21,1020,1
27799,191023,199091,7,-19,1037,1
27822,191067,199140,10,-12,1037,1
27882,191050,199238,5,-12,1040,1
27873,191152,199158,5,-24,1021,1
27886,191050,199082,6,-14,1021,1
27841,191111,199141,0,-14,1035,1
27831,191077,199156,0,-18,1037,1
27880,191077,199234,-2,-16,1037,1
27885,191063,199137,3,-16,1046,1
27867,191088,199141,3,-21,1013,1
27841,191071,199109,12,-19,1013,1
27866,191145,199134,3,-19,1035,1
27831,191085,199225,3,-16,1044,1
27787,191033,199082,3,-11,1044,1
27883,191066,199076,7,-11,1038,1
27855,191022,199038,7,-19,1033,1
27857,191014,199122,7,-9,1033,1
27847,191123,199191,6,-9,1024,1
27859,191046,199107,6,-16,1027,1
27760,191090,199108,2,-14,1027,1
27819,190923,199058,3,-18,1032,1
27815,190954,198987,3,-18,1021,1
27852,191034,198990,8,-21,1021,1
27721,190950,199013,4,-15,1026,1
27711,190904,199031,6,-15,1029,1
27723,190934,199004,6,-17,1021,1
27688,190865,198944,1,-25,1021,1
27836,190803,199045,8,-25,1030,1
27738,190941,198985,8,-16,1024,1
27760,190933,198961,2,-13,1024,1
27853,190840,198938,8,-13,1047,1
27797,190921,198970,8,-17,1033,1
27711,190949,199045,1,-15,1033,1
27683,190837,198973,4,-15,1030,1
27778,190817,198996,4,-16,1037,1
27752,190764,198940,3,-15,1037,1
27729,190816,198908,0,-15,1049,1
27663,190829,198938,0,-10,1047,1
27787,190797,198935,6,-24,1047,1
27713,190836,199030,3,-24,1027,1
27734,190795,198999,3,-14,1024,1
27710,190792,198939,3,-17,1024,1
27647,190733,198926,3,-17,1030,1
27668,190785,198943,3,-18,1029,1
27675,190762,198912,3,-18,1029,1
27608,190710,198802,6,-10,1020,1
27597,190739,198818,6,-10,1033,1
27639,190790,198860,1,-16,1033,1
27584,190738,198933,3,-16,1033,1
27636,190705,198788,9,-19,1030,1
27650,190704,198875,9,-15,1043,1
27658,190713,198887,7,-18,1043,1
27617,190811,198900,6,-18,1035,1
27687,190687,198857,6,-21,1029,1
27628,190735,198797,4,-13,1029,1
27608,190670,198833,0,-13,1013,1
27612,190692,198876,0,-17,1011,1
27629,190717,198826,12,-18,1011,1
27597,190743,198788,-5,-18,1033,1
27596,190666,198795,-5,-20,1024,1
27588,190718,198815,6,-16,1024,1
27613,190660,198752,0,-16,1035,1
27651,190676,198796,0,-11,1014,1
27641,190751,198751,3,-15,1014,1
27628,190696,198805,-2,-15,1024,1
27551,190658,198796,-2,-19,1052,1
27568,190737,198848,5,-20,1052,1
27586,190679,198869,-2,-15,1032,1
27624,190737,198818,-2,-15,1027,1
27658,190717,198839,-3,-21,1027,1
27611,190758,198881,9,-21,1023,1
27646,190725,198826,0,-19,1024,1
27594,190609,198795,0,-17,1035,1
27602,190736,198835,2,-12,1035,1
27596,190705,198852,7,-12,1040,1
27661,190713,198802,7,-9,1049,1
27635,190713,198871,-3,-14,1049,1
27592,190778,198875,2,-14,1035,1
27604,190787,198919,2,-20,1016,1
27637,190737,198785,3,-9,1016,1
27626,190746,198785,6,-9,1032,1
27652,190730,198876,6,-18,1030,1
27670,190749,198809,0,-12,1030,1
27669,190829,198798,9,-12,1030,1
27655,190834,198900,9,-18,1050,1
27628,190778,198874,6,-15,1050,1
27600,190761,198826,0,-15,1044,1
27555,190726,198751,0,-23,1052,1
27675,190821,198753,3,-14,1032,1
27671,190819,198783,3,-24,1032,1
27632,190841,198781,3,-24,1035,1
27673,190869,198804,0,-11,1035,1
27716,190874,198867,0,-11,1040,1
27677,190907,198914,0,-16,1043,1
27664,190864,198881,7,-23,1043,1
27757,190899,198822,-9,-17,1029,1
27761,190895,198912,-9,-17,1056,1
27715,190926,198810,2,-13,1018,1
27700,190966,198967,7,-21,1018,1
27737,190918,198897,6,-21,1014,1
27666,190941,198942,6,-10,1043,1
27763,190974,198908,2,-19,1043,1
27744,190990,198979,1,-19,1041,1
27720,191062,198851,1,-14,1020,1
27752,190974,198855,-3,-18,1020,1
27758,190924,198825,5,-18,1020,1
27760,191015,198864,5,-12,1033,1
27727,190949,198852,5,-24,1033,1
27740,191023,198917,2,-24,1032,1
27770,190968,198957,2,-17,1021,1
27806,190986,198882,-2,-21,1021,1
27740,190974,198931,5,-21,1043,1
27760,190956,198907,5,-18,1035,1
27796,190977,198955,6,-18,1033,1
27798,190967,198920,-5,-18,1033,1
27828,190987,198889,4,-13,1043,1
27781,191024,198874,4,-17,1035,1
27766,190961,198844,7,-17,1035,1
27716,191005,198943,7,-10,1040,1
27809,190968,198843,3,-16,1033,1
27780,190965,198880,-9,-8,1033,1
27804,190933,198909,5,-8,1037,1
27764,190972,198908,5,-18,1030,1
27720,191055,198857,1,-19,1030,1
27840,191026,198898,3,-19,1033,1
27773,191058,198865,3,-16,1029,1
27746,191021,198852,-5,-13,1029,1
27808,190965,198856,-3,-13,1029,1
27727,191015,198919,-3,-19,1043,1
27765,190965,198866,2,-17,1043,1
27770,191017,198886,-3,-17,1043,1
27786,191061,198858,-3,-21,1023,1
27752,190965,198838,-4,-21,1023,1
27689,191056,198946,3,-21,1030,1
27731,191004,198837,3,-20,1041,1
27720,190980,198858,7,-15,1041,1
27772,190939,198867,5,-15,1041,1
27752,191002,198861,1,-17,1029,1
27736,191065,198898,1,-17,1029,1
27754,191140,198975,0,-17,1024,1
27790,191086,199019,-3,-18,1037,1
27774,191101,198963,-3,-16,1054,1
27762,191172,198976,-3,-14,1054,1
27775,191171,198987,-6,-14,1023,1
27822,191189,199065,-6,-18,1011,1
27803,191155,199040,0,-11,1011,1
27756,191132,199006,6,-11,1023,1
27773,191153,199055,6,-15,1014,1
27843,191248,199044,6,-11,1014,1
27773,191176,199147,6,-11,1035,1
27799,191215,199075,6,-21,1037,1
27825,191254,199116,6,-23,1037,1
27823,191300,199154,3,-23,1024,1
27787,191308,199170,3,-13,1035,1
27788,191316,199154,-4,-17,1035,1
27823,191332,199219,1,-17,1035,1
27807,191314,199171,1,-13,1040,1
27881,191348,199177,-2,-13,1040,1
27891,191339,199150,12,-13,1038,1
27859,191411,199230,12,-14,1046,1
27867,191338,199218,2,-17,1046,1
27850,191428,199204,0,-17,1032,1
27882,191365,199198,1,-15,1021,1
27831,191351,199204,1,-20,1029,1
27863,191429,199277,-2,-20,1029,1
27875,191401,199272,-2,-20,1029,1
27867,191363,199141,6,-19,1029,1
27794,191427,199187,10,-19,1033,1
27864,191417,199205,6,-12,1026,1
27922,191396,199245,6,-14,1029,1
27830,191409,199232,6,-17,1029,1
27902,191489,199201,3,-17,1027,1
27898,191465,199277,3,-21,1023,1
27873,191455,199252,0,-23,1023,1
27889,191553,199309,-2,-23,1017,1
27891,191530,199277,-2,-12,1038,1
27925,191450,199320,-2,-11,1038,1
27918,191448,199327,4,-11,1043,1
27910,191543,199353,4,-12,1029,1
27987,191599,199383,5,-18,1029,1
27963,191580,199331,8,-18,1038,1
28017,191569,199359,8,-18,1021,1
27978,191579,199345,1,-18,1021,1
28012,191580,199364,5,-18,1017,1
27977,191672,199361,5,-18,1054,1
28023,191632,199387,-3,-18,1054,1
27979,191640,199375,1,-18,1014,1
27948,191664,199330,1,-17,1035,1
27955,191697,199368,3,-16,1035,1
27965,191680,199381,-2,-19,1018,1
27929,191698,199392,-2,-19,1027,1
28057,191613,199342,5,-21,1027,1
27976,191669,199370,6,-8,1033,1
28012,191625,199253,0,-8,1020,1
27978,191717,199428,0,-14,1016,1
28019,191658,199384,6,-13,1016,1
28040,191750,199434,-3,-13,1040,1
27977,191770,199502,-3,-13,1043,1
28067,191686,199496,0,-18,1043,1
28057,191802,199432,-2,-18,1050,1
28064,191797,199496,-2,-15,1038,1
28019,191729,199419,-6,-15,1038,1
28074,191816,199499,6,-15,1029,1
28052,191879,199522,6,-10,1044,1
28085,191799,199523,0,-18,1044,1
28047,191864,199480,4,-18,1040,1
28045,191827,199427,4,-22,1024,1
28040,191834,199538,0,-15,1024,1
27975,191745,199473,3,-15,1027,1
28058,191831,199537,3,-18,1032,1
27985,191911,199500,0,-13,1004,1
28085,191819,199483,8,-13,1004,1
28059,191787,199470,8,-15,1030,1
28122,191845,199455,6,-18,1030,1
27968,191843,199507,2,-18,1038,1
28060,191859,199516,2,-19,1047,1
28055,191790,199517,14,-16,1047,1
28080,191818,199543,1,-19,1010,1
28069,191813,199533,1,-19,1016,1
28079,191852,199618,-3,-22,1020,1
28113,191931,199384,-3,-12,1020,1
28036,191929,199531,4,-12,1049,1
28079,191886,199533,4,-14,1018,1
28074,191817,199438,1,-17,1018,1
28041,191846,199505,3,-17,1029,1
28078,191873,199528,3,-14,1023,1
27966,191856,199576,10,-20,1023,1
28090,191861,199575,-2,-20,1043,1
28067,191819,199460,-2,-14,1040,1
28025,191797,199432,-3,-24,1040,1
28001,191841,199466,-2,-24,1035,1
28037,191803,199506,-2,-15,1017,1
28022,191824,199529,2,-15,1017,1
28070,191802,199465,8,-15,1049,1
28042,191885,199532,8,-19,1037,1
27958,191779,199415,6,-11,1037,1
28074,191792,199377,13,-11,1046,1
27995,191773,199407,3,-18,1035,1
28025,191784,199406,3,-17,1035,1
27902,191773,199404,-4,-16,1049,1
27999,191886,199420,-4,-16,1026,1
28033,191700,199495,1,-13,1026,1
28053,191757,199370,1,-13,1054,1
28051,191769,199437,1,-22,1035,1
27957,191673,199441,-3,-13,1033,1
27986,191788,199446,1,-9,1033,1
27967,191718,199377,3,-9,1035,1
27970,191715,199363,3,-15,1029,1
28012,191734,199438,6,-15,1029,1
28009,191736,199461,7,-15,1030,1
27948,191793,199503,7,-15,1027,1
27923,191700,199372,4,-17,1027,1
27925,191640,199415,-3,-17,1062,1
27941,191726,199367,-3,-20,1032,1
27984,191702,199330,-3,-12,1032,1
27898,191741,199389,0,-12,1049,1
27965,191741,199422,0,-15,1038,1
28006,191700,199410,4,-17,1038,1
27973,191667,199383,2,-17,1023,1
27975,191714,199402,2,-16,1040,1
27937,191745,199484,12,-10,1040,1
27921,191617,199343,-3,-10,1029,1
27974,191677,199335,-3,-17,1038,1
27978,191596,199430,12,-15,1038,1
27939,191656,199393,3,-18,1037,1
27927,191744,199365,3,-18,1032,1
27963,191736,199387,4,-19,1032,1
27976,191649,199333,5,-19,1023,1
27980,191687,199418,12,-16,1043,1
27966,191685,199345,12,-11,1037,1
28024,191678,199310,5,-14,1037,1
28044,191758,199403,3,-14,1043,1
28018,191759,199451,3,-12,1044,1
28018,191709,199383,5,-18,1044,1
28003,191675,199412,6,-18,1046,1
27916,191809,199396,6,-23,1037,1
28051,191727,199423,6,-18,1037,1
28052,191833,199431,2,-18,1043,1
28098,191795,199432,2,-15,1016,1
28007,191784,199426,0,-14,1016,1
28048,191875,199453,6,-14,1043,1
27992,191837,199424,6,-14,1032,1
28070,191816,199439,5,-14,1032,1
28081,191768,199435,1,-14,1038,1
28054,191827,199509,1,-12,1014,1
28063,191841,199472,-2,-19,1014,1
28103,191931,199468,9,-19,1027,1
28064,191811,199405,9,-18,1026,1
28045,191829,199409,2,-12,1026,1
28115,191892,199431,3,-12,1038,1
28139,191859,199464,3,-19,1027,1
28133,191908,199406,6,-19,1027,1
28107,191837,199432,7,-14,1026,1
28026,191817,199396,-5,-14,1033,1
28166,191828,199421,-5,-16,1032,1
28116,191871,199491,4,-16,1032,1
28060,191995,199523,4,-17,1010,1
28101,191973,199539,-6,-12,1035,1
28123,191996,199450,5,-18,1035,1
28148,191982,199529,6,-18,1027,1
28146,191976,199556,6,-11,1037,1
28250,192065,199558,4,-14,1037,1
28098,191930,199484,0,-14,1032,1
28124,191927,199507,0,-12,1032,1
28074,191909,199506,6,-18,1032,1
28088,191919,199538,4,-18,1020,1
28183,191964,199518,4,-15,1035,1
28124,192013,199529,-9,-17,1035,1
28184,191987,199508,6,-17,1046,1
28106,191948,199529,6,-15,1024,1
28121,191944,199462,2,-14,1024,1
28151,191992,199460,12,-14,1026,1
28134,192015,199445,12,-11,1029,1
28103,191950,199426,4,-18,1014,1
28206,191998,199577,4,-21,1014,1
28155,191962,199512,4,-21,1035,1
28120,192013,199508,-3,-15,1035,1
28171,191977,199506,9,-15,1027,1
28178,191954,199470,9,-10,1040,1
28121,191922,199446,3,-16,1040,1
28159,191953,199428,2,-16,1016,1
28173,191966,199447,3,-18,1024,1
28156,191980,199479,3,-22,1033,1
28140,191955,199453,0,-21,1033,1
28112,191960,199502,7,-21,1033,1
28136,191894,199509,7,-21,1053,1
28053,191965,199433,6,-21,1053,1
28121,191973,199472,2,-21,1021,1
28070,191890,199512,2,-12,1017,1
28065,191855,199542,13,-15,1017,1
28174,191929,199460,2,-15,1030,1
28128,191860,199504,2,-15,1027,1
28090,191858,199515,6,-15,1027,1
28142,191896,199467,-2,-15,1007,1
28173,191841,199481,-2,-24,1035,1
28108,191829,199447,-3,-17,1035,1
28057,191888,199454,-5,-17,1027,1
28047,191775,199369,-5,-15,1037,1
28036,191856,199377,6,-6,1037,1
28053,191811,199443,5,-6,1040,1
28065,191750,199403,10,-18,1043,1
27999,191852,199478,10,-21,1043,1
28059,191809,199418,0,-13,1023,1
28071,191777,199406,0,-13,1049,1
28060,191724,199342,1,-14,1049,1
27974,191732,199295,6,-14,1030,1
28047,191838,199350,6,-16,1035,1
28067,191751,199290,4,-17,1010,1
28025,191778,199369,4,-22,1010,1
28068,191816,199433,7,-22,1030,1
28051,191775,199341,7,-16,1010,1
28048,191837,199393,3,-21,1010,1
28059,191702,199314,6,-21,1033,1
28044,191745,199363,6,-10,1026,1
28039,191697,199324,5,-21,1026,1
28052,191763,199304,6,-21,1033,1
28009,191734,199258,6,-21,1047,1
28099,191715,199350,-4,-24,1047,1
28017,191738,199370,6,-24,1017,1
28057,191821,199398,6,-16,1054,1
28046,191787,199375,0,-17,1054,1
28056,191820,199472,-2,-17,1020,1
28003,191779,199400,-2,-13,1052,1
27991,191840,199398,3,-15,1052,1
28098,191796,199395,0,-15,1044,1
28119,191853,199473,0,-19,1037,1
28027,191868,199438,0,-19,1037,1
28047,191854,199440,6,-19,1030,1
28084,191804,199424,-3,-15,1037,1
28092,191811,199478,-3,-12,1044,1
28114,191868,199412,5,-12,1044,1
28119,191871,199449,5,-20,1020,1
28161,191914,199488,-3,-9,1027,1
28177,191907,199461,3,-15,1027,1
28156,191920,199504,2,-15,1030,1
28086,191941,199474,2,-18,1046,1
28094,191880,199535,5,-18,1046,1
28104,191892,199477,3,-18,1033,1
28167,191902,199469,3,-25,1030,1
28125,191953,199475,6,-15,1030,1
28131,191945,199462,10,-15,1021,1
28136,192017,199540,10,-16,1037,1
28256,192015,199494,9,-21,1037,1
28224,192016,199489,7,-21,1035,1
28130,192027,199526,7,-13,1035,1
28208,192039,199559,5,-4,1035,1
28139,191970,199511,3,-4,1033,1
28240,192018,199477,3,-10,1032,1
28240,191994,199607,0,-14,1032,1
28189,191987,199556,-6,-14,1035,1
28199,191980,199556,-6,-18,1043,1
28230,192051,199563,8,-18,1038,1
28177,191980,199551,7,-18,1038,1
28221,192083,199548,7,-9,1032,1
28165,192053,199516,3,-15,1032,1
28182,192090,199548,6,-15,1029,1
28252,192038,199621,3,-15,1024,1
28242,192120,199537,3,-14,1030,1
28309,192074,199558,6,-18,1030,1
28190,192078,199587,3,-18,1024,1
28244,192090,199631,3,-15,1038,1
28270,192145,199600,0,-18,1038,1
28274,192132,199620,8,-18,1033,1
28214,192072,199608,8,-17,1016,1
28250,192055,199564,-6,-18,1016,1
28286,192102,199577,-2,-18,1054,1
28276,192145,199494,-2,-10,1017,1
28214,192238,199646,9,-15,1017,1
28243,192175,199547,-3,-15,1043,1
28320,192214,199576,-3,-8,1016,1
28281,192180,199564,-2,-14,1016,1
28267,192201,199538,3,-14,1038,1
28308,192172,199634,3,-18,1038,1
28252,192069,199601,8,-21,1038,1
28250,192102,199566,6,-21,1029,1
28256,192141,199535,6,-16,1038,1
28184,192143,199557,2,-24,1038,1
28260,192231,199670,-2,-24,1026,1
28225,192134,199505,-2,-18,1035,1
28318,192119,199580,5,-25,1035,1
28245,192095,199563,0,-21,1016,1
28309,192155,199670,7,-21,1044,1
28297,192167,199708,7,-10,1041,1
28243,192162,199583,4,-10,1041,1
28253,192185,199625,4,-18,1033,1
28225,192152,199615,6,-20,1014,1
28258,192134,199524,5,-13,1014,1
28261,192263,199677,0,-13,1021,1
28240,192205,199682,0,-24,1030,1
28222,192155,199610,0,-15,1030,1
28295,192252,199689,0,-15,1035,1
28278,192216,199650,0,-13,1021,1
28252,192228,199650,3,-18,1021,1
28238,192147,199643,0,-18,1023,1
28264,192155,199660,0,-14,1035,1
28281,192196,199653,6,-22,1035,1
28229,192176,199605,-4,-22,1041,1
28276,192248,199726,-4,-20,1030,1
28250,192186,199680,-7,-21,1030,1
28261,192248,199643,3,-21,1030,1
28284,192178,199694,3,-14,1037,1
28224,192169,199683,0,-18,1024,1
28263,192100,199660,1,-18,1024,1
28343,192180,199622,1,-18,1041,1
28251,192224,199656,0,-19,1041,1
28273,192189,199665,0,-15,1038,1
28311,192219,199717,1,-15,1024,1
28321,192281,199708,1,-15,1024,1
28324,192201,199701,-3,-15,1040,1
28247,192222,199705,5,-19,1035,1
28323,192199,199675,5,-20,1033,1
28350,192165,199638,-3,-16,1033,1
28262,192236,199701,6,-16,1035,1
28303,192152,199642,6,-16,1018,1
28272,192161,199660,10,-15,1018,1
28289,192199,199657,2,-15,1057,1
28265,192212,199718,2,-15,1027,1
28316,192184,199702,0,-17,1027,1
28321,192273,199621,6,-17,1026,1
28223,192210,199632,6,-17,1032,1
28258,192129,199587,3,-14,1032,1
28228,192128,199668,5,-14,1033,1
28267,192141,199627,5,-16,1037,1
28246,192207,199619,14,-13,1037,1
28231,192184,199637,-5,-13,1024,1
28327,192193,199636,-5,-15,1033,1
28378,192205,199686,4,-13,1033,1
28306,192273,199670,2,-12,1040,1
28335,192280,199656,2,-12,1056,1
28345,192238,199721,7,-11,1056,1
28298,192186,199660,0,-11,1020,1
28326,192245,199667,0,-9,1037,1
28325,192227,199713,4,-15,1046,1
28298,192303,199711,6,-21,1046,1
28205,192235,199678,4,-21,1038,1
28382,192292,199582,4,-15,1041,1
28299,192295,199636,4,-15,1041,1
28362,192317,199675,-2,-15,1029,1
28296,192343,199753,-2,-18,1026,1
28330,192314,199730,-5,-16,1026,1
28351,192398,199723,-6,-16,1032,1
28372,192375,199758,-6,-17,1040,1
28386,192348,199786,-3,-19,1040,1
28332,192349,199745,0,-19,1032,1
28307,192385,199708,0,-12,1032,1
28358,192338,199692,6,-15,1032,1
28388,192329,199691,3,-15,1044,1
28317,192397,199725,3,-18,1035,1
28381,192421,199801,3,-15,1035,1
28363,192427,199752,5,-15,1024,1
28426,192360,199758,5,-12,1040,1
28396,192473,199762,5,-21,1040,1
28403,192473,199773,0,-15,1046,1
28315,192471,199753,0,-15,1035,1
28418,192419,199776,6,-17,1035,1
28410,192456,199746,3,-17,1030,1
28466,192430,199819,3,-18,1037,1
28416,192420,199693,0,-27,1029,1
28528,192530,199823,9,-17,1029,1
28397,192401,199728,6,-17,1044,1
28386,192391,199737,6,-16,1040,1
28463,192492,199754,6,-18,1040,1
28423,192505,199764,0,-18,1017,1
28431,192517,199771,0,-20,1029,1
28446,192443,199791,0,-26,1029,1
28448,192460,199736,0,-26,1011,1
28494,192447,199711,0,-15,1026,1
28420,192363,199658,-2,-15,1026,1
28464,192388,199814,-6,-15,1035,1
28403,192452,199713,-6,-17,1030,1
28452,192426,199764,3,-16,1030,1
28362,192373,199773,7,-16,1033,1
28385,192376,199736,7,-16,1041,1
28331,192456,199716,6,-15,1041,1
28379,192454,199641,-6,-15,1035,1
28402,192384,199663,-6,-14,1037,1
28381,192356,199648,1,-15,1037,1
28447,192414,199692,3,-15,1049,1
28384,192483,199756,-3,-18,1032,1
28388,192389,199635,-3,-21,1049,1
28368,192362,199736,0,-21,1049,1
28465,192405,199705,0,-15,1030,1
28317,192292,199708,2,-16,1032,1
28340,192401,199795,6,-19,1032,1
28307,192249,199622,9,-19,1029,1
28328,192315,199641,9,-15,1035,1
28302,192256,199671,-6,-11,1035,1
28362,192321,199719,-3,-11,1037,1
28347,192300,199692,-3,-17,1029,1
28281,192350,199714,7,-19,1029,1
28406,192332,199689,3,-19,1032,1
28351,192292,199646,3,-15,1035,1
28349,192258,199671,3,-9,1035,1
28309,192300,199759,-2,-9,1002,1
28474,192311,199592,-2,-13,1037,1
28256,192298,199595,10,-16,1037,1
28286,192324,199650,0,-16,1041,1
28404,192304,199652,0,-15,1020,1
28330,192290,199714,3,-18,1020,1
28314,192244,199628,6,-18,1037,1
28279,192284,199620,6,-13,1023,1
28283,192263,199617,4,-17,1032,1
28284,192253,199641,3,-17,1032,1
28242,192296,199679,1,-24,1046,1
28225,192243,199706,1,-13,1032,1
28316,192238,199638,3,-15,1032,1
28275,192319,199638,5,-15,1018,1
28353,192341,199617,5,-24,1021,1
28327,192278,199656,5,-15,1021,1
28315,192313,199689,2,-15,1043,1
28325,192352,199718,2,-19,1035,1
28294,192362,199730,0,-14,1035,1
28324,192328,199660,0,-14,1005,1
28344,192366,199733,0,-21,1037,1
28301,192433,199623,2,-20,1037,1
28418,192382,199655,5,-20,1035,1
28343,192288,199642,5,-18,1026,1
28385,192384,199781,-2,-13,1026,1
28342,192343,199737,0,-13,1032,1
28335,192354,199702,0,-21,1029,1
28293,192355,199660,-2,-18,1029,1
28320,192356,199723,3,-10,1040,1
28340,192326,199721,3,-10,1026,1
28332,192365,199697,3,-15,1027,1
28411,192427,199733,-9,-15,1027,1
28404,192397,199748,-9,-15,1030,1
28401,192324,199731,0,-15,1030,1
28304,192317,199660,2,-15,1026,1
28295,192413,199638,5,-17,1040,1
28365,192309,199736,5,-19,1024,1
28469,192400,199639,-2,-12,1024,1
28321,192302,199612,1,-12,1033,1
28350,192339,199711,1,-18,1050,1
28375,192353,199649,6,-18,1050,1
28348,192347,199711,7,-18,1035,1
28330,192315,199683,7,-17,1013,1
28298,192286,199651,3,-15,1013,1
28319,192263,199607,0,-15,1026,1
28358,192320,199667,0,-22,1018,1
28361,192425,199691,4,-16,1018,1
28330,192326,199641,4,-16,1024,1
28420,192407,199657,4,-18,1035,1
28359,192381,199650,7,-11,1035,1
28409,192352,199667,5,-11,1033,1
28398,192373,199648,5,-12,1043,1
28377,192350,199595,-7,-15,1043,1
28328,192339,199586,5,-15,1038,1
28289,192364,199638,8,-15,1038,1
28402,192329,199652,8,-15,1020,1
28324,192292,199670,4,-15,1020,1
28396,192350,199656,4,-12,1037,1
28307,192357,199643,-4,-19,1037,1
28307,192360,199626,13,-16,1027,1
28404,192399,199618,3,-16,1033,1
28387,192437,199743,3,-12,1021,1
28362,192343,199638,5,-16,1021,1
28344,192357,199637,1,-16,1029,1
28269,192381,199549,1,-27,1013,1
28336,192360,199666,-2,-14,1013,1
28377,192485,199669,0,-14,1024,1
28350,192400,199678,0,-16,1038,1
28358,192355,199685,6,-12,1038,1
28428,192411,199633,-5,-12,1029,1
28328,192343,199653,-5,-14,1029,1
28415,192431,199638,0,-20,1029,1
28357,192340,199608,-2,-20,1043,1
28325,192338,199575,-2,-14,1026,1
28354,192392,199578,0,-18,1026,1
28334,192357,199587,6,-18,1035,1
28343,192328,199526,6,-15,1032,1
28326,192311,199559,5,-12,1032,1
28291,192295,199589,4,-12,1041,1
28324,192285,199542,4,-9,1040,1
28317,192270,199532,7,-16,1040,1
28332,192314,199572,0,-16,1041,1
28297,192273,199580,7,-15,1027,1
28278,192227,199577,7,-13,1027,1
28340,192217,199502,6,-13,1030,1
28386,192316,199600,9,-17,1024,1
28284,192245,199558,9,-12,1026,1
28275,192171,199542,6,-12,1026,1
28242,192201,199576,4,-12,1041,1
28277,192206,199631,4,-12,1026,1
28249,192203,199564,6,-11,1026,1
28306,192239,199648,3,-11,1018,1
28225,192157,199537,3,-19,1026,1
28236,192182,199512,7,-12,1026,1
28221,192125,199500,4,-12,1033,1
28217,192102,199477,4,-16,1035,1
28194,192145,199514,8,-21,1035,1
28233,192125,199483,0,-21,1021,1
28256,192213,199532,0,-15,1041,1
28225,192144,199576,4,-18,1041,1
28279,192181,199512,6,-18,1047,1
28246,192204,199519,0,-24,1044,1
28301,192076,199495,0,-22,1037,1
28196,191983,199415,-2,-22,1037,1
28154,192061,199424,-2,-17,1033,1
28188,192050,199416,2,-12,1033,1
28224,192099,199464,3,-18,1011,1
28264,192164,199505,3,-18,1038,1
28205,192165,199556,-6,-24,1027,1
28278,192057,199478,0,-14,1027,1
28208,192078,199444,-3,-14,1020,1
28279,192059,199513,-3,-18,1038,1
28218,192032,199444,3,-17,1038,1
28266,192112,199399,-2,-17,1047,1
28246,192121,199462,-2,-15,1043,1
28194,192120,199457,4,-18,1043,1
28227,192114,199497,3,-18,1030,1
28221,192167,199428,3,-19,1047,1
28274,192135,199470,4,-25,1047,1
28282,192198,199473,0,-25,1021,1
28229,192206,199516,0,-17,1023,1
28257,192164,199559,5,-13,1023,1
28286,192287,199491,4,-13,1023,1
28201,192207,199484,4,-20,1044,1
28221,192209,199492,-3,-22,1044,1
28256,192155,199503,3,-22,1035,1
28209,192212,199488,5,-20,1038,1
28187,192204,199553,5,-17,1027,1
28239,192179,199506,8,-17,1027,1
28266,192158,199541,8,-19,1033,1
28235,192186,199559,-2,-14,1041,1
28225,192198,199477,-8,-11,1041,1
28252,192189,199573,0,-11,1043,1
28251,192185,199485,0,-20,1033,1
28236,192222,199449,0,-18,1033,1
28250,192221,199470,3,-18,1027,1
28310,192273,199541,3,-13,1023,1
28304,192300,199524,3,-10,1023,1
28307,192274,199537,-4,-10,1044,1
28324,192246,199576,-4,-20,1037,1
28293,192305,199549,6,-14,1037,1
28291,192313,199528,5,-14,1035,1
28330,192365,199700,5,-14,1016,1
28236,192214,199548,-3,-15,1016,1
28308,192299,199551,-2,-15,1050,1
28358,192387,199644,-2,-14,1029,1
28284,192365,199543,4,-12,1029,1
28345,192399,199628,8,-12,1037,1
28395,192352,199629,8,-21,1024,1
28380,192393,199590,6,-14,1043,1
28302,192413,199618,9,-10,1043,1
28401,192384,199574,9,-10,1024,1
28346,192427,199652,-3,-19,1024,1
28417,192401,199592,5,-16,1030,1
28400,192423,199623,5,-16,1038,1
28348,192436,199633,5,-18,1024,1
28404,192443,199663,8,-18,1024,1
28359,192454,199677,0,-18,1011,1
28364,192491,199637,0,-13,1038,1
28426,192480,199665,8,-14,1038,1
28399,192448,199666,0,-14,1029,1
28402,192519,199633,0,-18,1044,1
28424,192472,199682,6,-20,1044,1
28301,192436,199622,3,-20,1038,1
28434,192483,199610,3,-12,1032,1
28365,192539,199608,2,-15,1032,1
28433,192500,199563,0,-15,1046,1
28346,192475,199586,0,-16,1038,1
28404,192499,199688,5,-12,1038,1
28374,192471,199637,3,-12,1035,1
28444,192509,199678,3,-18,1029,1
28433,192488,199674,-2,-18,1029,1
28394,192499,199600,3,-18,1027,1
28379,192381,199657,3,-18,1030,1
28396,192406,199666,0,-16,1030,1
28452,192432,199624,6,-16,1038,1
28427,192451,199591,6,-13,1027,1
28393,192547,199674,0,-15,1027,1
28426,192459,199599,13,-15,1038,1
28377,192557,199676,-6,-17,1029,1
28404,192474,199702,-6,-14,1024,1
28387,192490,199593,6,-14,1024,1
28379,192475,199583,6,-16,1020,1
28411,192426,199581,-6,-12,1047,1
28419,192408,199637,3,-11,1047,1
28353,192385,199634,5,-11,1030,1
28354,192400,199576,5,-18,1020,1
28282,192390,199604,7,-10,1020,1
28352,192485,199612,5,-10,1026,1
28318,192444,199643,5,-14,1023,1
28377,192455,199665,-3,-12,1023,1
28355,192444,199660,0,-12,1023,1
28331,192469,199674,0,-24,1011,1
28436,192430,199684,12,-12,1011,1
28335,192489,199657,7,-12,1046,1
28344,192458,199632,7,-18,1038,1
28379,192486,199636,2,-14,1038,1
28342,192477,199641,1,-14,1032,1
28388,192482,199688,1,-12,1060,1
28362,192485,199713,-3,-15,1038,1
28410,192517,199735,-2,-15,1038,1
28439,192533,199712,-2,-15,1043,1
28340,192513,199748,-2,-16,1043,1
28386,192488,199710,14,-16,1023,1
28363,192513,199738,3,-12,1010,1
28369,192471,199663,3,-17,1017,1
28411,192415,199652,0,-17,1017,1
28332,192457,199680,6,-14,1041,1
28266,192504,199682,6,-22,1017,1
28386,192467,199706,-5,-15,1017,1
28311,192426,199676,3,-15,1013,1
28340,192485,199703,3,-15,1033,1
28327,192496,199641,3,-22,1033,1
28369,192445,199661,-4,-22,1047,1
28343,192414,199595,-4,-16,1032,1
28314,192376,199665,15,-24,1032,1
28321,192457,199610,9,-24,1021,1
28321,192452,199699,9,-16,1010,1
28388,192529,199713,2,-18,1010,1
28348,192460,199689,12,-18,1026,1
28330,192381,199679,12,-12,1016,1
28344,192489,199612,4,-15,1016,1
28341,192426,199650,2,-15,1041,1
28405,192435,199707,2,-16,1016,1
28351,192425,199629,2,-17,1016,1
28409,192443,199649,3,-17,1032,1
28388,192432,199595,3,-17,1032,1
28393,192465,199650,-2,-15,1032,1
28329,192530,199724,0,-15,1018,1
28328,192391,199678,9,-19,1044,1
28365,192405,199605,9,-27,1032,1
28365,192423,199623,7,-22,1032,1
28295,192379,199589,9,-22,1052,1
28385,192546,199600,9,-15,1032,1
28309,192365,199657,-3,-13,1032,1
28337,192453,199530,6,-13,1035,1
28293,192422,199587,6,-17,1020,1
28406,192396,199559,2,-21,1020,1
28303,192390,199586,9,-21,1032,1
28334,192342,199539,9,-15,1004,1
28300,192399,199591,4,-13,1004,1
28338,192480,199566,6,-13,1032,1
28294,192394,199525,6,-9,1030,1
28298,192486,199602,-6,-18,1030,1
28350,192406,199531,1,-18,1020,1
28278,192462,199564,1,-15,1032,1
28333,192360,199590,7,-14,1032,1
28246,192400,199619,-3,-14,1018,1
28349,192428,199566,5,-24,1038,1
28341,192408,199491,5,-12,1030,1
28380,192476,199603,-2,-12,1030,1
28430,192505,199617,3,-22,1001,1
28343,192409,199571,3,-21,1027,1
28378,192467,199603,4,-12,1027,1
28421,192492,199635,8,-12,1035,1
28367,192426,199580,8,-9,1040,1
28414,192422,199566,5,-17,1040,1
28371,192489,199572,-3,-17,1010,1
28466,192483,199640,-3,-15,1037,1
28371,192418,199617,0,-20,1037,1
28437,192381,199534,-3,-20,1024,1
28430,192389,199526,-3,-16,1029,1
28421,192411,199502,9,-19,1029,1
28362,192480,199521,6,-19,1046,1
28412,192436,199506,6,-9,1014,1
28377,192374,199533,-3,-18,1014,1
28361,192425,199500,0,-18,1029,1
28382,192401,199511,0,-13,1047,1
28377,192349,199526,0,-16,1047,1
28349,192442,199455,9,-16,1029,1
28327,192349,199529,3,-19,1059,1
28369,192379,199509,3,-15,1059,1
28313,192349,199496,1,-10,1049,1
28349,192240,199430,-3,-10,1030,1
28386,192373,199495,-3,-21,1030,1
28306,192258,199485,12,-21,1016,1
28346,192271,199415,12,-15,1030,1
28269,192257,199409,0,-12,1044,1
28335,192317,199415,0,-17,1044,1
28298,192227,199451,3,-17,1030,1
28258,192186,199411,3,-17,1027,1
28244,192258,199427,-6,-13,1027,1
28252,192142,199409,4,-13,1033,1
28253,192196,199411,4,-16,1032,1
28314,192270,199462,3,-13,1032,1
28278,192147,199419,5,-13,1038,1
28300,192219,199370,5,-18,1030,1
28232,192258,199354,3,-15,1030,1
28245,192234,199393,6,-15,1027,1
28188,192244,199443,6,-14,1049,1
28218,192195,199419,0,-13,1049,1
28243,192221,199375,7,-13,1020,1
28243,192160,199382,7,-14,1014,1
28298,192048,199358,2,-12,1014,1
28279,192183,199405,9,-12,1032,1
28199,192177,199273,-6,-17,1054,1
28227,192131,199352,-6,-9,1035,1
28251,192149,199345,5,-9,1035,1
28241,192134,199347,5,-19,1032,1
28213,192197,199296,3,-15,1032,1
28242,192164,199333,1,-15,1044,1
28190,192134,199326,1,-20,1024,1
28204,192187,199353,0,-17,1043,1
28164,192137,199419,5,-12,1043,1
28224,192157,199445,4,-12,1035,1
28249,192100,199355,4,-17,1037,1
28231,192077,199275,7,-12,1037,1
28229,192089,199310,-2,-12,1040,1
28153,192098,199281,-2,-23,1044,1
28187,192198,199420,8,-23,1044,1
28197,192094,199283,7,-23,1040,1
28173,192032,199247,7,-13,1030,1
28174,192123,199273,6,-18,1030,1
28216,192096,199310,5,-18,1013,1
28158,192131,199266,5,-11,1038,1
28142,192048,199261,3,-19,1038,1
28157,192075,199232,10,-19,1037,1
28189,192053,199272,10,-9,1038,1
28156,192061,199295,4,-12,1038,1
28214,192027,199322,13,-12,1038,1
28194,192044,199346,13,-9,1024,1
28202,192075,199296,6,-10,1024,1
28137,192126,199296,4,-15,1021,1
28195,192114,199313,4,-15,1027,1
28242,192155,199290,8,-12,1035,1
28187,192140,199294,7,-20,1035,1
28235,192092,199299,4,-20,1004,1
28222,192097,199263,4,-19,1041,1
28274,192165,199349,-2,-22,1041,1
28246,192181,199358,6,-22,1037,1
28299,192094,199303,6,-10,1029,1
28245,192212,199316,1,-12,1029,1
28336,192201,199384,4,-12,1053,1
28272,192159,199266,4,-21,1040,1
28224,192176,199324,6,-18,1040,1
28247,192128,199290,0,-18,1026,1
28173,192118,199350,0,-16,1049,1
28228,192137,199347,2,-6,1049,1
28215,192115,199322,3,-6,1059,1
28200,192217,199355,3,-15,1054,1
28211,192127,199338,5,-14,1054,1
28222,192089,199342,4,-15,1043,1
28217,192094,199299,0,-15,1021,1
28202,192140,199301,0,-10,1021,1
28281,192235,199298,-2,-10,1029,1
28223,192210,199292,-2,-18,1043,1
28207,192087,199346,4,-14,1043,1
28230,192184,199318,-3,-15,1017,1
28257,192089,199284,-3,-15,1038,1
28266,192116,199238,2,-22,1038,1
28276,192214,199303,1,-14,1038,1
28229,192167,199344,0,-14,1023,1
28195,192144,199263,0,-14,1011,1
28205,192126,199258,-6,-17,1011,1
28253,192180,199259,15,-17,1049,1
28223,192161,199256,15,-11,1024,1
28298,192127,199244,2,-16,1024,1
28187,192109,199253,0,-16,1043,1
28232,192100,199230,0,-20,1033,1
28223,192108,199145,9,-16,1033,1
28217,192048,199221,6,-16,1033,1
28210,192155,199213,6,-20,1049,1
28227,192059,199291,3,-12,1049,1
28149,192073,199205,-3,-12,1043,1
28265,192053,199251,-3,-8,1030,1
28255,192115,199227,3,-11,1044,1
28246,192079,199336,9,-11,1044,1
28238,192060,199228,9,-12,1030,1
28215,192031,199126,3,-15,1030,1
28229,192011,199195,9,-16,1030,1
28228,192121,199247,9,-16,1040,1
28212,192026,199242,6,-18,1014,1
28180,191959,199208,7,-12,1014,1
28204,192023,199173,6,-12,1027,1
28143,191982,199105,6,-16,1029,1
28141,192019,199196,-2,-20,1029,1
28163,191966,199161,3,-20,1057,1
28098,191984,199125,3,-18,1032,1
28134,191972,199134,5,-12,1032,1
28095,191920,199046,-5,-12,1043,1
28122,191934,199079,-5,-18,1021,1
28093,191861,199035,9,-14,1021,1
28056,191922,199096,6,-14,1024,1
28088,191871,199069,6,-24,1032,1
28128,191880,199088,15,-18,1032,1
28077,191912,199151,4,-18,1033,1
28025,191766,199019,4,-19,1018,1
28067,191873,199096,6,-11,1018,1
28000,191845,199087,6,-15,1016,1
28003,191836,199105,2,-15,1026,1
28005,191924,199195,2,-12,1013,1
28065,191867,198980,-2,-12,1013,1
27970,191762,199046,-2,-17,1035,1
27988,191833,199108,1,-8,1035,1
28034,191817,199075,7,-8,1026,1
28000,191820,199120,7,-18,1037,1
27958,191821,199094,0,-21,1021,1
28034,191792,199054,-3,-15,1021,1
28060,191775,199022,8,-15,1017,1
28007,191831,199062,8,-17,1029,1
28048,191898,199064,3,-12,1029,1
28026,191895,199106,10,-12,1037,1
28059,191848,199056,10,-9,1027,1
27997,191830,199138,2,-15,1027,1
28074,191874,199054,1,-15,1035,1
28005,191886,199083,1,-24,1040,1
28046,191956,199164,2,-19,1040,1
28008,191879,199134,5,-19,1017,1
28082,191910,199165,5,-16,1040,1
28098,191953,199153,1,-15,1040,1
28047,191954,199148,6,-15,1021,1
28075,191998,199251,6,-12,1027,1
28070,192028,199215,4,-19,1046,1
28054,192007,199190,-3,-15,1046,1
28057,192018,199277,-3,-15,1047,1
28016,192085,199244,-3,-17,1047,1
28056,192017,199216,8,-17,1037,1
28081,192053,199317,8,-22,1041,1
28129,192093,199282,-4,-12,1041,1
28085,192064,199233,6,-15,1035,1
28112,192039,199214,6,-15,1030,1
28174,192111,199282,-3,-17,1017,1
28074,192004,199238,0,-18,1017,1
28085,192085,199311,3,-18,1053,1
28109,192107,199300,3,-16,1014,1
28106,192083,199257,2,-15,1014,1
28091,192149,199402,7,-15,1013,1
28143,192148,199331,7,-14,1030,1
28077,192060,199296,6,-15,1030,1
28227,192187,199354,6,-15,1020,1
28126,192232,199293,6,-17,1038,1
28151,192168,199363,-5,-15,1038,1
28078,192134,199363,3,-15,1040,1
28076,192151,199335,3,-12,1018,1
28139,192149,199321,4,-15,1018,1
28138,192212,199364,8,-15,1037,1
28197,192256,199372,8,-21,1030,1
28127,192141,199344,3,-15,1040,1
28182,192239,199371,0,-16,1040,1
28130,192266,199440,10,-16,1020,1
28241,192281,199361,10,-20,1027,1
28154,192289,199364,6,-20,1027,1
28143,192248,199504,6,-23,1033,1
28147,192255,199435,3,-14,1033,1
28205,192330,199460,-2,-14,1035,1
28176,192317,199423,-2,-7,1027,1
28215,192349,199482,3,-18,1026,1
28120,192329,199497,3,-21,1026,1
28261,192286,199444,0,-21,1050,1
28202,192269,199453,0,-21,1020,1
28124,192359,199422,3,-18,1020,1
28146,192274,199503,6,-18,1023,1
28214,192331,199465,6,-19,1029,1
28279,192297,199444,-3,-15,1029,1
28280,192342,199485,4,-15,1024,1
28292,192370,199494,4,-18,1043,1
28197,192383,199597,-6,-18,1043,1
28232,192376,199487,0,-18,1016,1
28272,192492,199474,0,-17,1041,1
28215,192461,199466,3,-10,1041,1
28248,192454,199520,6,-10,1029,1
28283,192393,199546,6,-9,1029,1
28240,192445,199569,1,-15,1029,1
28311,192391,199639,6,-17,1035,1
28294,192472,199526,2,-17,1023,1
28256,192435,199541,2,-20,1037,1
28251,192465,199523,6,-12,1037,1
28251,192405,199440,6,-12,1017,1
28294,192461,199573,9,-17,1017,1
28308,192478,199557,7,-17,1033,1
28241,192441,199560,7,-18,1027,1
28275,192387,199677,-3,-16,1033,1
28235,192432,199560,1,-12,1033,1
28184,192421,199530,0,-12,1023,1
28217,192439,199541,0,-21,1021,1
28219,192502,199629,3,-15,1021,1
28234,192521,199580,-5,-15,1030,1
28209,192433,199522,-5,-17,1037,1
28241,192449,199536,1,-14,1037,1
28188,192459,199520,-6,-14,1041,1
28270,192427,199643,-6,-13,1040,1
28204,192569,199590,6,-15,1040,1
28218,192432,199529,0,-15,1040,1
28141,192507,199585,0,-14,1037,1
28189,192399,199554,-3,-15,1037,1
28182,192430,199522,7,-15,1032,1
28153,192461,199623,7,-20,1030,1
28160,192444,199509,9,-18,1030,1
28187,192467,199598,0,-18,1038,1
28217,192425,199520,0,-18,1035,1
28145,192368,199463,4,-18,1035,1
28236,192447,199577,2,-18,1038,1
28236,192407,199632,2,-18,1029,1
28208,192506,199655,8,-15,1029,1
28211,192465,199703,-3,-15,1029,1
28204,192457,199575,-3,-15,1037,1
28241,192474,199601,-3,-14,1013,1
28315,192540,199643,-3,-15,1013,1
28297,192541,199582,0,-15,1024,1
28241,192516,199617,0,-14,1026,1
28196,192505,199601,5,-12,1026,1
28248,192527,199682,4,-12,1023,1
28229,192536,199655,4,-13,1035,1
28200,192510,199612,8,-11,1035,1
28223,192373,199600,0,-11,1024,1
28176,192384,199632,0,-13,1023,1
28171,192455,199700,0,-15,1023,1
28160,192539,199661,9,-15,1052,1
28241,192486,199668,9,-18,1037,1
28232,192508,199624,-6,-19,1037,1
28265,192495,199642,1,-19,1026,1
28188,192639,199653,1,-19,1018,1
28104,192575,199602,-6,-10,1040,1
28223,192552,199660,6,-10,1040,1
28173,192506,199679,6,-19,1035,1
28157,192479,199637,3,-12,1035,1
28193,192476,199571,-3,-9,1030,1
28238,192568,199685,-3,-9,1040,1
28243,192533,199648,1,-14,1040,1
28138,192511,199634,2,-14,1054,1
28184,192488,199572,0,-20,1011,1
28156,192465,199539,0,-16,1027,1
28190,192476,199600,5,-11,1027,1
28188,192503,199563,9,-11,1044,1
28193,192454,199571,9,-17,1027,1
28144,192484,199571,6,-12,1027,1
28209,192559,199611,-2,-12,1041,1
28202,192586,199576,-2,-20,1029,1
28252,192516,199586,2,-13,1029,1
28205,192518,199555,3,-13,1027,1
28251,192533,199670,3,-15,1046,1
28196,192483,199573,3,-15,1046,1
28201,192619,199581,-8,-15,1035,1
28236,192556,199645,-8,-10,1027,1
28276,192551,199616,3,-19,1027,1
28232,192584,199645,0,-19,1026,1
28273,192547,199611,0,-18,1040,1
28236,192644,199636,2,-22,1040,1
28283,192576,199590,3,-22,1017,1
28306,192632,199672,3,-17,1035,1
28308,192681,199650,-2,-8,1035,1
28264,192565,199563,5,-15,1029,1
28255,192592,199591,5,-15,1037,1
28223,192571,199590,1,-12,1037,1
28236,192597,199587,6,-12,1035,1
28310,192573,199678,6,-15,1032,1
28260,192561,199641,2,-16,1033,1
28295,192655,199731,6,-17,1033,1
28251,192563,199607,-6,-17,1032,1
28249,192534,199608,-6,-10,1024,1
28281,192614,199620,3,-12,1024,1
28239,192610,199618,2,-12,1029,1
28317,192648,199621,2,-21,1017,1
28233,192611,199620,-3,-19,1017,1
28278,192607,199611,5,-19,1026,1
28201,192624,199654,5,-15,1047,1
28228,192596,199638,5,-16,1047,1
28347,192650,199706,4,-16,1035,1
28320,192630,199651,4,-13,1032,1
28336,192586,199686,4,-15,1032,1
28228,192559,199602,3,-15,1041,1
28310,192667,199605,3,-18,1013,1
28207,192635,199703,2,-21,1032,1
28286,192469,199559,-2,-17,1032,1
28314,192494,199575,-2,-17,1041,1
28235,192544,199589,-2,-14,1041,1
28166,192527,199606,2,-14,1016,1
28188,192504,199518,2,-12,1047,1
28187,192499,199463,4,-18,1047,1
28245,192483,199486,9,-18,1030,1
28258,192494,199484,-3,-18,1043,1
28240,192425,199554,-3,-14,1035,1
28167,192469,199584,15,-15,1035,1
28239,192540,199585,8,-15,1037,1
28243,192471,199549,8,-12,1030,1
28200,192530,199595,3,-15,1030,1
28198,192458,199589,-8,-15,1018,1
28104,192479,199603,-8,-8,1013,1
28130,192487,199593,-2,-16,1013,1
28224,192455,199610,5,-16,1038,1
28141,192360,199551,5,-15,1026,1
28164,192427,199509,10,-18,1026,1
28070,192493,199495,7,-18,1033,1
28242,192423,199586,7,-17,1032,1
28179,192414,199509,7,-14,1032,1
28138,192405,199482,3,-14,1033,1
28124,192343,199548,3,-13,1054,1
28096,192407,199543,-2,-10,1054,1
28161,192370,199556,3,-17,1035,1
28080,192254,199473,3,-17,1029,1
28122,192374,199547,1,-15,1029,1
28042,192415,199536,3,-15,1008,1
28167,192432,199575,2,-15,1020,1
28085,192413,199570,2,-18,1043,1
28163,192442,199551,-3,-12,1043,1
28116,192472,199494,6,-12,1044,1
28175,192306,199517,6,-9,1035,1
28069,192348,199497,0,-12,1035,1
28122,192421,199563,9,-12,1035,1
28174,192415,199589,9,-17,1023,1
28129,192424,199485,4,-17,1023,1
28165,192352,199599,9,-17,1030,1
28114,192407,199534,9,-28,1023,1
28164,192500,199518,0,-20,1023,1
28149,192406,199509,-6,-20,1033,1
28224,192514,199566,-6,-17,1040,1
28131,192352,199627,0,-15,1040,1
28116,192450,199605,3,-15,1035,1
28233,192445,199533,3,-18,1037,1
28124,192372,199521,1,-19,1037,1
28113,192406,199541,3,-19,1020,1
28134,192354,199464,3,-14,1035,1
28101,192352,199437,1,-15,1035,1
28081,192461,199515,10,-15,1040,1
28166,192406,199572,6,-17,1047,1
28078,192322,199479,6,-14,1035,1
28051,192299,199517,-2,-14,1035,1
28188,192365,199532,-2,-17,1033,1
28116,192410,199497,10,-19,1033,1
28124,192311,199452,7,-16,1030,1
28149,192363,199480,1,-16,1017,1
28128,192400,199548,1,-20,1018,1
28162,192363,199554,4,-15,1018,1
28010,192348,199591,5,-15,1026,1
28123,192372,199433,5,-15,1040,1
28139,192289,199488,-5,-16,1040,1
28061,192290,199477,0,-16,1035,1
28043,192307,199530,0,-15,1017,1
28124,192323,199513,12,-21,1017,1
28060,192325,199479,13,-21,1040,1
28143,192406,199524,13,-18,1010,1
28039,192297,199453,4,-11,1010,1
28122,192396,199462,0,-11,1027,1
28164,192377,199488,0,-11,1054,1
28098,192324,199473,4,-18,1054,1
28163,192306,199444,2,-18,1040,1
28134,192317,199486,2,-12,1033,1
28166,192384,199535,5,-6,1033,1
28142,192392,199586,3,-6,1024,1
28200,192370,199418,10,-17,1013,1
28084,192319,199382,10,-15,1013,1
28092,192325,199438,1,-15,1046,1
28089,192363,199445,0,-12,1026,1
28165,192393,199492,0,-12,1023,1
28167,192307,199427,6,-18,1023,1
28087,192342,199353,12,-18,1030,1
28160,192347,199383,12,-14,1033,1
28139,192330,199383,10,-10,1033,1
28059,192428,199417,0,-10,1018,1
28073,192253,199418,0,-14,1032,1
28098,192233,199390,9,-18,1032,1
28114,192297,199384,6,-18,1030,1
28124,192336,199452,6,-8,1040,1
28150,192306,199422,-3,-12,1040,1
28115,192291,199341,0,-12,1032,1
28061,192318,199377,0,-19,1024,1
28136,192251,199320,6,-16,1024,1
28109,192265,199348,1,-16,1027,1
28074,192244,199351,1,-12,1030,1
28013,192226,199370,4,-18,1040,1
28051,192244,199309,10,-18,1040,1
28037,192148,199305,10,-14,1032,1
28079,192218,199355,-3,-9,1032,1
28016,192179,199402,3,-15,1029,1
28055,192168,199243,3,-15,1030,1
27993,192124,199292,1,-15,1030,1
27973,192153,199322,4,-11,1027,1
27940,192127,199286,1,-11,1035,1
27983,192184,199256,1,-17,1027,1
27991,192165,199331,6,-18,1027,1
27976,192153,199256,3,-18,1044,1
27921,192130,199246,3,-18,1010,1
27919,192076,199178,-3,-13,1010,1
27902,192048,199260,3,-13,1052,1
27905,192047,199371,3,-12,1035,1
27960,192049,199339,2,-11,1035,1
27938,191997,199266,12,-11,1050,1
27880,191992,199224,12,-12,1023,1
27977,192081,199223,3,-15,1023,1
27945,192057,199339,1,-15,1033,1
27917,192069,199260,1,-10,1024,1
27904,191954,199181,5,-13,1046,1
27927,191937,199243,4,-13,1046,1
27899,192036,199281,4,-15,1016,1
27875,192050,199219,4,-17,1016,1
27921,192072,199244,12,-12,1026,1
27975,192045,199279,12,-12,1030,1
27882,191947,199267,0,-15,1030,1
27852,192034,199268,4,-14,1033,1
27828,192043,199182,1,-14,1018,1
27911,191944,199195,1,-20,1018,1
27834,191954,199217,-6,-12,1018,1
27842,191961,199247,4,-12,1024,1
27835,192026,199280,4,-10,1035,1
27847,192069,199176,0,-9,1035,1
27849,191981,199164,-3,-9,1027,1
27852,191928,199157,-3,-15,1052,1
27885,191893,199192,-3,-15,1052,1
27875,191985,199256,1,-15,1014,1
27818,191981,199241,1,-18,1026,1
27908,191948,199266,2,-12,1026,1
27876,191906,199225,4,-12,1038,1
27821,191955,199229,4,-12,1050,1
27898,191937,199240,7,-16,1021,1
27812,192006,199275,13,-16,1021,1
27864,191958,199224,13,-15,1026,1
27893,191989,199290,0,-12,1026,1
27785,192014,199298,0,-12,1023,1
27875,192022,199190,3,-12,1035,1
27932,192015,199300,3,-13,1035,1
27868,191941,199177,2,-13,1016,1
27915,191933,199178,3,-15,1016,1
27835,191963,199265,3,-15,1023,1
27886,191951,199242,3,-21,1023,1
27813,192025,199281,6,-21,1047,1
27901,191928,199263,6,-19,1016,1
27859,191948,199201,3,-15,1016,1
27848,191951,199242,9,-15,1047,1
27824,191930,199179,9,-18,1027,1
27825,191990,199346,-3,-14,1027,1
27837,191961,199187,3,-14,1030,1
27801,191853,199127,3,-20,1023,1
27825,191869,199208,12,-14,1023,1
27901,191977,199166,0,-14,1035,1
27860,192044,199310,0,-21,1004,1
27837,191902,199187,5,-14,1004,1
27826,191910,199208,5,-14,1035,1
27884,191968,199212,5,-15,1023,1
27901,191974,199234,6,-16,1023,1
27876,192121,199274,12,-17,1032,1
27869,192002,199239,12,-17,1035,1
27892,192001,199235,6,-12,1035,1
27878,191999,199262,-2,-12,1032,1
27816,192057,199224,0,-15,1050,1
27920,192126,199352,0,-18,1024,1
27872,192055,199273,2,-18,1024,1
27899,192060,199350,5,-18,1041,1
27855,192028,199293,5,-22,1030,1
27975,192118,199304,0,-15,1030,1
27920,192091,199337,9,-15,1041,1
27869,192067,199329,9,-16,1033,1
27903,192068,199309,2,-21,1033,1
27867,192108,199245,-6,-21,1035,1
27952,192121,199304,-6,-13,1047,1
27950,192158,199316,-3,-19,1047,1
27955,192146,199371,0,-19,1026,1
27987,192185,199423,0,-18,1043,1
27944,192155,199404,5,-18,1043,1
27953,192120,199329,0,-18,1032,1
28043,192351,199436,0,-18,1030,1
27979,192205,199463,10,-10,1030,1
28060,192256,199387,6,-10,1030,1
27960,192224,199447,6,-15,1040,1
28028,192241,199394,-2,-13,1040,1
27937,192265,199369,-4,-13,1047,1
27996,192211,199376,-4,-18,1016,1
28043,192238,199402,0,-17,1016,1
27946,192210,199365,2,-17,1037,1
27973,192211,199420,2,-15,1024,1
28029,192211,199466,-3,-13,1024,1
28057,192246,199387,7,-20,1021,1
28002,192195,199499,7,-20,1013,1
27958,192184,199497,-2,-15,1044,1
28065,192258,199528,4,-9,1044,1
27951,192218,199435,0,-9,1038,1
28002,192305,199520,0,-13,1040,1
27982,192266,199512,-4,-27,1040,1
28014,192291,199530,5,-27,1027,1
28050,192282,199445,5,-17,1046,1
28082,192295,199552,6,-21,1046,1
28060,192331,199605,3,-21,1030,1
27978,192309,199526,3,-15,1041,1
28036,192338,199578,6,-9,1041,1
28003,192263,199576,0,-9,1040,1
27994,192345,199584,0,-20,1044,1
28030,192362,199648,0,-12,1044,1
27977,192298,199583,-5,-12,1038,1
27992,192329,199610,-5,-22,1020,1
28025,192352,199658,0,-13,1020,1
28082,192396,199677,-6,-12,1035,1
27975,192440,199631,-6,-12,1032,1
28021,192353,199689,6,-19,1032,1
28019,192386,199747,3,-19,1014,1
27991,192351,199723,3,-15,1023,1
28006,192342,199646,4,-8,1023,1
27984,192530,199740,1,-12,1054,1
27982,192316,199690,1,-12,1054,1
27938,192411,199674,2,-5,1035,1
28029,192315,199670,-2,-18,1035,1
27949,192418,199679,1,-18,1029,1
28010,192413,199750,1,-7,1040,1
27987,192380,199636,-3,-12,1040,1
27984,192427,199697,-2,-12,1027,1
28035,192423,199678,-2,-17,1037,1
28008,192381,199627,4,-12,1037,1
28001,192418,199719,1,-12,1033,1
28027,192458,199739,1,-19,1037,1
27943,192408,199723,3,-18,1037,1
28013,192484,199693,-9,-18,1023,1
28043,192414,199714,-9,-10,1027,1
28073,192489,199867,5,-6,1027,1
28046,192456,199814,6,-6,1026,1
27969,192439,199724,6,-15,1017,1
28058,192440,199773,-7,-15,1029,1
28043,192436,199682,-2,-9,1029,1
28055,192555,199812,-2,-9,1044,1
28040,192497,199770,2,-13,1044,1
28104,192494,199794,0,-13,1035,1
28040,192509,199767,0,-15,1052,1
28148,192443,199794,3,-15,1052,1
28123,192553,199737,6,-15,1035,1
28103,192588,199830,6,-20,1023,1
28000,192494,199763,0,-13,1021,1
28028,192439,199680,0,-21,1021,1
28050,192510,199755,10,-21,1043,1
28056,192534,199831,10,-15,1033,1
28031,192525,199658,-4,-15,1033,1
28051,192507,199757,1,-15,1044,1
28091,192505,199802,1,-14,1037,1
28046,192478,199740,6,-17,1037,1
28079,192538,199745,4,-17,1050,1
28043,192469,199806,4,-20,1040,1
28087,192419,199741,0,-7,1040,1
28047,192485,199713,5,-7,1021,1
28138,192505,199774,5,-13,1016,1
27979,192545,199772,6,-21,1016,1
28065,192517,199780,-2,-21,1023,1
28070,192502,199767,-2,-17,1020,1
28089,192503,199680,0,-9,1020,1
28064,192550,199776,2,-9,1032,1
28056,192579,199863,2,-16,1024,1
28115,192572,199796,3,-17,1024,1
28166,192525,199728,3,-17,1026,1
28102,192551,199843,6,-20,1056,1
28044,192485,199772,6,-15,1020,1
28174,192537,199751,-6,-21,1020,1
28108,192514,199780,-6,-21,1040,1
28050,192451,199692,4,-12,1030,1
28159,192523,199696,-3,-15,1030,1
28088,192568,199728,-3,-15,1029,1
28116,192605,199744,-3,-14,1035,1
28098,192581,199617,4,-15,1035,1
28064,192525,199742,6,-15,1027,1
28076,192542,199659,6,-7,1020,1
28097,192586,199779,5,-7,1020,1
28062,192531,199666,3,-7,1035,1
28081,192557,199690,3,-15,1047,1
28094,192538,199795,16,-21,1047,1
28046,192546,199754,0,-21,1040,1
28088,192537,199719,0,-6,1018,1
28073,192538,199678,1,-17,1018,1
28054,192466,199638,0,-17,1027,1
27993,192484,199648,0,-9,1037,1
28028,192459,199671,3,-16,1037,1
28077,192520,199652,2,-16,1029,1
28038,192465,199668,2,-12,1035,1
28084,192426,199740,1,-6,1017,1
28043,192424,199671,-2,-15,1017,1
28052,192445,199684,-2,-15,1010,1
28012,192352,199652,-2,-12,1010,1
28029,192360,199615,6,-12,1032,1
27980,192375,199665,10,-10,1033,1
27967,192329,199626,10,-15,1029,1
27969,192370,199585,0,-15,1029,1
28046,192323,199602,0,-15,1035,1
27996,192363,199571,0,-10,1024,1
28007,192358,199652,-6,-19,1024,1
27898,192218,199511,4,-19,1029,1
27970,192260,199551,4,-11,1024,1
27866,192212,199600,2,-14,1024,1
27891,192209,199518,6,-14,1033,1
27867,192258,199601,6,-16,1026,1
27897,192170,199535,-5,-19,1026,1
27891,192228,199598,3,-19,1026,1
27893,192196,199516,3,-15,1035,1
27857,192165,199555,2,-10,1035,1
27874,192170,199615,3,-10,1030,1
27891,192145,199432,3,-18,1033,1
27830,192135,199480,9,-18,1033,1
27874,192145,199490,-2,-18,1035,1
27854,192130,199536,-2,-14,1016,1
27858,192229,199552,1,-22,1046,1
27864,192079,199530,3,-12,1046,1
27837,192113,199505,-6,-12,1053,1
27895,192143,199565,-6,-17,1033,1
27921,192129,199538,2,-17,1033,1
27856,192280,199554,2,-12,1018,1
27876,192185,199431,5,-15,1018,1
27909,192073,199417,2,-15,1046,1
27830,192157,199511,2,-18,1018,1
27824,192152,199455,10,-13,1030,1
27858,192155,199530,0,-9,1030,1
27877,192118,199458,4,-9,1033,1
27894,192125,199443,4,-15,1027,1
27864,192209,199461,0,-13,1027,1
27802,192111,199415,3,-13,1029,1
27821,192151,199479,3,-21,1049,1
27741,192153,199472,3,-18,1049,1
27901,192094,199431,9,-18,1038,1
27785,192124,199473,9,-14,1035,1
27812,192120,199517,0,-18,1035,1
27869,192174,199495,8,-18,1020,1
27924,192150,199467,8,-19,1037,1
27922,192179,199519,-4,-24,1037,1
27894,192185,199538,0,-24,1041,1
27880,192160,199484,0,-16,1037,1
27881,192206,199545,3,-22,1037,1
27894,192153,199554,3,-22,1049,1
27921,192205,199505,3,-11,1014,1
27854,192163,199433,4,-18,1014,1
27816,192177,199454,1,-18,1037,1
27808,192128,199536,3,-15,1052,1
27820,192124,199530,3,-18,1024,1
27895,192146,199386,14,-18,1024,1
27765,192209,199406,14,-11,1043,1
27823,192211,199479,2,-21,1043,1
27899,192237,199528,12,-21,1038,1
27871,192133,199486,3,-21,1035,1
27778,192135,199414,3,-15,1020,1
27871,192109,199438,0,-15,1020,1
27836,192193,199428,3,-15,1040,1
27870,192120,199439,3,-15,1029,1
27892,192100,199468,4,-15,1029,1
27906,192174,199508,4,-15,1037,1
27815,192146,199491,4,-14,1032,1
27860,192133,199520,4,-17,1032,1
27795,192085,199407,1,-17,1037,1
27889,192202,199515,1,-11,1030,1
27881,192229,199429,-2,-21,1030,1
27934,192217,199445,1,-21,1021,1
27872,192178,199437,1,-14,1041,1
27902,192198,199495,0,-12,1041,1
27875,192181,199498,6,-12,1032,1
27849,192205,199490,6,-12,1029,1
27897,192192,199465,2,-16,1029,1
27881,192189,199482,1,-18,1026,1
27948,192068,199486,10,-18,1032,1
27863,192273,199451,10,-17,1029,1
27888,192110,199402,2,-17,1029,1
27814,192195,199480,2,-7,1030,1
27927,192215,199470,10,-19,1030,1
27929,192237,199469,5,-19,1021,1
27825,192226,199464,5,-21,1029,1
27871,192143,199484,6,-8,1037,1
27838,192195,199351,3,-18,1037,1
27908,192138,199463,3,-18,1047,1
27916,192153,199345,3,-12,1023,1
27923,192157,199474,9,-14,1023,1
27890,192094,199375,-6,-14,1027,1
27846,192055,199386,-6,-14,1053,1
27817,192132,199348,0,-12,1053,1
27790,192029,199372,5,-12,1024,1
27858,192056,199399,5,-13,1030,1
27796,192002,199252,8,-11,1030,1
27811,192008,199319,0,-11,1029,1
27778,192000,199359,0,-15,1046,1
27754,191985,199298,-6,-15,1046,1
27721,191964,199398,4,-15,1023,1
27791,191931,199371,4,-12,1040,1
27758,191920,199330,6,-15,1040,1
27713,191942,199299,7,-15,1026,1
27683,191888,199264,7,-16,1023,1
27746,191965,199329,0,-17,1023,1
27718,191908,199241,8,-13,1035,1
27736,191873,199234,0,-13,1007,1
27753,191857,199227,0,-12,1030,1
27741,191923,199308,1,-12,1030,1
27660,191893,199233,1,-22,1046,1
27693,191837,199253,2,-7,1046,1
27704,191819,199272,5,-20,1046,1
27738,191833,199246,4,-20,1027,1
27706,191737,199195,4,-12,1033,1
27679,191833,199178,4,-18,1033,1
27704,191858,199221,0,-18,1029,1
27739,191782,199269,0,-13,1050,1
27722,191784,199219,9,-18,1050,1
27734,191762,199201,0,-18,1030,1
27656,191795,199239,0,-16,1024,1
27615,191726,199139,-3,-17,1024,1
27690,191676,199171,6,-17,1035,1
27568,191740,199154,6,-12,1027,1
27648,191750,199060,3,-18,1027,1
27556,191738,199131,13,-18,1030,1
27666,191649,199089,13,-21,1043,1
27624,191642,199104,12,-16,1043,1
27688,191672,199148,12,-16,1027,1
27584,191656,199105,12,-15,1038,1
27596,191654,199017,0,-14,1038,1
27670,191636,199108,0,-14,1032,1
27521,191652,199111,0,-14,1024,1
27652,191643,199080,8,-14,1024,1
27636,191666,199074,9,-14,1017,1
27614,191745,199111,4,-20,1035,1
27588,191623,199073,4,-14,1029,1
27603,191575,198996,6,-12,1029,1
27619,191584,199073,6,-12,1038,1
27672,191579,199008,12,-9,1026,1
27564,191603,198999,2,-6,1026,1
27619,191643,199056,-3,-6,1038,1
27546,191605,199049,-3,-15,1029,1
27542,191554,199021,2,-12,1029,1
27539,191578,199076,0,-12,1035,1
27563,191618,199017,0,-18,1027,1
27604,191567,199000,2,-14,1027,1
27565,191533,198989,0,-14,1037,1
27570,191626,199037,0,-18,1035,1
27609,191541,198985,5,-13,1035,1
27564,191607,199082,1,-13,1027,1
27576,191620,199038,1,-18,1021,1
27597,191567,198982,-3,-22,1021,1
27574,191532,199002,3,-22,1052,1
27583,191564,198958,3,-21,1010,1
27542,191608,198946,2,-11,1021,1
27612,191701,199048,-4,-9,1021,1
27597,191548,199007,-6,-9,1021,1
27689,191581,198903,-6,-16,1030,1
27639,191536,199008,6,-16,1030,1
27602,191502,198984,6,-15,1023,1
27584,191579,198983,9,-15,1023,1
27712,191675,199057,7,-15,1037,1
27540,191524,198997,7,-9,1043,1
27538,191499,198968,0,-14,1023,1
27617,191560,198971,4,-19,1023,1
27556,191616,199025,7,-19,1037,1
27573,191511,198977,7,-21,1023,1
27441,191496,198909,4,-15,1023,1
27482,191524,198915,1,-15,1035,1
27490,191486,198854,1,-14,1030,1
27559,191501,198967,5,-16,1030,1
27525,191511,198927,7,-16,1018,1
27494,191463,198883,7,-11,1035,1
27529,191488,198946,7,-12,1035,1
27536,191473,198907,1,-12,1032,1
27582,191546,198928,1,-14,1038,1
27579,191554,198956,7,-12,1038,1
27530,191511,198878,1,-12,1043,1
27600,191467,198870,1,-18,1026,1
27535,191568,198912,3,-18,1026,1
27547,191605,199006,4,-18,1027,1
27527,191448,198893,9,-22,1044,1
27485,191499,198900,9,-18,1044,1
27613,191495,198951,4,-13,1029,1
27579,191461,198899,4,-13,1026,1
27618,191574,198941,12,-9,1026,1
27558,191479,198904,3,-9,1043,1
27590,191441,198895,3,-19,1029,1
27601,191417,198853,4,-10,1043,1
27552,191528,198871,9,-18,1043,1
27508,191451,198924,6,-18,1032,1
27539,191445,198853,6,-22,1020,1
27527,191505,198820,3,-14,1020,1
27518,191456,198798,-2,-14,1049,1
27553,191469,198877,-2,-15,1037,1
27476,191409,198897,7,-14,1037,1
27539,191358,198869,6,-14,1033,1
27489,191364,198866,6,-27,1032,1
27453,191373,198858,0,-9,1032,1
27515,191259,198801,15,-9,1032,1
27475,191374,198894,15,-7,1023,1
27478,191413,198902,2,-13,1023,1
27463,191344,198775,6,-13,1046,1
27446,191324,198859,6,-16,1043,1
27448,191424,198771,0,-16,1043,1
27404,191346,198873,-3,-21,1024,1
27436,191342,198817,9,-21,1027,1
27481,191366,198819,9,-12,1023,1
27404,191391,198808,10,-12,1023,1
27440,191367,198829,10,-15,1035,1
27440,191315,198901,4,-15,1035,1
27352,191323,198780,3,-15,1023,1
27375,191272,198823,0,-15,1050,1
27361,191272,198801,0,-8,1023,1
27390,191341,198849,2,-15,1023,1
27450,191370,198901,-7,-15,1030,1
27415,191390,198858,-7,-14,1029,1
27498,191348,198900,1,-18,1029,1
27379,191351,198891,0,-18,1059,1
27426,191365,198978,0,-15,1026,1
27424,191412,198917,6,-18,1026,1
27490,191454,198932,-4,-18,1047,1
27438,191377,198945,-4,-18,1033,1
27410,191391,198923,3,-13,1033,1
27405,191360,198918,10,-13,1029,1
27432,191387,198958,10,-13,1029,1
27522,191435,198982,-3,-18,1029,1
27446,191390,198995,6,-18,1032,1
27468,191403,198990,6,-15,1041,1
27463,191416,198927,2,-22,1043,1
27462,191426,198997,2,-12,1043,1
27419,191488,198959,2,-12,1035,1
27521,191487,198970,3,-15,1035,1
27494,191434,199038,13,-15,1035,1
27516,191480,199008,13,-7,1033,1
27541,191481,198997,5,-12,1033,1
27426,191400,199004,3,-12,1056,1
27511,191418,199072,0,-12,1037,1
27524,191467,199136,0,-12,1024,1
27399,191401,198967,3,-21,1024,1
27459,191452,199007,-2,-21,1041,1
27485,191623,199020,-2,-12,1033,1
27455,191472,199001,5,-18,1033,1
27483,191516,198988,13,-18,1047,1
27473,191488,199026,13,-25,1035,1
27526,191500,199036,8,-18,1035,1
27440,191584,199059,7,-18,1027,1
27470,191624,199058,7,-10,1007,1
27524,191555,199021,7,-22,1007,1
27514,191579,199063,6,-22,1035,1
27438,191532,199043,6,-20,1040,1
27492,191584,199119,7,-18,1040,1
27481,191505,199059,6,-18,1060,1
27485,191608,199078,6,-18,1038,1
27461,191622,199058,0,-20,1037,1
27472,191579,199129,-5,-15,1037,1
27511,191580,199161,-5,-15,1017,1
27483,191629,199154,7,-16,1017,1
27522,191579,199093,1,-16,1040,1
27484,191580,199158,1,-18,1035,1
27504,191651,199129,5,-12,1035,1
27440,191595,199124,6,-12,1040,1
27471,191641,199144,-2,-27,1027,1
27509,191649,199112,-2,-14,1050,1
27586,191669,199219,3,-18,1050,1
27578,191633,199142,4,-18,1037,1
27473,191766,199195,4,-9,1053,1
27656,191659,199158,0,-11,1053,1
27621,191765,199212,0,-11,1033,1
27552,191663,199179,0,-11,1023,1
27635,191779,199214,3,-18,1023,1
27611,191768,199217,12,-18,1044,1
27645,191746,199247,12,-17,1038,1
27596,191745,199201,1,-16,1038,1
27593,191736,199209,3,-16,1032,1
27662,191782,199251,3,-12,1037,1
27673,191775,199181,3,-17,1037,1
27569,191768,199206,12,-17,1027,1
27578,191724,199226,12,-16,1018,1
27615,191726,199159,2,-15,1037,1
27536,191681,199104,-6,-15,1037,1
27540,191759,199180,-6,-15,1038,1
27568,191731,199154,2,-13,1038,1
27616,191761,199243,9,-13,1032,1
27655,191695,199177,9,-21,1021,1
27600,191757,199166,12,-15,1021,1
27624,191736,199205,3,-18,1020,1
27574,191705,199174,-3,-18,1043,1
27536,191699,199142,-3,-26,1046,1
27557,191703,199090,6,-15,1046,1
27602,191684,199182,5,-15,1029,1
27590,191716,199145,5,-15,1029,1
27587,191719,199231,4,-15,1029,1
27496,191722,199144,3,-15,1035,1
27493,191760,199163,3,-15,1030,1
27543,191637,199085,9,-14,1030,1
27507,191647,199124,0,-14,1020,1
27463,191532,199088,0,-12,1020,1
27563,191529,199123,6,-13,1020,1
27451,191551,199062,3,-13,1027,1
27498,191545,199073,3,-15,1052,1
27496,191591,199087,7,-9,1052,1
27460,191590,199120,2,-9,1026,1
27526,191482,199070,2,-15,1033,1
27472,191461,199042,15,-15,1032,1
27476,191537,199071,0,-15,1032,1
27475,191453,199064,0,-12,1038,1
27453,191515,199006,3,-14,1038,1
27440,191529,199083,5,-14,1029,1
27437,191419,199077,-2,-12,1026,1
27474,191528,199060,-2,-12,1046,1
27506,191459,199036,3,-12,1046,1
27421,191434,199095,3,-12,1029,1
27467,191480,199030,8,-12,1023,1
27389,191462,199068,1,-19,1023,1
27457,191433,198983,4,-19,1041,1
27386,191444,198995,4,-18,1035,1
27467,191481,199079,15,-14,1035,1
27515,191476,198976,4,-14,1030,1
27433,191521,199010,4,-14,1020,1
27423,191475,199014,3,-22,1020,1
27446,191504,199085,5,-22,1033,1
27453,191531,199041,5,-19,1038,1
27394,191399,198957,1,-9,1038,1
27455,191447,199053,-2,-9,1032,1
27442,191455,199058,-2,-19,1030,1
27390,191465,198919,9,-18,1030,1
27388,191502,199049,14,-18,1035,1
27459,191486,199052,14,-21,1030,1
27405,191434,199039,1,-22,1029,1
27421,191364,199031,-3,-22,1029,1
27370,191387,199011,-3,-12,1030,1
27434,191507,199059,2,-9,1030,1
27454,191481,198999,1,-9,1040,1
27382,191469,198924,1,-21,1023,1
27439,191446,198997,9,-15,1023,1
27447,191470,198997,4,-15,1029,1
27500,191492,199072,4,-15,1016,1
27536,191494,199037,9,-11,1041,1
27405,191449,198983,4,-15,1041,1
27446,191454,199012,5,-15,1037,1
27407,191501,199080,5,-12,1035,1
27457,191484,198999,3,-15,1035,1
27484,191451,199019,5,-15,1049,1
27470,191502,199041,5,-18,1038,1
27426,191460,198955,8,-21,1038,1
27517,191487,199047,3,-21,1043,1
27501,191597,199134,3,-12,1013,1
27411,191464,199068,7,-14,1013,1
27394,191472,198965,8,-14,1038,1
27531,191505,199037,8,-24,1024,1
27458,191435,199006,8,-12,1024,1
27480,191536,199030,3,-12,1040,1
27404,191467,198948,3,-9,1037,1
27481,191548,199052,-3,-18,1037,1
27533,191449,199030,17,-18,1037,1
27515,191575,199047,17,-19,1043,1
27546,191495,199042,0,-12,1043,1
27500,191521,199059,6,-12,1029,1
27453,191488,199041,9,-19,1044,1
27532,191516,198963,9,-13,1024,1
27467,191502,199021,-4,-13,1024,1
27454,191582,199011,-5,-14,1030,1
27487,191562,199013,-5,-8,1047,1
27488,191531,199024,9,-13,1047,1
27521,191544,199031,-3,-13,1021,1
27502,191551,198958,-3,-15,1016,1
27474,191586,199040,4,-12,1016,1
27487,191505,198986,5,-12,1047,1
27442,191530,198942,5,-17,1052,1
27513,191515,198944,4,-13,1052,1
27471,191564,198954,0,-13,1020,1
27521,191543,199060,0,-17,1035,1
27477,191556,198961,3,-13,1035,1
27493,191532,198871,3,-13,1033,1
27504,191480,198968,3,-12,1040,1
27602,191492,199000,1,-19,1040,1
27493,191512,199017,5,-19,1035,1
27474,191574,198955,5,-9,1032,1
27548,191601,199052,-3,-8,1017,1
27536,191512,198979,6,-8,1017,1
27526,191538,198948,6,-22,1027,1
27506,191537,199023,0,-12,1027,1
27490,191539,199021,0,-10,1037,1
27507,191549,198902,3,-10,1017,1
27527,191514,198962,3,-17,1024,1
27565,191486,198997,3,-11,1024,1
27466,191540,198974,4,-11,1021,1
27528,191496,198956,4,-19,1035,1
27532,191442,199018,-2,-13,1035,1
27515,191460,198931,1,-13,1040,1
27509,191478,198995,1,-18,1024,1
27507,191504,198983,3,-15,1024,1
27483,191464,198958,-7,-15,1026,1
27500,191501,198936,-7,-15,1035,1
27510,191456,199030,6,-14,1035,1
27436,191412,198987,6,-14,1020,1
27501,191393,198985,6,-12,1027,1
27425,191425,198955,-4,-12,1027,1
27436,191318,198944,-2,-12,1044,1
27359,191293,198860,-2,-15,1024,1
27444,191394,198918,1,-14,1024,1
27411,191384,198903,-6,-14,1023,1
27365,191396,198965,-6,-15,1035,1
27374,191366,198900,0,-21,1030,1
27407,191311,198897,2,-15,1030,1
27349,191373,198908,2,-15,1029,1
27385,191365,198935,3,-15,1029,1
27389,191412,198999,3,-15,1050,1
27394,191381,198943,-3,-15,1037,1
27391,191309,198907,-3,-16,1054,1
27387,191380,198937,3,-18,1054,1
27371,191304,198878,4,-18,1040,1
27439,191421,198965,4,-18,1011,1
27432,191289,198956,0,-14,1011,1
27390,191363,198928,6,-14,1035,1
27372,191349,198924,6,-13,1044,1
27408,191266,198954,10,-15,1044,1
27378,191410,198948,-2,-15,1032,1
27357,191299,198963,-2,-15,1024,1
27402,191305,198919,3,-12,1024,1
27380,191295,198924,6,-12,1017,1
27392,191397,198954,6,-18,1032,1
27405,191370,198940,8,-18,1032,1
27426,191378,198898,5,-18,1035,1
27478,191375,198959,5,-17,1026,1
27458,191333,198953,5,-15,1026,1
27441,191398,198935,3,-15,1027,1
27394,191445,199022,3,-15,1032,1
27395,191378,198893,10,-14,1032,1
27383,191347,198979,2,-12,1032,1
27430,191340,198956,4,-12,1054,1
27443,191426,198946,4,-19,1035,1
27454,191379,199025,3,-19,1035,1
27351,191323,198876,3,-18,1029,1
27356,191348,198908,3,-15,1029,1
27463,191341,198915,0,-19,1032,1
27434,191417,198920,7,-19,1021,1
27397,191321,198934,7,-12,1049,1
27447,191339,198952,3,-15,1049,1
27413,191351,198837,0,-15,1041,1
27451,191332,198877,0,-18,1011,1
27488,191410,198938,0,-16,1011,1
27432,191353,198901,2,-16,1023,1
27522,191392,198902,2,-10,1030,1
27446,191456,198967,13,-12,1030,1
27440,191442,198984,3,-12,1027,1
27433,191332,198969,3,-18,1035,1
27363,191353,198984,1,-11,1035,1
27396,191357,198899,3,-11,1046,1
27422,191377,198928,3,-18,1046,1
27422,191335,198986,4,-20,1046,1
27374,191382,198921,2,-20,1020,1
27375,191380,198959,2,-17,1037,1
27412,191369,198938,3,-19,1037,1
27442,191387,198946,0,-19,1029,1
27419,191339,198886,0,-9,1026,1
27432,191305,198820,6,-10,1026,1
27365,191370,198945,5,-18,1032,1
27360,191280,198953,6,-18,1041,1
27511,191428,199021,6,-19,1033,1
27467,191307,198893,1,-19,1033,1
27464,191317,198891,1,-19,1041,1
27422,191402,198909,1,-13,1021,1
27390,191282,198815,-2,-11,1021,1
27445,191335,198843,5,-11,1030,1
27433,191336,198902,5,-12,1020,1
27441,191349,198830,6,-13,1020,1
27455,191392,198799,9,-13,1030,1
27494,191417,198855,9,-8,1027,1
27462,191309,198910,0,-12,1027,1
27421,191319,198829,6,-12,1044,1
27454,191390,198844,6,-12,1035,1
27439,191435,198850,7,-19,1035,1
27489,191422,198779,9,-19,1032,1
27531,191347,198929,9,-15,1024,1
27514,191353,198883,9,-18,1024,1
27548,191344,198956,-2,-18,1027,1
27444,191408,198877,-2,-19,1049,1
27494,191357,198818,-2,-2,1026,1
27501,191345,198898,7,-2,1026,1
27463,191374,198901,7,-9,1032,1
27481,191366,198900,8,-16,1032,1
27514,191306,198865,12,-16,1041,1
27496,191383,198869,12,-15,1035,1
27492,191326,198888,-3,-13,1035,1
27449,191355,198851,2,-18,1035,1
27468,191246,198797,4,-18,1040,1
27425,191385,198900,4,-15,1017,1
27493,191379,198824,10,-13,1017,1
27439,191261,198885,7,-13,1032,1
27428,191223,198831,7,-12,1037,1
27368,191226,198815,4,-15,1037,1
27403,191250,198787,6,-15,1035,1
27439,191258,198844,6,-15,1035,1
27397,191204,198829,3,-15,1035,1
27457,191185,198776,4,-15,1053,1
27342,191214,198766,4,-12,1063,1
27358,191204,198803,7,-12,1063,1
27313,191214,198853,1,-12,1027,1
27338,191268,198837,1,-9,1013,1
27353,191181,198799,2,-20,1013,1
27403,191257,198837,8,-20,1011,1
27343,191255,198809,8,-18,1035,1
27379,191215,198841,1,-12,1035,1
27390,191156,198793,2,-12,1032,1
27395,191120,198757,2,-15,1037,1
27370,191175,198795,2,-9,1024,1
27375,191114,198818,6,-9,1024,1
27380,191127,198887,6,-17,1032,1
27364,191142,198788,1,-13,1029,1
27397,191145,198749,2,-16,1029,1
27341,191149,198752,3,-16,1026,1
27302,191242,198773,3,-19,1032,1
27368,191230,198763,4,-13,1032,1
27408,191113,198772,10,-13,1049,1
27308,191117,198746,10,-12,1026,1
27348,191068,198712,1,-19,1026,1
27363,191120,198805,3,-19,1047,1
27329,191153,198746,3,-15,1035,1
27317,191143,198815,16,-13,1035,1
27307,191111,198784,3,-13,1026,1
27364,191125,198678,3,-9,1033,1
27359,191135,198748,2,-14,1033,1
27310,191104,198762,1,-14,1030,1
27368,191118,198799,1,-14,1026,1
27362,191137,198772,3,-20,1026,1
27360,191170,198797,0,-10,1035,1
27324,191151,198750,-4,-10,1046,1
27390,191185,198776,-4,-16,1023,1
27306,191122,198774,-3,-16,1023,1
27436,191134,198730,-3,-21,1018,1
27398,191142,198790,4,-11,1018,1
27375,191087,198736,3,-11,1033,1
27337,191171,198716,3,-15,999,1
27369,191097,198678,3,-15,1044,1
27348,191100,198773,3,-15,1044,1
27368,191107,198763,7,-15,1035,1
27329,191077,198695,7,-13,1035,1
27352,191145,198732,3,-14,1035,1
27327,190981,198703,6,-14,1035,1
27348,191054,198641,6,-17,1021,1
27329,191011,198647,5,-14,1021,1
27359,191061,198593,1,-14,1023,1
27377,191082,198747,1,-13,1038,1
27385,190950,198617,1,-26,1038,1
27291,190935,198566,9,-26,1004,1
27303,190986,198588,9,-12,1047,1
27259,190941,198515,6,-18,1047,1
27323,190983,198655,-4,-18,1029,1
27318,190978,198546,-4,-18,1026,1
27286,190991,198575,6,-12,1026,1
27294,190924,198569,1,-12,1037,1
27335,190987,198547,9,-9,1026,1
27321,190924,198563,9,-14,1026,1
27303,190992,198576,9,-11,1014,1
27274,190956,198532,8,-11,1040,1
27361,190921,198495,8,-15,1040,1
27329,190948,198505,3,-15,1050,1
27313,190933,198527,3,-22,1021,1
27319,190981,198466,7,-19,1023,1
27268,190960,198491,3,-15,1023,1
27320,190963,198500,2,-15,1023,1
27309,190963,198494,2,-10,1038,1
27260,190920,198473,6,-16,1038,1
27308,190983,198501,2,-16,1011,1
27288,190906,198484,2,-14,1037,1
27289,190942,198480,12,-19,1037,1
27380,190994,198526,4,-19,1041,1
27309,190865,198527,4,-9,1024,1
27280,191001,198467,6,-12,1024,1
27290,190933,198506,3,-12,1044,1
27290,190849,198526,3,-15,1027,1
27325,190940,198424,15,-20,1027,1
27348,190905,198522,17,-20,1021,1
27357,191043,198560,17,-12,1026,1
27331,191043,198505,3,-9,1026,1
27381,190954,198477,12,-9,1033,1
27374,190934,198542,12,-18,1035,1
27361,190936,198529,9,-12,1035,1
27356,190994,198541,3,-12,1021,1
27250,190973,198461,3,-11,1026,1
27294,190892,198499,3,-11,1032,1
27317,190918,198458,0,-11,1032,1
27342,190899,198502,0,-17,1040,1
27315,190969,198507,5,-17,1024,1
27375,191006,198513,3,-24,1024,1
27301,190915,198456,0,-24,1037,1
27308,190906,198481,0,-24,1033,1
27295,190919,198434,7,-15,1033,1
27345,190954,198495,-4,-15,1038,1
27297,190885,198520,-4,-15,1041,1
27370,190949,198497,7,-13,1041,1
27293,190899,198532,5,-13,1035,1
27335,190890,198480,5,-3,1043,1
27274,190950,198607,3,-16,1043,1
27342,190865,198496,9,-16,1017,1
27252,190951,198515,9,-13,1040,1
27286,190900,198497,6,-6,1040,1
27268,190926,198501,0,-6,1043,1
27286,190876,198457,0,-13,1024,1
27252,190786,198438,0,-11,1024,1
27265,190857,198442,10,-11,1032,1
27265,190875,198506,10,-9,1033,1
27248,190845,198517,3,-19,1033,1
27184,190780,198485,4,-12,1024,1
27279,190812,198415,4,-12,1065,1
27268,190763,198424,10,-19,1065,1
27203,190730,198393,6,-19,1005,1
27267,190887,198430,2,-8,1029,1
27286,190879,198494,2,-20,1040,1
27198,190878,198547,8,-17,1040,1
27303,190858,198456,4,-17,1029,1
27244,190851,198523,4,-16,1016,1
27267,190813,198552,7,-17,1016,1
27255,190930,198554,5,-17,1032,1
27326,190816,198459,5,-10,1032,1
27240,190853,198453,2,-13,1032,1
27227,190862,198489,5,-13,1035,1
27259,190871,198500,5,-18,1027,1
27191,190863,198567,-3,-18,1027,1
27232,190849,198473,0,-18,1020,1
27206,190818,198515,0,-16,1023,1
27309,190781,198419,3,-12,1023,1
27280,190904,198500,6,-12,1029,1
27250,190909,198528,6,-24,1029,1
27226,190879,198594,1,-12,1029,1
27221,190848,198525,8,-12,1026,1
27279,190838,198493,8,-13,1023,1
27256,190862,198522,1,-18,1023,1
27212,190958,198436,4,-18,1035,1
27271,190984,198523,2,-17,1030,1
27315,190871,198510,2,-15,1023,1
27209,190912,198523,6,-15,1023,1
27291,190854,198494,0,-18,1027,1
27240,190870,198489,0,-8,1054,1
27313,190862,198537,-3,-21,1054,1
27251,190861,198432,0,-21,1035,1
27267,190876,198442,0,-18,1040,1
27270,190918,198516,0,-16,1040,1
27278,190816,198440,6,-16,1037,1
27363,190907,198493,6,-13,1049,1
27252,190925,198507,6,-12,1049,1
27283,190898,198546,0,-12,1038,1
27303,190839,198518,0,-18,1037,1
27278,190898,198534,9,-21,1037,1
27396,190924,198524,3,-21,1030,1
27278,190895,198457,3,-15,1026,1
27356,190953,198587,0,-21,1026,1
27314,190991,198503,14,-21,1021,1
27240,190929,198567,14,-9,1027,1
27332,190977,198501,6,-24,1027,1
27375,190934,198526,5,-24,1029,1
27408,190914,198517,-3,-16,1027,1
27328,190942,198505,-3,-9,1035,1
27325,190862,198473,6,-14,1035,1
27282,190954,198530,6,-14,1021,1
27374,190871,198407,5,-11,1021,1
27314,190842,198524,-5,-11,1030,1
27366,190929,198520,-5,-12,1033,1
27393,190840,198439,3,-16,1033,1
27278,190795,198438,1,-14,1033,1
27261,190804,198353,5,-14,1008,1
27345,190847,198399,5,-13,1030,1
27339,190867,198454,3,-21,1030,1
27293,190861,198408,-3,-21,1029,1
27318,190844,198448,-3,-15,1026,1
27341,190829,198458,8,-13,1026,1
27305,190908,198396,2,-13,1024,1
27312,190890,198386,2,-11,1038,1
27356,190919,198417,4,-15,1038,1
27427,190859,198477,6,-15,1033,1
27309,190850,198385,6,-21,1047,1
27322,190926,198421,3,-17,1047,1
27301,190888,198429,6,-17,1040,1
27309,190824,198443,6,-17,1017,1
27425,190949,198498,9,-18,1017,1
27415,190893,198486,3,-18,1038,1
27411,190922,198466,3,-13,1027,1
27394,190853,198433,0,-16,1027,1
27374,190900,198369,5,-11,1033,1
27436,190943,198402,3,-11,1037,1
27353,190794,198417,3,-11,1043,1
27380,190913,198442,2,-11,1043,1
27409,190786,198406,2,-12,1038,1
27320,190789,198376,7,-14,1043,1
27327,190755,198411,0,-22,1043,1
27309,190686,198355,3,-22,1044,1
27329,190807,198422,3,-20,1013,1
27306,190785,198371,3,-20,1013,1
27279,190751,198361,8,-20,1029,1
27324,190820,198396,8,-16,1020,1
27252,190719,198346,2,-18,1020,1
27287,190709,198331,8,-18,1040,1
27238,190648,198317,8,-15,1041,1
27197,190670,198302,4,-13,1041,1
27206,190676,198301,9,-13,1029,1
27234,190563,198243,9,-9,1023,1
27208,190622,198245,9,-16,1023,1
27291,190554,198302,4,-16,1035,1
27201,190503,198288,4,-17,1032,1
27266,190590,198292,13,-21,1032,1
27246,190715,198286,8,-12,1033,1
27248,190599,198291,5,-12,1035,1
27182,190612,198276,5,-9,1037,1
27259,190567,198325,7,-9,1037,1
27173,190634,198237,7,-17,1052,1
27195,190618,198259,10,-11,1052,1
27163,190528,198211,9,-11,1033,1
27189,190588,198290,9,-16,1047,1
27183,190545,198243,4,-20,1023,1
27181,190579,198258,15,-21,1023,1
27235,190519,198245,3,-21,1035,1
27227,190539,198209,3,-12,1029,1
27193,190556,198255,-9,-12,1029,1
27232,190592,198217,5,-12,1021,1
27148,190549,198141,5,-17,1017,1
27144,190540,198216,6,-15,1017,1
27239,190519,198202,5,-15,1032,1
27182,190542,198205,5,-15,1011,1
27224,190550,198166,6,-18,1011,1
27243,190512,198221,3,-18,1037,1
27207,190595,198102,3,-15,1026,1
27135,190530,198126,6,-12,1026,1
27228,190482,198102,9,-12,1049,1
27158,190546,198249,9,-14,1035,1
27177,190494,198173,18,-15,1035,1
27223,190529,198223,7,-15,1023,1
27226,190466,198185,5,-12,1010,1
27224,190540,198233,5,-15,1010,1
27307,190521,198258,4,-16,1011,1
27217,190538,198251,4,-16,1035,1
27169,190662,198213,9,-16,1035,1
27237,190532,198201,6,-16,1023,1
27243,190508,198244,6,-12,1027,1
27207,190588,198217,9,-14,1038,1
27219,190540,198228,4,-15,1038,1
27163,190618,198222,9,-15,1037,1
27211,190593,198186,9,-15,1032,1
27242,190586,198176,4,-15,1032,1
27190,190545,198120,9,-15,1037,1
27246,190517,198218,9,-12,1044,1
27238,190565,198234,12,-11,1044,1
27188,190561,198217,10,-11,1029,1
27224,190565,198130,10,-16,1024,1
27255,190547,198242,6,-10,1024,1
27190,190542,198186,4,-10,1033,1
27205,190551,198157,4,-15,1023,1
27214,190527,198154,0,-15,1023,1
27253,190519,198201,0,-15,1037,1
27205,190540,198199,0,-17,1032,1
27239,190508,198125,7,-13,1032,1
27210,190548,198186,4,-13,1023,1
27244,190564,198187,4,-18,1021,1
27218,190525,198137,3,-13,1032,1
27232,190530,198221,4,-13,1032,1
27248,190534,198191,4,-13,1018,1
27223,190620,198235,9,-19,1018,1
27286,190550,198147,7,-10,1016,1
27262,190554,198202,7,-10,1035,1
27276,190576,198148,9,-9,1033,1
27265,190551,198129,3,-12,1033,1
27233,190636,198182,7,-12,1035,1
27222,190559,198202,7,-15,1033,1
27262,190686,198188,4,-10,1033,1
27308,190603,198247,3,-10,1040,1
27272,190608,198167,3,-13,1037,1
27294,190625,198173,0,-14,1037,1
27291,190578,198156,1,-14,1056,1
27321,190578,198121,1,-14,1035,1
27204,190651,198181,9,-12,1035,1
27278,190548,198135,6,-12,1035,1
27262,190611,198178,6,-18,1033,1
27248,190642,198168,8,-11,1033,1
27274,190546,198134,9,-11,1035,1
27290,190538,198134,9,-20,1032,1
27309,190512,198177,7,-11,1032,1
27292,190554,198182,2,-11,1023,1
27187,190510,198134,2,-21,1029,1
27274,190542,198099,6,-15,1029,1
27265,190557,198071,6,-15,1020,1
27229,190500,198167,5,-18,1027,1
27224,190540,198166,5,-15,1023,1
27305,190510,198096,3,-15,1023,1
27226,190493,198097,3,-15,1020,1
27255,190440,198080,6,-16,1020,1
27153,190424,198004,13,-16,1017,1
27211,190456,198068,10,-18,1046,1
27164,190390,198058,10,-19,1020,1
27170,190431,198121,12,-12,1020,1
27228,190380,198098,5,-12,1027,1
27250,190388,198008,5,-11,1026,1
27203,190378,198081,3,-9,1026,1
27222,190453,198030,3,-9,1026,1
27207,190325,198007,3,-14,1037,1
27119,190312,197973,10,-17,1037,1
27176,190294,197947,5,-17,1040,1
27165,190319,197994,5,-17,1026,1
27206,190378,197966,7,-9,1026,1
27167,190288,197950,10,-9,1029,1
27135,190215,197966,10,-11,1027,1
27180,190290,198007,1,-15,1027,1
27108,190265,197977,5,-15,1021,1
27197,190202,198021,5,-18,1041,1
27127,190213,197916,5,-17,1032,1
27190,190174,197921,12,-17,1032,1
27161,190183,197891,9,-15,1035,1
27117,190233,197983,9,-15,1011,1
27224,190176,197947,6,-15,1011,1
27113,190199,197879,6,-6,1029,1
27159,190199,197879,2,-11,1021,1
27173,190170,197921,-5,-20,1021,1
27201,190184,197935,9,-20,1035,1
27098,190130,197837,9,-15,1033,1
27095,190148,197841,15,-17,1033,1
27140,190072,197788,6,-17,1032,1
27044,189991,197726,6,-15,1040,1
27091,189985,197671,5,-17,1040,1
27010,189919,197524,1,-17,1049,1
27028,189793,197520,1,-8,1026,1
27089,189736,197485,9,-13,1026,1
27067,189851,197526,5,-13,1016,1
27020,189871,197506,5,-14,1026,1
27047,189790,197585,15,-14,1026,1
27099,189844,197554,-5,-14,1024,1
27067,189821,197490,-5,-17,1035,1
27061,189760,197490,0,-17,1035,1
27002,189809,197501,6,-17,1047,1
27085,189882,197499,6,-13,1041,1
26995,189778,197508,-5,-16,1041,1
27024,189794,197536,-2,-16,1010,1
27095,189773,197575,-3,-12,1035,1
27114,189791,197466,-3,-24,1020,1
27087,189834,197659,0,-24,1020,1
27057,189764,197502,0,-13,1021,1
27022,189740,197428,3,-16,1030,1
27053,189778,197436,3,-13,1030,1
26998,189756,197447,9,-13,1046,1
27099,189878,197574,9,-15,1023,1
27045,189890,197505,9,-15,1023,1
27068,189758,197492,1,-15,1040,1
27086,189815,197527,1,-14,1044,1
27126,189809,197488,7,-14,1044,1
27062,189875,197524,4,-14,1014,1
27012,189879,197455,4,-16,1035,1
27115,189767,197437,6,-16,1035,1
27096,189816,197481,12,-16,1020,1
27131,189774,197547,12,-16,1018,1
27122,189728,197423,5,-14,1018,1
27083,189793,197461,6,-14,1020,1
27107,189799,197466,6,-15,1038,1
27041,189795,197457,7,-12,1038,1
27142,189832,197495,10,-12,1037,1
27033,189806,197479,8,-10,1029,1
26985,189778,197576,8,-18,1029,1
27036,189813,197472,-6,-21,1023,1
27105,189815,197458,-6,-21,1035,1
26995,189709,197442,7,-15,1035,1
27061,189771,197404,1,-15,1018,1
27146,189811,197536,1,-12,1023,1
27064,189845,197434,6,-3,1035,1
27096,189719,197443,13,-14,1035,1
27104,189788,197455,3,-14,1014,1
27083,189787,197453,3,-9,1026,1
27100,189844,197442,6,-17,1026,1
27073,189783,197470,9,-17,1041,1
27086,189832,197473,9,-18,1035,1
27050,189792,197473,3,-15,1035,1
27045,189854,197405,9,-15,1035,1
27023,189826,197408,9,-14,1037,1
27083,189776,197371,12,-10,1037,1
27097,189730,197401,3,-10,1023,1
27117,189780,197425,3,-15,1024,1
27102,189867,197483,0,-13,1024,1
27098,189845,197452,3,-13,1047,1
27055,189777,197437,3,-12,1026,1
27062,189736,197447,4,-19,1026,1
27117,189775,197464,8,-19,1024,1
27076,189704,197392,7,-18,1026,1
27125,189817,197464,7,-19,1026,1
27115,189821,197449,9,-11,1032,1
27057,189775,197452,9,-11,1017,1
27092,189750,197484,9,-23,1017,1
27098,189793,197527,6,-23,1038,1
27089,189694,197299,6,-15,1052,1
27067,189636,197366,7,-18,1024,1
27049,189644,197321,3,-15,1024,1
27051,189652,197366,4,-15,1024,1
26985,189646,197439,4,-14,1053,1
27076,189708,197352,4,-18,1053,1
27002,189666,197418,9,-18,1044,1
26935,189675,197372,9,-16,1043,1
26900,189579,197402,7,-13,1043,1
27042,189602,197356,13,-13,1037,1
27022,189625,197371,13,-18,1027,1
26987,189618,197315,9,-16,1027,1
27057,189559,197350,10,-16,1026,1
27057,189618,197352,10,-12,1030,1
27027,189595,197340,6,-9,1030,1
27049,189638,197489,6,-9,1027,1
27020,189606,197415,6,-16,1010,1
27068,189557,197365,6,-18,1010,1
27034,189556,197382,3,-18,1029,1
27053,189608,197333,3,-16,1040,1
27038,189686,197439,9,-16,1040,1
26972,189640,197414,5,-16,1035,1
27039,189625,197422,12,-15,1043,1
26998,189627,197389,12,-10,1024,1
27034,189579,197409,3,-10,1024,1
27037,189663,197398,3,-15,1033,1
27048,189649,197373,8,-18,1023,1
27020,189605,197331,10,-14,1023,1
27039,189620,197365,0,-14,1030,1
26994,189629,197381,0,-15,1007,1
27015,189672,197489,9,-9,1007,1
27069,189589,197373,4,-9,1033,1
27032,189617,197390,4,-12,1035,1
27054,189606,197389,6,-18,1035,1
26997,189643,197374,10,-18,1038,1
26987,189679,197386,10,-12,1029,1
26999,189591,197449,3,-17,1029,1
26994,189612,197410,9,-17,1026,1
27061,189605,197304,9,-21,1029,1
27036,189560,197334,3,-18,1029,1
27011,189645,197436,12,-18,1027,1
27020,189598,197384,12,-17,1038,1
27051,189721,197350,0,-8,1038,1
27033,189657,197318,3,-16,1041,1
27002,189637,197364,3,-16,1021,1
26982,189609,197425,0,-13,1021,1
27090,189637,197344,8,-13,1035,1
27057,189676,197373,8,-14,1038,1
27057,189660,197471,4,-20,1038,1
27034,189642,197387,1,-12,1035,1
27133,189731,197453,1,-12,1007,1
27103,189629,197325,12,-9,1032,1
27092,189717,197428,2,-16,1032,1
27019,189654,197359,6,-16,1035,1
27050,189657,197406,6,-19,1027,1
27072,189735,197441,-2,-12,1027,1
27117,189606,197330,10,-12,1047,1
27037,189650,197336,10,-9,1027,1
27035,189601,197441,12,-11,1027,1
27045,189651,197445,6,-11,1018,1
27024,189683,197462,6,-24,1038,1
27108,189722,197401,-3,-14,1038,1
27099,189656,197385,0,-14,1032,1
27067,189721,197405,0,-15,1030,1
27124,189710,197414,9,-14,1030,1
27112,189725,197502,0,-14,1032,1
27061,189668,197466,0,-21,1026,1
27050,189694,197450,4,-19,1026,1
27126,189725,197473,3,-19,1021,1
27165,189729,197445,6,-17,1035,1
27007,189748,197393,6,-19,1033,1
27021,189747,197495,7,-19,1033,1
27171,189744,197397,6,-11,1024,1
27149,189745,197425,6,-12,1033,1
27129,189719,197389,3,-11,1033,1
27165,189743,197485,3,-11,1026,1
27069,189798,197388,3,-22,1035,1
27031,189770,197433,5,-17,1035,1
27156,189740,197454,4,-17,1032,1
27171,189771,197479,4,-18,1024,1
27209,189780,197413,6,-13,1024,1
27166,189816,197431,2,-13,1024,1
27129,189764,197435,2,-13,1020,1
27107,189788,197448,-3,-17,1020,1
27129,189760,197430,3,-17,1017,1
27160,189722,197436,3,-13,1024,1
27192,189816,197422,7,-21,1024,1
27210,189828,197535,5,-21,1046,1
27136,189772,197416,5,-15,1018,1
27176,189749,197384,8,-12,1018,1
27129,189732,197385,9,-12,1032,1
27086,189736,197449,9,-18,1029,1
27083,189645,197325,6,-18,1029,1
27180,189713,197403,5,-11,1026,1
27200,189727,197391,5,-11,1021,1
27129,189692,197374,7,-18,1021,1
27140,189726,197454,6,-18,1018,1
27146,189738,197410,4,-10,1054,1
27119,189658,197386,4,-15,1032,1
27167,189720,197404,6,-16,1032,1
27140,189687,197391,6,-16,1023,1
27150,189710,197310,6,-17,1038,1
27072,189605,197355,6,-14,1038,1
27127,189565,197327,-2,-14,1013,1
27085,189662,197342,-2,-12,1033,1
27148,189572,197357,9,-13,1033,1
27139,189605,197347,9,-13,1026,1
27107,189667,197366,9,-14,1017,1
27101,189617,197373,8,-22,1017,1
27074,189556,197286,9,-22,1033,1
27052,189552,197318,9,-17,1044,1
27119,189593,197386,8,-12,1044,1
27125,189666,197368,12,-12,1035,1
27082,189661,197423,12,-15,1023,1
27171,189640,197348,5,-15,1023,1
27139,189601,197351,-4,-15,1027,1
27022,189660,197389,-4,-15,1044,1
27129,189542,197383,7,-12,1044,1
27082,189583,197335,6,-12,1018,1
26994,189539,197329,6,-13,1026,1
27088,189503,197355,3,-15,1032,1
27152,189593,197394,3,-11,1032,1
27176,189578,197389,3,-11,1026,1
27120,189571,197409,8,-8,1026,1
27151,189549,197417,4,-13,1033,1
27147,189608,197366,6,-13,1030,1
27085,189599,197322,6,-8,1007,1
27095,189551,197355,5,-11,1007,1
27079,189636,197359,9,-11,1026,1
27233,189651,197473,9,-8,1029,1
27208,189728,197406,5,-21,1029,1
27129,189678,197422,7,-21,1040,1
27160,189620,197373,7,-16,1043,1
27160,189617,197386,12,-16,1043,1
27169,189643,197443,-3,-16,1037,1
27098,189651,197386,-3,-16,1035,1
27106,189589,197417,6,-11,1035,1
27144,189581,197398,2,-11,1029,1
27081,189525,197374,2,-15,1018,1
27108,189554,197315,3,-17,1018,1
27140,189562,197388,7,-17,1027,1
27183,189589,197361,7,-18,1030,1
27122,189575,197350,2,-8,1030,1
27147,189526,197318,10,-8,1037,1
27156,189619,197361,0,-17,1043,1
27168,189617,197288,0,-12,1038,1
27161,189527,197317,12,-15,1038,1
27174,189561,197290,12,-15,1030,1
27174,189679,197359,9,-16,1030,1
27097,189524,197318,12,-12,1033,1
27167,189629,197361,9,-12,1032,1
27142,189610,197327,9,-15,1027,1
27096,189596,197322,12,-12,1027,1
27199,189632,197333,5,-12,1011,1
27183,189573,197307,5,-10,1030,1
27154,189587,197342,6,-15,1030,1
27160,189660,197443,8,-15,1043,1
27171,189630,197294,8,-18,1030,1
27185,189567,197298,3,-9,1030,1
27209,189567,197322,6,-9,1010,1
27143,189579,197278,6,-14,1037,1
27133,189511,197306,0,-15,1037,1
27193,189547,197196,2,-15,1040,1
27201,189462,197202,2,-14,1037,1
27161,189487,197288,7,-17,1037,1
27215,189499,197267,2,-17,1032,1
27172,189503,197266,2,-12,1040,1
27217,189532,197233,7,-15,1040,1
27139,189446,197228,2,-15,1038,1
27171,189451,197189,2,-12,1035,1
27156,189418,197249,6,-10,1035,1
27101,189415,197205,0,-10,1044,1
27157,189418,197236,0,-14,1035,1
27228,189403,197123,13,-9,1035,1
27202,189387,197247,7,-3,1030,1
27163,189305,197129,7,-3,1041,1
27169,189361,197088,7,-21,1032,1
27143,189402,197113,7,-14,1032,1
27156,189301,197082,13,-14,1029,1
27135,189294,197078,13,-22,1030,1
27181,189319,197091,13,-21,1030,1
27269,189334,197115,7,-21,1037,1
27136,189402,197039,7,-12,1032,1
27232,189298,197001,5,-14,1032,1
27119,189191,196952,7,-14,1040,1
27161,189368,197030,7,-7,1021,1
27119,189169,196993,15,-12,1021,1
27109,189173,197012,13,-12,1032,1
27156,189261,197074,13,-17,1047,1
27110,189158,196936,10,-16,1047,1
27148,189171,196901,6,-16,1035,1
27113,189024,196885,6,-19,1040,1
27099,189113,196903,12,-19,1020,1
27097,189038,196856,14,-19,1020,1
27070,189024,196840,14,-10,1029,1
27096,188999,196772,8,-24,1029,1
27059,188938,196764,12,-24,1033,1
27082,188953,196812,12,-17,1040,1
27036,188902,196724,0,-21,1040,1
27017,188783,196614,9,-23,1014,1
26953,188544,196481,9,-23,1040,1
27021,188554,196415,13,-15,1038,1
27071,188633,196469,6,-20,1038,1
27033,188544,196486,1,-20,1030,1
27084,188490,196417,1,-10,1035,1
27019,188515,196424,3,-16,1035,1
26998,188439,196412,9,-16,1038,1
26946,188564,196339,9,-18,1047,1
27009,188515,196360,6,-10,1047,1
26913,188479,196356,6,-10,1026,1
26992,188528,196412,6,-15,1020,1
26987,188517,196472,12,-20,1020,1
26958,188495,196384,-2,-20,1030,1
26982,188491,196378,-2,-12,1023,1
27017,188448,196391,6,-12,1023,1
27007,188494,196361,9,-12,1004,1
26930,188472,196306,9,-13,1020,1
26970,188456,196325,9,-13,1020,1
26880,188321,196325,13,-12,1038,1
26993,188383,196301,13,-12,1038,1
26960,188493,196407,13,-19,1035,1
26938,188436,196345,0,-19,1035,1
26925,188444,196386,0,-17,1037,1
27001,188514,196340,9,-24,1037,1
26952,188412,196404,12,-24,1014,1
26952,188459,196419,12,-12,1014,1
26980,188486,196369,6,-14,1044,1
27031,188483,196451,5,-14,1044,1
27000,188562,196361,9,-14,1035,1
26992,188523,196418,9,-16,1024,1
27013,188480,196431,5,-12,1024,1
26958,188534,196390,7,-12,1032,1
27072,188528,196368,7,-17,1020,1
26934,188564,196503,9,-21,1020,1
27072,188536,196461,7,-21,1029,1
27058,188527,196469,7,-18,1010,1
27004,188566,196469,12,-15,1010,1
27030,188547,196520,17,-15,1060,1
27069,188583,196502,17,-16,1023,1
27068,188603,196494,12,-10,1023,1
27044,188606,196502,8,-10,1040,1
27048,188606,196523,8,-9,1029,1
27063,188557,196513,5,-18,1029,1
27048,188678,196531,9,-18,1021,1
27003,188603,196486,14,-15,1047,1
26997,188591,196549,14,-12,1047,1
27132,188560,196463,3,-12,1047,1
27079,188523,196454,14,-20,1030,1
27013,188561,196538,14,-10,1032,1
27090,188602,196483,-3,-19,1032,1
27117,188605,196486,5,-19,1043,1
27073,188600,196477,5,-12,1027,1
27087,188582,196421,7,-12,1027,1
27074,188566,196491,13,-12,1043,1
27035,188584,196421,13,-17,1037,1
27045,188592,196482,6,-18,1037,1
27110,188582,196513,4,-18,1030,1
27053,188554,196449,4,-14,1044,1
27122,188540,196511,8,-15,1044,1
27053,188508,196480,8,-15,1032,1
27004,188478,196532,8,-12,1024,1
27049,188536,196428,3,-17,1024,1
27041,188544,196460,9,-17,1029,1
26982,188608,196527,9,-15,1027,1
27022,188560,196461,0,-14,1027,1
27045,188492,196488,6,-14,1016,1
27024,188585,196516,6,-11,1014,1
27087,188574,196435,3,-15,1030,1
27103,188600,196506,9,-15,1030,1
26993,188628,196421,6,-13,1014,1
27030,188513,196428,6,-12,1038,1
27101,188544,196452,2,-15,1038,1
27105,188593,196513,4,-15,1035,1
27083,188536,196433,4,-22,1035,1
27104,188545,196450,10,-19,1035,1
27074,188553,196496,14,-19,1011,1
27018,188525,196431,14,-18,1029,1
27108,188562,196372,10,-14,1029,1
27071,188560,196531,10,-14,1030,1
27134,188563,196487,10,-12,1054,1
27068,188501,196453,9,-14,1054,1
27089,188515,196433,9,-14,1037,1
27032,188555,196364,9,-18,1038,1
27046,188574,196447,9,-9,1038,1
27079,188501,196394,5,-9,1023,1
27028,188460,196430,5,-14,1035,1
26950,188413,196344,6,-24,1035,1
26986,188476,196424,13,-17,1016,1
27017,188468,196377,10,-17,1035,1
26979,188452,196401,10,-18,1027,1
27015,188413,196336,8,-16,1027,1
26987,188490,196323,8,-16,1037,1
26937,188427,196394,7,-16,1037,1
26984,188426,196435,6,-16,1030,1
26954,188473,196381,6,-14,1021,1
27053,188397,196350,7,-14,1035,1
26917,188371,196323,9,-15,1035,1
26996,188426,196364,14,-15,1038,1
26952,188431,196378,14,-18,1035,1
26939,188389,196358,15,-13,1035,1
26988,188440,196369,9,-13,1024,1
27012,188392,196421,9,-13,1017,1
26971,188372,196325,9,-11,1017,1
26969,188492,196436,5,-11,1038,1
27030,188348,196365,5,-21,1044,1
26934,188385,196370,14,-9,1044,1
26915,188370,196381,10,-9,1020,1
26911,188346,196315,10,-11,1018,1
27005,188417,196436,6,-15,1018,1
26960,188430,196369,3,-15,1047,1
26999,188354,196376,3,-13,1040,1
26952,188413,196381,15,-15,1030,1
26968,188382,196413,6,-15,1030,1
26969,188379,196400,6,-15,1016,1
26941,188413,196423,7,-18,1016,1
26983,188359,196446,6,-18,1033,1
26954,188341,196314,6,-18,1037,1
27019,188346,196423,13,-13,1037,1
27076,188441,196421,9,-13,1043,1
27099,188480,196445,2,-18,1035,1
26990,188415,196376,2,-9,1029,1
27036,188462,196393,15,-16,1029,1
26995,188375,196402,4,-16,1027,1
26973,188370,196342,4,-16,1013,1
26983,188432,196367,7,-13,1013,1
26967,188424,196363,7,-13,1038,1
26982,188412,196423,7,-20,1020,1
26995,188371,196361,7,-22,1020,1
27005,188402,196370,12,-22,1040,1
26989,188456,196517,12,-15,1035,1
26989,188447,196470,8,-18,1035,1
26969,188482,196441,7,-18,1043,1
27032,188487,196453,7,-13,1024,1
27057,188413,196438,10,-13,1024,1
27015,188475,196427,5,-13,1035,1
26978,188419,196384,5,-10,1038,1
27049,188481,196382,9,-11,1047,1
27028,188464,196401,12,-17,1047,1
27083,188425,196385,12,-17,1035,1
27064,188448,196442,7,-19,1035,1
27027,188477,196453,7,-19,1041,1
27030,188486,196446,7,-13,1030,1
27042,188443,196382,1,-17,1030,1
27029,188477,196400,12,-18,1037,1
26968,188517,196458,2,-18,1035,1
27039,188413,196318,2,-16,1023,1
27017,188435,196478,7,-21,1023,1
26950,188423,196394,3,-21,1035,1
27027,188446,196379,3,-15,1032,1
27059,188502,196454,9,-15,1032,1
27117,188617,196402,18,-15,1035,1
27102,188506,196374,18,-15,1030,1
27045,188481,196391,9,-21,1030,1
27073,188502,196400,3,-21,1046,1
27109,188563,196450,3,-18,1056,1
27080,188536,196472,6,-18,1056,1
27095,188509,196484,12,-18,1024,1
27084,188484,196385,12,-21,1038,1
27099,188531,196467,8,-13,1038,1
27103,188563,196484,3,-13,1027,1
27126,188582,196466,3,-15,1032,1
27105,188601,196459,18,-15,1002,1
27183,188566,196517,13,-14,1002,1
27157,188555,196484,13,-14,1040,1
27169,188656,196497,6,-24,1040,1
27138,188569,196477,16,-24,1021,1
27106,188526,196449,16,-17,1044,1
27133,188619,196477,9,-13,1044,1
27161,188606,196484,14,-13,1023,1
27116,188632,196597,6,-11,1038,1
27152,188560,196433,6,-12,1027,1
27154,188585,196457,5,-24,1027,1
27125,188611,196447,8,-24,1044,1
27100,188621,196504,8,-16,1026,1
27138,188657,196441,16,-12,1026,1
27072,188566,196474,6,-12,1040,1
27118,188553,196430,6,-12,1004,1
27091,188605,196453,14,-12,1004,1
