4920,5119,5116,52,61,58,10240,-1.00,-1.00,0.79,0.00,4871,5056,5055,0,11,14,53,99,0
4924,5121,5120,46,59,55,10240,-1.00,-1.00,0.79,0.00,4873,5058,5057,0,11,14,53,99,0
4927,5123,5123,49,60,58,10240,-1.00,-1.00,0.79,0.00,4874,5060,5059,0,11,14,53,99,0
4929,5123,5123,51,62,62,10240,-1.00,-1.00,0.79,0.00,4876,5062,5061,0,11,14,53,99,0
4931,5123,5123,52,61,62,10240,-1.00,-1.00,0.79,0.00,4878,5064,5063,0,11,14,53,99,0
4933,5123,5123,53,60,61,10240,-1.00,-1.00,0.79,0.00,4880,5066,5065,0,11,14,53,99,0
4936,5123,5123,53,58,59,10240,-1.00,-1.00,0.79,0.00,4882,5068,5067,0,11,14,53,99,0
4940,5123,5123,54,56,57,10240,-1.00,-1.00,0.79,0.00,4884,5070,5069,0,11,14,53,99,0
4944,5123,5123,55,54,55,10240,-1.00,-1.00,0.79,0.00,4886,5072,5071,0,11,14,53,99,0
4955,5123,5123,58,52,53,10240,-1.00,-1.00,0.79,0.00,4888,5073,5073,0,11,14,53,99,0
4959,5123,5123,62,50,51,10240,-1.00,-1.00,0.79,0.00,4890,5075,5074,0,11,14,53,99,0
4963,5123,5122,66,48,49,10240,-1.00,-1.00,0.79,0.00,4893,5077,5076,0,11,14,53,99,0
4968,5126,5120,69,48,47,10240,-1.00,-1.00,0.79,0.00,4895,5078,5077,0,11,14,53,99,0
4967,5123,5123,70,46,45,10240,-1.00,-1.00,0.79,0.00,4898,5080,5079,0,11,14,53,99,0
4933,5123,5123,61,44,44,10240,-1.00,-1.00,0.79,0.00,4899,5081,5080,6,11,14,53,99,0
4922,5123,5123,49,43,42,10240,-1.00,-1.00,0.79,0.00,4900,5083,5082,6,11,14,53,99,0
4918,5123,5123,35,41,42,10240,-1.00,-1.00,0.79,0.00,4900,5084,5083,6,11,14,53,99,0
4918,5123,5123,22,39,40,10240,-1.00,-1.00,0.79,0.00,4901,5085,5084,6,11,14,53,99,0
4919,5123,5123,18,38,39,10240,-1.00,-1.00,0.79,0.00,4901,5087,5086,6,11,14,53,99,0
4925,5123,5123,19,37,38,10240,-1.00,-1.00,0.79,0.00,4902,5088,5087,6,11,14,53,99,0
4929,5123,5123,21,35,36,10240,-1.00,-1.00,0.79,0.00,4903,5089,5088,6,11,14,53,99,0
4930,5123,5123,23,34,35,10240,-1.00,-1.00,0.79,0.00,4904,5090,5089,6,11,14,53,99,0
4934,5123,5123,26,33,34,10240,-1.00,-1.00,0.79,0.00,4905,5091,5091,6,11,14,53,99,0
4938,5123,5123,28,32,33,10240,-1.00,-1.00,0.79,0.00,4906,5092,5092,6,11,14,53,99,0
4945,5123,5123,31,31,31,10240,-1.00,-1.00,0.79,0.00,4907,5093,5093,6,11,14,53,99,0
4951,5123,5123,35,30,30,10240,-1.00,-1.00,0.79,0.00,4909,5094,5094,6,11,14,53,99,0
4957,5123,5122,39,29,29,10240,-1.00,-1.00,0.79,0.00,4910,5095,5095,6,11,14,53,99,0
4969,5126,5120,46,29,27,10240,-1.00,-1.00,0.79,0.00,4912,5096,5095,6,11,14,53,99,0
4970,5123,5123,50,28,27,10240,-1.00,-1.00,0.79,0.00,4914,5097,5096,6,11,14,53,99,0
4969,5123,5123,53,27,26,10240,-1.00,-1.00,0.79,0.00,4916,5098,5097,6,11,14,53,99,0
4955,5123,5123,50,26,25,10240,-1.00,-1.00,0.79,0.00,4918,5099,5098,13,11,14,53,99,0
4934,5123,5123,40,24,25,10240,-1.00,-1.00,0.79,0.00,4918,5100,5099,13,11,14,53,99,0
4920,5123,5123,27,23,24,10240,-1.00,-1.00,0.79,0.00,4918,5100,5100,13,11,14,53,99,0
4914,5123,5123,12,23,23,10240,-1.00,-1.00,0.79,0.00,4918,5101,5100,13,11,14,53,99,0
4910,5123,5123,1,22,23,10240,-1.00,-1.00,0.79,0.00,4918,5102,5101,13,11,14,53,99,0
4911,5123,5123,-4,21,22,10240,-1.00,-1.00,0.79,0.00,4917,5103,5102,13,11,14,53,99,0
4915,5123,5123,-5,20,21,10240,-1.00,-1.00,0.79,0.00,4917,5103,5103,13,11,14,53,99,0
4919,5123,5123,-3,20,20,10240,-1.00,-1.00,0.79,0.00,4917,5104,5103,13,11,14,53,99,0
4920,5123,5123,-1,19,20,10240,-1.00,-1.00,0.79,0.00,4918,5105,5104,13,11,14,53,99,0
4919,5123,5123,0,18,19,10240,-1.00,-1.00,0.79,0.00,4918,5105,5105,13,11,14,53,99,0
4926,5123,5123,3,18,18,10240,-1.00,-1.00,0.79,0.00,4918,5106,5105,13,11,14,53,99,0
4928,5123,5123,5,17,18,10240,-1.00,-1.00,0.79,0.00,4918,5106,5106,13,11,14,53,99,0
4932,5123,5123,8,17,17,10240,-1.00,-1.00,0.79,0.00,4919,5107,5106,13,11,14,53,99,0
4936,5123,5123,12,16,17,10240,-1.00,-1.00,0.79,0.00,4919,5107,5107,13,11,14,53,99,0
4940,5123,5123,15,16,16,10240,-1.00,-1.00,0.79,0.00,4920,5108,5108,13,11,14,53,99,0
4944,5123,5123,18,15,15,10240,-1.00,-1.00,0.79,0.00,4921,5108,5108,13,11,14,53,99,0
4945,5123,5122,20,15,15,10240,-1.00,-1.00,0.79,0.00,4922,5109,5108,13,11,14,53,99,0
4941,5123,5123,21,14,14,10240,-1.00,-1.00,0.79,0.00,4922,5109,5109,13,11,14,53,99,0
4923,5123,5123,16,14,14,10240,-1.00,-1.00,0.79,0.00,4922,5110,5109,16,11,14,53,99,0
4914,5123,5123,8,13,13,10240,-1.00,-1.00,0.79,0.00,4922,5110,5110,16,11,14,53,99,0
4909,5123,5123,0,13,13,10240,-1.00,-1.00,0.79,0.00,4922,5111,5110,16,11,14,53,99,0
4909,5123,5123,-8,12,13,10240,-1.00,-1.00,0.79,0.00,4921,5111,5111,16,11,14,53,99,0
4910,5123,5123,-11,12,12,10240,-1.00,-1.00,0.79,0.00,4921,5112,5111,16,11,14,53,99,0
4910,5123,5123,-11,11,12,10240,-1.00,-1.00,0.79,0.00,4920,5112,5112,16,11,14,53,99,0
4909,5123,5123,-11,11,11,10240,-1.00,-1.00,0.79,0.00,4920,5112,5112,16,11,14,53,99,0
4912,5123,5123,-10,10,11,10240,-1.00,-1.00,0.79,0.00,4920,5113,5112,16,11,14,53,99,0
4917,5123,5123,-8,10,10,10240,-1.00,-1.00,0.79,0.00,4920,5113,5113,16,11,14,53,99,0
4921,5123,5123,-5,10,10,10240,-1.00,-1.00,0.79,0.00,4920,5113,5113,16,11,14,53,99,0
4925,5123,5123,-1,9,10,10240,-1.00,-1.00,0.79,0.00,4920,5114,5113,16,11,14,53,99,0
4928,5123,5123,2,9,9,10240,-1.00,-1.00,0.79,0.00,4920,5114,5114,16,11,14,53,99,0
4932,5123,5123,6,9,9,10240,-1.00,-1.00,0.79,0.00,4920,5114,5114,16,11,14,53,99,0
4941,5123,5123,11,8,9,10240,-1.00,-1.00,0.79,0.00,4921,5115,5114,16,11,14,53,99,0
4946,5123,5122,16,8,8,10240,-1.00,-1.00,0.79,0.00,4922,5115,5115,16,11,14,53,99,0
4948,5123,5123,20,8,8,10240,-1.00,-1.00,0.79,0.00,4923,5115,5115,16,11,14,53,99,0
4950,5123,5122,23,8,7,10240,-1.00,-1.00,0.79,0.00,4924,5115,5115,16,11,14,53,99,0
4940,5123,5122,22,7,7,10240,-1.00,-1.00,0.79,0.00,4924,5116,5115,21,11,14,53,99,0
4913,5123,5123,14,7,7,10240,-1.00,-1.00,0.79,0.00,4924,5116,5116,21,11,14,53,99,0
4910,5123,5123,4,7,7,10240,-1.00,-1.00,0.79,0.00,4923,5116,5116,21,11,14,53,99,0
4911,5123,5123,-5,7,7,10240,-1.00,-1.00,0.79,0.00,4923,5116,5116,21,11,14,53,99,0
4910,5123,5123,-12,6,7,10240,-1.00,-1.00,0.79,0.00,4923,5117,5116,21,11,14,53,99,0
4909,5123,5123,-12,6,7,10240,-1.00,-1.00,0.79,0.00,4922,5117,5116,21,11,14,53,99,0
4920,5123,5123,-10,6,6,10240,-1.00,-1.00,0.79,0.00,4922,5117,5117,21,11,14,53,99,0
4922,5123,5123,-7,6,6,10240,-1.00,-1.00,0.79,0.00,4922,5117,5117,21,11,14,53,99,0
4925,5123,5123,-3,6,6,10240,-1.00,-1.00,0.79,0.00,4922,5117,5117,21,11,14,53,99,0
4927,5123,5123,1,5,6,10240,-1.00,-1.00,0.79,0.00,4922,5118,5117,21,11,14,53,99,0
4931,5123,5123,4,5,5,10240,-1.00,-1.00,0.79,0.00,4923,5118,5118,21,11,14,53,99,0
4937,5123,5123,7,5,5,10240,-1.00,-1.00,0.79,0.00,4923,5118,5118,21,11,14,53,99,0
4945,5123,5123,12,5,5,10240,-1.00,-1.00,0.79,0.00,4924,5118,5118,21,11,14,53,99,0
4948,5123,5123,16,5,5,10240,-1.00,-1.00,0.79,0.00,4925,5118,5118,21,11,14,53,99,0
4952,5123,5123,21,5,5,10240,-1.00,-1.00,0.79,0.00,4926,5118,5118,21,11,14,53,99,0
4954,5123,5123,24,4,5,10240,-1.00,-1.00,0.79,0.00,4927,5119,5118,21,11,14,53,99,0
4958,5123,5122,26,4,4,10240,-1.00,-1.00,0.79,0.00,4928,5119,5118,21,11,14,53,99,0
4945,5123,5123,25,4,4,10240,-1.00,-1.00,0.79,0.00,4928,5119,5119,25,11,14,53,99,0
4926,5123,5123,18,4,4,10240,-1.00,-1.00,0.79,0.00,4928,5119,5119,25,11,14,53,99,0
4917,5123,5123,8,4,4,10240,-1.00,-1.00,0.79,0.00,4928,5119,5119,25,11,14,53,99,0
4914,5123,5123,-2,4,4,10240,-1.00,-1.00,0.79,0.00,4927,5119,5119,25,11,14,53,99,0
4914,5123,5123,-9,4,4,10240,-1.00,-1.00,0.79,0.00,4927,5119,5119,25,11,14,53,99,0
4917,5123,5123,-11,4,4,10240,-1.00,-1.00,0.79,0.00,4926,5119,5119,25,11,14,53,99,0
4923,5123,5123,-9,3,4,10240,-1.00,-1.00,0.79,0.00,4926,5120,5119,25,11,14,53,99,0
4927,5123,5123,-6,3,3,10240,-1.00,-1.00,0.79,0.00,4926,5120,5120,25,11,14,53,99,0
4929,5123,5123,-2,3,3,10240,-1.00,-1.00,0.79,0.00,4926,5120,5120,25,11,14,53,99,0
4932,5123,5123,1,3,3,10240,-1.00,-1.00,0.79,0.00,4927,5120,5120,25,11,14,53,99,0
4940,5123,5123,5,3,3,10240,-1.00,-1.00,0.79,0.00,4927,5120,5120,25,11,14,53,99,0
4946,5123,5123,9,3,3,10240,-1.00,-1.00,0.79,0.00,4928,5120,5120,25,11,14,53,99,0
4950,5123,5123,14,3,3,10240,-1.00,-1.00,0.79,0.00,4928,5120,5120,25,11,14,53,99,0
4955,5123,5123,19,3,3,10240,-1.00,-1.00,0.79,0.00,4929,5120,5120,25,11,14,53,99,0
4959,5123,5122,23,3,2,10240,-1.00,-1.00,0.79,0.00,4930,5120,5120,25,11,14,53,99,0
4962,5123,5123,27,2,2,10240,-1.00,-1.00,0.79,0.00,4931,5121,5120,25,11,14,53,99,0
4967,5123,5123,30,2,2,10240,-1.00,-1.00,0.79,0.00,4933,5121,5120,25,11,14,53,99,0
4966,5123,5123,31,2,2,10240,-1.00,-1.00,0.79,0.00,4934,5121,5121,25,11,14,53,99,0
4955,5123,5122,29,2,2,10240,-1.00,-1.00,0.79,0.00,4934,5121,5121,29,11,14,53,99,0
4940,5123,5123,23,2,2,10240,-1.00,-1.00,0.79,0.00,4935,5121,5121,29,11,14,53,99,0
4932,5123,5123,13,2,1,10240,-1.00,-1.00,0.79,0.00,4935,5121,5121,29,11,14,53,99,0
4927,5123,5123,4,2,1,10240,-1.00,-1.00,0.79,0.00,4934,5121,5121,29,11,14,53,99,0
4926,5123,5123,-3,2,2,10240,-1.00,-1.00,0.79,0.00,4934,5121,5121,29,11,14,53,99,0
4931,5123,5123,-5,2,2,10240,-1.00,-1.00,0.79,0.00,4934,5121,5121,29,11,14,53,99,0
4939,5123,5123,-3,2,2,10240,-1.00,-1.00,0.79,0.00,4934,5121,5121,29,11,14,53,99,0
4943,5123,5123,0,2,2,10240,-1.00,-1.00,0.79,0.00,4934,5121,5121,29,11,14,53,99,0
4946,5123,5123,5,2,2,10240,-1.00,-1.00,0.79,0.00,4935,5121,5121,29,11,14,53,99,0
4948,5123,5123,9,2,2,10240,-1.00,-1.00,0.79,0.00,4935,5121,5121,29,11,14,53,99,0
4950,5123,5123,11,2,2,10240,-1.00,-1.00,0.79,0.00,4936,5121,5121,29,11,14,53,99,0
4954,5123,5123,14,2,2,10240,-1.00,-1.00,0.79,0.00,4936,5121,5121,29,11,14,53,99,0
4959,5123,5123,16,1,2,10240,-1.00,-1.00,0.79,0.00,4937,5122,5121,29,11,14,53,99,0
4964,5123,5122,20,1,1,10240,-1.00,-1.00,0.79,0.00,4938,5122,5121,29,11,14,53,99,0
4971,5127,5120,24,2,1,10240,-1.00,-1.00,0.79,0.00,4939,5122,5121,29,11,14,53,99,0
4973,5123,5123,28,2,1,10240,-1.00,-1.00,0.79,0.00,4940,5122,5121,29,11,14,53,99,0
4973,5124,5123,30,2,0,10240,-1.00,-1.00,0.79,0.00,4941,5122,5122,29,11,14,53,99,0
4972,5124,5122,31,2,0,10240,-1.00,-1.00,0.79,0.00,4942,5122,5122,29,11,14,53,99,0
4960,5123,5122,28,1,0,10240,-1.00,-1.00,0.79,0.00,4943,5122,5122,31,11,14,53,99,0
4932,5123,5123,17,1,0,10240,-1.00,-1.00,0.79,0.00,4943,5122,5122,31,11,14,53,99,0
4929,5123,5123,5,1,0,10240,-1.00,-1.00,0.79,0.00,4942,5122,5122,31,11,14,53,99,0
4930,5123,5123,-4,1,0,10240,-1.00,-1.00,0.79,0.00,4942,5122,5122,31,11,14,53,99,0
4932,5123,5123,-11,1,1,10240,-1.00,-1.00,0.79,0.00,4941,5122,5122,31,11,14,53,99,0
4937,5123,5123,-9,1,1,10240,-1.00,-1.00,0.79,0.00,4941,5122,5122,31,11,14,53,99,0
4951,5123,5123,-4,1,1,10240,-1.00,-1.00,0.79,0.00,4942,5122,5122,31,11,14,53,99,0
4951,5123,5123,1,1,1,10240,-1.00,-1.00,0.79,0.00,4942,5122,5122,31,11,14,53,99,0
4952,5123,5123,6,1,1,10240,-1.00,-1.00,0.79,0.00,4942,5122,5122,31,11,14,53,99,0
4956,5123,5123,10,1,1,10240,-1.00,-1.00,0.79,0.00,4943,5122,5122,31,11,14,53,99,0
4961,5123,5122,12,1,0,10240,-1.00,-1.00,0.79,0.00,4943,5122,5122,31,11,14,53,99,0
4969,5123,5123,16,1,0,10240,-1.00,-1.00,0.79,0.00,4944,5122,5122,31,11,14,53,99,0
4972,5123,5123,20,1,0,10240,-1.00,-1.00,0.79,0.00,4945,5122,5122,31,11,14,53,99,0
4975,5123,5123,24,1,0,10240,-1.00,-1.00,0.79,0.00,4946,5122,5122,31,11,14,53,99,0
4976,5125,5122,27,1,0,10240,-1.00,-1.00,0.79,0.00,4947,5122,5122,31,11,14,53,99,0
4977,5123,5123,28,1,0,10240,-1.00,-1.00,0.79,0.00,4948,5122,5122,31,11,14,53,99,0
4977,5123,5123,28,1,0,10240,-1.00,-1.00,0.79,0.00,4949,5123,5122,31,11,14,53,99,0
4953,5123,5123,22,1,0,10240,-1.00,-1.00,0.79,0.00,4949,5123,5122,33,11,14,53,99,0
4939,5123,5123,12,0,1,10240,-1.00,-1.00,0.79,0.00,4949,5123,5122,33,11,14,53,99,0
4930,5121,5118,1,0,0,10240,-1.00,-1.00,0.79,0.00,4948,5122,5122,33,11,14,53,99,0
4930,5123,5123,-10,0,0,10240,-1.00,-1.00,0.79,0.00,4948,5122,5122,33,11,14,53,99,0
4929,5123,5123,-16,0,0,10240,-1.00,-1.00,0.79,0.00,4947,5123,5122,33,11,14,53,99,0
4938,5123,5123,-15,0,0,10240,-1.00,-1.00,0.79,0.00,4947,5123,5122,33,11,14,53,99,0
4944,5123,5123,-12,0,1,10240,-1.00,-1.00,0.79,0.00,4947,5123,5122,33,11,14,53,99,0
4946,5123,5123,-7,0,1,10240,-1.00,-1.00,0.79,0.00,4947,5123,5122,33,11,14,53,99,0
4951,5123,5123,-2,0,1,10240,-1.00,-1.00,0.79,0.00,4947,5123,5122,33,11,14,53,99,0
4954,5123,5123,1,0,1,10240,-1.00,-1.00,0.79,0.00,4947,5123,5122,33,11,14,53,99,0
4964,5123,5122,6,0,0,10240,-1.00,-1.00,0.79,0.00,4947,5123,5122,33,11,14,53,99,0
4966,5123,5123,11,0,0,10240,-1.00,-1.00,0.79,0.00,4948,5123,5122,33,11,14,53,99,0
4972,5123,5123,16,0,0,10240,-1.00,-1.00,0.79,0.00,4949,5123,5122,33,11,14,53,99,0
4974,5123,5123,20,0,0,10240,-1.00,-1.00,0.79,0.00,4950,5123,5122,33,11,14,53,99,0
4980,5123,5123,23,0,1,10240,-1.00,-1.00,0.79,0.00,4951,5123,5122,33,11,14,53,99,0
4982,5126,5121,26,0,0,10240,-1.00,-1.00,0.79,0.00,4952,5123,5122,33,11,14,53,99,0
4984,5123,5123,28,0,0,10240,-1.00,-1.00,0.79,0.00,4953,5123,5122,33,11,14,53,99,0
4977,5123,5123,28,0,0,10240,-1.00,-1.00,0.79,0.00,4954,5123,5122,33,11,14,53,99,0
4961,5123,5123,22,0,0,10240,-1.00,-1.00,0.79,0.00,4954,5123,5122,36,11,14,53,99,0
4947,5123,5123,13,0,1,10240,-1.00,-1.00,0.79,0.00,4954,5123,5122,36,11,14,53,99,0
4941,5123,5123,2,0,1,10240,-1.00,-1.00,0.79,0.00,4953,5123,5122,36,11,14,53,99,0
4939,5123,5123,-6,0,1,10240,-1.00,-1.00,0.79,0.00,4953,5123,5122,36,11,14,53,99,0
4942,5123,5123,-10,0,1,10240,-1.00,-1.00,0.79,0.00,4952,5123,5122,36,11,14,70,99,0
4947,5123,5123,-10,0,0,10240,-1.00,-1.00,0.79,0.00,4952,5123,5123,36,11,14,70,99,0
4954,5123,5123,-6,0,0,10240,-1.00,-1.00,0.79,0.00,4952,5123,5123,36,11,14,70,99,0
4955,5123,5123,-2,0,0,10240,-1.00,-1.00,0.79,0.00,4952,5123,5123,36,11,14,70,99,0
4962,5123,5123,2,0,0,10240,-1.00,-1.00,0.79,0.00,4953,5123,5123,36,11,14,70,99,0
4968,5123,5122,7,0,0,10240,-1.00,-1.00,0.79,0.00,4953,5123,5122,36,11,14,70,99,0
4973,5123,5122,11,0,0,10240,-1.00,-1.00,0.79,0.00,4954,5123,5122,36,11,14,70,99,0
4975,5123,5122,15,0,0,10240,-1.00,-1.00,0.79,0.00,4955,5123,5122,36,11,14,70,99,0
4977,5123,5123,19,0,0,10240,-1.00,-1.00,0.79,0.00,4955,5123,5123,36,11,14,70,99,0
4992,5124,5122,24,0,0,10240,-1.00,-1.00,0.79,0.00,4957,5123,5122,36,11,14,70,99,0
4983,5123,5123,25,0,0,10240,-1.00,-1.00,0.79,0.00,4957,5123,5123,36,11,14,70,99,0
4996,5123,5123,30,0,0,10240,-1.00,-1.00,0.79,0.00,4959,5123,5123,36,11,14,70,99,0
4994,5126,5121,33,1,0,10240,-1.00,-1.00,0.79,0.00,4960,5123,5122,36,11,14,70,99,0
4980,5129,5118,29,2,-1,10240,-1.00,-1.00,0.79,0.00,4961,5123,5122,37,11,14,70,99,0
4964,5123,5122,23,2,-1,10240,-1.00,-1.00,0.79,0.00,4961,5123,5122,37,11,14,70,99,0
4945,5123,5123,10,2,-1,10240,-1.00,-1.00,0.79,0.00,4960,5123,5122,37,11,14,70,99,0
4941,5123,5123,-2,1,0,10240,-1.00,-1.00,0.79,0.00,4959,5123,5122,37,11,14,70,99,0
4942,5123,5123,-11,0,0,10240,-1.00,-1.00,0.79,0.00,4959,5123,5122,37,11,14,70,99,0
4945,5123,5123,-15,0,1,10240,-1.00,-1.00,0.79,0.00,4958,5123,5122,37,11,14,70,99,0
4951,5123,5123,-13,0,1,10240,-1.00,-1.00,0.79,0.00,4958,5123,5122,37,11,14,70,99,0
4957,5123,5123,-9,0,0,10240,-1.00,-1.00,0.79,0.00,4958,5123,5123,37,11,14,70,99,0
4957,5123,5123,-5,0,0,10240,-1.00,-1.00,0.79,0.00,4958,5123,5123,37,11,14,70,99,0
4958,5123,5123,-2,0,0,10240,-1.00,-1.00,0.79,0.00,4958,5123,5123,37,11,14,70,99,0
4961,5123,5123,0,0,0,10240,-1.00,-1.00,0.79,0.00,4958,5123,5123,37,11,14,70,99,0
4967,5123,5123,2,0,0,10240,-1.00,-1.00,0.79,0.00,4959,5123,5123,37,11,14,70,99,0
4973,5123,5122,6,0,0,10240,-1.00,-1.00,0.79,0.00,4959,5123,5122,37,11,14,70,99,0
4975,5123,5123,10,0,0,10240,-1.00,-1.00,0.79,0.00,4960,5123,5123,37,11,14,70,99,0
4978,5123,5122,13,0,0,10240,-1.00,-1.00,0.79,0.00,4960,5123,5122,37,11,14,70,99,0
4982,5123,5123,17,0,0,10240,-1.00,-1.00,0.79,0.00,4961,5123,5123,37,11,14,70,99,0
4983,5123,5123,18,0,0,10240,-1.00,-1.00,0.79,0.00,4962,5123,5123,37,11,14,70,99,0
4970,5123,5107,17,0,-3,10240,-1.00,-1.00,0.79,0.00,4962,5123,5122,36,11,14,70,99,0
4950,5123,5123,9,0,-3,10240,-1.00,-1.00,0.79,0.00,4961,5123,5122,36,11,14,70,99,0
4930,5114,5100,-3,-2,-8,10240,-1.00,-1.00,0.79,0.00,4960,5123,5121,36,11,14,70,99,0
4921,5106,5084,-17,-6,-17,10240,-1.00,-1.00,0.79,0.00,4959,5122,5120,36,11,14,70,99,0
4922,5108,5093,-28,-9,-20,10240,-1.00,-1.00,0.79,0.00,4958,5122,5119,36,11,14,70,99,0
4927,5116,5106,-33,-11,-24,10240,-1.00,-1.00,0.79,0.00,4957,5121,5119,36,11,14,70,99,0
4942,5123,5123,-29,-8,-17,10240,-1.00,-1.00,0.79,0.00,4956,5121,5119,36,11,14,70,99,0
4946,5123,5123,-22,-4,-7,10240,-1.00,-1.00,0.79,0.00,4956,5122,5119,36,11,14,70,99,0
4950,5123,5123,-15,0,0,10240,-1.00,-1.00,0.79,0.00,4956,5122,5119,36,11,14,70,99,0
4950,5123,5123,-9,1,4,10240,-1.00,-1.00,0.79,0.00,4956,5122,5119,36,11,14,70,99,0
4952,5123,5123,-6,1,4,10240,-1.00,-1.00,0.79,0.00,4956,5122,5119,36,11,14,70,99,0
4960,5123,5123,-3,1,3,10240,-1.00,-1.00,0.79,0.00,4956,5122,5120,36,11,17,70,99,0
4964,5123,5123,0,1,3,10240,-1.00,-1.00,0.65,2.19,4956,5122,5120,36,11,17,70,99,0
4967,5123,5123,4,1,3,10240,-1.00,-1.00,0.65,2.19,4956,5122,5120,36,11,17,70,99,0
4971,5123,5123,9,1,3,10240,-1.00,-1.00,0.65,2.19,4957,5122,5120,36,11,17,70,99,0
4973,5123,5122,12,1,2,10240,-1.00,-1.00,0.65,2.19,4957,5122,5120,36,11,17,70,99,0
4978,5123,5122,15,1,2,10240,-1.00,-1.00,0.65,2.19,4958,5122,5120,36,11,17,70,99,0
4979,5123,5122,17,1,2,10240,-1.00,-1.00,0.65,2.19,4959,5122,5120,36,11,17,70,99,0
4970,5123,5122,16,1,2,10240,-1.00,-1.00,0.65,2.19,4959,5122,5120,40,11,17,70,99,0
4950,5123,5123,10,1,2,10240,-1.00,-1.00,0.65,2.19,4959,5122,5120,40,11,17,70,99,0
4935,5118,5110,0,0,0,10240,-1.00,-1.00,0.65,2.19,4958,5122,5120,40,11,17,70,99,0
4926,5114,5102,-13,-2,-5,10240,-1.00,-1.00,0.65,2.19,4957,5122,5119,40,11,17,70,99,0
4932,5120,5117,-21,-3,-6,10240,-1.00,-1.00,0.65,2.19,4956,5121,5119,40,11,17,70,99,0
4937,5122,5121,-24,-3,-6,10240,-1.00,-1.00,0.65,2.19,4955,5122,5119,40,11,17,70,99,0
4942,5123,5123,-21,-2,-3,10240,-1.00,-1.00,0.65,2.19,4955,5122,5119,40,11,17,70,99,0
4948,5123,5123,-15,0,1,10240,-1.00,-1.00,0.65,2.19,4955,5122,5120,40,11,17,70,99,0
4952,5123,5123,-10,0,3,10240,-1.00,-1.00,0.65,2.19,4955,5122,5120,40,11,17,70,99,0
4954,5123,5123,-6,1,3,10240,-1.00,-1.00,0.65,2.19,4955,5122,5120,40,11,17,70,99,0
4957,5123,5123,-2,1,3,10240,-1.00,-1.00,0.65,2.19,4955,5122,5120,40,11,17,70,99,0
4962,5123,5123,1,1,3,10240,-1.00,-1.00,0.65,2.19,4955,5122,5120,40,11,17,70,99,0
4965,5123,5123,4,1,3,10240,-1.00,-1.00,0.65,2.19,4955,5122,5120,40,11,17,70,99,0
4971,5123,5123,8,1,3,10240,-1.00,-1.00,0.65,2.19,4956,5122,5120,40,11,17,70,99,0
4973,5123,5122,12,1,2,10240,-1.00,-1.00,0.65,2.19,4956,5122,5120,40,11,17,70,99,0
4975,5123,5123,15,1,2,10240,-1.00,-1.00,0.65,2.19,4957,5122,5120,40,11,17,70,99,0
4978,5123,5122,17,1,2,10240,-1.00,-1.00,0.65,2.19,4958,5122,5120,40,11,17,70,99,0
4978,5124,5122,18,1,2,10240,-1.00,-1.00,0.65,2.19,4958,5122,5120,40,11,17,70,99,0
4968,5123,5123,16,1,2,10240,-1.00,-1.00,0.65,2.19,4959,5122,5121,40,11,17,70,99,0
4931,5114,5097,5,-1,-4,10240,-1.00,-1.00,0.65,2.19,4958,5122,5120,40,11,17,70,99,0
4924,5110,5089,-7,-4,-12,10240,-1.00,-1.00,0.65,2.19,4957,5121,5119,40,11,17,70,99,0
4931,5115,5104,-19,-6,-16,10240,-1.00,-1.00,0.65,2.19,4956,5121,5118,40,11,17,70,99,0
4938,5123,5123,-25,-5,-15,10240,-1.00,-1.00,0.65,2.19,4955,5121,5118,40,11,17,70,99,0
4943,5123,5123,-21,-3,-8,10240,-1.00,-1.00,0.65,2.19,4955,5121,5119,40,11,17,70,99,0
4956,5123,5123,-13,0,0,10240,-1.00,-1.00,0.65,2.19,4955,5121,5119,40,11,17,70,99,0
4957,5123,5123,-6,2,4,10240,-1.00,-1.00,0.65,2.19,4955,5121,5119,40,11,17,70,99,0
4959,5123,5122,-1,2,3,10240,-1.00,-1.00,0.65,2.19,4955,5121,5119,40,11,17,70,99,0
4963,5123,5122,3,1,3,10240,-1.00,-1.00,0.65,2.19,4955,5122,5119,40,11,17,70,99,0
4966,5123,5123,6,1,3,10240,-1.00,-1.00,0.65,2.19,4956,5122,5119,40,11,17,70,99,0
4970,5123,5123,9,1,3,10240,-1.00,-1.00,0.65,2.19,4956,5122,5119,40,11,17,70,99,0
4972,5123,5122,11,1,3,10240,-1.00,-1.00,0.65,2.19,4957,5122,5119,40,11,17,70,99,0
4974,5123,5122,14,1,3,10240,-1.00,-1.00,0.65,2.19,4957,5122,5119,40,11,17,70,99,0
4978,5123,5122,16,1,3,10240,-1.00,-1.00,0.65,2.19,4958,5122,5120,40,11,17,70,99,0
4981,5123,5122,18,1,2,10240,-1.00,-1.00,0.65,2.19,4959,5122,5120,40,11,17,70,99,0
4984,5124,5122,20,1,2,10240,-1.00,-1.00,0.65,2.19,4960,5122,5120,40,11,17,70,99,0
4972,5123,5123,19,1,2,10240,-1.00,-1.00,0.65,2.19,4960,5122,5120,42,11,17,70,99,0
4953,5121,5117,12,0,1,10240,-1.00,-1.00,0.65,2.19,4960,5122,5120,42,11,17,70,99,0
4938,5117,5104,2,0,-3,10240,-1.00,-1.00,0.65,2.19,4959,5122,5119,42,11,17,70,99,0
4933,5116,5101,-10,-2,-8,10240,-1.00,-1.00,0.65,2.19,4958,5121,5119,42,11,17,70,99,0
4944,5123,5123,-16,-2,-8,10240,-1.00,-1.00,0.65,2.19,4958,5121,5119,42,11,17,70,99,0
4950,5123,5123,-16,-1,-6,10240,-1.00,-1.00,0.65,2.19,4957,5122,5119,42,11,17,66,99,0
4957,5123,5123,-11,0,-1,10240,-1.00,-1.00,0.65,2.19,4957,5122,5119,42,11,17,66,99,0
4960,5123,5123,-4,1,4,10240,-1.00,-1.00,0.65,2.19,4957,5122,5119,42,11,17,66,99,0
4963,5123,5123,0,1,4,10240,-1.00,-1.00,0.65,2.19,4958,5122,5119,42,11,17,66,99,0
4969,5123,5123,4,1,4,10240,-1.00,-1.00,0.65,2.19,4958,5122,5119,42,11,17,66,99,0
4972,5123,5122,8,1,3,10240,-1.00,-1.00,0.65,2.19,4958,5122,5119,42,11,17,66,99,0
4976,5123,5122,11,1,3,10240,-1.00,-1.00,0.65,2.19,4959,5122,5120,42,11,17,66,99,0
4981,5123,5122,15,1,2,10240,-1.00,-1.00,0.65,2.19,4960,5122,5120,42,11,17,66,99,0
4982,5123,5123,18,1,2,10240,-1.00,-1.00,0.65,2.19,4961,5122,5120,42,11,17,66,99,0
4987,5124,5122,21,1,2,10240,-1.00,-1.00,0.65,2.19,4961,5122,5120,42,11,17,66,99,0
4982,5169,5077,22,12,-8,10240,-1.00,-1.00,0.65,2.19,4962,5123,5118,42,11,17,66,99,0
4991,5123,5123,23,12,-8,10240,-1.00,-1.00,0.65,2.19,4963,5123,5119,42,11,17,66,99,0
4990,5123,5123,25,12,-7,10240,-1.00,-1.00,0.65,2.19,4964,5123,5119,42,11,17,66,99,0
4975,5123,5120,21,11,-8,10240,-1.00,-1.00,0.65,2.19,4964,5123,5119,41,11,17,66,99,0
4941,5121,5112,10,0,0,10240,-1.00,-1.00,0.65,2.19,4964,5123,5118,41,11,17,66,99,0
4940,5116,5100,-2,-2,-4,10240,-1.00,-1.00,0.65,2.19,4963,5123,5118,41,11,17,66,99,0
4944,5118,5106,-13,-3,-8,10240,-1.00,-1.00,0.65,2.19,4962,5123,5117,41,11,17,66,99,0
4951,5122,5118,-18,-3,-8,10240,-1.00,-1.00,0.65,2.19,4962,5123,5117,41,11,17,66,99,0
4959,5123,5123,-13,-3,-5,10240,-1.00,-1.00,0.65,2.19,4962,5123,5118,41,11,17,77,99,0
4965,5123,5123,-7,-1,0,10240,-1.00,-1.00,0.65,2.19,4962,5123,5118,41,11,17,77,99,0
4969,5123,5123,-1,0,4,10240,-1.00,-1.00,0.65,2.19,4962,5123,5118,41,11,17,77,99,0
4971,5123,5123,4,0,5,10240,-1.00,-1.00,0.65,2.19,4962,5123,5118,41,11,17,77,99,0
4976,5123,5123,8,0,5,10240,-1.00,-1.00,0.65,2.19,4963,5123,5118,41,11,17,77,99,0
4979,5123,5122,11,0,4,10240,-1.00,-1.00,0.65,2.19,4963,5123,5118,41,11,17,77,99,0
4983,5123,5123,14,0,4,10240,-1.00,-1.00,0.65,2.19,4964,5123,5119,41,11,17,77,99,0
4986,5123,5123,17,0,4,10240,-1.00,-1.00,0.65,2.19,4965,5123,5119,41,11,17,77,99,0
4989,5123,5123,19,0,4,10240,-1.00,-1.00,0.65,2.19,4966,5123,5119,41,11,17,77,99,0
4988,5135,5109,21,3,0,10240,-1.00,-1.00,0.65,2.19,4966,5123,5119,41,11,17,77,99,0
4992,5123,5123,22,3,0,10240,-1.00,-1.00,0.65,2.19,4967,5123,5119,41,11,17,77,99,0
4986,5160,5084,22,11,-9,10240,-1.00,-1.00,0.65,2.19,4968,5125,5118,41,11,17,77,99,0
4962,5123,5105,14,11,-13,10240,-1.00,-1.00,0.65,2.19,4968,5125,5117,41,11,17,77,99,0
4938,5111,5080,2,5,-19,10240,-1.00,-1.00,0.65,2.19,4967,5124,5116,41,11,17,77,99,0
4931,5109,5078,-12,1,-29,10240,-1.00,-1.00,0.65,2.19,4965,5124,5115,41,11,17,77,99,0
4932,5111,5080,-25,-10,-29,10240,-1.00,-1.00,0.65,2.19,4964,5123,5113,41,11,17,77,99,0
4936,5113,5090,-30,-12,-32,10240,-1.00,-1.00,0.65,2.19,4963,5123,5113,41,11,17,77,99,0
4957,5123,5122,-24,-9,-21,10240,-1.00,-1.00,0.65,2.19,4963,5123,5113,41,11,17,77,99,0
4961,5123,5123,-16,-5,-9,10240,-1.00,-1.00,0.65,2.19,4963,5123,5113,41,11,17,77,99,0
4964,5123,5123,-8,-2,1,10240,-1.00,-1.00,0.65,2.19,4963,5123,5114,41,11,17,77,99,0
4964,5123,5123,-1,0,9,10240,-1.00,-1.00,0.65,2.19,4963,5123,5114,41,11,17,77,99,0
4965,5123,5123,0,0,9,10240,-1.00,-1.00,0.65,2.19,4963,5123,5114,41,11,17,77,99,0
4970,5123,5123,2,0,8,10240,-1.00,-1.00,0.65,2.19,4963,5123,5115,41,11,23,77,99,0
4974,5123,5123,5,0,8,10240,-1.00,-1.00,0.48,1.84,4964,5123,5115,41,11,23,77,99,0
4978,5123,5123,8,0,8,10240,-1.00,-1.00,0.48,1.84,4964,5123,5115,41,11,23,77,99,0
4982,5123,5122,12,0,7,10240,-1.00,-1.00,0.48,1.84,4965,5123,5115,41,11,23,77,99,0
4985,5123,5122,15,0,7,10240,-1.00,-1.00,0.48,1.84,4966,5123,5116,41,11,23,77,99,0
4988,5125,5122,18,0,6,10240,-1.00,-1.00,0.48,1.84,4966,5123,5116,41,11,23,77,99,0
4987,5125,5118,19,1,5,10240,-1.00,-1.00,0.48,1.84,4967,5123,5116,41,11,23,77,99,0
4974,5123,5121,17,1,4,10240,-1.00,-1.00,0.48,1.84,4967,5123,5116,43,11,23,77,99,0
4943,5114,5087,6,-1,-3,10240,-1.00,-1.00,0.48,1.84,4966,5123,5115,43,11,23,77,99,0
4932,5110,5081,-7,-4,-13,10240,-1.00,-1.00,0.48,1.84,4965,5122,5114,43,11,23,77,99,0
4933,5113,5091,-20,-7,-19,10240,-1.00,-1.00,0.48,1.84,4964,5122,5113,43,11,23,77,99,0
4948,5122,5120,-25,-7,-19,10240,-1.00,-1.00,0.48,1.84,4964,5122,5113,43,11,23,77,99,0
4956,5123,5123,-21,-5,-9,10240,-1.00,-1.00,0.48,1.84,4963,5122,5114,43,11,23,77,99,0
4966,5123,5123,-12,-1,0,10240,-1.00,-1.00,0.48,1.84,4963,5122,5114,43,11,23,77,99,0
4970,5123,5123,-3,0,8,10240,-1.00,-1.00,0.48,1.84,4964,5122,5114,43,11,23,77,99,0
4971,5123,5123,2,1,8,10240,-1.00,-1.00,0.48,1.84,4964,5122,5115,43,11,23,77,99,0
4977,5123,5123,7,1,8,10240,-1.00,-1.00,0.48,1.84,4964,5122,5115,43,11,23,77,99,0
4980,5123,5122,10,1,8,10240,-1.00,-1.00,0.48,1.84,4965,5122,5115,43,11,23,77,99,0
4982,5123,5123,13,1,7,10240,-1.00,-1.00,0.48,1.84,4965,5122,5115,43,11,24,77,99,0
4985,5123,5123,16,1,7,10240,-1.00,-1.00,0.46,1.85,4966,5122,5116,43,11,24,77,99,0
4988,5123,5123,18,1,7,10240,-1.00,-1.00,0.46,1.85,4967,5122,5116,43,11,24,77,99,0
4991,5123,5123,20,1,7,10240,-1.00,-1.00,0.46,1.85,4968,5122,5116,43,11,24,77,99,0
4993,5123,5123,21,1,7,10240,-1.00,-1.00,0.46,1.85,4969,5122,5116,43,11,24,77,99,0
4993,5127,5120,23,2,6,10240,-1.00,-1.00,0.46,1.85,4969,5122,5116,43,11,24,77,99,0
4991,5123,5123,23,2,6,10240,-1.00,-1.00,0.46,1.85,4970,5122,5117,43,11,24,77,99,0
4979,5123,5123,19,2,5,10240,-1.00,-1.00,0.46,1.85,4970,5122,5117,44,11,24,77,99,0
4958,5123,5119,10,1,4,10240,-1.00,-1.00,0.46,1.85,4970,5123,5117,44,11,24,77,99,0
4959,5123,5123,1,0,5,10240,-1.00,-1.00,0.46,1.85,4970,5123,5117,44,11,24,77,99,0
4957,5123,5121,-6,0,4,10240,-1.00,-1.00,0.46,1.85,4969,5123,5117,44,11,24,77,99,0
4959,5123,5123,-11,0,4,10240,-1.00,-1.00,0.46,1.85,4969,5123,5117,44,11,24,77,99,0
4966,5123,5123,-9,0,5,10240,-1.00,-1.00,0.46,1.85,4969,5123,5118,44,11,24,77,99,0
4973,5123,5123,-5,0,5,10240,-1.00,-1.00,0.46,1.85,4969,5123,5118,44,11,24,77,99,0
4971,5123,5123,-1,0,5,10240,-1.00,-1.00,0.46,1.85,4969,5123,5118,44,11,24,77,99,0
4973,5123,5123,1,0,5,10240,-1.00,-1.00,0.46,1.85,4969,5123,5118,44,11,24,77,99,0
4977,5123,5123,4,0,5,10240,-1.00,-1.00,0.46,1.85,4969,5123,5118,44,11,24,77,99,0
4980,5123,5123,6,0,4,10240,-1.00,-1.00,0.46,1.85,4970,5123,5119,44,11,24,77,99,0
4983,5123,5122,8,0,4,10240,-1.00,-1.00,0.46,1.85,4970,5123,5119,44,11,24,77,99,0
4985,5123,5123,11,0,4,10240,-1.00,-1.00,0.46,1.85,4971,5123,5119,44,11,24,77,99,0
4988,5123,5123,13,0,3,10240,-1.00,-1.00,0.46,1.85,4971,5123,5119,44,11,24,77,99,0
4988,5126,5119,15,0,2,10240,-1.00,-1.00,0.46,1.85,4972,5123,5119,44,11,24,77,99,0
4991,5123,5123,16,0,3,10240,-1.00,-1.00,0.46,1.85,4972,5123,5119,44,11,24,77,99,0
4991,5123,5123,17,0,3,10240,-1.00,-1.00,0.46,1.85,4973,5123,5119,44,11,24,77,99,0
4955,5120,5103,9,0,-2,10240,-1.00,-1.00,0.46,1.85,4972,5123,5119,40,11,24,77,99,0
4935,5110,5083,-4,-3,-10,10240,-1.00,-1.00,0.46,1.85,4971,5122,5117,40,11,24,77,99,0
4931,5110,5085,-18,-6,-19,10240,-1.00,-1.00,0.46,1.85,4970,5122,5116,40,11,24,77,99,0
4930,5110,5084,-32,-9,-28,10240,-1.00,-1.00,0.46,1.85,4969,5121,5115,40,11,24,77,99,0
4934,5113,5094,-36,-10,-29,10240,-1.00,-1.00,0.46,1.85,4967,5121,5115,40,11,24,77,99,0
4957,5123,5123,-30,-7,-18,10240,-1.00,-1.00,0.46,1.85,4967,5121,5115,40,11,24,77,99,0
4960,5123,5123,-22,-3,-9,10240,-1.00,-1.00,0.46,1.85,4967,5121,5115,40,11,24,77,99,0
4960,5123,5123,-14,0,0,10240,-1.00,-1.00,0.46,1.85,4967,5121,5115,40,11,24,77,99,0
4962,5123,5123,-7,2,7,10240,-1.00,-1.00,0.46,1.85,4966,5121,5116,40,11,24,77,99,0
4964,5123,5123,-5,2,7,10240,-1.00,-1.00,0.46,1.85,4966,5121,5116,40,11,24,77,99,0
4969,5123,5123,-2,2,7,10240,-1.00,-1.00,0.46,1.85,4966,5121,5116,40,11,24,77,99,0
4971,5123,5123,0,2,7,10240,-1.00,-1.00,0.46,1.85,4967,5121,5116,40,11,24,77,99,0
4976,5123,5122,3,1,6,10240,-1.00,-1.00,0.46,1.85,4967,5122,5117,40,11,27,77,99,0
4980,5123,5122,7,1,6,10240,-1.00,-1.00,0.41,1.53,4967,5122,5117,40,11,27,77,99,0
4984,5124,5122,10,1,5,10240,-1.00,-1.00,0.41,1.53,4968,5122,5117,40,11,27,77,99,0
4988,5124,5122,14,1,5,10240,-1.00,-1.00,0.41,1.53,4969,5122,5117,40,11,27,77,99,0
4985,5123,5122,16,1,5,10240,-1.00,-1.00,0.41,1.53,4969,5122,5117,40,11,27,77,99,0
4966,5123,5114,12,1,3,10240,-1.00,-1.00,0.41,1.53,4969,5122,5117,43,11,27,77,99,0
4939,5115,5089,0,0,-5,10240,-1.00,-1.00,0.41,1.53,4968,5122,5116,43,11,27,77,99,0
4926,5108,5078,-14,-4,-15,10240,-1.00,-1.00,0.41,1.53,4967,5121,5115,43,11,27,77,99,0
4928,5108,5078,-27,-8,-25,10240,-1.00,-1.00,0.41,1.53,4965,5121,5114,43,11,27,77,99,0
4927,5110,5085,-36,-10,-32,10240,-1.00,-1.00,0.41,1.53,4964,5120,5113,43,11,27,77,99,0
4938,5117,5103,-35,-9,-27,10240,-1.00,-1.00,0.41,1.53,4963,5120,5112,43,11,27,77,99,0
4950,5122,5120,-28,-6,-16,10240,-1.00,-1.00,0.41,1.53,4963,5120,5113,43,11,27,77,99,0
4949,5122,5117,-22,-2,-6,10240,-1.00,-1.00,0.41,1.53,4962,5120,5113,43,11,27,77,99,0
4954,5123,5123,-14,1,3,10240,-1.00,-1.00,0.41,1.53,4962,5120,5113,43,11,27,77,99,0
4960,5123,5123,-9,2,7,10240,-1.00,-1.00,0.41,1.53,4962,5121,5113,43,11,27,77,99,0
4963,5123,5123,-5,2,8,10240,-1.00,-1.00,0.41,1.53,4962,5121,5114,43,11,27,77,99,0
4967,5123,5123,-1,2,9,10240,-1.00,-1.00,0.41,1.53,4962,5121,5114,43,11,27,77,99,0
4973,5123,5123,3,2,9,10240,-1.00,-1.00,0.41,1.53,4962,5121,5114,43,11,27,77,99,0
4974,5123,5122,7,2,8,10240,-1.00,-1.00,0.41,1.53,4963,5121,5115,43,11,31,77,99,0
4980,5123,5122,11,2,8,10240,-1.00,-1.00,0.35,1.43,4963,5121,5115,43,11,31,77,99,0
4983,5123,5122,14,2,7,10240,-1.00,-1.00,0.35,1.43,4964,5121,5115,43,11,31,77,99,0
4984,5123,5123,16,2,7,10240,-1.00,-1.00,0.35,1.43,4965,5121,5115,43,11,31,77,99,0
4976,5123,5121,16,2,6,10240,-1.00,-1.00,0.35,1.43,4965,5121,5116,43,11,31,77,99,0
4950,5120,5099,8,1,1,10240,-1.00,-1.00,0.35,1.43,4965,5121,5115,46,11,31,77,99,0
4922,5106,5072,-6,-3,-11,10240,-1.00,-1.00,0.35,1.43,4963,5121,5114,46,11,31,77,99,0
4922,5107,5077,-21,-6,-22,10240,-1.00,-1.00,0.35,1.43,4962,5120,5112,46,11,31,77,99,0
4923,5108,5078,-33,-10,-31,10240,-1.00,-1.00,0.35,1.43,4961,5120,5111,46,11,31,77,99,0
4931,5114,5094,-37,-11,-31,10240,-1.00,-1.00,0.35,1.43,4960,5119,5111,46,11,31,77,99,0
4944,5119,5111,-30,-7,-21,10240,-1.00,-1.00,0.35,1.43,4959,5119,5111,46,11,31,77,99,0
4954,5123,5122,-21,-3,-9,10240,-1.00,-1.00,0.35,1.43,4959,5120,5111,46,11,31,77,99,0
4956,5123,5123,-13,0,1,10240,-1.00,-1.00,0.35,1.43,4959,5120,5111,46,11,31,77,99,0
4960,5123,5123,-5,2,8,10240,-1.00,-1.00,0.35,1.43,4959,5120,5112,46,11,31,77,99,0
4962,5123,5123,-1,3,11,10240,-1.00,-1.00,0.35,1.43,4959,5120,5112,46,11,31,77,99,0
4966,5123,5123,2,3,11,10240,-1.00,-1.00,0.35,1.43,4959,5120,5113,46,11,31,77,99,0
4973,5123,5123,6,3,10,10240,-1.00,-1.00,0.35,1.43,4960,5120,5113,46,11,34,77,99,0
4976,5123,5123,9,3,10,10240,-1.00,-1.00,0.32,1.39,4960,5120,5113,46,11,34,77,99,0
4978,5123,5122,13,3,9,10240,-1.00,-1.00,0.32,1.39,4961,5120,5114,46,11,34,77,99,0
4983,5123,5122,17,3,9,10240,-1.00,-1.00,0.32,1.39,4961,5120,5114,46,11,34,77,99,0
4985,5123,5123,19,3,8,10240,-1.00,-1.00,0.32,1.39,4962,5120,5114,46,11,34,77,99,0
4967,5123,5117,16,2,7,10240,-1.00,-1.00,0.32,1.39,4962,5121,5114,48,11,34,77,99,0
4938,5113,5088,6,0,-1,10240,-1.00,-1.00,0.32,1.39,4962,5120,5113,48,11,34,77,99,0
4927,5108,5077,-7,-3,-12,10240,-1.00,-1.00,0.32,1.39,4960,5120,5112,48,11,34,77,99,0
4925,5109,5079,-21,-7,-22,10240,-1.00,-1.00,0.32,1.39,4959,5120,5111,48,11,34,77,99,0
4923,5107,5076,-31,-10,-31,10240,-1.00,-1.00,0.32,1.39,4958,5119,5110,48,11,34,77,99,0
4938,5117,5084,-30,-9,-31,10240,-1.00,-1.00,0.32,1.39,4957,5119,5109,48,11,34,77,99,0
4943,5119,5111,-25,-6,-22,10240,-1.00,-1.00,0.32,1.39,4957,5119,5109,48,11,34,77,99,0
4946,5119,5109,-19,-3,-14,10240,-1.00,-1.00,0.32,1.39,4957,5119,5109,48,11,34,84,99,0
4948,5121,5112,-13,0,-5,10240,-1.00,-1.00,0.32,1.39,4956,5119,5109,48,11,34,84,99,0
4945,5119,5103,-11,0,0,10240,-1.00,-1.00,0.32,1.39,4956,5119,5109,48,11,34,84,99,0
4954,5122,5109,-8,1,0,10240,-1.00,-1.00,0.32,1.39,4956,5119,5109,48,11,34,84,99,0
4961,5123,5122,-4,2,2,10240,-1.00,-1.00,0.32,1.39,4956,5119,5109,48,11,34,84,99,0
4964,5123,5121,0,2,4,10240,-1.00,-1.00,0.32,1.39,4956,5119,5110,48,11,34,84,99,0
4970,5123,5123,6,3,9,10240,-1.00,-1.00,0.32,1.39,4957,5120,5110,48,11,34,84,99,0
4974,5123,5123,10,3,12,10240,-1.00,-1.00,0.32,1.39,4957,5120,5111,48,11,34,84,99,0
4977,5123,5123,14,3,12,10240,-1.00,-1.00,0.32,1.39,4958,5120,5111,48,11,34,84,99,0
4980,5123,5122,17,3,12,10240,-1.00,-1.00,0.32,1.39,4959,5120,5111,48,11,34,84,99,0
4957,5121,5100,13,2,6,10240,-1.00,-1.00,0.32,1.39,4959,5120,5111,48,11,36,84,99,0
4929,5108,5068,2,-1,-7,10240,-1.00,-1.00,0.31,1.37,4958,5120,5110,48,11,36,84,99,0
4913,5095,5052,-13,-8,-24,10240,-1.00,-1.00,0.31,1.37,4956,5119,5108,48,11,36,84,99,0
4906,5083,5040,-30,-17,-43,10240,-1.00,-1.00,0.31,1.37,4954,5118,5105,48,11,36,84,99,0
4902,5078,5036,-42,-27,-57,10240,-1.00,-1.00,0.31,1.37,4953,5116,5103,48,11,36,84,99,0
4911,5091,5053,-45,-30,-59,10240,-1.00,-1.00,0.31,1.37,4951,5115,5101,48,11,36,84,99,0
4922,5106,5073,-41,-26,-52,10240,-1.00,-1.00,0.31,1.37,4950,5115,5101,48,11,36,84,99,0
4928,5109,5080,-35,-19,-40,10240,-1.00,-1.00,0.31,1.37,4950,5115,5100,48,11,36,84,99,0
4928,5109,5079,-27,-11,-29,10240,-1.00,-1.00,0.31,1.37,4949,5115,5099,48,11,36,84,99,0
4937,5114,5095,-20,-5,-18,10240,-1.00,-1.00,0.31,1.37,4949,5115,5099,48,11,36,84,99,0
4948,5120,5111,-13,-2,-8,10240,-1.00,-1.00,0.31,1.37,4948,5115,5099,48,11,36,84,99,0
4956,5123,5121,-6,1,2,10240,-1.00,-1.00,0.31,1.37,4949,5115,5100,48,11,36,84,99,0
4960,5123,5122,1,5,12,10240,-1.00,-1.00,0.31,1.37,4949,5115,5101,48,11,36,84,99,0
4964,5123,5122,8,7,18,10240,-1.00,-1.00,0.31,1.37,4950,5116,5102,48,11,36,84,99,0
4974,5123,5123,14,7,20,10240,-1.00,-1.00,0.31,1.37,4950,5116,5102,48,11,36,84,99,0
4975,5123,5122,18,7,20,10240,-1.00,-1.00,0.31,1.37,4951,5116,5103,48,11,36,84,99,0
4977,5123,5123,21,7,19,10240,-1.00,-1.00,0.31,1.37,4952,5116,5104,48,11,47,84,99,0
4972,5123,5121,23,6,19,10240,-0.34,-0.10,0.23,1.05,4953,5117,5104,48,18,47,84,99,0
4942,5115,5087,14,4,9,10240,-0.34,-0.10,0.23,1.05,4952,5116,5104,53,18,47,84,99,0
4918,5102,5063,0,0,-5,10240,-0.34,-0.10,0.23,1.05,4951,5116,5102,53,18,47,84,99,0
4913,5098,5060,-15,-6,-20,10240,-0.34,-0.10,0.23,1.05,4950,5115,5101,53,18,47,84,99,0
4913,5098,5062,-29,-12,-33,10240,-0.34,-0.10,0.23,1.05,4949,5115,5100,53,18,47,84,99,0
4919,5105,5073,-33,-14,-36,10240,-0.34,-0.10,0.23,1.05,4948,5114,5099,53,18,47,84,99,0
4928,5111,5087,-30,-11,-29,10240,-0.34,-0.10,0.23,1.05,4947,5114,5098,53,18,47,84,99,0
4942,5118,5106,-22,-6,-16,10240,-0.34,-0.10,0.23,1.05,4947,5115,5098,53,18,47,84,99,0
4942,5118,5102,-14,-1,-6,10240,-0.34,-0.10,0.23,1.05,4947,5115,5099,53,18,47,79,99,0
4945,5119,5102,-7,1,0,10240,-0.34,-0.10,0.23,1.05,4947,5115,5099,53,18,47,79,99,0
4945,5119,5103,-3,3,4,10240,-0.34,-0.10,0.23,1.05,4947,5115,5099,53,18,47,79,99,0
4950,5121,5106,-1,4,4,10240,-0.34,-0.10,0.23,1.05,4947,5115,5099,53,18,47,79,99,0
4957,5123,5113,2,5,6,10240,-0.34,-0.10,0.23,1.05,4947,5115,5100,53,18,47,79,99,0
4962,5123,5119,6,6,10,10240,-0.34,-0.10,0.23,1.05,4948,5116,5100,53,18,47,79,99,0
4968,5123,5121,11,7,14,10240,-0.34,-0.10,0.23,1.05,4948,5116,5101,53,18,47,79,99,0
4972,5123,5123,16,7,18,10240,-0.34,-0.10,0.23,1.05,4949,5116,5102,53,18,47,79,99,0
4974,5123,5122,20,7,20,10240,-0.34,-0.10,0.23,1.05,4950,5116,5102,53,18,47,79,99,0
4960,5123,5104,19,6,15,10240,-0.34,-0.10,0.23,1.05,4950,5117,5102,53,19,49,79,99,0
4930,5112,5072,9,4,3,10240,-0.34,-0.10,0.39,1.11,4950,5116,5101,53,19,49,79,99,0
4919,5101,5059,-4,-1,-12,10240,-0.34,-0.10,0.39,1.11,4949,5116,5100,53,19,49,79,99,0
4914,5097,5057,-18,-7,-27,10240,-0.34,-0.10,0.39,1.11,4947,5115,5099,53,19,49,79,99,0
4914,5099,5059,-28,-13,-37,10240,-0.34,-0.10,0.39,1.11,4946,5115,5097,53,19,49,79,99,0
4921,5105,5071,-29,-14,-36,10240,-0.34,-0.10,0.39,1.11,4945,5114,5096,53,19,49,89,99,0
4934,5113,5092,-25,-11,-27,10240,-0.34,-0.10,0.39,1.11,4945,5114,5096,53,19,49,89,99,0
4941,5117,5098,-17,-5,-16,10240,-0.34,-0.10,0.39,1.11,4945,5114,5096,53,19,49,89,99,0
4946,5119,5104,-9,0,-5,10240,-0.34,-0.10,0.39,1.11,4945,5115,5097,53,19,49,89,99,0
4947,5119,5101,-3,2,2,10240,-0.34,-0.10,0.39,1.11,4945,5115,5097,53,19,49,89,99,0
4961,5123,5119,3,4,8,10240,-0.34,-0.10,0.39,1.11,4946,5115,5097,53,19,49,89,99,0
4965,5123,5120,9,6,13,10240,-0.34,-0.10,0.39,1.11,4946,5115,5098,53,19,49,89,99,0
4967,5123,5121,14,6,17,10240,-0.34,-0.10,0.39,1.11,4947,5116,5099,53,19,49,89,99,0
4970,5123,5122,19,7,22,10240,-0.34,-0.10,0.39,1.11,4948,5116,5100,53,19,49,89,99,0
4973,5123,5121,21,7,21,10240,-0.34,-0.10,0.39,1.11,4948,5116,5100,53,19,51,89,99,0
4975,5123,5121,23,7,21,10240,-0.34,-0.10,0.37,1.07,4949,5116,5101,53,19,51,89,99,0
4977,5123,5122,25,7,20,10240,-0.34,-0.10,0.37,1.07,4950,5116,5102,53,19,51,89,99,0
4973,5123,5114,25,6,18,10240,-0.34,-0.10,0.37,1.07,4951,5117,5102,53,19,51,89,99,0
4948,5119,5084,18,5,8,10240,-0.34,-0.10,0.37,1.07,4951,5117,5102,53,19,51,89,99,0
4925,5105,5057,5,1,-7,10240,-0.34,-0.10,0.37,1.07,4950,5116,5100,53,19,51,89,99,0
4912,5094,5049,-10,-6,-24,10240,-0.34,-0.10,0.37,1.07,4949,5116,5098,53,19,51,89,99,0
4911,5094,5050,-25,-13,-39,10240,-0.34,-0.10,0.37,1.07,4948,5115,5097,53,19,51,89,99,0
4917,5100,5060,-32,-17,-43,10240,-0.34,-0.10,0.37,1.07,4947,5114,5096,53,19,51,89,99,0
4924,5106,5069,-31,-16,-39,10240,-0.34,-0.10,0.37,1.07,4946,5114,5095,53,19,51,92,99,0
4931,5110,5080,-25,-11,-30,10240,-0.34,-0.10,0.37,1.07,4945,5114,5094,53,19,51,92,99,0
4939,5114,5086,-18,-6,-21,10240,-0.34,-0.10,0.37,1.07,4945,5114,5094,53,19,51,92,99,0
4941,5115,5088,-11,-2,-13,10240,-0.34,-0.10,0.37,1.07,4945,5114,5094,53,19,51,92,99,0
4945,5118,5094,-6,0,-7,10240,-0.34,-0.10,0.37,1.07,4945,5114,5094,53,19,51,92,99,0
4955,5123,5105,0,3,0,10240,-0.34,-0.10,0.37,1.07,4945,5114,5094,53,19,51,92,99,0
4959,5123,5110,4,5,5,10240,-0.34,-0.10,0.37,1.07,4946,5115,5095,53,19,51,92,99,0
4975,5123,5123,12,7,13,10240,-0.34,-0.10,0.37,1.07,4947,5115,5096,53,19,51,92,99,0
4979,5123,5123,20,8,20,10240,-0.34,-0.10,0.37,1.07,4948,5115,5096,53,19,51,92,99,0
4982,5123,5121,26,7,23,10240,-0.34,-0.10,0.37,1.07,4949,5116,5097,53,21,51,92,99,0
4983,5123,5120,31,7,25,10240,-0.34,-0.10,0.37,1.07,4950,5116,5098,53,21,51,92,99,0
4987,5123,5123,33,7,24,10240,-0.34,-0.10,0.37,1.07,4951,5116,5099,53,21,56,92,99,0
4956,5122,5088,26,6,15,10240,-0.34,-0.10,0.37,0.97,4951,5116,5098,56,21,56,92,99,0
4933,5112,5067,14,4,1,10240,-0.34,-0.10,0.37,0.97,4951,5116,5097,56,21,56,92,99,0
4924,5105,5058,0,0,-13,10240,-0.34,-0.10,0.37,0.97,4950,5116,5096,56,21,56,92,99,0
4923,5103,5061,-16,-5,-28,10240,-0.34,-0.10,0.37,0.97,4949,5115,5095,56,21,56,92,99,0
4921,5105,5062,-24,-9,-33,10240,-0.34,-0.10,0.37,0.97,4948,5115,5094,56,21,56,92,99,0
4938,5114,5071,-22,-8,-31,10240,-0.34,-0.10,0.37,0.97,4948,5115,5093,56,21,56,92,99,0
4952,5123,5105,-14,-3,-19,10240,-0.34,-0.10,0.37,0.97,4948,5115,5094,56,21,56,92,99,0
4952,5122,5095,-7,1,-10,10240,-0.34,-0.10,0.37,0.97,4948,5115,5094,56,21,56,93,99,0
4959,5123,5107,2,5,0,10240,-0.34,-0.10,0.37,0.97,4948,5116,5094,56,21,56,93,99,0
4964,5123,5113,8,7,10,10240,-0.34,-0.10,0.37,0.97,4949,5116,5095,56,21,56,93,99,0
4974,5123,5121,13,7,14,10240,-0.34,-0.10,0.37,0.97,4950,5116,5095,56,21,56,93,99,0
4979,5123,5122,19,7,20,10240,-0.34,-0.10,0.37,0.97,4951,5116,5096,56,21,56,93,99,0
4982,5123,5123,24,6,24,10240,-0.34,-0.10,0.37,0.97,4952,5117,5097,56,21,56,93,99,0
4985,5123,5123,28,6,25,10240,-0.34,-0.10,0.37,0.97,4953,5117,5098,56,21,56,93,99,0
4988,5123,5122,31,6,25,10240,-0.34,-0.10,0.37,0.97,4954,5117,5099,56,21,56,93,99,0
4990,5123,5122,32,6,24,10240,-0.34,-0.10,0.37,0.97,4955,5117,5100,56,21,56,93,99,0
4993,5124,5122,34,6,23,10240,-0.34,-0.10,0.37,1.03,4957,5117,5100,56,21,56,93,99,0
4973,5123,5097,30,6,16,10240,-0.34,-0.10,0.37,1.03,4957,5118,5100,57,21,56,93,99,0
4950,5120,5075,20,5,4,10240,-0.34,-0.10,0.37,1.03,4957,5118,5100,57,21,56,93,99,0
4931,5110,5062,5,1,-10,10240,-0.34,-0.10,0.37,1.03,4956,5117,5098,57,21,56,93,99,0
4925,5107,5058,-11,-2,-25,10240,-0.34,-0.10,0.37,1.03,4955,5117,5097,57,21,56,93,99,0
4930,5112,5071,-21,-5,-31,10240,-0.34,-0.10,0.37,1.03,4954,5117,5096,57,21,56,93,99,0
4937,5113,5078,-24,-6,-29,10240,-0.34,-0.10,0.37,1.03,4954,5117,5095,57,21,56,93,99,0
4951,5122,5090,-18,-3,-21,10240,-0.34,-0.10,0.37,1.03,4953,5117,5095,57,21,56,93,99,0
4959,5123,5099,-9,0,-10,10240,-0.34,-0.10,0.37,1.03,4954,5117,5095,57,21,56,93,99,0
4963,5123,5102,-1,3,-3,10240,-0.34,-0.10,0.37,1.03,4954,5117,5096,57,21,56,93,99,0
4976,5123,5119,8,5,7,10240,-0.34,-0.10,0.37,1.03,4955,5118,5096,57,21,56,93,99,0
4977,5123,5117,14,5,13,10240,-0.34,-0.10,0.37,1.03,4955,5118,5097,57,21,56,93,99,0
4984,5123,5122,20,5,18,10240,-0.34,-0.10,0.37,1.03,4956,5118,5098,57,21,56,93,99,0
4989,5123,5123,25,5,22,10240,-0.34,-0.10,0.37,1.03,4957,5118,5099,57,21,56,93,99,0
4991,5124,5121,28,5,22,10240,-0.34,-0.10,0.37,1.03,4959,5118,5100,57,21,56,93,99,0
4995,5134,5111,31,7,20,10240,-0.34,-0.10,0.37,1.03,4960,5119,5100,57,21,55,93,99,0
4999,5123,5123,34,7,19,10240,-0.34,-0.10,0.38,1.07,4961,5119,5101,57,21,55,93,99,0
5000,5123,5123,35,7,19,10240,-0.34,-0.10,0.38,1.07,4962,5119,5101,57,21,55,93,99,0
5000,5123,5123,36,6,19,10240,-0.34,-0.10,0.38,1.07,4964,5119,5102,57,21,55,93,99,0
4981,5124,5105,32,4,17,10240,-0.34,-0.10,0.38,1.07,4964,5119,5102,58,21,55,93,99,0
4947,5121,5079,18,3,6,10240,-0.34,-0.10,0.38,1.07,4964,5119,5101,58,21,55,93,99,0
4943,5118,5077,4,2,-5,10240,-0.34,-0.10,0.38,1.07,4963,5119,5101,58,21,55,93,99,0
4943,5118,5075,-9,1,-17,10240,-0.34,-0.10,0.38,1.07,4962,5119,5100,58,21,55,90,99,0
4944,5118,5078,-18,0,-23,10240,-0.34,-0.10,0.38,1.07,4962,5119,5099,58,21,55,90,99,0
4953,5123,5091,-16,0,-19,10240,-0.34,-0.10,0.38,1.07,4961,5120,5099,58,21,55,90,99,0
4969,5123,5107,-9,1,-11,10240,-0.34,-0.10,0.38,1.07,4962,5120,5099,58,21,55,90,99,0
4970,5123,5104,-2,2,-4,10240,-0.34,-0.10,0.38,1.07,4962,5120,5099,58,21,55,90,99,0
4974,5123,5106,4,3,3,10240,-0.34,-0.10,0.38,1.07,4962,5120,5099,58,21,55,90,99,0
4984,5123,5119,12,3,9,10240,-0.34,-0.10,0.38,1.07,4963,5120,5100,58,21,55,90,99,0
4987,5124,5117,16,3,11,10240,-0.34,-0.10,0.38,1.07,4964,5120,5101,58,21,55,90,99,0
4994,5124,5121,21,3,15,10240,-0.34,-0.10,0.38,1.07,4965,5120,5101,58,21,55,90,99,0
4997,5123,5123,26,3,19,10240,-0.34,-0.10,0.38,1.07,4966,5120,5102,58,21,55,90,99,0
5001,5123,5123,29,3,19,10240,-0.34,-0.10,0.38,1.07,4967,5120,5103,58,21,55,90,99,0
5003,5123,5123,32,3,20,10240,-0.34,-0.10,0.38,1.07,4968,5120,5103,58,21,55,90,99,0
5005,5123,5123,33,2,20,10240,-0.34,-0.10,0.38,1.07,4970,5121,5104,58,21,55,90,99,0
5002,5123,5122,33,2,19,10240,-0.34,-0.10,0.38,1.07,4971,5121,5105,58,21,52,90,99,0
4973,5123,5094,25,2,11,10240,-0.34,-0.10,0.40,1.15,4971,5121,5104,56,21,52,90,99,0
4958,5123,5081,14,2,0,10240,-0.34,-0.10,0.40,1.15,4970,5121,5104,56,21,52,90,99,0
4949,5122,5076,0,1,-10,10240,-0.34,-0.10,0.40,1.15,4970,5121,5103,56,21,52,90,99,0
4950,5123,5077,-12,1,-21,10240,-0.34,-0.10,0.40,1.15,4969,5121,5102,56,21,52,90,99,0
4958,5123,5084,-15,1,-23,10240,-0.34,-0.10,0.40,1.15,4968,5121,5101,56,21,52,92,99,0
4973,5123,5112,-11,1,-14,10240,-0.34,-0.10,0.40,1.15,4969,5121,5102,56,21,52,92,99,0
4979,5123,5112,-3,2,-5,10240,-0.34,-0.10,0.40,1.15,4969,5121,5102,56,21,52,92,99,0
4985,5123,5117,4,2,4,10240,-0.34,-0.10,0.40,1.15,4970,5121,5102,56,21,52,92,99,0
4990,5123,5123,12,2,13,10240,-0.34,-0.10,0.40,1.15,4970,5121,5103,56,21,52,92,99,0
4994,5124,5120,17,2,15,10240,-0.34,-0.10,0.40,1.15,4971,5121,5104,56,21,52,92,99,0
4997,5123,5122,20,2,17,10240,-0.34,-0.10,0.40,1.15,4972,5121,5104,56,21,52,92,99,0
5001,5123,5123,24,2,18,10240,-0.34,-0.10,0.40,1.15,4973,5121,5105,56,21,52,92,99,0
5002,5123,5123,26,2,17,10240,-0.34,-0.10,0.40,1.15,4974,5122,5105,56,21,50,92,99,0
5004,5123,5123,27,1,17,10240,-0.34,-0.10,0.42,1.15,4975,5122,5106,56,21,50,92,99,0
5007,5123,5123,29,1,17,10240,-0.34,-0.10,0.42,1.15,4976,5122,5107,56,21,50,92,99,0
4987,5167,5078,24,11,5,10240,-0.34,-0.10,0.42,1.15,4976,5123,5106,53,21,50,92,99,0
5007,5123,5123,25,11,5,10240,-0.34,-0.10,0.42,1.15,4977,5123,5106,53,21,50,92,99,0
4986,5124,5101,20,11,0,10240,-0.34,-0.10,0.42,1.15,4978,5123,5106,53,21,50,92,99,0
4963,5123,5079,8,11,-10,10240,-0.34,-0.10,0.42,1.15,4977,5123,5105,53,21,50,92,99,0
4955,5123,5072,0,0,-11,10240,-0.34,-0.10,0.42,1.15,4976,5123,5104,53,21,50,92,99,0
4953,5123,5076,-12,0,-22,10240,-0.34,-0.10,0.42,1.15,4976,5123,5103,53,21,50,92,99,0
4955,5123,5080,-19,0,-26,10240,-0.34,-0.10,0.42,1.15,4975,5123,5102,53,21,50,92,99,0
4967,5123,5098,-18,0,-21,10240,-0.34,-0.10,0.42,1.15,4975,5123,5102,53,21,50,94,99,0
4977,5124,5105,-12,0,-12,10240,-0.34,-0.10,0.42,1.15,4975,5123,5102,53,21,50,94,99,0
4986,5125,5111,-3,0,-3,10240,-0.34,-0.10,0.42,1.15,4975,5123,5103,53,21,50,94,99,0
4994,5123,5123,5,0,6,10240,-0.34,-0.10,0.42,1.15,4976,5123,5103,53,21,50,94,99,0
4995,5125,5117,12,1,11,10240,-0.34,-0.10,0.42,1.15,4976,5123,5104,53,21,50,94,99,0
4999,5126,5120,17,1,14,10240,-0.34,-0.10,0.42,1.15,4977,5123,5104,53,21,50,94,99,0
5004,5123,5123,21,1,16,10240,-0.34,-0.10,0.42,1.15,4978,5123,5105,53,21,50,94,99,0
5004,5123,5123,23,1,16,10240,-0.34,-0.10,0.42,1.15,4979,5123,5106,53,21,50,94,99,0
4986,5168,5078,20,11,6,10240,-0.34,-0.10,0.42,1.15,4979,5125,5105,50,21,48,94,99,0
5009,5123,5123,21,10,6,10240,-0.34,-0.10,0.44,1.07,4980,5125,5105,50,21,48,94,99,0
4986,5167,5078,16,20,-4,10240,-0.34,-0.10,0.44,1.07,4980,5126,5104,50,21,48,94,99,0
5010,5123,5123,17,19,-4,10240,-0.34,-0.10,0.44,1.07,4981,5126,5105,50,21,48,94,99,0
5004,5125,5115,21,8,5,10240,-0.34,-0.10,0.44,1.07,4982,5126,5105,50,21,48,94,99,0
4964,5123,5076,10,8,-6,10240,-0.34,-0.10,0.44,1.07,4981,5126,5104,43,21,48,94,99,0
4955,5123,5072,2,-2,-7,10240,-0.34,-0.10,0.44,1.07,4981,5126,5103,43,21,48,94,99,0
4955,5123,5072,-11,-2,-19,10240,-0.34,-0.10,0.44,1.07,4980,5126,5102,43,21,48,94,99,0
4957,5123,5078,-22,-3,-28,10240,-0.34,-0.10,0.44,1.07,4979,5126,5101,43,21,48,94,99,0
4962,5123,5087,-22,-3,-24,10240,-0.34,-0.10,0.44,1.07,4978,5126,5101,43,21,48,94,99,0
4989,5124,5115,-13,-2,-13,10240,-0.34,-0.10,0.44,1.07,4979,5126,5101,43,21,48,94,99,0
4993,5125,5117,-3,-2,-2,10240,-0.34,-0.10,0.44,1.07,4979,5125,5102,43,21,48,95,99,0
4994,5128,5114,5,0,6,10240,-0.34,-0.10,0.44,1.07,4980,5126,5102,43,21,48,95,99,0
4998,5127,5118,14,0,14,10240,-0.34,-0.10,0.44,1.07,4980,5126,5103,43,21,48,95,99,0
5003,5123,5123,17,0,15,10240,-0.34,-0.10,0.44,1.07,4981,5126,5104,43,21,48,95,99,0
4984,5167,5078,14,10,5,10240,-0.34,-0.10,0.44,1.07,4981,5127,5103,42,21,46,95,99,0
5007,5123,5123,17,8,7,10240,-0.34,-0.10,0.45,0.94,4982,5127,5103,42,21,46,95,99,0
5010,5123,5123,19,7,8,10240,-0.34,-0.10,0.45,0.94,4983,5127,5104,42,21,46,95,99,0
4999,5145,5100,17,12,2,10240,-0.34,-0.10,0.45,0.94,4983,5127,5104,42,21,46,95,99,0
5005,5140,5105,22,5,9,10240,-0.34,-0.10,0.45,0.94,4984,5128,5104,42,21,46,95,99,0
5010,5142,5111,22,10,5,10240,-0.34,-0.10,0.45,0.94,4985,5128,5104,42,21,46,95,99,0
4988,5165,5079,16,20,-5,10240,-0.34,-0.10,0.45,0.94,4985,5129,5103,42,21,46,95,99,0
4989,5127,5100,13,15,-4,10240,-0.34,-0.10,0.45,0.94,4985,5129,5103,42,21,46,95,99,0
4978,5123,5097,6,10,-6,10240,-0.34,-0.10,0.45,0.94,4985,5129,5103,42,21,46,95,99,0
4971,5123,5091,-3,5,-11,10240,-0.34,-0.10,0.45,0.94,4985,5129,5103,42,21,46,95,99,0
4981,5123,5097,-5,-5,-6,10240,-0.34,-0.10,0.45,0.94,4984,5129,5102,42,21,46,95,99,0
4987,5147,5094,-5,0,-7,10240,-0.34,-0.10,0.45,0.94,4985,5129,5102,42,21,46,98,99,0
5001,5123,5122,0,0,-1,10240,-0.34,-0.10,0.45,0.94,4985,5129,5103,42,21,46,98,99,0
4984,5169,5076,3,11,-5,10240,-0.34,-0.10,0.45,0.94,4985,5130,5102,42,21,46,98,99,0
5004,5123,5123,8,11,1,10240,-0.34,-0.10,0.45,0.94,4986,5130,5103,42,21,46,98,99,0
4986,5168,5077,8,15,-3,10240,-0.34,-0.10,0.45,0.94,4986,5131,5102,42,21,46,98,99,0
5008,5123,5123,9,15,-2,10240,-0.34,-0.10,0.45,0.94,4986,5131,5102,42,21,46,98,99,0
5009,5123,5123,15,3,9,10240,-0.34,-0.10,0.45,0.94,4987,5131,5103,42,21,46,98,99,0
4990,5158,5088,11,11,0,10240,-0.34,-0.10,0.45,0.94,4987,5132,5103,42,21,46,98,99,0
5014,5123,5123,18,0,11,10240,-0.34,-0.10,0.45,0.94,4988,5132,5103,42,21,46,98,99,0
4998,5152,5094,15,7,4,10240,-0.34,-0.10,0.45,0.94,4989,5132,5103,42,21,46,98,99,0
5018,5123,5123,16,7,3,10240,-0.34,-0.10,0.45,0.94,4990,5132,5104,42,21,46,98,99,0
5000,5155,5091,18,6,4,10240,-0.34,-0.10,0.45,0.94,4990,5133,5103,42,21,46,98,99,0
4991,5166,5079,12,16,-6,10240,-0.34,-0.10,0.45,0.94,4990,5134,5102,42,21,46,98,99,0
4994,5127,5099,10,9,-4,10240,-0.34,-0.10,0.45,0.94,4990,5134,5102,42,21,46,98,99,0
4973,5123,5080,0,9,-15,10240,-0.34,-0.10,0.45,0.94,4989,5133,5102,42,21,46,98,99,0
4966,5123,5077,-8,1,-18,10240,-0.34,-0.10,0.45,0.94,4989,5133,5101,42,21,46,98,99,0
4968,5123,5081,-13,-9,-17,10240,-0.34,-0.10,0.45,0.94,4988,5132,5100,42,21,46,98,99,0
4975,5123,5093,-18,-9,-18,10240,-0.34,-0.10,0.45,0.94,4988,5132,5100,42,21,46,98,99,0
4994,5125,5112,-12,-8,-9,10240,-0.34,-0.10,0.45,0.94,4988,5132,5100,42,21,46,98,99,0
4997,5136,5105,-4,-5,-2,10240,-0.34,-0.10,0.45,0.94,4988,5132,5100,42,21,46,98,99,0
5007,5123,5123,5,-5,8,10240,-0.34,-0.10,0.45,0.94,4989,5132,5101,42,21,46,98,99,0
4986,5168,5077,7,5,4,10240,-0.34,-0.10,0.45,0.94,4989,5133,5100,42,21,46,98,99,0
5009,5123,5123,11,5,6,10240,-0.34,-0.10,0.45,0.94,4989,5133,5101,42,21,46,98,99,0
5011,5123,5123,14,1,10,10240,-0.34,-0.10,0.45,0.94,4990,5132,5102,42,21,46,98,99,0
5007,5141,5108,13,6,6,10240,-0.34,-0.10,0.45,0.94,4991,5133,5102,39,21,46,98,99,0
5021,5165,5123,21,5,17,10240,-0.34,-0.10,0.45,0.94,4992,5134,5103,39,21,46,98,99,0
5023,5186,5123,24,20,16,10240,-0.34,-0.10,0.45,0.94,4993,5135,5103,39,21,46,98,99,0
5029,5215,5123,27,41,16,10240,-0.34,-0.10,0.45,0.94,4994,5138,5104,39,21,46,99,99,0
5032,5213,5123,32,57,19,10240,-0.34,-0.10,0.45,0.94,4995,5141,5105,39,21,46,99,99,0
5035,5211,5123,35,67,18,10240,-0.34,-0.10,0.45,0.94,4996,5143,5105,39,21,46,99,99,0
5019,5180,5123,33,63,18,10240,-0.34,-0.10,0.45,0.94,4997,5144,5106,38,32,46,99,99,0
5016,5176,5123,29,51,17,10240,-0.34,-0.10,0.45,0.94,4998,5145,5107,38,32,46,99,99,0
5017,5190,5123,24,44,16,10240,-0.34,-0.10,0.45,0.94,4998,5147,5107,38,32,46,99,99,0
5024,5215,5123,21,44,16,10240,-0.34,-0.10,0.45,0.94,4999,5149,5108,38,32,46,99,99,0
5027,5220,5123,22,52,15,10240,-0.34,-0.10,0.45,0.94,5000,5151,5108,38,32,46,99,99,0
5064,5266,5143,33,72,20,10240,-0.34,-0.10,0.45,0.94,5002,5155,5109,38,32,46,99,99,0
5075,5277,5159,46,91,28,10240,-0.34,-0.10,0.45,0.94,5005,5159,5111,38,32,46,99,99,0
5079,5284,5164,57,104,37,10240,-0.34,-0.10,0.45,0.94,5007,5163,5113,38,32,46,99,99,0
5082,5289,5163,69,117,45,10240,-0.34,-0.10,0.45,0.94,5010,5168,5114,38,32,46,99,99,0
5084,5292,5162,71,120,48,10240,-0.34,-0.10,0.45,0.94,5012,5172,5116,38,32,46,99,99,0
5086,5298,5161,71,121,47,10240,-0.34,-0.10,0.45,0.94,5015,5176,5117,38,32,43,99,99,0
5090,5303,5156,72,121,44,10240,-0.38,-0.09,0.74,0.90,5017,5180,5119,38,32,43,99,99,0
5091,5305,5154,71,121,40,10240,-0.38,-0.09,0.74,0.90,5020,5184,5120,42,32,43,99,99,0
5094,5309,5151,71,121,36,10240,-0.38,-0.09,0.74,0.90,5022,5189,5121,42,32,43,99,99,0
5098,5314,5149,72,121,32,10240,-0.38,-0.09,0.74,0.90,5025,5193,5122,42,32,43,99,99,0
5105,5319,5141,73,121,27,10240,-0.38,-0.09,0.74,0.90,5027,5197,5123,42,32,43,99,99,0
5090,5300,5153,71,115,26,10240,-0.38,-0.09,0.74,0.90,5029,5200,5124,49,43,43,99,99,0
5061,5268,5125,60,102,18,10240,-0.38,-0.09,0.74,0.90,5030,5203,5124,49,43,43,99,99,0
5044,5243,5123,45,81,11,10240,-0.38,-0.09,0.74,0.90,5031,5204,5124,49,43,43,99,99,0
5036,5228,5123,27,56,7,10240,-0.38,-0.09,0.74,0.90,5031,5205,5124,49,43,43,99,99,0
5036,5228,5123,13,37,0,10240,-0.38,-0.09,0.74,0.90,5031,5205,5123,49,43,43,99,99,0
5043,5241,5123,8,29,0,10240,-0.38,-0.09,0.74,0.90,5032,5207,5123,49,43,43,99,99,0
5052,5258,5123,10,32,0,10240,-0.38,-0.09,0.74,0.90,5032,5208,5123,49,43,43,99,99,0
5059,5264,5126,15,40,0,10240,-0.38,-0.09,0.74,0.90,5033,5210,5124,49,43,43,99,99,0
5069,5272,5137,23,49,3,10240,-0.38,-0.09,0.74,0.90,5034,5212,5124,49,43,43,99,99,0
5081,5277,5148,31,56,9,10240,-0.38,-0.09,0.74,0.90,5036,5214,5125,49,43,43,99,99,0
5084,5291,5161,38,62,18,10240,-0.38,-0.09,0.74,0.90,5038,5217,5126,49,43,43,99,99,0
5089,5302,5156,44,69,25,10240,-0.38,-0.09,0.74,0.90,5039,5220,5127,49,43,43,99,99,0
5095,5312,5150,48,77,27,10240,-0.38,-0.09,0.74,0.90,5041,5223,5128,49,43,43,99,99,0
5107,5321,5145,53,85,25,10240,-0.38,-0.09,0.74,0.90,5043,5226,5128,49,43,39,99,99,0
5123,5333,5158,61,92,24,10240,-0.38,-0.09,1.08,1.28,5046,5230,5129,49,43,39,99,99,0
5123,5356,5182,67,102,29,10240,-0.38,-0.09,1.08,1.28,5049,5234,5131,49,43,39,99,99,0
5123,5361,5183,71,110,36,10240,-0.38,-0.09,1.08,1.28,5051,5238,5133,49,43,39,99,99,0
5119,5340,5158,72,111,38,10240,-0.38,-0.09,1.08,1.28,5053,5242,5134,49,43,39,99,99,0
5089,5299,5151,61,99,35,10240,-0.38,-0.09,1.08,1.28,5055,5244,5134,53,53,39,99,99,0
5063,5269,5124,45,75,20,10240,-0.38,-0.09,1.08,1.28,5055,5244,5134,53,53,39,99,99,0
5050,5253,5123,25,46,5,10240,-0.38,-0.09,1.08,1.28,5055,5245,5134,53,53,39,99,99,0
5047,5249,5123,7,23,-3,10240,-0.38,-0.09,1.08,1.28,5054,5245,5133,53,53,39,99,99,0
5051,5256,5123,-1,12,-10,10240,-0.38,-0.09,1.08,1.28,5054,5245,5133,53,53,39,99,99,0
5058,5263,5124,-2,10,-10,10240,-0.38,-0.09,1.08,1.28,5054,5246,5133,53,53,39,99,99,0
5067,5272,5127,1,14,-8,10240,-0.38,-0.09,1.08,1.28,5055,5247,5132,53,53,39,95,99,0
5071,5274,5137,7,19,-5,10240,-0.38,-0.09,1.08,1.28,5055,5248,5133,53,53,39,95,99,0
5076,5279,5144,13,24,0,10240,-0.38,-0.09,1.08,1.28,5056,5249,5133,53,53,39,95,99,0
5079,5282,5152,17,28,7,10240,-0.38,-0.09,1.08,1.28,5057,5250,5134,53,53,39,95,99,0
5084,5286,5160,21,30,14,10240,-0.38,-0.09,1.08,1.28,5058,5251,5134,53,53,39,95,99,0
5087,5293,5158,24,34,19,10240,-0.38,-0.09,1.08,1.28,5059,5252,5135,53,53,39,95,99,0
5093,5307,5152,27,40,20,10240,-0.38,-0.09,1.08,1.28,5060,5254,5136,53,53,39,95,99,0
5096,5310,5149,30,45,19,10240,-0.38,-0.09,1.08,1.28,5061,5256,5136,53,53,37,95,99,0
5101,5316,5145,33,51,15,10240,-0.38,-0.09,1.40,1.45,5062,5258,5136,53,53,37,95,99,0
5103,5317,5143,36,55,11,10240,-0.38,-0.09,1.40,1.45,5064,5260,5137,53,53,37,95,99,0
5103,5317,5143,37,56,8,10240,-0.38,-0.09,1.40,1.45,5065,5262,5137,53,53,37,95,99,0
5061,5265,5123,28,43,2,10240,-0.38,-0.09,1.40,1.45,5065,5262,5136,50,51,37,95,99,0
5050,5251,5123,14,26,-3,10240,-0.38,-0.09,1.40,1.45,5064,5262,5136,50,51,37,95,99,0
5046,5247,5123,0,8,-8,10240,-0.38,-0.09,1.40,1.45,5064,5261,5136,50,51,37,95,99,0
5048,5250,5123,-12,-8,-12,10240,-0.38,-0.09,1.40,1.45,5063,5261,5135,50,51,37,95,99,0
5050,5257,5123,-15,-10,-12,10240,-0.38,-0.09,1.40,1.45,5063,5261,5135,50,51,37,95,99,0
5078,5281,5153,-7,-2,-4,10240,-0.38,-0.09,1.40,1.45,5063,5261,5135,50,51,37,95,99,0
5082,5288,5161,1,7,4,10240,-0.38,-0.09,1.40,1.45,5064,5262,5136,50,51,37,95,99,0
5085,5291,5159,10,17,13,10240,-0.38,-0.09,1.40,1.45,5065,5263,5137,50,51,37,95,99,0
5088,5297,5157,19,26,21,10240,-0.38,-0.09,1.40,1.45,5065,5264,5138,50,51,37,96,99,0
5091,5304,5154,21,31,20,10240,-0.38,-0.09,1.40,1.45,5066,5266,5138,50,51,36,96,99,0
5101,5317,5145,25,37,16,10240,-0.38,-0.09,1.38,1.41,5067,5267,5138,50,51,36,96,99,0
5107,5322,5141,30,43,11,10240,-0.38,-0.09,1.38,1.41,5069,5269,5139,50,51,36,96,99,0
5116,5328,5147,35,49,8,10240,-0.38,-0.09,1.38,1.41,5070,5271,5139,50,51,36,96,99,0
5123,5338,5165,42,56,10,10240,-0.38,-0.09,1.38,1.41,5072,5273,5140,50,51,36,96,99,0
5123,5344,5169,46,60,15,10240,-0.38,-0.09,1.38,1.41,5074,5276,5141,50,51,36,96,99,0
5123,5348,5168,48,65,21,10240,-0.38,-0.09,1.38,1.41,5075,5278,5142,50,51,36,96,99,0
5108,5321,5139,44,61,19,10240,-0.38,-0.09,1.38,1.41,5077,5279,5141,53,57,36,96,99,0
5082,5288,5142,33,47,13,10240,-0.38,-0.09,1.38,1.41,5077,5280,5141,53,57,36,96,99,0
5062,5266,5123,17,26,1,10240,-0.38,-0.09,1.38,1.41,5076,5279,5141,53,57,36,96,99,0
5054,5261,5123,0,4,-9,10240,-0.38,-0.09,1.38,1.41,5076,5279,5140,53,57,36,96,99,0
5054,5261,5123,-13,-10,-12,10240,-0.38,-0.09,1.38,1.41,5075,5278,5140,53,57,36,100,99,0
5060,5265,5123,-17,-15,-17,10240,-0.38,-0.09,1.38,1.41,5074,5278,5139,53,57,36,100,99,0
5071,5277,5132,-15,-12,-14,10240,-0.38,-0.09,1.38,1.41,5074,5278,5139,53,57,36,100,99,0
5081,5284,5152,-7,-6,-6,10240,-0.38,-0.09,1.38,1.41,5074,5278,5139,53,57,36,100,99,0
5083,5286,5154,0,0,1,10240,-0.38,-0.09,1.38,1.41,5075,5278,5140,53,57,36,100,99,0
5087,5292,5158,6,6,9,10240,-0.38,-0.09,1.38,1.41,5075,5279,5140,53,57,36,100,99,0
5090,5299,5155,10,11,14,10240,-0.38,-0.09,1.38,1.41,5076,5279,5141,53,57,36,100,99,0
5093,5305,5153,12,16,14,10240,-0.38,-0.09,1.38,1.41,5076,5280,5141,53,57,36,100,99,0
5097,5313,5148,15,22,12,10240,-0.38,-0.09,1.38,1.41,5077,5281,5142,53,57,35,100,99,0
5109,5321,5138,20,28,7,10240,-0.38,-0.09,1.59,1.53,5078,5283,5141,53,57,35,100,99,0
5123,5336,5151,28,36,6,10240,-0.38,-0.09,1.59,1.53,5079,5284,5142,53,57,35,100,99,0
5122,5343,5162,34,44,8,10240,-0.38,-0.09,1.59,1.53,5081,5286,5142,53,57,35,100,99,0
5123,5355,5172,39,53,13,10240,-0.38,-0.09,1.59,1.53,5082,5289,5143,53,57,35,100,99,0
5123,5352,5165,41,59,19,10240,-0.38,-0.09,1.59,1.53,5084,5291,5144,53,57,35,100,99,0
5104,5318,5144,35,52,17,10240,-0.38,-0.09,1.59,1.53,5084,5292,5144,54,62,35,100,99,0
5063,5267,5123,19,32,7,10240,-0.38,-0.09,1.59,1.53,5084,5291,5143,54,62,35,100,99,0
5056,5259,5123,2,8,-4,10240,-0.38,-0.09,1.59,1.53,5083,5290,5143,54,62,35,100,99,0
5054,5261,5123,-14,-14,-14,10240,-0.38,-0.09,1.59,1.53,5082,5289,5142,54,62,35,100,99,0
5059,5264,5123,-24,-26,-19,10240,-0.38,-0.09,1.59,1.53,5081,5288,5141,54,62,35,100,99,0
5069,5276,5126,-22,-23,-18,10240,-0.38,-0.09,1.59,1.53,5081,5287,5141,54,62,35,100,99,0
5084,5290,5149,-14,-15,-11,10240,-0.38,-0.09,1.59,1.53,5081,5288,5141,54,62,35,100,99,0
5084,5288,5151,-7,-8,-4,10240,-0.38,-0.09,1.59,1.53,5081,5288,5142,54,62,35,100,99,0
5086,5292,5153,0,-1,3,10240,-0.38,-0.09,1.59,1.53,5081,5288,5142,54,62,35,100,99,0
5090,5301,5155,5,4,10,10240,-0.38,-0.09,1.59,1.53,5081,5288,5142,54,62,35,100,99,0
5095,5311,5150,7,9,10,10240,-0.38,-0.09,1.59,1.53,5082,5289,5143,54,62,35,100,99,0
5110,5323,5136,13,18,6,10240,-0.38,-0.09,1.59,1.53,5083,5290,5142,54,62,33,100,99,0
5115,5326,5134,20,25,1,10240,-0.38,-0.09,1.83,1.66,5084,5291,5142,54,62,33,100,99,0
5116,5326,5132,25,31,-4,10240,-0.38,-0.09,1.83,1.66,5085,5292,5142,54,62,33,100,99,0
5121,5332,5142,31,35,-6,10240,-0.38,-0.09,1.83,1.66,5086,5294,5142,54,62,33,100,99,0
5123,5338,5148,33,37,-3,10240,-0.38,-0.09,1.83,1.66,5087,5295,5142,54,62,33,100,99,0
5109,5324,5138,30,35,-2,10240,-0.38,-0.09,1.83,1.66,5088,5296,5142,55,62,33,100,99,0
5090,5301,5148,23,28,2,10240,-0.38,-0.09,1.83,1.66,5088,5296,5142,55,62,33,100,99,0
5073,5281,5124,11,15,-2,10240,-0.38,-0.09,1.83,1.66,5087,5296,5141,55,62,33,100,99,0
5066,5276,5123,-3,0,-8,10240,-0.38,-0.09,1.83,1.66,5087,5295,5141,55,62,33,100,99,0
5067,5274,5123,-13,-12,-11,10240,-0.38,-0.09,1.83,1.66,5086,5294,5140,55,62,33,100,99,0
5082,5291,5150,-14,-14,-10,10240,-0.38,-0.09,1.83,1.66,5086,5294,5141,55,62,33,100,99,0
5092,5308,5153,-9,-7,-3,10240,-0.38,-0.09,1.83,1.66,5086,5295,5141,55,62,33,100,99,0
5094,5311,5151,-2,1,3,10240,-0.38,-0.09,1.83,1.66,5086,5295,5141,55,62,33,100,99,0
5094,5311,5152,4,10,10,10240,-0.38,-0.09,1.83,1.66,5087,5296,5142,55,62,33,100,99,0
5094,5310,5152,7,14,10,10240,-0.38,-0.09,1.83,1.66,5087,5296,5142,55,62,33,100,99,0
5102,5317,5144,9,16,8,10240,-0.38,-0.09,1.83,1.66,5087,5297,5142,55,62,30,100,99,0
5105,5320,5141,11,17,5,10240,-0.38,-0.09,2.01,1.85,5088,5298,5142,55,62,30,100,99,0
5111,5325,5135,15,20,1,10240,-0.38,-0.09,2.01,1.85,5089,5299,5142,55,62,30,100,99,0
5121,5335,5146,21,25,0,10240,-0.38,-0.09,2.01,1.85,5090,5300,5142,55,62,30,100,99,0
5123,5348,5163,25,32,4,10240,-0.38,-0.09,2.01,1.85,5091,5302,5143,55,62,30,100,99,0
5123,5364,5176,29,41,12,10240,-0.38,-0.09,2.01,1.85,5092,5304,5144,55,62,30,100,99,0
5123,5363,5174,31,49,21,10240,-0.38,-0.09,2.01,1.85,5093,5306,5145,55,62,30,100,99,0
5119,5337,5140,29,48,19,10240,-0.38,-0.09,2.01,1.85,5094,5307,5145,52,62,28,100,99,0
5090,5300,5146,20,35,14,10240,-0.38,-0.09,2.15,1.88,5094,5306,5145,52,62,28,100,99,0
5069,5275,5123,6,12,1,10240,-0.38,-0.09,2.15,1.88,5093,5305,5144,52,62,28,100,99,0
5061,5263,5123,-8,-11,-11,10240,-0.38,-0.09,2.15,1.88,5092,5304,5143,52,62,28,100,99,0
5062,5267,5123,-22,-28,-15,10240,-0.38,-0.09,2.15,1.88,5091,5303,5143,52,62,28,100,99,0
5067,5275,5123,-26,-33,-20,10240,-0.38,-0.09,2.15,1.88,5090,5302,5142,52,62,28,100,99,0
5076,5284,5134,-24,-30,-16,10240,-0.38,-0.09,2.15,1.88,5090,5301,5142,52,62,28,100,99,0
5085,5291,5153,-17,-22,-9,10240,-0.38,-0.09,2.15,1.88,5089,5301,5142,52,62,28,100,99,0
5091,5303,5154,-10,-13,-1,10240,-0.38,-0.09,2.15,1.88,5090,5301,5142,52,62,28,100,99,0
5094,5309,5152,-3,-4,6,10240,-0.38,-0.09,2.15,1.88,5090,5301,5143,52,62,28,100,99,0
5097,5313,5149,2,2,9,10240,-0.38,-0.09,2.15,1.88,5090,5302,5143,52,62,28,100,99,0
5102,5320,5143,6,9,6,10240,-0.38,-0.09,2.15,1.88,5090,5302,5143,52,62,28,100,99,0
5107,5322,5139,9,14,2,10240,-0.38,-0.09,2.15,1.88,5091,5303,5143,52,62,28,100,99,0
5119,5329,5132,15,18,-2,10240,-0.38,-0.09,2.15,1.88,5092,5304,5142,52,62,28,100,99,0
5123,5338,5144,21,23,-3,10240,-0.38,-0.09,2.15,1.88,5093,5305,5142,52,62,28,100,99,0
5122,5335,5138,25,26,-4,10240,-0.38,-0.09,2.15,1.88,5094,5306,5142,52,62,28,100,99,0
5122,5336,5140,28,29,-3,10240,-0.38,-0.09,2.15,1.88,5095,5307,5142,52,62,28,100,99,0
5106,5321,5140,24,26,-1,10240,-0.38,-0.09,2.15,1.88,5095,5307,5142,53,62,28,100,99,0
5062,5263,5123,8,7,-6,10240,-0.38,-0.09,2.15,1.88,5094,5306,5142,53,62,28,100,99,0
5048,5238,5123,-9,-16,-10,10240,-0.38,-0.09,2.15,1.88,5092,5304,5141,53,62,28,100,99,0
5039,5224,5123,-29,-43,-14,10240,-0.38,-0.09,2.15,1.88,5091,5301,5140,53,62,28,100,99,0
5036,5219,5123,-45,-66,-17,10240,-0.38,-0.09,2.15,1.88,5089,5298,5140,53,62,28,100,99,0
5038,5223,5123,-49,-73,-17,10240,-0.38,-0.09,2.15,1.88,5087,5296,5139,53,62,28,100,99,0
5051,5246,5123,-47,-69,-16,10240,-0.38,-0.09,2.15,1.88,5086,5294,5139,53,62,28,100,99,0
5048,5239,5123,-43,-63,-16,10240,-0.38,-0.09,2.15,1.88,5085,5292,5138,53,62,28,100,99,0
5047,5236,5123,-39,-57,-15,10240,-0.38,-0.09,2.15,1.88,5083,5290,5138,53,62,28,100,99,0
5047,5239,5123,-35,-51,-15,10240,-0.38,-0.09,2.15,1.88,5082,5289,5137,53,62,28,100,99,0
5050,5245,5123,-34,-49,-14,10240,-0.38,-0.09,2.15,1.88,5081,5287,5137,53,62,28,100,99,0
5055,5254,5123,-31,-44,-14,10240,-0.38,-0.09,2.15,1.88,5080,5286,5136,53,62,28,100,99,0
5056,5256,5123,-28,-38,-13,10240,-0.38,-0.09,2.15,1.88,5080,5285,5136,53,62,28,100,99,0
5056,5258,5123,-25,-32,-13,10240,-0.38,-0.09,2.15,1.88,5079,5284,5135,53,62,28,100,99,0
5059,5258,5123,-22,-28,-12,10240,-0.38,-0.09,2.15,1.88,5078,5283,5135,53,62,28,100,99,0
5062,5260,5123,-20,-25,-12,10240,-0.38,-0.09,2.15,1.88,5078,5283,5135,53,62,28,100,99,0
5056,5251,5123,-19,-26,-11,10240,-0.38,-0.09,2.15,1.88,5077,5281,5134,53,59,28,100,99,0
5039,5215,5123,-23,-35,-11,10240,-0.38,-0.09,2.15,1.88,5076,5279,5134,47,59,28,100,99,0
5028,5176,5120,-30,-54,-11,10240,-0.38,-0.09,2.15,1.88,5074,5276,5133,47,59,28,100,99,0
5009,5159,5096,-41,-76,-17,10240,-0.38,-0.09,2.15,1.88,5072,5272,5132,47,59,28,100,99,0
4998,5159,5088,-54,-96,-25,10240,-0.38,-0.09,2.15,1.88,5069,5268,5131,47,59,28,100,99,0
5006,5151,5100,-60,-108,-30,10240,-0.38,-0.09,2.15,1.88,5067,5264,5130,47,59,28,100,99,0
5018,5158,5121,-60,-109,-29,10240,-0.38,-0.09,2.15,1.88,5066,5261,5129,47,59,28,100,99,0
5022,5172,5123,-55,-102,-21,10240,-0.38,-0.09,2.15,1.88,5064,5258,5129,47,59,28,100,99,0
5022,5174,5123,-48,-95,-12,10240,-0.38,-0.09,2.15,1.88,5063,5255,5129,47,59,28,100,99,0
5024,5178,5123,-42,-86,-6,10240,-0.38,-0.09,2.15,1.88,5061,5252,5129,47,59,28,100,99,0
5029,5201,5123,-37,-72,-5,10240,-0.38,-0.09,2.15,1.88,5060,5251,5128,47,59,28,100,99,0
5030,5211,5123,-34,-60,-5,10240,-0.38,-0.09,2.15,1.88,5059,5249,5128,47,59,28,100,99,0
5031,5214,5123,-31,-49,-5,10240,-0.38,-0.09,2.15,1.88,5058,5248,5128,47,59,28,100,99,0
5032,5213,5123,-28,-39,-5,10240,-0.38,-0.09,2.15,1.88,5058,5247,5128,47,59,28,100,99,0
5031,5214,5123,-27,-34,-5,10240,-0.38,-0.09,2.15,1.88,5057,5246,5128,47,59,28,100,99,0
5031,5215,5123,-26,-32,-5,10240,-0.38,-0.09,2.15,1.88,5056,5245,5128,47,59,28,100,99,0
5031,5214,5123,-25,-31,-4,10240,-0.38,-0.09,2.15,1.88,5055,5244,5127,47,59,28,100,99,0
5032,5214,5123,-24,-30,-4,10240,-0.38,-0.09,2.15,1.88,5054,5243,5127,47,59,28,100,99,0
5027,5188,5121,-24,-35,-4,10240,-0.38,-0.09,2.15,1.88,5053,5241,5127,47,64,28,100,99,0
5004,5149,5099,-30,-50,-10,10240,-0.38,-0.09,2.15,1.88,5052,5238,5126,44,64,28,100,99,0
4991,5136,5091,-38,-67,-17,10240,-0.38,-0.09,2.24,1.59,5050,5235,5125,44,64,28,100,99,0
4990,5139,5100,-47,-83,-22,10240,-0.38,-0.09,2.24,1.59,5048,5231,5124,44,64,28,100,99,0
4990,5145,5097,-55,-90,-27,10240,-0.38,-0.09,2.24,1.59,5046,5228,5123,44,64,28,100,99,0
5000,5123,5123,-54,-94,-21,10240,-0.38,-0.09,2.24,1.59,5044,5225,5123,44,64,28,100,99,0
5002,5123,5123,-49,-94,-12,10240,-0.38,-0.09,2.24,1.59,5043,5222,5123,44,64,28,100,99,0
5004,5123,5123,-44,-94,-6,10240,-0.38,-0.09,2.24,1.59,5041,5218,5123,44,64,28,100,99,0
5005,5123,5123,-39,-97,0,10240,-0.38,-0.09,2.24,1.59,5040,5215,5123,44,64,28,100,99,0
4984,5164,5082,-41,-83,-10,10240,-0.38,-0.09,2.24,1.59,5038,5213,5122,44,64,27,100,99,0
4989,5157,5089,-43,-72,-18,10240,0.52,-0.09,2.33,1.66,5037,5212,5121,44,64,27,100,99,0
4998,5144,5103,-43,-65,-22,10240,0.52,-0.09,2.33,1.66,5035,5209,5120,44,64,27,100,99,0
5014,5156,5115,-40,-55,-23,10240,0.52,-0.09,2.33,1.66,5035,5208,5120,44,64,27,100,99,0
5017,5164,5123,-30,-53,-12,10240,0.52,-0.09,2.33,1.66,5034,5206,5120,44,64,27,100,99,0
5018,5171,5123,-22,-48,-4,10240,0.52,-0.09,2.33,1.66,5034,5205,5120,44,64,27,100,99,0
5019,5175,5123,-17,-39,1,10240,0.52,-0.09,2.33,1.66,5033,5204,5120,44,64,27,100,99,0
5020,5181,5123,-15,-31,3,10240,0.52,-0.09,2.33,1.66,5033,5203,5120,44,64,27,100,99,0
4994,5170,5123,-20,-29,2,10240,0.52,-0.09,2.33,1.66,5031,5202,5121,40,64,27,100,99,0
4988,5153,5089,-26,-32,-5,10240,0.52,-0.09,2.33,1.51,5030,5200,5120,40,65,27,100,99,0
4980,5126,5097,-35,-43,-12,10240,0.52,-0.09,2.33,1.51,5028,5198,5119,40,65,27,100,99,0
4976,5123,5102,-44,-55,-16,10240,0.52,-0.09,2.33,1.51,5027,5195,5118,40,65,27,100,99,0
4973,5123,5097,-48,-65,-22,10240,0.52,-0.09,2.33,1.51,5025,5193,5117,40,65,27,100,99,0
4993,5125,5106,-45,-70,-17,10240,0.52,-0.09,2.33,1.51,5024,5191,5117,40,65,27,100,99,0
4999,5123,5123,-39,-68,-10,10240,0.52,-0.09,2.33,1.51,5023,5188,5117,40,65,27,100,99,0
5001,5123,5123,-32,-66,-5,10240,0.52,-0.09,2.33,1.51,5022,5186,5118,40,65,27,100,99,0
5000,5123,5123,-24,-63,1,10240,0.52,-0.09,2.33,1.51,5021,5184,5118,40,65,27,100,99,0
5001,5123,5123,-21,-62,5,10240,0.52,-0.09,2.33,1.51,5021,5182,5118,40,65,27,100,99,0
5001,5123,5123,-20,-60,5,10240,0.52,-0.09,2.33,1.51,5020,5180,5118,40,65,27,100,99,0
5005,5123,5123,-18,-58,5,10240,0.52,-0.09,2.33,1.51,5020,5178,5118,40,65,27,100,99,0
4988,5155,5090,-21,-48,-3,10240,0.52,-0.09,2.33,1.51,5018,5178,5117,38,65,27,100,99,0
5000,5139,5107,-20,-43,-6,10240,0.52,-0.09,2.38,1.44,5018,5176,5117,38,65,27,100,99,0
5011,5144,5123,-17,-36,-6,10240,0.52,-0.09,2.38,1.44,5018,5175,5117,38,65,27,100,99,0
5014,5158,5123,-14,-27,-6,10240,0.52,-0.09,2.38,1.44,5017,5175,5117,38,65,27,100,99,0
5018,5165,5123,-7,-23,1,10240,0.52,-0.09,2.38,1.44,5018,5174,5118,38,65,27,100,99,0
5008,5154,5113,-4,-19,3,10240,0.52,-0.09,2.38,1.44,5017,5174,5117,38,65,27,100,99,0
4984,5167,5078,-11,-13,-7,10240,0.52,-0.09,2.38,1.44,5016,5173,5116,38,65,27,100,99,0
4986,5139,5096,-17,-17,-14,10240,0.52,-0.09,2.38,1.44,5015,5172,5115,38,63,27,100,99,0
4982,5127,5104,-25,-25,-18,10240,0.52,-0.09,2.38,1.44,5014,5171,5115,38,63,27,100,99,0
4981,5125,5108,-31,-31,-18,10240,0.52,-0.09,2.38,1.44,5013,5169,5115,38,63,27,100,99,0
4988,5124,5119,-29,-41,-8,10240,0.52,-0.09,2.38,1.44,5012,5168,5115,38,63,27,100,99,0
4994,5123,5123,-26,-43,-1,10240,0.52,-0.09,2.38,1.44,5011,5166,5115,38,63,27,100,99,0
4979,5163,5083,-26,-33,-6,10240,0.52,-0.09,2.38,1.44,5010,5166,5114,38,63,27,100,99,0
5000,5123,5123,-20,-33,-2,10240,0.52,-0.09,2.38,1.44,5010,5165,5114,38,63,27,100,99,0
4990,5148,5098,-19,-26,-7,10240,0.52,-0.09,2.38,1.44,5009,5164,5114,38,63,27,100,99,0
4998,5139,5107,-17,-21,-11,10240,0.52,-0.09,2.38,1.44,5009,5163,5114,38,63,27,100,99,0
5008,5140,5120,-10,-26,-2,10240,0.52,-0.09,2.38,1.44,5009,5163,5114,38,52,27,100,99,0
5010,5154,5123,-7,-17,-2,10240,0.52,-0.09,2.38,1.44,5009,5162,5114,38,52,27,100,99,0
5014,5168,5123,-1,-12,4,10240,0.52,-0.09,2.38,1.44,5009,5162,5114,38,52,27,100,99,0
5021,5203,5123,4,3,8,10240,0.52,-0.09,2.38,1.44,5010,5164,5115,38,52,27,100,99,0
5026,5219,5123,8,22,8,10240,0.52,-0.09,2.38,1.44,5010,5166,5115,38,52,27,100,99,0
5028,5218,5123,12,37,8,10240,0.52,-0.09,2.38,1.44,5011,5167,5115,38,52,27,100,99,0
5034,5212,5123,16,46,7,10240,0.52,-0.09,2.38,1.44,5011,5169,5116,38,52,27,100,99,0
5023,5196,5123,16,43,7,10240,0.52,-0.09,2.38,1.44,5012,5170,5116,38,51,27,100,99,0
5005,5123,5123,11,18,7,10240,0.52,-0.09,2.38,1.44,5012,5168,5116,40,51,27,100,99,0
4979,5170,5075,-1,6,-4,10240,0.52,-0.09,2.38,1.44,5011,5168,5115,40,51,27,100,99,0
4999,5123,5123,-9,-15,-4,10240,0.52,-0.09,2.38,1.44,5010,5167,5115,40,51,27,102,99,0
4981,5169,5076,-19,-21,-15,10240,0.52,-0.09,2.38,1.44,5009,5167,5114,40,51,27,102,99,0
4999,5123,5123,-20,-20,-15,10240,0.52,-0.09,2.38,1.44,5009,5165,5114,40,51,27,102,99,0
5000,5135,5111,-14,-28,-6,10240,0.52,-0.09,2.38,1.44,5009,5164,5114,40,43,27,102,99,0
4990,5154,5092,-16,-19,-13,10240,0.52,-0.09,2.38,1.44,5008,5164,5113,40,43,27,102,99,0
4989,5155,5091,-13,-22,-9,10240,0.52,-0.09,2.38,1.44,5007,5164,5112,40,43,27,102,99,0
4994,5148,5097,-14,-15,-15,10240,0.52,-0.09,2.38,1.44,5007,5163,5112,40,43,27,102,99,0
5001,5141,5105,-13,-13,-16,10240,0.52,-0.09,2.38,1.44,5007,5162,5112,40,43,27,102,99,0
5013,5147,5120,-7,-15,-8,10240,0.52,-0.09,2.38,1.44,5007,5162,5112,40,43,27,102,99,0
5016,5157,5122,-1,-14,-1,10240,0.52,-0.09,2.38,1.44,5007,5162,5112,40,43,27,102,99,0
5019,5157,5122,5,-11,5,10240,0.52,-0.09,2.38,1.44,5008,5162,5113,40,43,27,102,99,0
5020,5160,5123,9,-6,9,10240,0.52,-0.09,2.38,1.44,5008,5162,5113,40,43,27,102,99,0
5022,5165,5123,11,-2,9,10240,0.52,-0.09,2.38,1.44,5008,5162,5113,40,43,27,102,99,0
4996,5159,5087,6,-1,1,10240,0.52,-0.09,2.38,1.44,5008,5162,5112,40,43,27,102,99,0
4988,5151,5085,-1,-3,-7,10240,0.52,-0.09,1.58,1.51,5007,5161,5111,40,43,27,102,99,0
4979,5126,5091,-11,-11,-15,10240,0.52,-0.09,1.58,1.51,5006,5160,5111,40,43,27,102,99,0
4973,5123,5092,-22,-20,-22,10240,0.52,-0.09,1.58,1.51,5005,5159,5110,40,43,27,102,99,0
4970,5123,5092,-28,-28,-20,10240,0.52,-0.09,1.58,1.51,5004,5158,5110,40,43,27,102,99,0
4976,5123,5099,-30,-34,-16,10240,0.52,-0.09,1.58,1.51,5003,5156,5109,40,43,27,102,99,0
4984,5127,5100,-28,-33,-13,10240,0.52,-0.09,1.58,1.51,5003,5155,5109,40,43,27,102,99,0
4993,5127,5113,-22,-31,-8,10240,0.52,-0.09,1.58,1.51,5002,5155,5109,40,43,27,102,99,0
4991,5129,5105,-16,-28,-4,10240,0.52,-0.09,1.58,1.51,5002,5154,5109,40,43,27,102,99,0
4992,5125,5109,-12,-27,-2,10240,0.52,-0.09,1.58,1.51,5002,5153,5109,40,43,27,102,99,0
4990,5127,5103,-10,-26,-1,10240,0.52,-0.09,1.58,1.51,5001,5152,5109,40,43,27,102,99,0
4987,5132,5094,-11,-24,-6,10240,0.52,-0.09,1.58,1.51,5001,5151,5108,40,43,25,102,99,0
4994,5129,5103,-10,-23,-6,10240,0.52,-0.09,1.71,1.63,5000,5150,5108,40,43,25,102,99,0
4994,5131,5100,-9,-21,-8,10240,0.52,-0.09,1.71,1.63,5000,5150,5108,40,43,25,102,99,0
4997,5129,5105,-7,-19,-7,10240,0.52,-0.09,1.71,1.63,5000,5149,5108,40,43,25,102,99,0
5000,5132,5105,-3,-19,-4,10240,0.52,-0.09,1.71,1.63,5000,5149,5108,40,43,25,102,99,0
5002,5130,5109,-1,-18,-3,10240,0.52,-0.09,1.71,1.63,5000,5148,5108,40,43,25,102,99,0
4986,5126,5089,-3,-19,-5,10240,0.52,-0.09,1.71,1.63,5000,5147,5107,40,43,25,102,99,0
4967,5123,5070,-11,-19,-14,10240,0.52,-0.09,1.71,1.63,4999,5146,5106,40,43,25,102,99,0
4948,5122,5062,-23,-21,-23,10240,0.52,-0.09,1.71,1.63,4997,5146,5104,40,43,25,102,99,0
4934,5118,5057,-39,-23,-35,10240,0.52,-0.09,1.71,1.63,4995,5145,5103,40,43,25,102,99,0
4933,5117,5058,-50,-25,-41,10240,0.52,-0.09,1.71,1.63,4993,5144,5101,40,43,25,102,99,0
4936,5117,5062,-56,-26,-42,10240,0.52,-0.09,1.71,1.63,4991,5143,5100,40,43,25,102,99,0
4942,5118,5063,-55,-26,-40,10240,0.52,-0.09,1.71,1.63,4989,5142,5099,40,43,25,102,99,0
4952,5123,5069,-49,-23,-36,10240,0.52,-0.09,1.71,1.63,4988,5141,5098,40,43,25,102,99,0
4954,5123,5070,-42,-21,-32,10240,0.52,-0.09,1.71,1.63,4987,5141,5097,40,43,25,102,99,0
4957,5123,5072,-36,-19,-29,10240,0.52,-0.09,1.71,1.63,4986,5140,5096,40,43,25,102,99,0
4959,5123,5074,-31,-17,-25,10240,0.52,-0.09,1.71,1.63,4985,5140,5095,40,43,25,102,99,0
4961,5123,5073,-27,-17,-23,10240,0.52,-0.09,1.71,1.63,4984,5139,5094,40,43,25,102,99,0
4964,5123,5074,-24,-16,-21,10240,0.52,-0.09,1.71,1.63,4984,5138,5094,40,43,25,102,99,0
4968,5123,5080,-21,-15,-18,10240,0.52,-0.09,1.71,1.63,4983,5138,5093,40,43,25,102,99,0
4976,5123,5090,-16,-15,-14,10240,0.52,-0.09,1.71,1.63,4983,5137,5093,40,43,25,102,99,0
4978,5123,5090,-11,-14,-9,10240,0.52,-0.09,1.71,1.63,4983,5137,5093,40,43,25,102,99,0
4977,5123,5085,-8,-14,-6,10240,0.52,-0.09,1.71,1.63,4982,5137,5093,40,43,25,102,99,0
4977,5123,5086,-5,-13,-5,10240,0.52,-0.09,1.71,1.63,4982,5136,5093,40,43,25,102,99,0
4945,5122,5068,-12,-13,-10,10240,0.52,-0.09,1.71,1.63,4981,5136,5092,43,43,28,102,99,0
4932,5118,5053,-23,-14,-19,10240,0.52,-0.09,1.52,1.57,4979,5135,5090,43,43,28,102,99,0
4921,5103,5038,-36,-18,-29,10240,0.52,-0.09,1.52,1.57,4977,5134,5089,43,43,28,102,99,0
4916,5097,5034,-49,-24,-41,10240,0.52,-0.09,1.52,1.57,4975,5133,5087,43,43,28,102,99,0
4914,5093,5032,-55,-30,-48,10240,0.52,-0.09,1.52,1.57,4973,5131,5085,43,43,28,102,99,0
4927,5109,5039,-54,-31,-50,10240,0.52,-0.09,1.52,1.57,4972,5131,5084,43,43,28,102,99,0
4933,5112,5056,-50,-28,-44,10240,0.52,-0.09,1.52,1.57,4971,5130,5083,43,43,28,102,99,0
4937,5118,5062,-43,-22,-36,10240,0.52,-0.09,1.52,1.57,4969,5130,5082,43,43,28,102,99,0
4940,5118,5063,-35,-15,-27,10240,0.52,-0.09,1.52,1.57,4968,5129,5081,43,43,28,102,99,0
4945,5120,5066,-30,-12,-20,10240,0.52,-0.09,1.52,1.57,4968,5129,5081,43,43,28,102,99,0
4956,5123,5071,-23,-9,-15,10240,0.52,-0.09,1.52,1.57,4967,5129,5080,43,43,28,102,99,0
4960,5123,5079,-17,-7,-10,10240,0.52,-0.09,1.52,1.57,4967,5128,5080,43,43,28,102,99,0
4962,5123,5079,-11,-6,-6,10240,0.52,-0.09,1.52,1.57,4967,5128,5080,43,43,28,102,99,0
4965,5123,5080,-6,-5,-2,10240,0.52,-0.09,1.52,1.57,4967,5128,5080,43,43,28,102,99,0
4965,5123,5076,-4,-5,-1,10240,0.52,-0.09,1.52,1.57,4967,5128,5080,43,43,28,102,99,0
4966,5123,5075,-2,-5,-2,10240,0.52,-0.09,1.52,1.57,4967,5128,5080,43,43,33,102,99,0
4961,5123,5070,-2,-5,-4,10240,0.52,-0.09,1.29,1.33,4966,5128,5080,43,43,33,102,99,0
4939,5118,5054,-8,-6,-11,10240,0.52,-0.09,1.29,1.33,4966,5127,5079,45,39,33,102,99,0
4915,5092,5027,-20,-13,-22,10240,0.52,-0.09,1.29,1.33,4964,5126,5077,45,39,33,102,99,0
4899,5072,5008,-36,-25,-38,10240,0.52,-0.09,1.29,1.33,4962,5124,5075,45,39,33,102,99,0
4894,5064,5005,-51,-38,-52,10240,0.52,-0.09,1.29,1.33,4959,5122,5072,45,39,33,102,99,0
4897,5069,5010,-59,-49,-61,10240,0.52,-0.09,1.29,1.33,4957,5121,5070,45,39,33,102,99,0
4903,5078,5020,-60,-50,-60,10240,0.52,-0.09,1.29,1.33,4956,5119,5069,45,39,33,102,99,0
4909,5086,5028,-55,-45,-53,10240,0.52,-0.09,1.29,1.33,4954,5118,5067,45,39,33,102,99,0
4912,5090,5032,-49,-38,-45,10240,0.52,-0.09,1.29,1.33,4953,5117,5066,45,39,33,102,99,0
4916,5093,5034,-43,-30,-38,10240,0.52,-0.09,1.29,1.33,4951,5116,5065,45,39,33,102,99,0
4923,5103,5044,-37,-23,-31,10240,0.52,-0.09,1.29,1.33,4950,5116,5064,45,39,33,102,99,0
4924,5102,5045,-32,-19,-26,10240,0.52,-0.09,1.29,1.33,4950,5115,5064,45,39,33,102,99,0
4928,5107,5049,-27,-14,-21,10240,0.52,-0.09,1.29,1.33,4949,5115,5063,45,39,33,102,99,0
4930,5111,5053,-23,-9,-15,10240,0.52,-0.09,1.29,1.33,4948,5115,5063,45,39,33,102,99,0
4934,5115,5058,-19,-6,-12,10240,0.52,-0.09,1.29,1.33,4948,5115,5063,45,39,33,102,99,0
4940,5114,5062,-15,-3,-7,10240,0.52,-0.09,1.29,1.33,4947,5115,5063,45,39,33,102,99,0
4943,5118,5064,-10,0,-3,10240,0.52,-0.09,1.29,1.33,4947,5115,5063,45,39,33,102,99,0
4939,5114,5059,-8,0,-2,10240,0.52,-0.09,1.29,1.33,4947,5115,5063,45,39,33,102,99,0
4934,5116,5055,-8,0,-2,10240,0.52,-0.09,1.29,1.33,4947,5115,5062,45,39,33,102,99,0
4906,5080,5017,-16,-7,-13,10240,0.52,-0.09,1.29,1.33,4945,5114,5061,47,42,40,102,99,0
4873,5028,4978,-32,-29,-33,10240,0.52,-0.09,1.04,1.20,4943,5111,5058,47,42,40,102,99,0
4868,5023,4976,-48,-50,-52,10240,0.52,-0.09,1.04,1.20,4940,5108,5055,47,42,40,102,99,0
4870,5028,4981,-62,-69,-68,10240,0.52,-0.09,1.04,1.20,4938,5105,5053,47,42,40,102,99,0
4883,5045,4995,-65,-75,-71,10240,0.52,-0.09,1.04,1.20,4936,5103,5051,47,42,40,102,99,0
4899,5072,5018,-57,-62,-59,10240,0.52,-0.09,1.04,1.20,4935,5102,5050,47,42,40,102,99,0
4909,5085,5029,-45,-45,-45,10240,0.52,-0.09,1.04,1.20,4934,5102,5049,47,42,40,102,99,0
4908,5084,5027,-34,-30,-32,10240,0.52,-0.09,1.04,1.20,4933,5101,5048,47,42,40,102,99,0
4911,5085,5029,-27,-20,-23,10240,0.52,-0.09,1.04,1.20,4933,5101,5048,47,42,40,102,99,0
4915,5091,5035,-22,-14,-18,10240,0.52,-0.09,1.04,1.20,4932,5100,5047,47,42,40,102,99,0
4918,5095,5040,-19,-11,-14,10240,0.52,-0.09,1.04,1.20,4931,5100,5047,47,42,40,102,99,0
4926,5104,5051,-14,-6,-8,10240,0.52,-0.09,1.04,1.20,4931,5100,5047,47,42,40,102,99,0
4928,5108,5053,-9,0,-2,10240,0.52,-0.09,1.04,1.20,4931,5101,5048,47,42,40,102,99,0
4932,5110,5056,-5,3,2,10240,0.52,-0.09,1.04,1.20,4931,5101,5048,47,42,40,102,99,0
4933,5112,5058,-1,7,6,10240,0.52,-0.09,1.04,1.20,4931,5101,5048,47,42,40,102,99,0
4937,5115,5062,1,10,9,10240,0.52,-0.09,1.04,1.20,4931,5102,5049,47,42,40,102,99,0
4910,5082,5021,-3,3,1,10240,0.52,-0.09,1.04,1.20,4931,5101,5048,52,53,50,102,99,0
4877,5037,4983,-16,-14,-16,10240,0.52,-0.09,1.05,1.06,4929,5099,5045,52,53,50,102,99,0
4859,5011,4967,-33,-38,-38,10240,0.52,-0.09,1.05,1.06,4927,5096,5043,52,53,50,102,99,0
4855,5008,4967,-52,-62,-59,10240,0.52,-0.09,1.05,1.06,4924,5093,5040,52,53,50,102,99,0
4856,5011,4971,-63,-77,-69,10240,0.52,-0.09,1.05,1.06,4922,5090,5038,52,53,50,102,99,0
4873,5032,4989,-62,-76,-65,10240,0.52,-0.09,1.05,1.06,4920,5088,5036,52,53,50,102,99,0
4886,5053,5006,-53,-63,-54,10240,0.52,-0.09,1.05,1.06,4919,5087,5035,52,53,50,102,99,0
4894,5066,5018,-42,-47,-40,10240,0.52,-0.09,1.05,1.06,4918,5087,5035,52,53,50,102,99,0
4897,5072,5021,-31,-31,-26,10240,0.52,-0.09,1.05,1.06,4918,5086,5034,52,53,50,102,99,0
4900,5074,5025,-23,-20,-17,10240,0.52,-0.09,1.05,1.06,4917,5086,5034,52,53,50,102,99,0
4912,5092,5044,-16,-10,-7,10240,0.52,-0.09,1.05,1.06,4917,5086,5034,52,53,50,102,99,0
4915,5097,5048,-11,-2,0,10240,0.52,-0.09,1.05,1.06,4917,5086,5035,52,53,50,102,99,0
4921,5102,5054,-5,5,8,10240,0.52,-0.09,1.05,1.06,4917,5087,5036,52,53,50,102,99,0
4922,5104,5058,0,12,15,10240,0.52,-0.09,1.05,1.06,4917,5087,5036,52,53,50,102,99,0
4925,5106,5059,3,15,18,10240,0.52,-0.09,1.05,1.06,4917,5088,5037,52,53,50,102,99,0
4931,5109,5068,7,17,23,10240,0.52,-0.09,1.05,1.06,4918,5089,5038,52,53,50,102,99,0
4932,5109,5067,10,18,25,10240,0.52,-0.09,1.05,1.06,4918,5089,5039,52,53,50,102,99,0
4922,5102,5050,9,17,22,10240,0.52,-0.09,1.05,1.06,4918,5090,5039,57,63,61,102,99,0
4893,5063,5011,1,6,10,10240,0.52,-0.09,1.02,0.96,4918,5089,5038,57,63,61,102,99,0
4865,5022,4981,-14,-14,-11,10240,0.52,-0.09,1.02,0.96,4916,5087,5037,57,63,61,102,99,0
4857,5012,4979,-32,-37,-32,10240,0.52,-0.09,1.02,0.96,4914,5084,5035,57,63,61,102,99,0
4857,5010,4979,-47,-58,-48,10240,0.52,-0.09,1.02,0.96,4912,5082,5033,57,63,61,102,99,0
4863,5022,4990,-52,-66,-51,10240,0.52,-0.09,1.02,0.96,4910,5080,5031,57,63,61,102,99,0
4874,5036,4998,-48,-61,-45,10240,0.52,-0.09,1.02,0.96,4909,5078,5030,57,63,61,102,99,0
4882,5049,5007,-40,-50,-37,10240,0.52,-0.09,1.02,0.96,4908,5077,5029,57,63,61,102,99,0
4881,5045,5004,-33,-39,-30,10240,0.52,-0.09,1.02,0.96,4907,5076,5029,57,63,61,102,99,0
4884,5054,5011,-27,-30,-24,10240,0.52,-0.09,1.02,0.96,4907,5075,5028,57,63,61,102,99,0
4887,5055,5014,-23,-25,-19,10240,0.52,-0.09,1.02,0.96,4906,5075,5028,57,63,61,102,99,0
4893,5066,5024,-20,-20,-14,10240,0.52,-0.09,1.02,0.96,4906,5074,5027,57,63,61,102,99,0
4896,5072,5028,-16,-12,-8,10240,0.52,-0.09,1.02,0.96,4905,5074,5027,57,63,61,102,99,0
4902,5081,5033,-11,-6,-2,10240,0.52,-0.09,1.02,0.96,4905,5075,5028,57,63,61,102,99,0
4906,5086,5040,-6,1,3,10240,0.52,-0.09,1.02,0.96,4905,5075,5028,57,63,61,102,99,0
4910,5090,5047,-1,7,9,10240,0.52,-0.09,1.02,0.96,4905,5075,5029,57,63,61,102,99,0
4911,5092,5048,2,12,13,10240,0.52,-0.09,1.02,0.96,4905,5076,5029,57,63,61,102,99,0
4897,5071,5024,1,9,11,10240,0.52,-0.09,1.02,0.96,4905,5076,5029,56,67,62,102,99,0
4833,4979,4979,-16,-17,-4,10240,0.37,-0.09,1.07,0.93,4903,5073,5027,56,67,62,102,99,0
4815,4952,4937,-39,-50,-30,10240,0.37,-0.09,1.07,0.93,4900,5069,5024,56,67,62,102,99,0
4804,4936,4926,-64,-86,-58,10240,0.37,-0.09,1.07,0.93,4897,5064,5021,56,67,62,102,99,0
4800,4931,4925,-85,-117,-80,10240,0.37,-0.09,1.07,0.93,4893,5060,5018,56,67,62,102,99,0
4799,4929,4924,-90,-125,-91,10240,0.37,-0.09,1.07,0.93,4890,5055,5015,56,67,62,102,99,0
4813,4932,4927,-88,-125,-91,10240,0.37,-0.09,1.07,0.93,4888,5051,5012,56,67,62,102,99,0
4815,4951,4939,-82,-117,-85,10240,0.37,-0.09,1.07,0.93,4885,5048,5010,56,67,62,102,99,0
4812,4945,4936,-76,-110,-79,10240,0.37,-0.09,1.07,0.93,4883,5045,5007,56,67,62,102,99,0
4813,4948,4937,-71,-102,-73,10240,0.37,-0.09,1.07,0.93,4881,5041,5005,56,67,62,102,99,0
4813,4948,4936,-68,-95,-69,10240,0.37,-0.09,1.07,0.93,4878,5038,5002,56,67,62,102,99,0
4826,4953,4941,-63,-91,-66,10240,0.37,-0.09,1.07,0.93,4877,5035,5000,56,67,62,102,99,0
4829,4973,4955,-57,-81,-59,10240,0.37,-0.09,1.07,0.93,4875,5033,4999,56,67,62,102,99,0
4831,4973,4954,-51,-72,-53,10240,0.37,-0.09,1.07,0.93,4873,5031,4997,56,67,62,102,99,0
4832,4976,4955,-44,-63,-46,10240,0.37,-0.09,1.07,0.93,4872,5029,4996,56,67,62,102,99,0
4835,4979,4959,-41,-55,-41,10240,0.37,-0.09,1.07,0.93,4871,5028,4995,56,67,62,102,99,0
4839,4988,4966,-37,-49,-37,10240,0.37,-0.09,1.07,0.93,4870,5026,4994,56,67,62,102,99,0
4820,4957,4940,-38,-51,-39,10240,0.37,-0.09,1.07,0.93,4868,5024,4992,56,69,60,102,99,0
4790,4931,4928,-47,-61,-44,10240,0.37,-0.09,1.14,0.96,4866,5021,4990,56,69,60,102,99,0
4763,4882,4884,-63,-82,-61,10240,0.37,-0.09,1.14,0.96,4862,5016,4986,56,69,60,102,99,0
4751,4864,4874,-82,-109,-81,10240,0.37,-0.09,1.14,0.96,4858,5011,4983,56,69,60,102,99,0
4742,4857,4872,-98,-130,-95,10240,0.37,-0.09,1.14,0.96,4855,5006,4979,56,69,60,102,99,0
4744,4856,4872,-106,-143,-105,10240,0.37,-0.09,1.14,0.96,4851,5001,4975,56,69,60,102,99,0
4751,4866,4879,-106,-143,-103,10240,0.37,-0.09,1.14,0.96,4848,4997,4972,56,69,60,102,99,0
4756,4871,4881,-101,-136,-97,10240,0.37,-0.09,1.14,0.96,4844,4993,4969,56,69,60,102,99,0
4757,4870,4880,-94,-129,-92,10240,0.37,-0.09,1.14,0.96,4842,4988,4966,56,69,60,102,99,0
4759,4872,4880,-87,-121,-87,10240,0.37,-0.09,1.14,0.96,4839,4985,4963,56,69,60,102,99,0
4764,4880,4888,-81,-113,-82,10240,0.37,-0.09,1.14,0.96,4836,4981,4961,56,69,60,102,99,0
4766,4880,4885,-76,-107,-78,10240,0.37,-0.09,1.14,0.96,4834,4978,4958,56,69,60,102,99,0
4771,4887,4891,-70,-100,-73,10240,0.37,-0.09,1.14,0.96,4832,4975,4956,56,69,60,102,99,0
4775,4895,4896,-64,-91,-67,10240,0.37,-0.09,1.14,0.96,4830,4972,4954,56,69,60,102,99,0
4793,4943,4933,-55,-72,-54,10240,0.37,-0.09,1.14,0.96,4829,4971,4953,56,69,60,102,99,0
4801,4958,4957,-44,-51,-34,10240,0.37,-0.09,1.14,0.96,4828,4971,4953,56,69,60,102,99,0
4797,4934,4934,-37,-38,-23,10240,0.37,-0.09,1.14,0.96,4827,4969,4953,56,69,60,102,99,0
4794,4919,4915,-31,-31,-18,10240,0.37,-0.09,1.14,0.96,4826,4968,4952,56,69,60,102,99,0
4784,4922,4923,-32,-35,-20,10240,0.37,-0.09,1.14,0.96,4824,4966,4951,60,80,66,102,99,0
4731,4837,4869,-48,-63,-40,10240,0.37,-0.09,1.21,0.93,4821,4962,4948,60,80,66,102,99,0
4721,4825,4848,-64,-87,-60,10240,0.37,-0.09,1.21,0.93,4818,4957,4944,60,80,66,102,99,0
4717,4820,4846,-81,-108,-74,10240,0.37,-0.09,1.21,0.93,4814,4953,4941,60,80,66,102,99,0
4717,4821,4847,-94,-129,-90,10240,0.37,-0.09,1.21,0.93,4811,4948,4938,60,80,66,102,99,0
4722,4827,4852,-93,-127,-91,10240,0.37,-0.09,1.21,0.93,4808,4944,4935,60,80,66,102,99,0
4740,4848,4860,-85,-117,-85,10240,0.37,-0.09,1.21,0.93,4806,4941,4933,60,80,66,102,99,0
4743,4852,4869,-76,-105,-77,10240,0.37,-0.09,1.21,0.93,4804,4938,4931,60,80,66,102,99,0
4744,4853,4868,-67,-94,-69,10240,0.37,-0.09,1.21,0.93,4802,4935,4928,60,80,66,102,99,0
4748,4856,4870,-59,-84,-63,10240,0.37,-0.09,1.21,0.93,4800,4933,4927,60,80,66,102,99,0
4753,4864,4876,-54,-77,-57,10240,0.37,-0.09,1.21,0.93,4799,4930,4925,60,80,66,102,99,0
4764,4877,4881,-47,-69,-52,10240,0.37,-0.09,1.21,0.93,4797,4929,4923,60,80,66,102,99,0
4770,4887,4893,-39,-58,-44,10240,0.37,-0.09,1.21,0.93,4796,4927,4922,60,80,66,102,99,0
4778,4899,4900,-30,-46,-35,10240,0.37,-0.09,1.21,0.93,4796,4926,4922,60,80,66,102,99,0
4795,4948,4948,-19,-24,-17,10240,0.37,-0.09,1.21,0.93,4796,4927,4923,60,80,66,102,99,0
4800,4949,4949,-10,-6,0,10240,0.37,-0.09,1.21,0.93,4796,4928,4923,60,80,66,102,99,0
4800,4943,4943,-2,7,12,10240,0.37,-0.09,1.21,0.93,4796,4928,4924,60,80,66,102,99,0
4794,4933,4934,1,15,20,10240,0.37,-0.09,1.21,0.93,4796,4928,4924,60,80,66,102,99,0
4760,4875,4881,-7,-2,3,10240,0.37,-0.09,1.21,0.93,4795,4927,4923,69,96,78,102,99,0
4740,4850,4864,-21,-26,-17,10240,0.37,-0.09,1.23,0.91,4793,4924,4921,69,96,78,102,99,0
4730,4837,4856,-37,-51,-38,10240,0.37,-0.09,1.23,0.91,4791,4921,4919,69,96,78,102,99,0
4728,4833,4856,-52,-73,-55,10240,0.37,-0.09,1.23,0.91,4789,4918,4917,69,96,78,102,99,0
4733,4841,4862,-57,-79,-58,10240,0.37,-0.09,1.23,0.91,4787,4916,4915,69,96,78,102,99,0
4745,4857,4875,-54,-75,-54,10240,0.37,-0.09,1.23,0.91,4786,4914,4914,69,96,78,102,99,0
4755,4869,4883,-46,-65,-45,10240,0.37,-0.09,1.23,0.91,4784,4912,4913,69,96,78,102,99,0
4759,4876,4889,-37,-52,-36,10240,0.37,-0.09,1.23,0.91,4784,4911,4912,69,96,78,102,99,0
4765,4874,4884,-28,-42,-29,10240,0.37,-0.09,1.23,0.91,4783,4910,4911,69,96,78,102,99,0
4771,4892,4897,-21,-32,-23,10240,0.37,-0.09,1.23,0.91,4783,4909,4910,69,96,78,102,99,0
4779,4905,4907,-14,-23,-16,10240,0.37,-0.09,1.23,0.91,4782,4909,4910,69,96,78,102,99,0
4792,4946,4946,-6,-5,-2,10240,0.37,-0.09,1.23,0.91,4783,4910,4911,69,96,78,102,99,0
4800,4956,4956,2,14,15,10240,0.37,-0.09,1.23,0.91,4783,4912,4913,69,96,78,102,99,0
4801,4940,4939,10,25,25,10240,0.37,-0.09,1.23,0.91,4784,4913,4914,69,96,78,102,99,0
4806,4935,4929,16,32,29,10240,0.37,-0.09,1.23,0.91,4785,4913,4914,69,96,78,102,99,0
4808,4939,4928,19,29,24,10240,0.37,-0.09,1.23,0.91,4785,4914,4915,69,100,80,102,99,0
4812,4945,4934,21,26,18,10240,0.37,-0.09,1.25,0.89,4786,4915,4915,69,100,80,102,99,0
4805,4933,4922,22,23,13,10240,0.37,-0.09,1.25,0.89,4787,4916,4916,69,100,80,102,99,0
4787,4918,4917,16,18,9,10240,0.37,-0.09,1.25,0.89,4787,4916,4916,72,100,80,102,99,0
4743,4855,4866,0,-2,-5,10240,0.37,-0.09,1.25,0.89,4786,4914,4914,72,100,80,102,99,0
4738,4850,4865,-17,-25,-22,10240,0.37,-0.09,1.25,0.89,4784,4912,4912,72,100,80,102,99,0
4739,4849,4864,-33,-45,-35,10240,0.37,-0.09,1.25,0.89,4782,4910,4911,72,100,80,102,99,0
4743,4857,4871,-42,-58,-45,10240,0.37,-0.09,1.25,0.89,4781,4908,4909,72,100,80,102,99,0
4755,4872,4884,-38,-52,-39,10240,0.37,-0.09,1.25,0.89,4780,4907,4909,72,100,80,102,99,0
4776,4899,4902,-27,-38,-29,10240,0.37,-0.09,1.25,0.89,4780,4907,4908,72,100,80,102,99,0
4781,4908,4909,-16,-23,-17,10240,0.37,-0.09,1.25,0.89,4780,4907,4908,72,100,80,102,99,0
4794,4948,4948,-3,0,2,10240,0.37,-0.09,1.25,0.89,4781,4908,4910,72,100,80,102,99,0
4801,4958,4958,7,20,20,10240,0.37,-0.09,1.25,0.89,4781,4910,4911,72,100,80,102,99,0
4799,4935,4932,12,28,26,10240,0.37,-0.09,1.25,0.89,4782,4910,4912,72,100,80,102,99,0
4807,4937,4931,18,34,30,10240,0.37,-0.09,1.25,0.89,4783,4911,4913,72,100,80,102,99,0
4813,4944,4935,22,32,26,10240,0.37,-0.09,1.25,0.89,4784,4912,4913,72,98,79,102,99,0
4820,4957,4943,26,31,22,10240,0.37,-0.09,1.24,0.94,4785,4914,4914,72,98,79,102,99,0
4828,4970,4952,32,38,26,10240,0.37,-0.09,1.24,0.94,4786,4916,4916,72,98,79,102,99,0
4832,4974,4954,37,46,31,10240,0.37,-0.09,1.24,0.94,4788,4918,4917,72,98,79,102,99,0
4832,4977,4953,41,52,34,10240,0.37,-0.09,1.24,0.94,4789,4920,4918,72,98,79,102,99,0
4812,4946,4930,37,48,29,10240,0.37,-0.09,1.24,0.94,4790,4921,4919,74,78,79,102,99,0
4788,4915,4908,26,33,18,10240,0.37,-0.09,1.24,0.94,4790,4920,4918,74,78,79,102,99,0
4783,4936,4936,14,23,13,10240,0.37,-0.09,1.24,0.94,4790,4921,4919,74,78,79,102,99,0
4779,4930,4930,0,11,7,10240,0.37,-0.09,1.24,0.94,4789,4921,4919,74,78,79,102,99,0
4776,4913,4913,-8,2,3,10240,0.37,-0.09,1.24,0.94,4789,4921,4919,74,78,79,102,99,0
4794,4951,4951,-6,11,13,10240,0.37,-0.09,1.24,0.94,4789,4922,4920,74,78,79,102,99,0
4796,4929,4926,-2,9,10,10240,0.37,-0.09,1.24,0.94,4789,4922,4920,74,78,79,102,99,0
4800,4933,4925,2,9,9,10240,0.37,-0.09,1.24,0.94,4790,4923,4920,74,78,79,102,99,0
4803,4939,4930,8,15,12,10240,0.37,-0.09,1.24,0.94,4790,4923,4921,74,78,79,102,99,0
4814,4951,4938,13,15,9,10240,0.37,-0.09,1.24,0.94,4791,4924,4921,74,78,79,102,99,0
4823,4962,4947,19,22,14,10240,0.37,-0.09,1.24,0.94,4792,4925,4922,74,78,79,102,99,0
4828,4970,4953,25,30,20,10240,0.37,-0.09,1.24,0.94,4793,4927,4923,74,78,79,102,99,0
4835,4979,4959,32,39,26,10240,0.37,-0.09,1.24,0.94,4795,4928,4924,74,78,79,102,99,0
4842,4989,4965,38,47,32,10240,0.37,-0.09,1.24,0.94,4796,4931,4926,74,78,79,102,99,0
4851,5001,4971,43,55,37,10240,0.37,-0.09,1.24,0.94,4798,4933,4927,74,78,79,102,99,0
4859,5012,4980,49,63,42,10240,0.37,-0.09,1.24,0.94,4800,4935,4929,74,78,79,102,99,0
4862,5016,4981,54,70,46,10240,0.37,-0.09,1.24,0.94,4802,4938,4931,74,78,79,102,99,0
4860,5013,4978,57,73,47,10240,0.37,-0.09,1.24,0.94,4804,4941,4932,74,78,79,102,99,0
4840,4986,4957,52,67,42,10240,0.37,-0.09,1.24,0.94,4805,4942,4933,72,77,71,102,99,0
4791,4919,4909,34,43,24,10240,0.37,-0.09,1.08,1.04,4805,4941,4932,72,77,71,102,99,0
4784,4911,4905,14,16,5,10240,0.37,-0.09,1.08,1.04,4804,4940,4931,72,77,71,102,99,0
4784,4908,4907,-4,-9,-12,10240,0.37,-0.09,1.08,1.04,4804,4939,4931,72,77,71,102,99,0
4787,4916,4914,-17,-26,-22,10240,0.37,-0.09,1.08,1.04,4803,4939,4930,72,77,71,102,99,0
4790,4917,4912,-17,-26,-20,10240,0.37,-0.09,1.08,1.04,4803,4938,4929,72,77,71,102,99,0
4806,4937,4925,-11,-19,-15,10240,0.37,-0.09,1.08,1.04,4803,4938,4929,72,77,71,102,99,0
4808,4940,4923,-5,-10,-10,10240,0.37,-0.09,1.08,1.04,4803,4938,4929,72,77,71,102,99,0
4809,4941,4923,0,-4,-8,10240,0.37,-0.09,1.08,1.04,4803,4938,4929,72,77,71,102,99,0
4816,4950,4931,6,4,-3,10240,0.37,-0.09,1.08,1.04,4803,4938,4929,72,77,71,102,99,0
4820,4958,4936,10,9,0,10240,0.37,-0.09,1.08,1.04,4804,4939,4929,72,77,71,102,99,0
4830,4970,4943,15,16,4,10240,0.37,-0.09,1.08,1.04,4805,4940,4930,72,77,71,102,99,0
4836,4978,4949,21,24,10,10240,0.37,-0.09,1.08,1.04,4806,4941,4930,72,77,71,102,99,0
4840,4984,4954,26,31,15,10240,0.37,-0.09,1.08,1.04,4807,4943,4931,72,77,71,102,99,0
4841,4985,4953,30,37,19,10240,0.37,-0.09,1.08,1.04,4808,4944,4932,72,77,71,102,99,0
4847,4992,4957,33,41,21,10240,0.37,-0.09,1.08,1.04,4809,4946,4933,72,77,71,102,99,0
4849,4996,4958,35,44,23,10240,0.37,-0.09,1.08,1.04,4811,4947,4934,72,77,71,102,99,0
4828,4966,4935,31,38,17,10240,0.37,-0.09,1.08,1.04,4811,4948,4934,67,75,64,102,99,0
4798,4926,4906,20,23,5,10240,0.37,-0.09,1.17,1.07,4811,4947,4933,67,75,64,102,99,0
4780,4899,4889,3,0,-11,10240,0.37,-0.09,1.17,1.07,4810,4946,4931,67,75,64,102,99,0
4772,4888,4885,-15,-26,-28,10240,0.37,-0.09,1.17,1.07,4809,4944,4930,67,75,64,102,99,0
4771,4886,4885,-29,-45,-39,10240,0.37,-0.09,1.17,1.07,4807,4942,4928,67,75,64,102,99,0
4779,4899,4897,-32,-50,-40,10240,0.37,-0.09,1.17,1.07,4806,4940,4927,67,75,64,102,99,0
4788,4911,4901,-29,-45,-35,10240,0.37,-0.09,1.17,1.07,4806,4939,4926,67,75,64,102,99,0
4798,4924,4910,-22,-35,-28,10240,0.37,-0.09,1.17,1.07,4806,4939,4926,67,75,64,102,99,0
4800,4926,4910,-14,-24,-21,10240,0.37,-0.09,1.17,1.07,4805,4939,4925,67,75,64,102,99,0
4807,4937,4918,-7,-14,-15,10240,0.37,-0.09,1.17,1.07,4805,4938,4925,67,75,64,102,99,0
4814,4945,4925,0,-5,-9,10240,0.37,-0.09,1.17,1.07,4806,4939,4925,67,75,64,102,99,0
4819,4953,4931,4,1,-4,10240,0.37,-0.09,1.17,1.07,4806,4939,4925,67,75,64,102,99,0
4825,4962,4936,10,10,2,10240,0.37,-0.09,1.17,1.07,4807,4940,4925,67,75,64,102,99,0
4831,4969,4941,15,17,8,10240,0.37,-0.09,1.17,1.07,4808,4941,4926,67,75,64,102,99,0
4839,4982,4946,21,26,12,10240,0.37,-0.09,1.17,1.07,4809,4942,4927,67,75,64,102,99,0
4845,4989,4954,26,33,17,10240,0.37,-0.09,1.17,1.07,4810,4944,4928,67,75,64,102,99,0
4849,4991,4954,31,39,21,10240,0.37,-0.09,1.17,1.07,4811,4945,4928,67,75,64,102,99,0
4850,4995,4955,35,44,24,10240,0.37,-0.09,1.17,1.07,4812,4947,4929,67,75,64,102,99,0
4833,4971,4935,32,40,20,10240,0.37,-0.09,1.17,1.07,4813,4948,4930,67,80,64,102,99,0
4776,4891,4902,15,15,7,10240,0.37,-0.09,1.25,1.07,4812,4946,4929,67,80,64,102,99,0
4766,4879,4875,-5,-12,-12,10240,0.37,-0.09,1.25,1.07,4810,4944,4927,67,80,64,102,99,0
4764,4882,4881,-26,-39,-29,10240,0.37,-0.09,1.25,1.07,4809,4942,4925,67,80,64,102,99,0
4768,4894,4893,-41,-56,-38,10240,0.37,-0.09,1.25,1.07,4807,4940,4924,67,80,64,102,99,0
4773,4900,4900,-40,-52,-37,10240,0.37,-0.09,1.25,1.07,4806,4939,4923,67,80,64,102,99,0
4784,4896,4893,-34,-46,-31,10240,0.37,-0.09,1.25,1.07,4806,4937,4922,67,80,64,102,99,0
4789,4909,4897,-27,-38,-27,10240,0.37,-0.09,1.25,1.07,4805,4936,4922,67,80,64,102,99,0
4790,4911,4898,-21,-33,-25,10240,0.37,-0.09,1.25,1.07,4805,4936,4921,67,80,64,102,99,0
4792,4912,4899,-16,-29,-24,10240,0.37,-0.09,1.25,1.07,4804,4935,4920,67,80,64,102,99,0
4797,4919,4903,-12,-22,-21,10240,0.37,-0.09,1.25,1.07,4804,4934,4919,67,80,64,102,99,0
4810,4928,4908,-7,-17,-17,10240,0.37,-0.09,1.25,1.07,4804,4934,4919,67,80,64,102,99,0
4818,4949,4924,0,-7,-10,10240,0.37,-0.09,1.25,1.07,4805,4935,4919,67,80,64,102,99,0
4823,4955,4928,7,3,-3,10240,0.37,-0.09,1.25,1.07,4805,4935,4920,67,80,64,102,99,0
4826,4959,4929,14,12,2,10240,0.37,-0.09,1.25,1.07,4806,4936,4920,67,80,64,102,99,0
4828,4962,4931,18,20,8,10240,0.37,-0.09,1.25,1.07,4807,4937,4920,67,80,64,102,99,0
4831,4966,4933,20,24,10,10240,0.37,-0.09,1.25,1.07,4807,4938,4921,67,80,64,102,99,0
4830,4963,4928,21,25,9,10240,0.37,-0.09,1.25,1.07,4808,4939,4921,67,80,60,102,99,0
4812,4937,4907,17,18,4,10240,0.37,-0.09,1.33,1.14,4808,4939,4920,66,80,60,102,99,0
4781,4895,4877,6,2,-9,10240,0.37,-0.09,1.33,1.14,4807,4937,4919,66,80,60,102,99,0
4759,4868,4861,-11,-21,-26,10240,0.37,-0.09,1.33,1.14,4806,4935,4917,66,80,60,102,99,0
4756,4870,4869,-29,-43,-39,10240,0.37,-0.09,1.33,1.14,4804,4933,4915,66,80,60,102,99,0
4760,4899,4899,-41,-51,-40,10240,0.37,-0.09,1.33,1.14,4803,4932,4915,66,80,60,102,99,0
4764,4904,4904,-43,-47,-32,10240,0.37,-0.09,1.33,1.14,4801,4931,4915,66,80,60,102,99,0
4767,4893,4893,-40,-39,-23,10240,0.37,-0.09,1.33,1.14,4800,4929,4914,66,80,60,102,99,0
4769,4881,4876,-35,-35,-21,10240,0.37,-0.09,1.33,1.14,4799,4928,4913,66,80,60,102,99,0
4770,4879,4874,-32,-39,-26,10240,0.37,-0.09,1.33,1.14,4798,4926,4911,66,80,60,102,99,0
4776,4885,4877,-28,-42,-32,10240,0.37,-0.09,1.33,1.14,4797,4925,4910,66,80,60,102,99,0
4780,4891,4881,-24,-41,-33,10240,0.37,-0.09,1.33,1.14,4797,4924,4909,66,80,60,102,99,0
4784,4899,4885,-19,-36,-30,10240,0.37,-0.09,1.33,1.14,4796,4923,4908,66,80,60,102,99,0
4788,4902,4886,-14,-29,-26,10240,0.37,-0.09,1.33,1.14,4796,4922,4908,66,80,60,102,99,0
4793,4910,4890,-10,-22,-22,10240,0.37,-0.09,1.33,1.14,4796,4922,4907,66,80,60,102,99,0
4804,4924,4900,-3,-13,-17,10240,0.37,-0.09,1.33,1.14,4796,4922,4907,66,80,60,102,99,0
4806,4926,4902,1,-6,-12,10240,0.37,-0.09,1.33,1.14,4797,4922,4907,66,80,60,102,99,0
4810,4932,4905,6,1,-7,10240,0.37,-0.09,1.33,1.14,4797,4922,4907,66,80,60,102,99,0
4814,4937,4907,11,7,-3,10240,0.37,-0.09,1.33,1.14,4798,4923,4907,66,80,60,102,99,0
4811,4933,4904,12,9,-2,10240,0.37,-0.09,1.33,1.14,4798,4923,4906,66,80,60,102,99,0
4763,4867,4856,2,-5,-13,10240,0.37,-0.09,1.33,1.14,4797,4921,4905,63,73,53,102,99,0
4753,4858,4855,-11,-22,-24,10240,0.23,-0.09,1.37,1.22,4795,4919,4903,63,73,53,102,99,0
4753,4873,4873,-26,-37,-32,10240,0.23,-0.09,1.37,1.22,4794,4918,4902,63,73,53,102,99,0
4758,4891,4891,-38,-46,-34,10240,0.23,-0.09,1.37,1.22,4793,4917,4902,63,73,53,102,99,0
4759,4889,4889,-37,-39,-25,10240,0.23,-0.09,1.37,1.22,4792,4916,4901,63,73,53,102,99,0
4768,4878,4873,-33,-33,-19,10240,0.23,-0.09,1.37,1.22,4791,4914,4900,63,73,53,102,99,0
4773,4884,4874,-27,-29,-19,10240,0.23,-0.09,1.37,1.22,4790,4913,4900,63,73,53,102,99,0
4776,4886,4878,-21,-29,-21,10240,0.23,-0.09,1.37,1.22,4790,4913,4899,63,73,53,102,99,0
4779,4891,4880,-16,-28,-23,10240,0.23,-0.09,1.37,1.22,4790,4912,4898,63,73,53,102,99,0
4785,4900,4884,-11,-22,-19,10240,0.23,-0.09,1.37,1.22,4789,4911,4898,63,73,53,102,99,0
4800,4919,4901,-4,-13,-12,10240,0.23,-0.09,1.37,1.22,4790,4912,4898,63,73,53,102,99,0
4802,4924,4902,1,-3,-6,10240,0.23,-0.09,1.37,1.22,4790,4912,4898,63,73,53,102,99,0
4807,4927,4903,8,5,0,10240,0.23,-0.09,1.37,1.22,4791,4913,4898,63,73,53,102,99,0
4813,4937,4911,15,14,6,10240,0.23,-0.09,1.37,1.22,4791,4913,4899,63,73,53,102,99,0
4820,4948,4918,19,20,10,10240,0.23,-0.09,1.37,1.22,4792,4915,4899,63,73,53,102,99,0
4831,4963,4928,25,29,16,10240,0.23,-0.09,1.37,1.22,4794,4916,4900,63,73,53,102,99,0
4832,4963,4927,31,37,21,10240,0.23,-0.09,1.37,1.22,4795,4918,4901,63,73,53,102,99,0
4822,4949,4914,32,38,21,10240,0.23,-0.09,1.37,1.22,4796,4919,4901,63,73,53,102,99,0
4796,4915,4890,25,29,14,10240,0.23,-0.09,1.37,1.22,4796,4919,4901,65,76,51,102,99,0
4778,4890,4873,11,10,0,10240,0.23,-0.09,1.48,1.30,4795,4918,4900,65,76,51,102,99,0
4767,4874,4866,-4,-11,-14,10240,0.23,-0.09,1.48,1.30,4794,4916,4899,65,76,51,102,99,0
4768,4876,4868,-17,-28,-25,10240,0.23,-0.09,1.48,1.30,4793,4915,4898,65,76,51,102,99,0
4775,4885,4876,-21,-34,-27,10240,0.23,-0.09,1.48,1.30,4793,4914,4897,65,76,51,102,99,0
4784,4899,4885,-19,-31,-24,10240,0.23,-0.09,1.48,1.30,4793,4913,4897,65,76,51,102,99,0
4792,4909,4891,-13,-21,-17,10240,0.23,-0.09,1.48,1.30,4793,4913,4897,65,76,51,102,99,0
4797,4913,4892,-6,-11,-11,10240,0.23,-0.09,1.48,1.30,4793,4913,4897,65,76,51,102,99,0
4801,4921,4899,0,-2,-5,10240,0.23,-0.09,1.48,1.30,4793,4913,4897,65,76,51,102,99,0
4806,4929,4903,6,4,0,10240,0.23,-0.09,1.48,1.30,4793,4914,4897,65,76,51,102,99,0
4811,4935,4909,10,10,3,10240,0.23,-0.09,1.48,1.30,4794,4915,4897,65,76,51,102,99,0
4820,4947,4917,15,18,9,10240,0.23,-0.09,1.48,1.30,4795,4916,4898,65,76,51,102,99,0
4826,4955,4921,21,26,14,10240,0.23,-0.09,1.48,1.30,4796,4917,4899,65,76,51,102,99,0
4830,4959,4924,26,32,19,10240,0.23,-0.09,1.48,1.30,4797,4918,4899,65,76,51,102,99,0
4833,4966,4927,30,39,23,10240,0.23,-0.09,1.48,1.30,4798,4920,4900,65,76,51,102,99,0
4836,4969,4929,33,43,25,10240,0.23,-0.09,1.48,1.30,4799,4922,4901,65,76,51,102,99,0
4839,4974,4932,35,46,27,10240,0.23,-0.09,1.48,1.30,4801,4923,4902,65,76,51,102,99,0
4815,4939,4904,31,39,21,10240,0.23,-0.09,1.48,1.30,4801,4924,4902,63,77,51,102,99,0
4793,4908,4883,20,24,10,10240,0.23,-0.09,1.50,1.26,4801,4923,4902,63,77,51,102,99,0
4781,4893,4873,6,5,-3,10240,0.23,-0.09,1.50,1.26,4800,4922,4901,63,77,51,102,99,0
4776,4889,4871,-9,-15,-18,10240,0.23,-0.09,1.50,1.26,4800,4921,4900,63,77,51,102,99,0
4777,4888,4872,-18,-27,-25,10240,0.23,-0.09,1.50,1.26,4799,4920,4899,63,77,51,102,99,0
4791,4907,4888,-18,-26,-23,10240,0.23,-0.09,1.50,1.26,4798,4920,4899,63,77,51,102,99,0
4801,4920,4895,-12,-19,-17,10240,0.23,-0.09,1.50,1.26,4799,4920,4898,63,77,51,102,99,0
4803,4924,4898,-5,-10,-10,10240,0.23,-0.09,1.50,1.26,4799,4920,4898,63,77,51,102,99,0
4804,4925,4898,1,-1,-3,10240,0.23,-0.09,1.50,1.26,4799,4920,4898,63,77,51,102,99,0
4806,4929,4900,4,4,0,10240,0.23,-0.09,1.50,1.26,4799,4920,4898,63,77,51,102,99,0
4817,4941,4904,8,9,1,10240,0.23,-0.09,1.50,1.26,4800,4921,4899,63,77,51,102,99,0
4823,4949,4915,13,15,5,10240,0.23,-0.09,1.50,1.26,4800,4922,4899,63,77,51,102,99,0
4828,4957,4920,18,22,10,10240,0.23,-0.09,1.50,1.26,4801,4923,4900,63,77,51,102,99,0
4833,4964,4923,24,30,15,10240,0.23,-0.09,1.50,1.26,4802,4925,4901,63,77,51,102,99,0
4838,4970,4928,28,36,21,10240,0.23,-0.09,1.50,1.26,4804,4926,4902,63,77,51,102,99,0
4848,4977,4931,33,41,24,10240,0.23,-0.09,1.50,1.26,4805,4928,4903,63,77,51,102,99,0
4853,4994,4943,38,49,28,10240,0.23,-0.09,1.50,1.26,4807,4930,4904,63,77,51,102,99,0
4852,4991,4939,41,54,31,10240,0.23,-0.09,1.50,1.26,4808,4932,4905,63,77,51,102,99,0
4832,4963,4917,39,50,28,10240,0.23,-0.09,1.50,1.26,4809,4933,4905,62,78,53,102,99,0
4808,4931,4895,28,37,18,10240,0.23,-0.09,1.46,1.19,4809,4933,4905,62,78,53,102,99,0
4793,4917,4886,12,18,4,10240,0.23,-0.09,1.46,1.19,4808,4932,4904,62,78,53,102,99,0
4794,4910,4884,-1,-2,-9,10240,0.23,-0.09,1.46,1.19,4808,4932,4904,62,78,53,102,99,0
4795,4911,4887,-10,-14,-16,10240,0.23,-0.09,1.46,1.19,4808,4931,4903,62,78,53,102,99,0
4802,4924,4897,-11,-16,-15,10240,0.23,-0.09,1.46,1.19,4807,4931,4903,62,78,53,102,99,0
4812,4934,4903,-7,-11,-10,10240,0.23,-0.09,1.46,1.19,4808,4931,4903,62,78,53,102,99,0
4821,4944,4908,0,-2,-4,10240,0.23,-0.09,1.46,1.19,4808,4931,4903,62,78,53,102,99,0
4825,4954,4915,7,7,2,10240,0.23,-0.09,1.46,1.19,4809,4932,4904,62,78,53,102,99,0
4828,4958,4917,13,15,7,10240,0.23,-0.09,1.46,1.19,4809,4933,4904,62,78,53,102,99,0
4831,4963,4920,17,22,11,10240,0.23,-0.09,1.46,1.19,4810,4934,4905,62,78,53,102,99,0
4838,4970,4925,20,27,14,10240,0.23,-0.09,1.46,1.19,4811,4935,4905,62,78,53,102,99,0
4843,4978,4931,24,32,18,10240,0.23,-0.09,1.46,1.19,4812,4937,4906,62,78,53,102,99,0
4854,4993,4940,30,40,23,10240,0.23,-0.09,1.46,1.19,4813,4938,4907,62,78,53,102,99,0
4859,5001,4946,35,47,28,10240,0.23,-0.09,1.46,1.19,4815,4941,4909,62,78,53,102,99,0
4860,5002,4946,40,53,32,10240,0.23,-0.09,1.46,1.19,4816,4943,4910,62,78,53,102,99,0
4864,5008,4948,43,59,35,10240,0.23,-0.09,1.46,1.19,4818,4945,4911,62,78,53,102,99,0
4860,5001,4942,43,59,35,10240,0.23,-0.09,1.46,1.19,4819,4947,4912,62,78,53,102,99,0
4812,4935,4893,31,41,21,10240,0.23,-0.09,1.46,1.19,4819,4946,4911,60,77,52,102,99,0
4797,4914,4880,14,18,4,10240,0.23,-0.09,1.47,1.18,4818,4945,4910,60,77,52,102,99,0
4791,4907,4876,-3,-6,-12,10240,0.23,-0.09,1.47,1.18,4817,4944,4909,60,77,52,102,99,0
4791,4906,4877,-20,-29,-28,10240,0.23,-0.09,1.47,1.18,4817,4943,4908,60,77,52,102,99,0
4791,4906,4878,-24,-35,-30,10240,0.23,-0.09,1.47,1.18,4816,4941,4907,60,77,52,102,99,0
4806,4925,4892,-21,-31,-27,10240,0.23,-0.09,1.47,1.18,4815,4941,4907,60,77,52,102,99,0
4812,4934,4897,-15,-23,-21,10240,0.23,-0.09,1.47,1.18,4815,4941,4906,60,77,52,102,99,0
4814,4935,4899,-9,-15,-15,10240,0.23,-0.09,1.47,1.18,4815,4940,4906,60,77,52,102,99,0
4817,4941,4901,-2,-6,-9,10240,0.23,-0.09,1.47,1.18,4815,4940,4906,60,77,52,102,99,0
4823,4949,4909,1,0,-4,10240,0.23,-0.09,1.47,1.18,4816,4941,4906,60,77,52,102,99,0
4836,4968,4922,7,7,1,10240,0.23,-0.09,1.47,1.18,4816,4942,4907,60,77,52,102,99,0
4841,4975,4926,13,16,8,10240,0.23,-0.09,1.47,1.18,4817,4943,4907,60,77,52,102,99,0
4846,4983,4932,19,26,15,10240,0.23,-0.09,1.47,1.18,4818,4944,4908,60,77,52,102,99,0
4853,4992,4937,26,35,21,10240,0.23,-0.09,1.47,1.18,4819,4946,4909,60,77,52,102,99,0
4861,5003,4945,31,43,26,10240,0.23,-0.09,1.47,1.18,4821,4948,4910,60,77,52,102,99,0
4868,5011,4950,37,50,31,10240,0.23,-0.09,1.47,1.18,4822,4950,4912,60,77,52,102,99,0
4871,5015,4953,41,56,35,10240,0.23,-0.09,1.47,1.18,4824,4952,4913,60,77,52,102,99,0
4858,5000,4940,41,56,34,10240,0.23,-0.09,1.47,1.18,4825,4953,4914,60,77,55,102,99,0
4832,4964,4912,33,45,25,10240,0.23,-0.09,1.39,1.11,4825,4954,4914,61,81,55,102,99,0
4812,4937,4894,18,26,11,10240,0.23,-0.09,1.39,1.11,4825,4953,4913,61,81,55,102,99,0
4803,4926,4889,1,3,-4,10240,0.23,-0.09,1.39,1.11,4824,4952,4912,61,81,55,102,99,0
4805,4926,4891,-11,-14,-16,10240,0.23,-0.09,1.39,1.11,4823,4951,4912,61,81,55,102,99,0
4807,4931,4895,-17,-21,-19,10240,0.23,-0.09,1.39,1.11,4823,4951,4911,61,81,55,102,99,0
4819,4946,4907,-14,-19,-16,10240,0.23,-0.09,1.39,1.11,4823,4951,4911,61,81,55,102,99,0
4826,4958,4914,-8,-10,-9,10240,0.23,-0.09,1.39,1.11,4823,4951,4911,61,81,55,102,99,0
4832,4964,4917,-2,-1,-2,10240,0.23,-0.09,1.39,1.11,4823,4951,4911,61,81,55,102,99,0
4833,4965,4917,4,7,2,10240,0.23,-0.09,1.39,1.11,4823,4952,4911,61,81,55,102,99,0
4837,4971,4923,8,13,6,10240,0.23,-0.09,1.39,1.11,4824,4952,4912,61,81,55,102,99,0
4843,4977,4927,12,17,9,10240,0.23,-0.09,1.39,1.11,4825,4953,4912,61,81,55,102,99,0
4846,4986,4932,15,22,12,10240,0.23,-0.09,1.39,1.11,4825,4954,4913,61,81,55,102,99,0
4856,4996,4940,20,28,17,10240,0.23,-0.09,1.39,1.11,4826,4956,4914,61,81,55,102,99,0
4862,5003,4944,25,35,22,10240,0.23,-0.09,1.39,1.11,4828,4957,4915,61,81,55,102,99,0
4864,5006,4947,30,41,26,10240,0.23,-0.09,1.39,1.11,4829,4959,4916,61,81,55,102,99,0
4867,5010,4945,34,45,28,10240,0.23,-0.09,1.39,1.11,4830,4961,4917,61,81,55,102,99,0
4870,5014,4947,36,48,29,10240,0.23,-0.09,1.39,1.11,4831,4962,4918,61,81,55,102,99,0
4844,4977,4920,30,40,22,10240,0.23,-0.09,1.39,1.11,4832,4963,4918,59,78,54,102,99,0
4820,4947,4899,19,25,10,10240,0.23,-0.09,1.43,1.11,4831,4962,4917,59,78,54,102,99,0
4807,4930,4889,4,5,-3,10240,0.23,-0.09,1.43,1.11,4831,4961,4916,59,78,54,102,99,0
4805,4927,4887,-12,-16,-17,10240,0.23,-0.09,1.43,1.11,4830,4960,4915,59,78,54,102,99,0
4805,4929,4892,-21,-27,-24,10240,0.23,-0.09,1.43,1.11,4829,4959,4915,59,78,54,102,99,0
4818,4947,4907,-20,-26,-21,10240,0.23,-0.09,1.43,1.11,4828,4959,4914,59,78,54,102,99,0
4829,4960,4915,-14,-18,-14,10240,0.23,-0.09,1.43,1.11,4829,4959,4914,59,78,54,102,99,0
4837,4972,4924,-6,-7,-5,10240,0.23,-0.09,1.43,1.11,4829,4959,4915,59,78,54,102,99,0
4839,4974,4925,2,4,3,10240,0.23,-0.09,1.43,1.11,4829,4960,4915,59,78,54,102,99,0
4842,4978,4926,7,11,7,10240,0.23,-0.09,1.43,1.11,4830,4960,4915,59,78,54,102,99,0
4854,4994,4934,13,19,12,10240,0.23,-0.09,1.43,1.11,4830,4961,4916,59,78,54,102,99,0
4860,5003,4945,18,26,16,10240,0.23,-0.09,1.43,1.11,4831,4963,4917,59,78,54,102,99,0
4866,5010,4949,24,34,22,10240,0.23,-0.09,1.43,1.11,4833,4964,4918,59,78,54,102,99,0
4870,5014,4952,30,41,27,10240,0.23,-0.09,1.43,1.11,4834,4966,4919,59,78,54,102,99,0
4873,5018,4954,34,46,31,10240,0.23,-0.09,1.43,1.11,4835,4968,4920,59,78,54,102,99,0
4884,5036,4960,38,52,34,10240,0.23,-0.09,1.43,1.11,4837,4970,4922,59,78,54,102,99,0
4883,5035,4963,41,56,36,10240,0.23,-0.09,1.43,1.11,4838,4972,4923,59,78,54,102,99,0
4885,5036,4961,43,60,37,10240,0.23,-0.09,1.43,1.11,4840,4974,4924,59,78,54,102,99,0
4867,5010,4944,40,56,33,10240,0.23,-0.09,1.43,1.11,4841,4976,4925,60,80,55,102,99,0
4838,4972,4915,28,39,21,10240,0.23,-0.09,1.44,1.11,4841,4975,4925,60,80,55,102,99,0
4808,4932,4898,9,12,5,10240,0.23,-0.09,1.44,1.11,4839,4974,4924,60,80,55,102,99,0
4808,4931,4891,-9,-13,-12,10240,0.23,-0.09,1.44,1.11,4838,4973,4923,60,80,55,102,99,0
4809,4934,4893,-23,-31,-24,10240,0.23,-0.09,1.44,1.11,4837,4971,4922,60,80,55,102,99,0
4815,4941,4900,-27,-37,-27,10240,0.23,-0.09,1.44,1.11,4837,4970,4921,60,80,55,102,99,0
4824,4955,4909,-23,-30,-23,10240,0.23,-0.09,1.44,1.11,4836,4970,4921,60,80,55,102,99,0
4832,4960,4912,-16,-22,-17,10240,0.23,-0.09,1.44,1.11,4836,4969,4920,60,80,55,102,99,0
4830,4961,4913,-11,-15,-12,10240,0.23,-0.09,1.44,1.11,4836,4969,4920,60,80,55,102,99,0
4835,4966,4917,-5,-8,-7,10240,0.23,-0.09,1.44,1.11,4836,4969,4920,60,80,55,102,99,0
4841,4974,4921,-1,-3,-4,10240,0.23,-0.09,1.44,1.11,4836,4969,4920,60,80,55,102,99,0
4844,4980,4926,1,1,0,10240,0.23,-0.09,1.44,1.11,4836,4970,4920,60,80,55,102,99,0
4849,4987,4929,6,7,3,10240,0.23,-0.09,1.44,1.11,4837,4970,4921,60,80,55,102,99,0
4858,4997,4936,11,14,7,10240,0.23,-0.09,1.44,1.11,4838,4971,4921,60,80,55,102,99,0
4860,5003,4939,15,21,11,10240,0.23,-0.09,1.44,1.11,4838,4972,4922,60,80,55,102,99,0
4865,5009,4941,20,27,14,10240,0.23,-0.09,1.44,1.11,4839,4973,4922,60,80,55,102,99,0
4867,5009,4942,23,31,17,10240,0.23,-0.09,1.44,1.11,4840,4975,4923,60,80,55,102,99,0
4867,5005,4939,25,32,17,10240,0.23,-0.09,1.44,1.11,4841,4976,4923,60,80,55,102,99,0
4838,4971,4912,19,23,10,10240,0.23,-0.09,1.44,1.11,4841,4975,4923,58,77,53,102,99,0
4815,4939,4889,6,6,-2,10240,0.23,-0.09,1.44,1.11,4840,4974,4922,58,77,53,102,99,0
4803,4922,4880,-9,-15,-17,10240,0.23,-0.09,1.44,1.11,4839,4972,4921,58,77,53,102,99,0
4800,4918,4878,-25,-35,-31,10240,0.23,-0.09,1.44,1.11,4837,4971,4919,58,77,53,102,99,0
4800,4919,4880,-33,-47,-38,10240,0.23,-0.09,1.44,1.11,4836,4969,4918,58,77,53,102,99,0
4814,4937,4895,-32,-46,-35,10240,0.23,-0.09,1.44,1.11,4836,4968,4917,58,77,53,102,99,0
4821,4948,4901,-27,-38,-29,10240,0.23,-0.09,1.44,1.11,4835,4967,4917,58,77,53,102,99,0
4825,4953,4905,-20,-28,-21,10240,0.23,-0.09,1.44,1.11,4835,4967,4916,58,77,53,102,99,0
4825,4953,4905,-13,-19,-15,10240,0.23,-0.09,1.44,1.11,4834,4966,4916,58,77,53,102,99,0
4827,4956,4907,-10,-14,-11,10240,0.23,-0.09,1.44,1.11,4834,4966,4915,58,77,53,102,99,0
4837,4970,4918,-5,-8,-7,10240,0.23,-0.09,1.44,1.11,4834,4966,4916,58,77,53,102,99,0
4844,4979,4925,-1,-1,-2,10240,0.23,-0.09,1.44,1.11,4835,4966,4916,58,77,53,102,99,0
4851,4990,4930,5,7,4,10240,0.23,-0.09,1.44,1.11,4835,4967,4916,58,77,53,102,99,0
4856,4997,4934,12,17,10,10240,0.23,-0.09,1.44,1.11,4836,4968,4917,58,77,53,102,99,0
4860,5001,4937,17,24,14,10240,0.23,-0.09,1.44,1.11,4837,4969,4918,58,77,53,102,99,0
4869,5011,4944,22,31,19,10240,0.23,-0.09,1.44,1.11,4838,4971,4918,58,77,53,102,99,0
4870,5013,4946,26,35,22,10240,0.23,-0.09,1.44,1.11,4839,4972,4919,58,77,53,102,99,0
4866,5004,4936,27,36,22,10240,0.23,-0.09,1.44,1.11,4840,4973,4920,58,77,53,102,99,0
4845,4982,4918,23,30,16,10240,0.23,-0.09,1.44,1.11,4840,4974,4920,59,79,54,102,99,0
4824,4951,4897,11,14,4,10240,0.23,-0.09,1.45,1.11,4839,4973,4919,59,79,54,102,99,0
4806,4926,4883,-4,-7,-10,10240,0.23,-0.09,1.45,1.11,4838,4971,4918,59,79,54,102,99,0
4805,4926,4884,-18,-25,-23,10240,0.23,-0.09,1.45,1.11,4837,4970,4917,59,79,54,102,99,0
4808,4928,4885,-26,-37,-30,10240,0.23,-0.09,1.45,1.11,4836,4968,4916,59,79,54,102,99,0
4815,4937,4894,-28,-39,-30,10240,0.23,-0.09,1.45,1.11,4835,4967,4915,59,79,54,102,99,0
4824,4949,4901,-22,-33,-24,10240,0.23,-0.09,1.45,1.11,4835,4967,4915,59,79,54,102,99,0
4827,4954,4902,-16,-25,-19,10240,0.23,-0.09,1.45,1.11,4835,4966,4914,59,79,54,0,0,0
4829,4955,4904,-11,-17,-14,10240,0.23,-0.09,1.45,1.11,4835,4966,4914,59,79,54,0,0,0
4831,4959,4908,-7,-12,-10,10240,0.23,-0.09,1.45,1.11,4834,4966,4914,59,79,54,0,0,0
4835,4966,4912,-4,-7,-7,10240,0.23,-0.09,1.45,1.11,4834,4966,4913,59,79,54,0,0,0
4840,4974,4916,0,-2,-3,10240,0.23,-0.09,1.45,1.11,4835,4966,4914,59,79,54,0,0,0
4853,4993,4929,5,6,2,10240,0.23,-0.09,1.45,1.11,4835,4967,4914,59,79,54,0,0,0
4858,4999,4934,11,16,8,10240,0.23,-0.09,1.45,1.11,4836,4968,4915,59,79,54,0,0,0
4864,5006,4939,18,25,14,10240,0.23,-0.09,1.45,1.11,4837,4969,4916,59,79,54,0,0,0
4870,5012,4943,24,33,21,10240,0.23,-0.09,1.45,1.11,4838,4971,4916,59,79,54,0,0,0
4874,5018,4947,29,38,24,10240,0.23,-0.09,1.45,1.11,4839,4972,4917,59,79,54,0,0,0
4849,4987,4942,25,34,26,10240,0.23,-0.09,1.45,1.11,4840,4973,4918,58,78,54,0,0,0
4826,4954,4897,15,20,15,10240,0.23,-0.09,1.45,1.11,4839,4972,4918,58,78,55,0,0,0
4812,4934,4885,1,1,0,10240,0.35,-0.09,1.40,1.07,4838,4971,4917,58,78,55,0,0,0
4805,4926,4882,-15,-21,-15,10240,0.35,-0.09,1.40,1.07,4837,4969,4915,58,78,55,0,0,0
4806,4925,4881,-25,-35,-29,10240,0.35,-0.09,1.40,1.07,4836,4968,4914,58,78,55,0,0,0
4815,4938,4885,-27,-38,-31,10240,0.35,-0.09,1.40,1.07,4835,4967,4913,58,78,55,0,0,0
4828,4954,4906,-22,-31,-25,10240,0.35,-0.09,1.40,1.07,4835,4966,4913,58,78,55,0,0,0
4831,4959,4908,-15,-22,-18,10240,0.35,-0.09,1.40,1.07,4835,4966,4913,58,78,55,137,0,0
4831,4959,4908,-8,-13,-11,10240,0.35,-0.09,1.40,1.07,4835,4966,4913,58,78,55,137,0,0
4833,4964,4911,-4,-7,-4,10240,0.35,-0.09,1.40,1.07,4835,4966,4913,58,78,55,137,0,0
4838,4971,4917,-1,-2,-2,10240,0.35,-0.09,1.40,1.07,4835,4966,4913,58,78,55,137,0,0
4849,4987,4928,2,4,3,10240,0.35,-0.09,1.40,1.07,4835,4967,4913,58,78,55,137,0,0
4857,4997,4933,9,13,9,10240,0.35,-0.09,1.40,1.07,4836,4968,4914,58,78,55,137,0,0
4862,5005,4937,15,22,15,10240,0.35,-0.09,1.40,1.07,4837,4969,4915,58,78,55,137,0,0
4863,5004,4938,21,29,19,10240,0.35,-0.09,1.40,1.07,4838,4970,4915,58,78,55,137,0,0
4867,5008,4940,24,34,22,10240,0.35,-0.09,1.40,1.07,4839,4971,4916,58,78,55,137,0,0
4873,5013,4943,27,36,23,10240,0.35,-0.09,1.40,1.07,4840,4973,4917,58,78,55,137,0,0
4868,5010,4938,28,36,23,10240,0.35,-0.09,1.40,1.07,4841,4974,4918,58,78,55,137,0,0
4845,4980,4915,23,29,16,10240,0.35,-0.09,1.40,1.07,4841,4974,4918,57,77,55,137,0,0
4820,4945,4890,11,13,4,10240,0.35,-0.09,1.38,1.05,4840,4973,4917,57,77,55,137,0,0
4807,4927,4882,-5,-7,-11,10240,0.35,-0.09,1.38,1.05,4839,4972,4916,57,77,55,137,0,0
4799,4917,4876,-21,-30,-25,10240,0.35,-0.09,1.38,1.05,4838,4970,4914,57,77,55,137,0,0
4800,4918,4878,-32,-44,-33,10240,0.35,-0.09,1.38,1.05,4837,4968,4913,57,77,55,137,0,0
4804,4923,4882,-35,-48,-34,10240,0.35,-0.09,1.38,1.05,4836,4967,4912,57,77,55,148,0,0
4814,4937,4894,-32,-44,-30,10240,0.35,-0.09,1.38,1.05,4835,4966,4912,57,77,55,148,0,0
4820,4943,4897,-26,-36,-24,10240,0.35,-0.09,1.38,1.05,4834,4965,4911,57,77,55,148,0,0
4825,4952,4904,-19,-26,-17,10240,0.35,-0.09,1.38,1.05,4834,4964,4911,57,77,55,148,0,0
4829,4958,4907,-12,-17,-10,10240,0.35,-0.09,1.38,1.05,4834,4964,4911,57,77,55,148,0,0
4834,4964,4910,-7,-10,-6,10240,0.35,-0.09,1.38,1.05,4834,4964,4911,57,77,55,148,0,0
4837,4968,4914,-2,-3,-2,10240,0.35,-0.09,1.38,1.05,4834,4964,4911,57,77,55,148,0,0
4841,4973,4918,1,1,1,10240,0.35,-0.09,1.38,1.05,4834,4965,4911,57,77,55,148,0,0
4851,4988,4927,6,8,6,10240,0.35,-0.09,1.38,1.05,4835,4965,4911,57,77,55,148,0,0
4856,4997,4930,11,16,11,10240,0.35,-0.09,1.38,1.05,4835,4966,4912,57,77,55,148,0,0
4859,5000,4931,16,23,14,10240,0.35,-0.09,1.38,1.05,4836,4968,4913,57,77,55,148,0,0
4862,5003,4933,21,30,18,10240,0.35,-0.09,1.38,1.05,4837,4969,4913,57,77,55,148,0,0
4860,4998,4929,22,31,17,10240,0.35,-0.09,1.38,1.05,4838,4970,4914,57,77,54,148,0,0
4815,4934,4884,12,14,6,10240,0.35,-0.09,1.41,1.07,4837,4969,4913,57,78,54,148,0,0
4798,4914,4869,-3,-6,-9,10240,0.35,-0.09,1.41,1.07,4836,4967,4911,57,78,54,148,0,0
4789,4901,4864,-20,-31,-25,10240,0.35,-0.09,1.41,1.07,4834,4965,4910,57,78,54,148,0,0
4790,4902,4864,-37,-53,-40,10240,0.35,-0.09,1.41,1.07,4833,4962,4908,57,78,54,148,0,0
4790,4903,4867,-41,-58,-43,10240,0.35,-0.09,1.41,1.07,4831,4960,4907,57,78,54,148,0,0
4806,4924,4884,-38,-54,-38,10240,0.35,-0.09,1.41,1.07,4830,4959,4906,57,78,54,148,0,0
4813,4932,4889,-31,-44,-30,10240,0.35,-0.09,1.41,1.07,4830,4958,4906,57,78,54,148,0,0
4814,4933,4890,-24,-35,-23,10240,0.35,-0.09,1.41,1.07,4829,4958,4905,57,78,54,148,0,0
4814,4933,4890,-17,-27,-17,10240,0.35,-0.09,1.41,1.07,4829,4957,4905,57,78,54,148,0,0
4817,4938,4892,-14,-23,-14,10240,0.35,-0.09,1.41,1.07,4828,4956,4904,57,78,54,148,0,0
4826,4951,4900,-10,-18,-11,10240,0.35,-0.09,1.41,1.07,4828,4956,4904,57,78,54,148,0,0
4831,4957,4905,-6,-11,-7,10240,0.35,-0.09,1.41,1.07,4829,4956,4904,57,78,54,148,0,0
4834,4964,4910,-1,-3,-2,10240,0.35,-0.09,1.41,1.07,4829,4956,4904,57,78,54,148,0,0
4838,4971,4913,3,4,2,10240,0.35,-0.09,1.41,1.07,4829,4957,4905,57,78,54,148,0,0
4844,4978,4917,7,11,6,10240,0.35,-0.09,1.41,1.07,4829,4957,4905,57,78,54,148,0,0
4852,4992,4922,12,19,10,10240,0.35,-0.09,1.41,1.07,4830,4959,4906,57,78,54,148,0,0
4855,4995,4927,17,25,14,10240,0.35,-0.09,1.41,1.07,4831,4960,4906,57,78,54,148,0,0
4840,4974,4909,17,25,13,10240,0.35,-0.09,1.41,1.07,4831,4960,4906,57,78,55,148,0,0
4813,4933,4882,9,14,4,10240,0.35,-0.09,1.40,1.05,4831,4959,4906,58,79,55,148,0,0
4794,4908,4866,-5,-6,-9,10240,0.35,-0.09,1.40,1.05,4830,4958,4904,58,79,55,148,0,0
4783,4899,4861,-22,-29,-25,10240,0.35,-0.09,1.40,1.05,4828,4956,4903,58,79,55,148,0,0
4784,4894,4862,-35,-48,-35,10240,0.35,-0.09,1.40,1.05,4827,4954,4901,58,79,55,148,0,0
4787,4900,4865,-40,-54,-38,10240,0.35,-0.09,1.40,1.05,4825,4952,4900,58,79,55,148,0,0
4797,4914,4876,-38,-51,-34,10240,0.35,-0.09,1.40,1.05,4824,4951,4899,58,79,55,148,0,0
4805,4924,4884,-31,-43,-28,10240,0.35,-0.09,1.40,1.05,4824,4950,4899,58,79,55,148,0,0
4809,4930,4889,-24,-33,-20,10240,0.35,-0.09,1.40,1.05,4823,4949,4899,58,79,55,148,0,0
4817,4939,4895,-16,-23,-12,10240,0.35,-0.09,1.40,1.05,4823,4949,4898,58,79,55,148,0,0
4820,4946,4898,-10,-14,-7,10240,0.35,-0.09,1.40,1.05,4823,4949,4898,58,79,55,148,0,0
4826,4950,4903,-5,-7,-2,10240,0.35,-0.09,1.40,1.05,4823,4949,4899,58,79,55,148,0,0
4829,4958,4907,0,0,2,10240,0.35,-0.09,1.40,1.05,4823,4949,4899,58,79,55,148,0,0
4833,4964,4911,4,5,6,10240,0.35,-0.09,1.40,1.05,4823,4949,4899,58,79,55,148,0,0
4841,4974,4916,9,12,10,10240,0.35,-0.09,1.40,1.05,4824,4950,4900,58,79,55,148,0,0
4845,4979,4920,13,19,13,10240,0.35,-0.09,1.40,1.05,4825,4951,4901,58,79,55,148,0,0
4848,4985,4922,17,25,17,10240,0.35,-0.09,1.40,1.05,4826,4952,4901,58,79,55,148,0,0
4850,4989,4924,20,30,19,10240,0.35,-0.09,1.40,1.05,4826,4954,4902,58,79,55,148,0,0
4843,4981,4917,20,30,19,10240,0.35,-0.09,1.40,1.05,4827,4954,4903,58,79,55,148,0,0
4803,4920,4877,9,15,8,10240,0.35,-0.09,1.40,1.05,4826,4953,4902,58,80,55,148,0,0
4792,4908,4869,-4,-3,-5,10240,0.35,-0.09,1.44,1.07,4825,4952,4901,58,80,55,148,0,0
4787,4902,4867,-19,-24,-18,10240,0.35,-0.09,1.44,1.07,4824,4950,4899,58,80,55,148,0,0
4787,4901,4866,-32,-43,-30,10240,0.35,-0.09,1.44,1.07,4822,4948,4898,58,80,55,148,0,0
4788,4903,4871,-34,-45,-30,10240,0.35,-0.09,1.44,1.07,4821,4947,4897,58,80,55,148,0,0
4802,4920,4884,-31,-41,-25,10240,0.35,-0.09,1.44,1.07,4821,4946,4897,58,80,55,148,0,0
4804,4921,4885,-25,-35,-20,10240,0.35,-0.09,1.44,1.07,4820,4945,4897,58,80,55,148,0,0
4805,4924,4885,-20,-28,-15,10240,0.35,-0.09,1.44,1.07,4820,4945,4896,58,80,55,148,0,0
4807,4926,4886,-15,-22,-11,10240,0.35,-0.09,1.44,1.07,4819,4944,4896,58,80,55,148,0,0
4808,4928,4887,-13,-19,-10,10240,0.35,-0.09,1.44,1.07,4819,4943,4896,58,80,55,148,0,0
4815,4937,4895,-10,-15,-7,10240,0.35,-0.09,1.44,1.07,4819,4943,4896,58,80,55,148,0,0
4822,4944,4900,-6,-9,-4,10240,0.35,-0.09,1.44,1.07,4819,4943,4896,58,80,55,148,0,0
4825,4952,4906,-1,-3,1,10240,0.35,-0.09,1.44,1.07,4819,4944,4896,58,80,55,148,0,0
4829,4956,4907,3,3,6,10240,0.35,-0.09,1.44,1.07,4819,4944,4896,58,80,55,148,0,0
4833,4962,4912,8,9,10,10240,0.35,-0.09,1.44,1.07,4820,4945,4897,58,80,55,148,0,0
4840,4971,4917,12,15,13,10240,0.35,-0.09,1.44,1.07,4820,4945,4898,58,80,55,148,0,0
4837,4968,4914,14,19,15,10240,0.35,-0.09,1.44,1.07,4821,4946,4898,58,80,55,148,0,0
4819,4941,4895,11,15,11,10240,0.35,-0.09,1.44,1.07,4821,4946,4898,56,76,53,148,0,0
4798,4915,4876,3,3,2,10240,0.35,-0.09,1.42,1.07,4820,4945,4897,56,76,53,148,0,0
4786,4900,4867,-10,-14,-9,10240,0.35,-0.09,1.42,1.07,4819,4943,4896,56,76,53,148,0,0
4783,4895,4866,-23,-31,-20,10240,0.35,-0.09,1.42,1.07,4818,4942,4895,56,76,53,148,0,0
4781,4893,4866,-31,-41,-26,10240,0.35,-0.09,1.42,1.07,4817,4940,4894,56,76,53,148,0,0
4788,4902,4872,-33,-43,-27,10240,0.35,-0.09,1.42,1.07,4816,4939,4894,56,76,53,148,0,0
4796,4913,4879,-29,-39,-23,10240,0.35,-0.09,1.42,1.07,4815,4938,4893,56,76,53,148,0,0
4801,4919,4884,-24,-31,-18,10240,0.35,-0.09,1.42,1.07,4815,4937,4893,56,76,53,148,0,0
4804,4922,4887,-17,-23,-12,10240,0.35,-0.09,1.42,1.07,4814,4937,4893,56,76,53,148,0,0
4808,4929,4891,-12,-16,-7,10240,0.35,-0.09,1.42,1.07,4814,4937,4892,56,76,53,148,0,0
4812,4933,4895,-8,-11,-3,10240,0.35,-0.09,1.42,1.07,4814,4937,4893,56,76,53,148,0,0
4818,4943,4900,-3,-5,0,10240,0.35,-0.09,1.42,1.07,4814,4937,4893,56,76,53,148,0,0
4823,4950,4905,1,1,5,10240,0.35,-0.09,1.42,1.07,4814,4937,4893,56,76,53,148,0,0
4830,4960,4912,6,9,9,10240,0.35,-0.09,1.42,1.07,4815,4938,4894,56,76,53,148,0,0
4835,4963,4915,11,16,14,10240,0.35,-0.09,1.42,1.07,4816,4939,4895,56,76,53,148,0,0
4836,4966,4916,15,21,17,10240,0.35,-0.09,1.42,1.07,4816,4940,4895,56,76,53,148,0,0
4841,4972,4920,19,25,20,10240,0.35,-0.09,1.42,1.07,4817,4941,4896,56,76,53,148,0,0
4835,4965,4914,20,26,20,10240,0.35,-0.09,1.42,1.07,4818,4942,4897,56,76,53,148,0,0
4794,4908,4873,9,12,9,10240,0.35,-0.09,1.42,1.07,4817,4940,4896,55,74,51,148,0,0
4780,4892,4862,-4,-6,-3,10240,0.35,-0.09,1.44,1.10,4816,4939,4895,55,74,51,148,0,0
4776,4886,4859,-20,-26,-18,10240,0.35,-0.09,1.44,1.10,4814,4937,4894,55,74,51,148,0,0
4774,4883,4857,-34,-45,-31,10240,0.35,-0.09,1.44,1.10,4813,4935,4892,55,74,51,148,0,0
