41729,317679,351792,-22,-1,1032,1
41863,317998,352018,-18,-1,1024,1
41939,318031,352005,-18,-9,1030,1
41899,318153,352129,-15,-2,1030,1
41995,318287,352278,-30,-2,1008,1
41965,318388,352268,-30,0,1020,1
42084,318574,352464,-22,-8,1013,1
42140,318766,352564,-22,-8,1013,1
42166,318801,352628,-22,-1,1002,1
42263,318916,352733,-20,-11,1027,1
42354,319077,352824,-16,-1,1027,1
42384,319269,352964,-23,-1,1016,1
42486,319386,353023,-23,-1,1016,1
42464,319431,353104,-18,-2,1016,1
42511,319524,353220,-18,-2,1005,1
42479,319614,353204,-18,3,1014,1
42618,319692,353459,-21,-9,1014,1
42660,319780,353409,-30,-9,1017,1
42681,319919,353498,-19,-4,1016,1
42742,319968,353498,-19,-9,1030,1
42739,320005,353505,-24,4,1030,1
42720,320048,353570,-18,4,1032,1
42541,319663,353382,-18,0,1032,1
42472,319396,353239,-21,-10,1032,1
42306,319042,353058,-26,-10,1027,1
42203,318847,353001,-26,-3,1014,1
42086,318495,352761,-16,-16,1014,1
41816,317899,352396,-23,-16,1030,1
41703,317781,352344,-28,-4,1013,1
41617,317420,352221,-28,-4,1023,1
41543,317201,352191,-21,-5,1023,1
41476,317116,352088,-18,-5,1017,1
41322,316838,352061,-18,-6,1010,1
41404,316690,351982,-13,-1,1010,1
41272,316634,351922,-20,-1,1027,1
41255,316613,351937,-20,-3,1053,1
41220,316604,352084,-18,-6,1053,1
41315,316659,352087,-18,-4,1011,1
41281,316808,352182,-30,-4,1026,1
41348,316871,352298,-30,-11,1026,1
41437,317029,352366,-18,-13,1026,1
41486,317354,352657,-21,-13,1021,1
41518,317564,352804,-21,0,1017,1
41656,317693,352937,-23,-5,1017,1
41675,317780,352955,-21,-13,1023,1
41746,318014,353121,-21,-13,1027,1
41815,318120,353297,-32,-7,1032,1
41845,318194,353422,-25,-4,1032,1
41842,318325,353407,-19,-4,1024,1
41937,318515,353547,-19,-8,1010,1
41906,318655,353673,-28,-5,1010,1
41996,318825,353797,-27,-5,1017,1
42128,319092,353910,-27,-9,1020,1
42172,319167,354086,-27,-4,1011,1
42268,319315,354146,-16,-4,1011,1
42288,319353,354144,-20,-8,1020,1
42319,319578,354310,-20,-3,1035,1
42392,319771,354409,-23,0,1035,1
42471,319961,354547,-21,0,1021,1
42498,320030,354666,-21,-5,1040,1
42546,320069,354757,-30,-1,1040,1
42593,320341,354875,-21,-1,1029,1
42632,320401,354993,-20,-4,1018,1
42724,320550,355071,-20,-6,1018,1
42745,320678,355177,-25,-6,1024,1
42779,320758,355229,-18,-4,1020,1
42839,320892,355332,-18,-9,1024,1
42920,321133,355481,-20,2,1024,1
42969,321104,355511,-23,2,1005,1
43045,321213,355595,-23,0,1029,1
42992,321308,355669,-20,-7,1029,1
43066,321382,355790,-25,-5,1021,1
43020,321637,355938,-25,-5,1032,1
43213,321702,356030,-21,-7,1032,1
43300,321751,356007,-21,-1,1044,1
43232,321805,356094,-27,-1,1032,1
43295,322046,356221,-27,-7,1027,1
43408,322166,356319,-20,-6,1027,1
43449,322117,356342,-17,-6,1017,1
43363,321998,356223,-17,1,1046,1
43395,321969,356237,-26,-4,1018,1
43351,321846,356208,-30,-8,1018,1
43205,321779,355967,-30,-8,1020,1
42990,321063,355703,-29,-3,1035,1
42817,320695,355518,-26,-6,1035,1
42639,320348,355353,-27,-6,993,1
42579,319996,355228,-27,0,1032,1
42421,319820,354945,-28,-6,1032,1
42219,319358,354822,-29,-6,1043,1
42156,319088,354757,-29,-6,1030,1
42173,318986,354721,-24,1,1030,1
42083,318815,354612,-18,1,1026,1
42014,318741,354569,-16,-9,1014,1
41936,318446,354543,-16,0,1037,1
41963,318391,354589,-16,-7,1037,1
41980,318425,354633,-24,-7,1032,1
41917,318455,354688,-24,-5,1017,1
41984,318585,354892,-19,-2,1017,1
42062,318739,354913,-15,-2,1021,1
42094,318809,355045,-15,-3,1020,1
42269,319086,355242,-29,-3,1020,1
42252,319212,355276,-15,-4,1023,1
42184,319470,355609,-15,-4,1027,1
42409,319566,355664,-23,-3,1026,1
42417,319715,355705,-34,-5,1026,1
42528,319851,355784,-30,-5,1024,1
42493,319961,355906,-30,-4,1021,1
42568,320124,356065,-28,3,1021,1
42654,320254,356158,-18,3,1032,1
42685,320385,356197,-18,-6,1035,1
42718,320524,356251,-21,-11,1035,1
42749,320691,356402,-28,-1,1030,1
42831,320834,356481,-21,-1,1017,1
42948,321021,356660,-21,-4,1038,1
42987,321128,356752,-24,2,1038,1
42968,321303,356879,-20,2,1043,1
42997,321394,356958,-20,-9,1021,1
43057,321512,357105,-24,-9,1021,1
43253,321732,357204,-36,-9,1024,1
43212,321946,357317,-22,0,1007,1
43279,321964,357387,-22,-1,1027,1
43302,322108,357488,-23,-4,1027,1
43336,322427,357730,-30,-4,1014,1
43477,322512,357812,-30,-3,1020,1
43473,322587,357806,-21,-7,1020,1
43515,322767,357890,-28,-7,1027,1
43595,322858,358023,-28,-5,1018,1
43522,322962,358059,-18,3,1018,1
43739,323169,358248,-22,3,1023,1
43718,323238,358350,-27,-3,1014,1
43779,323357,358358,-27,-9,1017,1
43843,323390,358412,-30,-9,1017,1
43810,323556,358493,-22,-9,1026,1
43958,323652,358647,-22,-4,1023,1
43959,323673,358667,-31,0,1023,1
43941,323760,358709,-25,0,1015,1
44012,323946,358836,-14,-5,1027,1
44035,324022,358864,-14,-10,1020,1
44033,324053,358970,-18,-10,1020,1
44023,323905,358895,-26,-3,1029,1
44002,323802,358811,-26,-5,1017,1
43901,323636,358805,-23,-11,1017,1
43820,323506,358739,-23,-11,1040,1
43717,322709,358307,-23,-3,1014,1
43444,322501,358101,-22,-5,1014,1
43315,322136,357862,-27,-5,1040,1
43121,321783,357825,-27,-4,1030,1
43113,321659,357739,-29,-13,1030,1
43012,321151,357486,-20,-3,1011,1
42766,320991,357472,-17,-3,1017,1
42775,320751,357352,-17,2,1021,1
42661,320571,357276,-27,-3,1021,1
42713,320568,357308,-22,-3,1013,1
42558,320358,357353,-22,-9,1018,1
42608,320360,357192,-26,-5,1035,1
42613,320409,357320,-21,-5,1035,1
42597,320342,357384,-21,-3,1033,1
42717,320495,357438,-19,-12,1020,1
42709,320696,357635,-21,-3,1020,1
42768,320845,357810,-38,-3,1004,1
42854,321041,357971,-38,0,1035,1
42889,321205,358083,-22,-11,1035,1
42985,321392,358160,-27,-11,1030,1
43019,321500,358338,-27,-6,999,1
43113,321720,358426,-27,0,999,1
43131,321812,358517,-23,-11,1023,1
43203,321946,358597,-24,-11,1016,1
43246,322076,358745,-24,-2,1023,1
43341,322306,358818,-30,-8,1023,1
43291,322442,358939,-38,-8,1013,1
43370,322504,359048,-38,-4,1024,1
43345,322624,359134,-25,-1,1024,1
43510,322746,359161,-33,-1,1013,1
43489,322962,359404,-33,-3,1021,1
43629,323147,359458,-30,-11,1021,1
43577,323307,359603,-27,-6,1029,1
43733,323353,359633,-19,-6,1023,1
43695,323536,359737,-19,-11,1029,1
43753,323771,360002,-24,-2,1029,1
43860,323887,360049,-22,-2,1033,1
43906,323975,360101,-22,-8,1044,1
43993,324102,360237,-28,-9,1044,1
44050,324238,360336,-23,-9,1026,1
44009,324377,360423,-27,-8,1024,1
44120,324583,360578,-27,0,1023,1
44250,324676,360623,-23,-2,1023,1
44223,324757,360794,-27,-2,1027,1
44247,324875,360850,-27,-8,1026,1
44313,324939,361010,-20,-4,1026,1
44389,325149,361031,-18,-4,1010,1
44437,325225,361169,-18,-3,1029,1
44502,325369,361170,-28,-10,1029,1
44561,325518,361332,-22,-1,1014,1
44544,325680,361497,-22,-1,1016,1
44594,325763,361572,-18,-6,1016,1
44679,325827,361533,-21,-9,1016,1
44758,326016,361711,-21,-9,1026,1
44799,326048,361821,-21,-8,1016,1
44707,326229,361903,-25,-7,1016,1
44649,325866,361666,-21,-7,1013,1
44611,325685,361596,-21,-5,1027,1
44483,325486,361370,-32,-3,1027,1
44292,325267,361340,-30,-3,1032,1
44191,325057,361203,-30,-3,1035,1
43965,324309,360839,-30,-4,1041,1
43839,324035,360740,-26,-3,1041,1
43846,323825,360596,-22,-3,1010,1
43681,323594,360404,-22,-4,1018,1
43653,323515,360403,-27,-4,1018,1
43487,323108,360247,-28,-4,1033,1
43438,323062,360247,-27,1,1015,1
43397,322961,360255,-27,-6,1021,1
43399,322894,360294,-21,-13,1021,1
43372,322943,360366,-27,-13,1035,1
43255,322993,360332,-27,-3,1026,1
43319,323024,360442,-29,-9,1026,1
43437,323066,360576,-20,-9,1007,1
43452,323224,360543,-20,-6,1023,1
43515,323426,360790,-25,-6,1023,1
43688,323793,360987,-26,2,1035,1
43708,323948,361096,-26,2,1015,1
43755,324083,361270,-28,-1,1030,1
43787,324173,361355,-20,-2,1030,1
43750,324406,361418,-26,-2,1024,1
43823,324680,361579,-26,-17,1023,1
43957,324833,361647,-21,4,1023,1
43954,324994,361744,-23,4,1040,1
44013,325170,361910,-23,-5,1018,1
44001,325303,362050,-26,-11,1027,1
44089,325650,362179,-25,-11,1027,1
44217,325702,362173,-25,-4,1017,1
44260,325861,362324,-25,-11,1033,1
44296,326039,362414,-26,-11,1033,1
44300,326269,362505,-27,-11,1029,1
44491,326552,362724,-27,-12,1029,1
44522,326595,362846,-27,-2,1029,1
44518,326788,362999,-22,-2,1016,1
44645,326947,363104,-22,-3,1008,1
44629,327098,363178,-27,-2,1008,1
44696,327356,363364,-21,-10,1014,1
44768,327586,363491,-33,-10,1030,1
44830,327680,363472,-33,-4,1018,1
44821,327791,363661,-26,-6,1018,1
44886,327838,363722,-24,-6,1017,1
44984,328072,363861,-24,-3,1032,1
45101,328260,363946,-29,0,1032,1
45056,328449,364082,-34,-10,1032,1
45195,328509,364070,-34,-10,1030,1
45151,328684,364162,-27,-14,1030,1
45169,328817,364383,-29,2,1027,1
45310,329017,364500,-18,2,1035,1
45342,329246,364567,-18,5,1024,1
45355,329358,364665,-21,-9,1024,1
45341,329515,364685,-24,-9,1046,1
45454,329662,364801,-24,0,993,1
45442,329732,364809,-28,-10,1035,1
45492,329844,364934,-25,-10,1035,1
45479,329836,364898,-25,-4,1008,1
45537,329947,364954,-36,-11,1026,1
45329,329938,364729,-27,-9,1026,1
45296,329518,364659,-24,-9,1030,1
45206,329230,364540,-24,-9,1007,1
44999,328924,364344,-21,-4,1007,1
44904,328646,364196,-31,-4,1029,1
44834,328391,364113,-31,-5,1029,1
44614,327951,363917,-16,-4,1032,1
44587,327794,363815,-28,-4,1032,1
44413,327613,363705,-28,-5,1021,1
44396,327483,363697,-28,-2,1035,1
44301,327454,363749,-25,-4,1035,1
44273,327333,363626,-32,-4,1027,1
44283,327173,363721,-32,-9,996,1
44206,327199,363746,-30,-3,996,1
44216,327171,363774,-23,-3,1011,1
44238,327324,363965,-23,-5,1050,1
44345,327437,363969,-21,-8,1050,1
44335,327536,364073,-18,-3,1021,1
44329,327777,364255,-28,-3,1021,1
44345,327869,364373,-28,-1,1030,1
44474,328253,364528,-30,-8,1030,1
44571,328389,364644,-27,-8,1030,1
44603,328449,364654,-27,0,1014,1
44594,328615,364857,-29,-9,1014,1
44792,328695,364943,-30,-9,1013,1
44759,328890,365030,-26,0,1024,1
44776,329103,365166,-26,-8,1021,1
44862,329315,365229,-21,-10,1021,1
44921,329418,365369,-29,-10,1033,1
44904,329524,365416,-29,-1,1026,1
44942,329831,365529,-21,-15,1026,1
45105,329932,365735,-27,-15,1027,1
45200,330160,365838,-27,-2,1027,1
45099,330279,366029,-21,-9,1027,1
45140,330382,366039,-21,-9,1017,1
45264,330648,366161,-25,-4,1026,1
45303,330964,366415,-25,-4,1024,1
45401,331033,366488,-29,3,1024,1
45446,331138,366581,-31,3,1011,1
45534,331253,366699,-31,-3,1023,1
45508,331443,366865,-28,-8,1023,1
45597,331632,366986,-18,-8,1027,1
45682,331817,367130,-18,-5,1035,1
45785,331869,367138,-28,1,1035,1
45774,332030,367179,-33,1,1017,1
45810,332190,367427,-22,-6,1023,1
45861,332433,367640,-22,-9,1008,1
45994,332590,367645,-30,-12,1008,1
46062,332625,367707,-19,-12,1016,1
46045,332775,367796,-19,-3,1024,1
46133,332921,367854,-29,-12,1024,1
46106,333112,367979,-30,-12,996,1
46176,333120,368084,-30,-6,1016,1
46296,333296,368157,-24,-3,1016,1
46216,333362,368115,-31,1,1014,1
46180,333284,368170,-27,1,1026,1
46199,333352,368099,-27,0,1020,1
45968,332937,367915,-27,-4,1020,1
45918,332610,367850,-26,-4,1018,1
45832,332403,367721,-26,-6,1021,1
45673,332138,367672,-26,-5,1021,1
45548,331957,367414,-22,-5,1016,1
45390,331434,367236,-22,-3,1027,1
45276,331316,367228,-24,-11,1005,1
45273,331126,367175,-20,-6,1005,1
45142,331098,367086,-28,-6,1021,1
45174,331051,367176,-28,-11,1023,1
45088,330827,367172,-31,-8,1023,1
45087,330863,367209,-26,-8,1033,1
45047,330834,367113,-26,-6,1030,1
45058,330783,367307,-18,-10,1029,1
45104,330965,367466,-30,-10,1029,1
45155,331197,367548,-36,-11,1030,1
45206,331297,367655,-36,-9,1021,1
45300,331583,367800,-25,4,1021,1
45353,331697,367927,-30,4,1030,1
45356,331905,368157,-30,-10,1043,1
45513,332026,368229,-24,-11,1043,1
45569,332097,368263,-25,-11,1043,1
45559,332179,368302,-25,-6,1014,1
45551,332234,368368,-27,-7,1014,1
45702,332477,368538,-33,-5,1035,1
45599,332661,368645,-33,-5,1035,1
45690,332684,368681,-36,-6,1029,1
45699,332712,368802,-30,-4,1029,1
45804,332807,368750,-27,-4,1032,1
45873,333055,369064,-27,-4,1040,1
45881,333240,369171,-26,-6,1040,1
46011,333448,369233,-18,-6,1004,1
46045,333467,369365,-31,-5,1024,1
46088,333643,369372,-31,-11,1024,1
46127,333743,369551,-25,-11,1032,1
46164,333887,369603,-22,-5,1035,1
46230,333984,369674,-22,-1,1037,1
46228,334044,369782,-28,-13,1037,1
46286,334238,369864,-22,-13,1016,1
46348,334457,370044,-22,-4,1020,1
46459,334489,370158,-32,-1,1020,1
46453,334670,370223,-16,-1,1017,1
46553,334703,370265,-25,-8,1029,1
46524,334861,370361,-25,-4,1029,1
46691,334972,370530,-30,0,1023,1
46644,335107,370589,-28,0,1024,1
46692,335312,370729,-28,-3,1017,1
46757,335269,370685,-25,-5,1017,1
46836,335426,370863,-21,-5,1013,1
46821,335579,371052,-21,-1,1023,1
46934,335671,371080,-34,-3,1023,1
46984,335767,371105,-28,-8,1023,1
47081,335893,371199,-28,-8,1035,1
47079,335963,371207,-33,-4,1021,1
47019,335900,371258,-21,-8,1021,1
46871,335582,371084,-30,-8,1035,1
46776,335307,370976,-30,-2,1008,1
46638,335062,370813,-25,-4,1008,1
46508,334776,370655,-18,-4,1033,1
46358,334540,370616,-18,-3,1026,1
46276,333911,370266,-33,-12,1029,1
46019,333647,370116,-26,-12,1029,1
45867,333335,369961,-26,-10,1032,1
45806,333199,369878,-23,-7,1029,1
45637,332993,369813,-28,-4,1029,1
45668,332692,369761,-30,-4,1017,1
45528,332607,369805,-30,-2,1023,1
45476,332558,369748,-28,1,1023,1
45530,332470,369779,-17,1,1043,1
45513,332596,369783,-18,-3,1040,1
45425,332519,369855,-18,1,1037,1
45548,332600,369900,-25,1,1037,1
45554,332669,370032,-16,-6,1018,1
45557,332728,370134,-16,-10,1024,1
45623,332984,370175,-26,-10,1024,1
45706,333275,370432,-19,-10,1021,1
45785,333428,370525,-19,0,1024,1
45832,333453,370652,-28,-3,1024,1
45879,333607,370657,-30,-5,1017,1
45916,333700,370777,-30,-5,1026,1
45933,333749,370958,-28,-6,1026,1
45985,333972,371037,-20,-3,1010,1
46009,333985,371092,-33,-3,1016,1
46048,334098,371101,-33,-6,1021,1
46110,334199,371213,-27,-9,1021,1
46133,334516,371425,-16,-9,1049,1
46169,334627,371429,-16,-7,1037,1
46188,334798,371530,-27,-2,1037,1
46283,334866,371704,-25,-1,1023,1
46309,334897,371645,-27,-1,1027,1
46364,335073,371901,-27,-2,1027,1
46478,335194,371803,-22,0,1027,1
46540,335350,372007,-27,0,1053,1
46542,335423,372155,-27,0,1029,1
46577,335503,372157,-27,-5,1029,1
46573,335744,372337,-18,-5,1038,1
46743,335747,372373,-18,-4,1030,1
46714,335815,372431,-30,-5,1030,1
46789,335922,372525,-32,-5,1013,1
46780,335945,372545,-18,0,1007,1
46829,336285,372700,-18,-3,1032,1
46897,336152,372733,-39,-9,1032,1
46922,336316,372792,-29,-9,1032,1
46951,336326,372862,-29,-9,1021,1
47000,336400,372974,-15,-12,1021,1
46985,336503,373063,-21,-12,1046,1
47050,336631,373056,-26,-11,1040,1
47147,336714,373174,-26,1,1040,1
47169,336752,373117,-19,-7,1030,1
47128,336834,373234,-30,-7,1020,1
47150,336823,373285,-30,-13,1011,1
47099,336724,373272,-21,-8,1011,1
47016,336566,373137,-23,-8,1013,1
46870,336280,373041,-23,-5,1013,1
46728,336072,372881,-26,2,1013,1
46621,335763,372786,-25,-9,1017,1
46347,335129,372381,-25,-9,1035,1
46155,334762,372173,-28,0,1021,1
46036,334480,372042,-27,-5,1021,1
45906,334198,371900,-20,-5,1026,1
45852,334087,371983,-20,-13,1041,1
45723,333586,371703,-22,-10,1041,1
45617,333493,371674,-26,-10,1032,1
45615,333308,371713,-26,-10,1016,1
45497,333290,371560,-31,-6,1044,1
45484,333186,371573,-23,-6,1044,1
45455,333070,371539,-23,-7,1020,1
45462,333125,371659,-26,0,1040,1
45431,333228,371759,-27,-7,1040,1
45514,333317,371750,-26,-7,1032,1
45561,333508,371996,-26,0,1005,1
45585,333828,372146,-31,-8,1005,1
45746,333897,372271,-15,-8,1030,1
45731,334088,372399,-15,-3,1026,1
45824,334204,372539,-26,-5,1026,1
45847,334390,372651,-24,-5,1024,1
45889,334513,372728,-33,-3,1018,1
45936,334565,372824,-33,-2,1018,1
46032,334728,372926,-27,-2,1018,1
45996,334947,372991,-27,-2,1021,1
46015,335085,373110,-27,-9,1024,1
46137,335217,373244,-21,-4,1024,1
46194,335370,373345,-27,-4,1043,1
46232,335452,373382,-27,-4,1026,1
46313,335543,373486,-28,-3,1026,1
46271,335778,373606,-27,-9,1026,1
46215,335865,373815,-17,-9,1046,1
46447,336046,373784,-17,-3,1044,1
46459,336081,373815,-32,-6,1044,1
46487,336313,374092,-22,-6,1005,1
46548,336363,374082,-22,-4,1030,1
46583,336597,374206,-26,-13,1030,1
46685,336647,374288,-30,-13,1027,1
46729,336747,374359,-30,0,1024,1
46764,336806,374352,-28,-1,1024,1
46775,336927,374483,-26,-12,1033,1
46847,337100,374624,-16,-12,1035,1
46882,337165,374680,-16,-7,1035,1
46900,337234,374782,-28,-8,1035,1
46948,337162,374808,-20,-8,1007,1
46945,337313,374850,-20,-5,1032,1
47039,337316,374864,-28,-10,1032,1
47003,337349,374985,-27,0,1030,1
47031,337469,374990,-27,0,1018,1
47083,337604,374982,-28,-10,1011,1
47129,337664,375044,-21,-7,1011,1
47235,337812,375284,-26,-7,1030,1
47290,337860,375289,-26,-4,1008,1
47275,337860,375250,-19,0,1008,1
47233,337813,375241,-29,0,1010,1
47209,337735,375200,-29,-4,1030,1
47117,337754,375113,-28,-4,1030,1
46740,336946,374770,-22,-4,1020,1
46658,336616,374680,-22,-2,1011,1
46517,336342,374484,-20,-3,1035,1
46292,335962,374258,-26,-2,1035,1
46209,335905,374259,-29,-2,1021,1
46134,335173,373959,-29,-9,1040,1
45936,335039,373826,-18,-7,1040,1
45885,334826,373801,-29,-7,1030,1
45834,334683,373645,-29,-3,1029,1
45793,334518,373677,-30,0,1029,1
45643,334272,373539,-25,-1,1014,1
45537,334205,373453,-25,-1,1018,1
45511,334156,373470,-27,-9,1011,1
45551,334153,373518,-27,-2,1011,1
45431,334194,373546,-22,-2,1011,1
45536,334241,373661,-22,-9,1017,1
45604,334332,373774,-27,-5,1017,1
45630,334527,373796,-23,-5,1027,1
45666,334703,373970,-23,-11,1033,1
45727,334866,374248,-39,-7,1033,1
45784,335119,374340,-24,-7,1008,1
45923,335280,374341,-26,-7,1032,1
45881,335326,374451,-26,-3,1016,1
45932,335472,374596,-30,-11,1016,1
45994,335634,374746,-28,-11,1026,1
46061,335800,374813,-28,-5,1023,1
46035,335895,374797,-27,-7,1023,1
46107,335970,374920,-31,-4,1020,1
46191,336100,374984,-31,-4,1035,1
46201,336208,375041,-19,2,1035,1
46261,336414,375263,-29,-2,1043,1
46362,336582,375228,-25,-2,1017,1
46363,336668,375368,-25,-10,1014,1
46472,336838,375504,-27,-9,1014,1
46458,336981,375630,-21,-9,1007,1
46533,337129,375821,-21,-8,1027,1
46487,337231,375870,-26,-3,1026,1
46629,337413,375893,-28,-4,1026,1
46673,337406,375880,-28,-4,996,1
46741,337541,376083,-26,-5,1027,1
46655,337739,376170,-30,-11,1027,1
46809,337894,376327,-22,-11,1033,1
46827,337901,376308,-22,-5,1026,1
46879,337936,376359,-22,-8,1026,1
46879,338054,376394,-26,-8,1024,1
46997,338278,376490,-26,-2,1030,1
46987,338221,376509,-21,-6,1030,1
46985,338309,376643,-27,-6,1007,1
47072,338403,376649,-27,-6,1020,1
47043,338457,376750,-29,-13,1033,1
47029,338646,376918,-20,-3,1033,1
47116,338722,376856,-19,-3,1029,1
47160,338747,376944,-19,-5,1014,1
47129,338788,376962,-16,-4,1014,1
47220,338932,377146,-22,-4,1027,1
47207,338875,377088,-22,-9,1016,1
47213,338691,376900,-19,-9,1016,1
47064,338633,376873,-27,-2,1035,1
46969,338418,376766,-27,-2,1053,1
46942,338192,376669,-23,-8,1037,1
46814,338084,376273,-19,-3,1037,1
46472,337218,376130,-27,-3,1035,1
46360,336956,376030,-27,-7,1016,1
46285,336786,375900,-30,-3,1016,1
46169,336579,375730,-24,-3,1040,1
46088,336284,375564,-24,-8,1038,1
45874,336015,375530,-29,-4,1038,1
45922,335879,375525,-24,-9,1044,1
45793,335700,375438,-24,-9,1032,1
45770,335591,375376,-24,-2,1008,1
45797,335726,375453,-27,-9,1008,1
45783,335518,375448,-22,-9,1046,1
45720,335461,375457,-22,1,1040,1
45667,335595,375537,-25,-8,1040,1
45729,335724,375649,-22,-8,1030,1
45836,335966,375945,-22,-5,1049,1
45841,336239,376031,-26,-4,1018,1
45925,336351,376143,-31,-4,1018,1
46025,336564,376187,-26,-4,1008,1
46052,336777,376361,-26,-8,1018,1
46074,337015,376684,-21,-5,1018,1
46127,337123,376668,-28,-5,1024,1
46260,337259,376776,-28,-6,1035,1
46247,337433,376838,-20,-9,1011,1
46295,337455,376851,-22,-9,1011,1
46343,337696,376961,-22,-5,1029,1
46439,337857,377168,-18,-3,1027,1
46378,338048,377197,-28,-5,1027,1
46510,338192,377310,-33,-5,1014,1
46569,338274,377446,-33,-8,1008,1
46541,338403,377600,-21,-3,1008,1
46595,338471,377520,-33,-3,1023,1
46740,338666,377598,-33,-7,1035,1
46732,338737,377706,-24,-8,1035,1
46780,338884,377855,-26,-7,1018,1
46802,339100,378064,-27,-7,1017,1
46899,339248,378076,-27,0,1020,1
46919,339382,378116,-18,-8,1020,1
47052,339489,378256,-31,-8,1040,1
47020,339560,378362,-31,-6,1017,1
46909,339822,378431,-30,-9,1017,1
47120,339944,378604,-30,-9,1018,1
47123,340066,378668,-30,-8,1017,1
47174,340137,378760,-27,-10,1035,1
47207,340281,378764,-27,0,1035,1
47273,340397,378811,-27,0,1032,1
47229,340433,378859,-27,-7,1041,1
47342,340540,379033,-23,-1,1041,1
47382,340640,379141,-23,-1,1008,1
47425,340757,379215,-23,-2,1026,1
47417,340810,379307,-25,-6,1026,1
47451,341050,379421,-25,5,1011,1
47558,341066,379409,-25,5,1047,1
47594,341204,379407,-26,-1,1016,1
47597,341218,379569,-28,-8,1016,1
47565,341181,379508,-30,-8,1027,1
47481,340899,379389,-30,-12,1011,1
47348,340767,379267,-21,-3,1011,1
47221,340506,379106,-27,-3,1001,1
47115,340206,378982,-24,-4,1024,1
46947,340022,378902,-24,-4,1024,1
46918,339391,378565,-29,-4,1016,1
46593,339193,378395,-33,-1,1047,1
46557,339025,378367,-33,-2,1004,1
46452,338820,378246,-30,-3,1004,1
46461,338752,378249,-26,-3,1033,1
46348,338545,378198,-26,-7,1027,1
46247,338482,378253,-23,-2,1027,1
46243,338401,378124,-25,-8,1020,1
46250,338342,378158,-25,-8,1049,1
46218,338445,378271,-25,-4,1020,1
46160,338512,378368,-22,-6,1020,1
46224,338567,378433,-22,-6,1016,1
46240,338741,378453,-22,-7,1035,1
46319,338859,378639,-27,-5,1035,1
46373,339085,378691,-22,-5,1007,1
46483,339342,379022,-22,-7,1014,1
46559,339624,379182,-32,-3,1013,1
46558,339691,379235,-20,-3,1013,1
46669,339867,379325,-25,-3,1032,1
46628,340001,379390,-25,-3,1023,1
46684,340167,379525,-23,-9,1023,1
46719,340349,379585,-25,-9,1041,1
46778,340419,379684,-25,-3,1013,1
46865,340521,379719,-33,-7,1013,1
46863,340781,379838,-27,-7,1016,1
46963,340922,379993,-27,2,1032,1
46957,341087,380154,-21,-3,1038,1
46978,341204,380188,-19,-3,1038,1
47051,341298,380283,-19,-5,1043,1
47131,341494,380435,-28,3,1014,1
47164,341600,380552,-28,-6,1014,1
47274,341788,380698,-22,-6,1024,1
47344,341908,380809,-22,-11,1020,1
47327,342020,380872,-24,-7,1020,1
47436,342196,380965,-30,-7,1038,1
47453,342481,381160,-30,-6,1029,1
47461,342553,381204,-25,-5,1029,1
47530,342577,381265,-27,-8,1026,1
47580,342759,381239,-27,-8,1005,1
47672,342919,381432,-25,-7,1014,1
47675,343100,381552,-27,2,1014,1
47772,343254,381599,-25,2,1024,1
47841,343288,381701,-25,2,1023,1
47889,343416,381829,-37,3,1023,1
47905,343580,381890,-31,3,1018,1
47967,343776,381986,-31,-11,1020,1
48004,343912,382106,-29,-2,1032,1
48058,343951,382234,-15,-2,1032,1
48092,344041,382297,-26,-9,1035,1
48173,344161,382371,-26,-5,1047,1
48127,344311,382507,-20,-1,1047,1
48180,344261,382510,-15,-1,1026,1
48095,344153,382423,-15,-1,1013,1
48057,344049,382364,-31,-11,1013,1
47886,343756,382209,-21,-11,1011,1
47757,343725,382160,-36,0,1010,1
47431,342974,381848,-36,-2,1029,1
47288,342619,381642,-34,-10,1029,1
47187,342468,381450,-30,-10,1035,1
47114,342090,381458,-30,-9,1016,1
47008,342043,381350,-30,-2,1016,1
46951,341619,381265,-24,-2,1026,1
46823,341476,381126,-24,-4,1021,1
46739,341432,381125,-23,-5,1021,1
46691,341279,381120,-27,-1,1029,1
46735,341288,381153,-27,-1,1021,1
46620,341199,381079,-20,-4,1027,1
46651,341225,381154,-29,-7,1027,1
46672,341311,381229,-10,-7,1018,1
46689,341509,381366,-10,-5,1038,1
46771,341746,381637,-25,-5,1038,1
46822,342007,381785,-21,-5,1024,1
46894,342080,381859,-21,-10,1005,1
47002,342308,381884,-22,-13,1005,1
47058,342394,381941,-30,-13,1021,1
47042,342594,382081,-30,-4,1026,1
47217,342803,382265,-21,1,1037,1
47128,342832,382333,-27,-5,1037,1
47160,342937,382334,-29,-5,1017,1
47196,343090,382465,-29,-8,1030,1
47224,343212,382647,-21,2,1030,1
47358,343383,382716,-27,2,1035,1
47345,343442,382718,-28,-11,1032,1
47488,343601,382887,-28,-13,1032,1
47462,343674,382889,-26,-13,1020,1
47433,343832,383026,-33,0,1049,1
47453,344085,383214,-33,-5,1030,1
47615,344140,383204,-19,-3,1030,1
47757,344288,383340,-22,-3,1029,1
47740,344332,383437,-22,-1,1017,1
47775,344521,383521,-30,-9,1017,1
47875,344662,383650,-25,-6,1020,1
47889,344856,383699,-25,-6,1030,1
48011,344869,383761,-26,-4,1030,1
48011,345048,383885,-23,-12,1030,1
48017,345205,383877,-30,-12,1032,1
48065,345362,384119,-30,-10,1030,1
48178,345375,384149,-25,-4,1030,1
48158,345563,384251,-30,-4,1033,1
48175,345648,384302,-30,-4,1021,1
48241,345695,384408,-26,-11,1021,1
48380,345834,384506,-20,-11,1027,1
48420,346004,384596,-20,3,1027,1
48407,346070,384694,-38,-2,1030,1
48437,346068,384674,-29,-2,1030,1
48503,346207,384736,-29,-2,1035,1
48485,346271,384797,-29,0,1014,1
48538,346359,384918,-27,-4,1014,1
48488,346279,384865,-15,-4,1046,1
48483,346209,384841,-15,-7,1026,1
48376,346081,384761,-32,-9,1026,1
48219,346001,384544,-18,-9,1026,1
47945,345228,384261,-25,4,1026,1
47751,344873,384103,-25,-9,1033,1
47655,344480,383942,-27,-4,1033,1
47437,344238,383689,-27,-4,1011,1
47332,344020,383585,-27,-8,1021,1
47110,343339,383304,-27,-1,1021,1
47056,343252,383275,-27,-1,1041,1
46982,343017,383158,-27,-6,1007,1
46866,342881,383060,-24,-7,1007,1
46847,342832,383200,-14,-7,1037,1
46719,342639,382993,-30,-13,1030,1
46726,342578,382971,-30,-2,1018,1
46742,342640,383045,-27,-6,1018,1
46670,342549,383128,-31,-6,1038,1
46781,342736,383145,-31,-1,1005,1
46826,342882,383416,-32,-9,1005,1
46749,342981,383413,-21,-9,1030,1
46915,343170,383613,-14,-10,1053,1
46909,343383,383671,-14,0,1053,1
47054,343543,383952,-20,0,1026,1
46987,343749,383915,-17,-3,1041,1
47031,343925,384062,-17,-10,1001,1
47039,343970,384098,-29,-8,1001,1
47102,344066,384249,-27,-8,1038,1
47155,344181,384230,-27,-10,1016,1
47269,344378,384343,-14,3,1016,1
47225,344461,384464,-32,3,1024,1
47233,344560,384522,-21,-8,1037,1
47278,344575,384538,-21,-9,1037,1
47311,344865,384680,-29,-7,1033,1
47423,345001,384844,-27,-7,994,1
47513,345116,384930,-27,-6,1016,1
47470,345209,384957,-30,-6,1016,1
47545,345333,385015,-32,-6,1030,1
47606,345453,385151,-32,-5,1050,1
47651,345630,385289,-30,-4,1050,1
47727,345758,385348,-18,-4,1038,1
47783,345875,385396,-26,-7,1027,1
47822,345933,385487,-26,-8,1035,1
47831,346102,385608,-26,3,1035,1
47930,346255,385621,-30,3,1037,1
47932,346416,385831,-30,2,1010,1
47930,346400,385839,-30,-3,1010,1
48026,346427,385848,-19,-3,1016,1
48014,346690,386045,-19,0,1032,1
48087,346813,386094,-21,-4,1035,1
48145,346776,386073,-30,-4,1035,1
48163,346925,386170,-30,-3,1030,1
48248,347023,386255,-27,1,1030,1
48288,347133,386388,-32,0,1030,1
48163,347196,386400,-21,0,1034,1
48327,347201,386440,-21,-7,1033,1
48341,347369,386435,-30,-6,1033,1
48442,347400,386543,-20,-6,1030,1
48483,347492,386740,-33,0,1029,1
48397,347358,386553,-33,-4,1029,1
48303,347288,386462,-24,-1,1043,1
48175,347040,386361,-27,-1,1010,1
48110,346758,386263,-27,-10,1024,1
47926,346498,386013,-33,-3,1024,1
47857,346194,385646,-26,-3,1011,1
47379,345460,385546,-26,-2,1027,1
47306,345133,385391,-26,-7,1027,1
47190,344834,385153,-23,-7,1014,1
47037,344401,385011,-30,-11,999,1
46921,344288,384751,-30,-2,1018,1
46774,343898,384637,-29,-8,1018,1
46669,343764,384591,-27,-8,1013,1
46594,343606,384559,-27,-9,1020,1
46558,343498,384438,-24,-12,1020,1
46529,343465,384421,-31,-12,1050,1
46370,343218,384486,-31,-9,1037,1
46427,343299,384576,-36,-7,1037,1
46392,343315,384657,-18,-7,1017,1
46554,343443,384677,-21,-8,1010,1
46593,343634,384887,-21,-7,1017,1
46693,343886,385039,-24,-5,1017,1
46744,344046,385176,-24,-5,1011,1
46763,344197,385292,-24,-9,1014,1
46828,344414,385300,-24,-3,1014,1
46786,344714,385528,-30,-3,1030,1
46912,344828,385621,-30,-4,1023,1
46979,344820,385626,-21,-9,1023,1
46951,344876,385651,-27,-7,1017,1
47016,344979,385686,-29,-7,1021,1
47122,345192,385847,-29,-7,1035,1
47103,345305,385900,-30,-9,1035,1
47097,345468,386063,-27,-9,1026,1
47123,345575,386129,-27,-5,1014,1
47145,345703,386159,-19,-4,1014,1
47272,345823,386292,-27,-4,1017,1
47355,346058,386441,-27,-9,1024,1
47336,346143,386578,-26,-9,1024,1
47366,346175,386565,-27,-5,1011,1
47430,346271,386649,-32,-5,1026,1
47475,346526,386867,-32,-9,1013,1
47523,346737,386896,-28,-9,1013,1
47606,346783,386960,-32,-9,1029,1
47591,346753,387050,-32,-2,1021,1
47652,346890,387111,-25,-8,1021,1
47632,347227,387314,-28,-8,1014,1
47597,347198,387270,-28,-3,1029,1
47794,347363,387308,-27,3,1026,1
47719,347372,387328,-33,-8,1026,1
47814,347380,387433,-20,-8,1021,1
47919,347652,387589,-20,-10,1027,1
47948,347638,387674,-23,-7,1027,1
47997,347765,387674,-26,-7,1044,1
47879,347769,387739,-26,-11,1030,1
48082,347817,387762,-25,-3,1030,1
48045,348007,387876,-29,-3,1016,1
48028,348087,387856,-26,-3,1011,1
48129,348147,387994,-26,0,1017,1
48126,348234,388014,-21,-3,1017,1
48179,348307,388076,-26,-3,1010,1
48097,348220,388097,-26,-8,1029,1
48016,347761,387834,-23,-3,1029,1
47868,347468,387723,-23,-4,1020,1
47713,347273,387498,-23,-4,1035,1
47524,346859,387296,-26,-4,1035,1
47341,346582,387178,-17,-7,1035,1
47242,345714,386658,-30,-7,1020,1
46957,345483,386457,-30,-7,1038,1
46860,345238,386390,-23,-7,1038,1
46760,344986,386258,-30,-7,1024,1
46703,344773,386144,-30,-6,1018,1
46611,344416,385983,-21,-9,1018,1
46485,344255,385928,-26,-12,1013,1
46353,344160,385907,-26,-12,1032,1
46377,344082,385882,-29,-4,1032,1
46344,344092,385919,-18,0,1032,1
46250,344099,386039,-21,0,1029,1
46358,344105,386000,-21,0,1035,1
46324,344223,386086,-27,-5,1035,1
46448,344348,386218,-21,-5,1017,1
46487,344620,386382,-21,1,1026,1
46584,344901,386599,-24,-3,1026,1
46697,345040,386801,-21,-5,1017,1
46748,345178,386824,-21,-5,1040,1
46724,345332,386887,-26,-2,1026,1
46738,345556,386984,-24,-4,1026,1
46771,345636,387153,-31,-4,1037,1
46790,345840,387224,-31,-8,1021,1
46823,345861,387269,-22,2,1021,1
46837,346016,387271,-23,2,1020,1
46943,346079,387424,-25,-3,1032,1
46962,346245,387549,-25,-4,1005,1
47102,346530,387593,-22,-4,1005,1
47082,346559,387647,-29,-5,1020,1
47141,346729,387836,-29,-6,1011,1
47128,346776,387894,-22,-2,1011,1
47222,346916,387976,-18,-2,1018,1
47239,347110,388082,-18,-6,1024,1
47249,347213,388109,-27,-8,1024,1
47269,347376,388104,-26,-4,1005,1
47377,347502,388237,-26,-4,1020,1
47352,347649,388536,-23,-6,1020,1
47514,347721,388511,-25,-10,1035,1
47484,347845,388557,-21,-10,1026,1
47566,347956,388635,-21,0,1035,1
47599,348020,388728,-26,-4,1035,1
47590,348128,388657,-30,-4,1024,1
47619,348237,388860,-30,-9,1032,1
47758,348323,388933,-23,-11,1032,1
47748,348396,388965,-29,-11,1035,1
47800,348548,389088,-29,-11,1040,1
47853,348627,389195,-26,-7,1023,1
47877,348718,389158,-30,-9,1023,1
47912,348821,389255,-29,-9,1011,1
47933,348937,389367,-29,-2,1037,1
48051,349043,389388,-25,-3,1037,1
47923,349156,389575,-27,-3,1021,1
48079,349221,389563,-27,-11,1020,1
48151,349280,389654,-23,-9,1020,1
48073,349283,389631,-28,-9,1027,1
48090,349185,389504,-30,-2,1023,1
48001,349104,389593,-30,-8,1035,1
47697,348464,389172,-29,-10,1035,1
47559,348064,388962,-18,-10,1016,1
47306,347807,388741,-18,-5,1026,1
47271,347451,388576,-31,-9,1026,1
47121,347240,388439,-26,-9,1023,1
46870,346638,388066,-26,-2,1026,1
46735,346356,387871,-18,-5,1026,1
46636,346243,387877,-23,-3,1029,1
46633,345983,387777,-20,-3,1046,1
46565,345933,387790,-20,-1,1020,1
46448,345646,387697,-29,-9,1020,1
46428,345481,387660,-20,-9,1016,1
46446,345530,387697,-20,-2,1032,1
46499,345501,387692,-26,-3,1032,1
46480,345602,387722,-28,-3,1021,1
46470,345742,387910,-28,-9,1029,1
46513,345976,388008,-27,-8,1029,1
46623,346153,388235,-23,-5,1040,1
46731,346298,388344,-23,-5,1023,1
46751,346506,388490,-23,-7,1008,1
46746,346809,388701,-23,-3,1008,1
46934,346897,388794,-29,-3,1049,1
47004,347079,388869,-29,4,1021,1
46945,347199,388856,-25,-9,1021,1
47050,347326,389104,-23,-9,1020,1
47042,347499,389103,-33,0,1026,1
47092,347703,389118,-33,-12,1005,1
47158,347806,389223,-30,-7,1005,1
47150,347896,389374,-28,-7,1026,1
47213,348072,389429,-28,-2,1005,1
47300,348241,389540,-29,-6,1005,1
47291,348386,389698,-26,-6,1018,1
47392,348535,389741,-26,-3,1021,1
47391,348528,389853,-32,-10,1021,1
47456,348784,389993,-27,-10,1020,1
47414,348963,390154,-27,-15,1027,1
47470,348971,390057,-33,-9,1020,1
47565,349108,390134,-22,-3,1020,1
47595,349176,390270,-30,-3,1011,1
47662,349430,390297,-30,3,1017,1
47834,349591,390522,-27,0,1017,1
47689,349668,390571,-25,0,1014,1
47822,349862,390607,-25,0,1032,1
47816,349920,390648,-26,-7,1032,1
47888,349996,390740,-28,-3,1035,1
47933,350108,390963,-29,-3,1035,1
47935,350317,390948,-29,-7,1030,1
48019,350346,391043,-27,-4,1030,1
48131,350365,391107,-26,-4,1004,1
48195,350458,391189,-26,-10,1044,1
48153,350580,391246,-30,-5,1018,1
48138,350746,391340,-20,-5,1018,1
48296,350850,391357,-18,-1,1035,1
48283,350922,391423,-18,-3,1049,1
48336,351101,391441,-27,0,1049,1
48351,351174,391729,-26,0,1014,1
48418,351300,391756,-26,-3,1027,1
48387,351238,391631,-22,-10,1027,1
48418,351215,391594,-24,-10,1020,1
48257,351039,391573,-24,-5,1029,1
48163,350882,391213,-24,-6,1029,1
47855,350192,391095,-28,-7,1018,1
47804,349873,390902,-28,-7,1024,1
47635,349676,390786,-24,-2,1018,1
47469,349328,390582,-23,-5,1018,1
47361,349228,390402,-21,-5,1029,1
47202,348616,390147,-21,-3,1032,1
47098,348465,390103,-30,-4,1032,1
47152,348413,390060,-30,-1,1027,1
47090,348285,390025,-30,-1,1037,1
47021,348230,390049,-22,2,1037,1
46948,348171,390025,-25,0,1034,1
46999,348155,390111,-21,0,1011,1
46968,348175,390068,-21,-3,1010,1
46976,348301,390231,-25,-6,1010,1
47027,348416,390436,-27,-6,1014,1
47104,348708,390552,-27,-1,1020,1
47291,348881,390647,-27,-5,1020,1
47246,349036,390821,-23,-5,1030,1
47334,349292,390889,-27,-2,1017,1
47472,349633,391108,-27,0,1038,1
47459,349720,391274,-27,-11,1038,1
47509,349852,391333,-29,-11,1013,1
47543,350005,391469,-29,-4,1027,1
47561,350022,391470,-29,-6,1027,1
47682,350276,391601,-23,-6,1033,1
47741,350415,391670,-23,-12,1040,1
47832,350605,391796,-31,-2,1040,1
47852,350585,391870,-22,-2,1018,1
47873,350777,391917,-19,-7,1033,1
47840,350984,392099,-19,-4,1035,1
47987,351290,392296,-24,-2,1035,1
48033,351404,392371,-32,-2,1020,1
48103,351545,392465,-32,-6,1023,1
48162,351711,392515,-25,-2,1023,1
48212,351886,392819,-33,-2,1040,1
48091,352120,392879,-27,-9,1026,1
48361,352218,392898,-27,-2,1026,1
48379,352359,392969,-21,-9,1016,1
48390,352538,393048,-22,-9,1008,1
48498,352730,393185,-22,-3,1040,1
48580,352869,393408,-27,-3,1040,1
48599,352975,393406,-18,-3,1040,1
48640,353122,393509,-18,0,1024,1
48706,353237,393507,-30,3,1024,1
48701,353452,393684,-22,-11,1027,1
48802,353587,393719,-22,-11,1014,1
48809,353548,393830,-23,-3,1035,1
48838,353711,393820,-28,-1,1035,1
48935,353846,393917,-22,-1,1016,1
48931,353932,393992,-22,-3,1030,1
48857,354115,394221,-28,-7,1030,1
49077,354196,394164,-28,-7,1044,1
49094,354291,394277,-28,-6,1040,1
49127,354264,394206,-22,-1,1040,1
49127,354348,394353,-21,-1,1033,1
49170,354385,394170,-27,-3,1017,1
48885,353855,394078,-27,-9,1016,1
48766,353662,394030,-26,-10,1016,1
48614,353402,393839,-24,-10,1029,1
48431,353094,393622,-24,-11,1029,1
48417,352784,393390,-27,-7,1029,1
48008,352196,393239,-23,-7,1017,1
48013,351989,393105,-23,-6,1035,1
47884,351744,392996,-28,-9,1035,1
47745,351596,392868,-27,-9,1035,1
47792,351481,392763,-26,-1,1020,1
47648,351294,392753,-26,-11,1018,1
47691,351318,392751,-27,-5,1018,1
47668,351172,392840,-28,-5,1035,1
47577,351172,392857,-28,-3,1013,1
47621,351279,392901,-30,3,1013,1
47777,351399,393013,-21,3,1027,1
47747,351570,393126,-21,-12,1043,1
47857,351822,393290,-29,-3,1017,1
47951,351950,393371,-27,-3,1017,1
47970,352256,393701,-25,-3,1033,1
48033,352411,393759,-25,-5,1043,1
48114,352515,393862,-28,0,1043,1
48186,352756,393928,-25,0,1029,1
48135,352801,393916,-25,-2,1043,1
48198,352947,394056,-28,0,1034,1
48222,353054,394208,-20,0,1034,1
48363,353103,394241,-20,1,1035,1
48358,353224,394226,-18,-4,1046,1
48333,353400,394430,-26,-5,1046,1
48437,353540,394587,-30,-5,1014,1
48493,353717,394568,-30,-11,1020,1
48571,353835,394713,-28,-7,1020,1
48615,353942,394819,-23,-7,1024,1
48716,354035,394942,-25,-3,1017,1
48694,354204,394984,-25,-9,1017,1
48798,354427,395188,-33,-3,1029,1
48857,354550,395187,-28,-3,1027,1
48893,354684,395210,-28,-5,999,1
48999,354748,395404,-25,-5,999,1
48977,354903,395579,-25,-5,1017,1
49075,355049,395566,-25,-3,1016,1
49073,355121,395613,-32,-3,1016,1
49101,355238,395603,-27,-9,1017,1
49191,355392,395709,-27,-9,1020,1
49284,355594,395924,-30,-2,1018,1
49325,355665,396020,-30,-4,1018,1
49303,355701,396058,-32,-4,1017,1
49305,355771,396090,-32,-9,1030,1
49369,355831,396134,-27,-6,1030,1
49461,355904,396265,-23,-6,1023,1
49479,356103,396271,-23,-2,1035,1
49606,356065,396354,-23,-1,1035,1
49540,356179,396386,-29,-1,1013,1
49592,356295,396486,-25,-5,1030,1
49618,356384,396532,-25,-3,1011,1
49694,356237,396492,-27,0,1011,1
49521,356142,396453,-26,0,1050,1
49489,355901,396304,-26,-2,1037,1
49223,355611,396178,-32,-9,1037,1
49118,355333,395995,-30,-9,1033,1
49060,354655,395611,-30,-4,1035,1
48665,354265,395394,-30,-2,1035,1
48561,353997,395198,-23,-5,1027,1
48423,353741,395035,-28,-5,1040,1
48239,353567,395031,-28,-4,1030,1
48256,353013,394761,-34,-15,1030,1
48040,352811,394667,-32,-15,1032,1
47932,352721,394659,-32,-6,1050,1
47886,352519,394601,-24,-1,1050,1
47872,352487,394583,-18,-1,1049,1
47721,352357,394534,-18,-1,1024,1
47811,352422,394519,-18,-8,1032,1
47839,352402,394631,-29,-5,1032,1
47907,352541,394771,-22,-5,1035,1
47870,352642,394843,-22,-7,1038,1
47968,352928,395056,-21,-5,1038,1
48085,353117,395102,-27,-5,1049,1
48072,353267,395211,-24,-5,1024,1
48179,353451,395378,-24,-8,1024,1
48225,353576,395506,-22,0,1023,1
48270,353782,395579,-27,0,1029,1
48340,353864,395582,-27,-7,1005,1
48311,353883,395670,-21,-12,1005,1
48395,353940,395748,-27,-12,1030,1
48432,354069,395782,-27,-8,1008,1
48417,354217,395853,-24,-5,1008,1
48544,354397,395945,-27,-12,1020,1
48523,354515,396032,-27,-12,1011,1
48573,354564,396149,-16,-9,1038,1
48603,354706,396204,-25,-12,1038,1
48633,354811,396321,-16,-12,1027,1
48739,355006,396410,-16,-1,1017,1
48823,355116,396526,-33,-8,1017,1
48931,355246,396611,-23,-8,1033,1
48847,355344,396643,-23,-10,1033,1
48904,355587,396812,-26,-3,1033,1
48956,355596,396885,-24,-3,1037,1
48988,355708,396903,-30,2,1037,1
49026,355789,396920,-30,-7,1010,1
49039,355763,396981,-24,-5,1010,1
48878,356005,397034,-31,-5,1026,1
49155,356096,397192,-31,-4,1017,1
49153,356188,397247,-21,-9,1017,1
49168,356256,397303,-27,6,1016,1
49197,356231,397345,-27,6,1017,1
49281,356529,397433,-28,-3,1017,1
49322,356517,397495,-30,-3,1024,1
49271,356490,397438,-27,-3,1044,1
49321,356564,397604,-27,-9,1030,1
49418,356677,397503,-28,-9,1030,1
49456,356851,397789,-31,-9,1018,1
49521,356852,397727,-31,-1,1011,1
49557,356911,397815,-24,1,1011,1
49476,356814,397707,-22,-7,1035,1
49369,356705,397685,-22,-7,1010,1
49327,356493,397800,-28,-12,1020,1
49032,355951,397318,-27,-4,1020,1
48846,355563,397032,-23,-4,1024,1
48658,355117,396809,-23,-7,1020,1
48540,354743,396656,-30,-3,1020,1
48436,354572,396618,-19,-3,1035,1
48133,353819,396132,-19,3,1020,1
48056,353626,396003,-27,-8,1020,1
47940,353345,395949,-29,-8,1026,1
47919,353138,395836,-27,-3,1014,1
47765,353093,395859,-27,-11,1035,1
47561,352637,395617,-21,0,1035,1
47646,352672,395631,-23,0,1021,1
47572,352613,395602,-23,-6,1030,1
47628,352516,395586,-24,-2,1030,1
47519,352586,395582,-22,-2,1032,1
47653,352785,395723,-30,2,1020,1
47738,352781,395926,-30,3,1020,1
47777,353075,396005,-27,-3,1030,1
47852,353238,396105,-18,-3,1033,1
47911,353462,396284,-18,-3,1032,1
47916,353683,396434,-28,-13,1032,1
48109,353893,396579,-22,-13,1007,1
48032,353963,396500,-22,-9,1023,1
48097,354088,396687,-15,-3,1021,1
48107,354232,396898,-24,-3,1021,1
48138,354424,396939,-31,-8,1018,1
48195,354474,396973,-31,-3,1024,1
48300,354602,396991,-30,-9,1024,1
48291,354671,397102,-27,-9,1032,1
48376,354868,397218,-27,-2,1032,1
48299,354991,397247,-30,-5,1032,1
48517,355088,397306,-23,-5,1021,1
48537,355193,397413,-23,-3,1017,1
48583,355218,397502,-25,1,1040,1
48603,355298,397568,-28,1,1040,1
48543,355551,397654,-26,-6,1030,1
48696,355672,397761,-26,-9,1020,1
48782,355719,397817,-30,1,1020,1
48861,355765,397924,-27,1,1015,1
48788,355850,397943,-27,-10,1016,1
48893,356072,398013,-26,-2,1016,1
48928,356045,398062,-34,-2,1017,1
48911,356137,398106,-34,-2,1021,1
48962,356203,398201,-30,-9,1014,1
49073,356409,398315,-33,-9,1014,1
49025,356403,398344,-25,-11,1032,1
49079,356529,398410,-25,-10,1027,1
49059,356577,398463,-32,-2,1027,1
49110,356683,398414,-25,-2,1021,1
49159,356702,398472,-25,1,1035,1
49200,356860,398654,-29,3,1035,1
49184,356873,398761,-22,3,1017,1
49269,356996,398808,-22,-9,1021,1
49291,357105,398803,-28,-8,1024,1
49329,357238,398901,-27,-10,1024,1
49434,357302,398915,-29,-10,1027,1
49323,357223,398896,-29,1,1032,1
49270,356984,398757,-21,-3,1032,1
49112,356710,398552,-22,-3,1011,1
48939,356419,398457,-22,-1,1027,1
48765,356237,398473,-21,2,1013,1
48455,355248,397873,-34,2,1013,1
48343,354948,397599,-34,-9,1021,1
48202,354592,397440,-23,-4,1016,1
48043,354386,397276,-30,0,1016,1
48005,354143,397175,-20,0,1008,1
47747,353573,396850,-20,-7,1027,1
47665,353319,396779,-36,-7,1027,1
47551,353178,396761,-24,-7,1017,1
47486,353050,396651,-21,0,1037,1
47465,353048,396696,-21,-11,1014,1
47419,352843,396694,-16,-11,1014,1
47491,352862,396655,-34,-5,1023,1
47382,352843,396649,-34,-2,1027,1
47513,352928,396746,-21,-1,1027,1
47459,353086,396954,-16,-1,1029,1
47591,353351,397062,-16,-6,1033,1
47646,353559,397215,-21,-5,1033,1
47734,353784,397288,-37,-5,1020,1
47792,353904,397389,-26,-7,1027,1
47831,354255,397735,-26,-3,1018,1
47872,354291,397662,-34,0,1018,1
47938,354441,397662,-26,0,1020,1
47946,354639,397771,-26,0,1035,1
47962,354631,397865,-23,-1,1035,1
47996,354918,398096,-21,-1,1035,1
48068,354924,398092,-21,-3,1032,1
48157,355020,398202,-25,2,1032,1
48139,355179,398353,-25,2,1021,1
48250,355314,398373,-27,4,1040,1
48239,355313,398530,-27,-5,1044,1
48283,355552,398635,-20,-9,1044,1
48349,355667,398640,-25,-9,1010,1
48377,355802,398750,-25,-9,1029,1
48495,355913,398942,-19,-7,1029,1
48505,356040,399012,-21,-7,1038,1
48481,356177,399048,-21,-7,1027,1
48571,356250,399080,-21,0,1027,1
48638,356350,399246,-27,0,1038,1
48603,356525,399267,-30,0,1020,1
48663,356517,399212,-30,-1,1030,1
48748,356715,399388,-26,-4,1030,1
48790,356752,399458,-25,-4,1013,1
48849,356865,399607,-25,-7,1014,1
48833,356846,399543,-20,-3,1014,1
48949,357003,399654,-31,-5,1004,1
48957,357190,399803,-31,-5,1018,1
48969,357166,399780,-22,-10,1018,1
48964,357224,399809,-23,-6,1023,1
49015,357328,399825,-27,-6,1016,1
48946,357401,399901,-27,-3,1032,1
48976,357572,400050,-14,-8,1032,1
49181,357607,400141,-27,-8,1035,1
49193,357668,400107,-27,-12,1027,1
49188,357713,400162,-22,0,1027,1
49165,357718,400104,-26,-7,1032,1
49152,357821,400065,-26,-7,1038,1
48960,357305,399946,-22,-10,1017,1
48771,356998,399738,-28,-8,1017,1
48616,356578,399526,-27,-8,1026,1
48497,356258,399297,-27,0,1040,1
48349,355966,398915,-28,-6,1040,1
48088,355158,398765,-33,-6,1023,1
47951,354969,398606,-33,-3,1016,1
47836,354706,398470,-25,-6,1016,1
47838,354490,398429,-22,0,1010,1
47697,354402,398263,-22,0,1034,1
47561,354094,398215,-30,-7,1026,1
47506,353953,398141,-21,0,1026,1
47477,353874,398160,-29,0,1017,1
47511,353859,398172,-29,-5,1033,1
47484,353820,398298,-26,-5,1033,1
47487,353900,398285,-32,-5,1047,1
47488,353972,398286,-28,0,1035,1
47565,354136,398470,-28,-5,1035,1
47641,354249,398522,-23,-1,1004,1
47698,354607,398777,-25,-1,1002,1
47795,354814,398888,-25,-2,1032,1
47929,354987,399033,-34,-4,1032,1
47909,355055,399091,-28,-4,1023,1
48003,355193,399188,-28,-4,1030,1
48071,355382,399297,-18,-4,1029,1
48044,355590,399378,-23,-4,1029,1
48114,355611,399382,-27,-3,1017,1
48225,355699,399505,-27,2,1035,1
48173,355813,399634,-33,-4,1035,1
48223,355997,399702,-33,-4,1030,1
48279,356117,399857,-33,4,1024,1
48365,356314,399920,-23,-8,1024,1
48357,356341,399993,-28,-8,1040,1
48447,356518,400065,-28,-3,1011,1
48497,356628,400269,-19,-7,1021,1
48588,356951,400304,-23,-7,1021,1
48595,356989,400390,-28,-2,1021,1
48619,357073,400548,-28,-7,1030,1
48717,357196,400636,-30,-7,1030,1
48760,357474,400742,-30,-7,1029,1
48774,357533,400749,-30,-6,1021,1
48794,357609,400913,-26,-8,1021,1
48843,357753,400940,-26,-8,1033,1
48920,357852,401062,-26,1,1023,1
48969,358118,401188,-23,-9,1026,1
49151,358148,401319,-33,-9,1026,1
49074,358202,401370,-19,8,1030,1
49090,358329,401457,-19,-4,1035,1
49227,358370,401503,-30,-8,1035,1
49216,358500,401613,-21,-8,1016,1
49230,358621,401666,-21,0,1010,1
49306,358643,401681,-31,-7,1010,1
49348,358737,401704,-20,-7,1030,1
49312,358852,401693,-20,-11,1017,1
49396,358924,401885,-24,-5,1024,1
49390,359015,401931,-32,-3,1024,1
49457,359073,401945,-28,-3,1008,1
49427,358995,401886,-28,3,1008,1
49401,358945,401947,-19,-3,1008,1
49410,358775,401861,-26,-3,1032,1
49288,358274,401604,-26,-1,1029,1
48947,357979,401441,-27,0,1029,1
48800,357688,401096,-24,0,1018,1
48603,357306,400892,-24,0,1026,1
48539,357086,400894,-22,-8,1027,1
48469,356572,400594,-19,-2,1027,1
48252,356328,400474,-19,-2,1008,1
48103,356187,400412,-19,-2,1018,1
48080,356105,400410,-29,-2,1018,1
47987,356000,400347,-20,-2,1027,1
48034,355865,400275,-23,-9,1016,1
47982,355894,400309,-23,7,1011,1
47994,355894,400409,-27,7,1011,1
48063,355865,400343,-22,-9,1017,1
48033,355985,400509,-22,0,1038,1
48152,356362,400756,-24,-4,1038,1
48257,356420,400881,-20,-4,1023,1
48333,356703,401069,-20,-9,1046,1
48366,356886,401163,-25,-3,1046,1
48381,357127,401280,-31,-3,1037,1
48512,357198,401467,-31,-3,1035,1
48552,357508,401601,-27,-9,1013,1
48582,357696,401692,-20,-8,1013,1
48574,357704,401704,-27,-8,1026,1
48666,357827,401870,-27,-3,1023,1
48747,358092,402107,-27,-6,1023,1
48822,358302,402210,-27,-6,1033,1
48794,358417,402302,-27,-9,1029,1
48877,358501,402293,-23,-11,1029,1
48872,358613,402351,-28,-3,1014,1
48884,358774,402610,-28,-3,1020,1
49000,359002,402632,-31,0,1034,1
49073,359152,402757,-30,-2,1034,1
49161,359345,402798,-25,-2,1007,1
49245,359565,402902,-25,-1,1046,1
49187,359798,403268,-29,2,1046,1
49356,360067,403372,-26,2,1032,1
49428,360134,403481,-26,-5,1040,1
49443,360366,403592,-19,-7,1040,1
49534,360434,403633,-26,-7,1007,1
49524,360686,403790,-26,-6,1016,1
49644,360877,403984,-23,-9,1030,1
49679,361047,404206,-18,-1,1030,1
49797,361205,404223,-19,-1,1026,1
49800,361324,404244,-19,-1,1014,1
49836,361483,404435,-36,-7,1014,1
49952,361573,404603,-27,-7,1017,1
49914,361673,404593,-27,3,1044,1
50003,361944,404715,-27,-9,1044,1
50063,362051,404796,-30,-6,1010,1
50124,362236,404880,-21,-6,1023,1
50170,362492,405053,-21,3,1030,1
50250,362468,405051,-22,-9,1030,1
50289,362549,405194,-17,-9,1029,1
50216,362614,405184,-17,-1,1026,1
50209,362687,405248,-18,-12,1010,1
50021,362307,404920,-24,-12,1010,1
49878,361975,404763,-24,0,1021,1
49725,361639,404583,-29,-3,1052,1
49574,361286,404357,-21,-7,1052,1
49483,361223,404354,-18,-7,1043,1
49246,360462,404010,-18,-2,1021,1
49160,360224,403863,-22,-3,1021,1
49088,360001,403691,-27,-3,1026,1
48938,359859,403709,-27,-8,1014,1
48933,359804,403718,-16,-2,1014,1
48774,359466,403551,-25,-1,1032,1
48820,359406,403569,-25,-1,1014,1
48789,359478,403607,-22,-1,1014,1
48757,359429,403528,-27,1,1014,1
48688,359399,403719,-17,1,1035,1
48757,359570,403711,-17,-11,1011,1
48779,359800,403904,-21,-6,1011,1
48909,359909,404001,-18,-6,1024,1
48949,360161,404109,-18,1,1017,1
49085,360518,404389,-27,2,1017,1
49184,360722,404569,-28,0,998,1
49250,360795,404565,-30,0,1015,1
49290,360924,404679,-30,-1,1026,1
49386,361020,404709,-28,-5,1026,1
49303,361206,404869,-29,-5,1059,1
49363,361311,404958,-29,-5,1027,1
49424,361438,405037,-15,3,1032,1
49447,361539,405147,-24,3,1032,1
49466,361714,405151,-25,1,1011,1
49466,361867,405298,-25,-5,1032,1
49477,362040,405447,-29,1,1032,1
49677,362145,405582,-30,1,1040,1
49779,362303,405656,-30,-1,1014,1
49763,362464,405695,-24,-3,1014,1
49834,362629,405797,-30,-3,1023,1
49894,362693,406039,-30,-6,1041,1
49956,362858,406003,-21,-9,1032,1
50020,362944,406056,-27,-9,1032,1
49996,363048,406111,-30,2,1035,1
50107,363255,406239,-30,3,1034,1
50127,363410,406414,-20,2,1034,1
50252,363550,406448,-17,2,1032,1
50198,363614,406402,-17,-4,1030,1
50306,363791,406602,-26,-1,1030,1
50379,363813,406627,-29,-1,1013,1
50417,364043,406907,-29,5,1020,1
50505,364120,406897,-26,-3,1020,1
50451,364195,406850,-31,-2,1024,1
50489,364301,407025,-25,-2,1016,1
50595,364315,407066,-25,-4,1026,1
50687,364472,407218,-29,-5,1026,1
50688,364651,407288,-31,-5,1010,1
50766,364719,407393,-31,-1,1027,1
50696,364703,407356,-18,2,1027,1
50760,364753,407413,-38,-2,1037,1
50751,364771,407291,-38,-2,1021,1
50564,364260,407148,-20,0,1024,1
50398,363892,406908,-21,-9,1024,1
50324,363494,406750,-32,-9,1040,1
50059,363098,406485,-32,0,1024,1
49775,362825,406339,-24,-3,1024,1
49534,361976,405853,-27,-3,1032,1
49450,361659,405710,-27,2,1020,1
49302,361285,405538,-22,-5,1020,1
49256,361036,405413,-22,-16,1016,1
49233,360977,405461,-22,-16,1021,1
49039,360582,405253,-33,0,1026,1
48977,360373,405172,-16,-8,1026,1
48889,360325,405108,-30,-8,1046,1
48879,360232,405139,-30,-9,1035,1
48886,360333,405109,-21,0,1035,1
48933,360241,405297,-23,0,1037,1
48932,360336,405412,-23,-3,1030,1
48916,360469,405412,-24,-1,1030,1
49011,360715,405359,-21,-5,1023,1
49109,360933,405832,-22,-5,1023,1
49169,361279,405958,-22,-8,1014,1
49300,361427,405961,-21,-2,1014,1
49350,361532,406096,-27,-2,1018,1
49298,361588,406139,-27,-6,1011,1
49383,361977,406477,-20,0,1021,1
49378,361946,406320,-30,0,1021,1
49427,362170,406521,-34,-2,1030,1
49477,362072,406560,-34,-4,1017,1
49496,362291,406558,-27,-3,1017,1
49613,362487,406705,-27,-3,1023,1
49709,362582,406831,-27,-9,1032,1
49712,362714,406947,-34,-5,1032,1
49746,362865,407050,-23,-5,1014,1
49820,363038,407060,-23,-9,1024,1
49826,363047,407222,-34,-9,1024,1
49871,363243,407272,-27,-9,1027,1
49977,363378,407484,-30,-3,1016,1
49998,363491,407513,-30,-9,1043,1
49973,363568,407611,-27,-1,1043,1
50053,363777,407739,-27,-1,1016,1
49990,363898,407737,-27,-1,1024,1
50200,363947,407855,-27,-9,1024,1
50263,363957,407844,-22,-9,1017,1
50342,364081,407936,-31,-2,1017,1
50364,364188,408052,-31,-3,1017,1
50421,364265,408089,-27,-8,1024,1
50388,364359,408143,-26,-8,1029,1
50400,364428,408197,-26,-9,1032,1
50444,364549,408293,-30,3,1032,1
50421,364712,408409,-30,3,1002,1
50517,364772,408542,-30,0,1023,1
50544,364783,408556,-30,-9,1026,1
50590,364929,408612,-30,-9,1026,1
50643,364930,408632,-18,0,1011,1
50619,364981,408642,-18,3,1024,1
50626,364849,408607,-25,-4,1024,1
50552,364625,408384,-27,-4,1032,1
50413,364375,408278,-27,-9,1017,1
50242,363987,408074,-19,-4,1017,1
50064,363620,407824,-33,-4,1030,1
49944,363431,407453,-33,-3,1029,1
49598,362439,407234,-26,-6,1029,1
49424,362074,407045,-31,-3,1013,1
49300,361851,406887,-31,-3,1023,1
49271,361637,406789,-25,-4,1026,1
49157,361396,406613,-27,-8,1026,1
48929,361008,406524,-19,-8,1035,1
48960,360948,406480,-19,-1,1033,1
48856,360824,406487,-20,0,1033,1
48854,360753,406388,-22,-8,1044,1
48796,360826,406399,-22,-8,1005,1
48807,360670,406438,-26,-7,1005,1
48841,360758,406532,-21,-13,1037,1
48872,360778,406550,-26,-13,1024,1
48824,360925,406678,-26,-3,1030,1
48946,361134,406892,-24,4,1030,1
49056,361555,407049,-27,4,1023,1
49127,361794,407097,-27,-4,1024,1
49264,361913,407279,-27,-3,1024,1
49246,362098,407436,-28,-3,1018,1
49308,362368,407568,-26,-9,1017,1
49340,362433,407621,-26,-3,1018,1
49368,362572,407641,-21,-10,1018,1
49413,362591,407728,-26,-10,1017,1
49511,362678,407799,-26,-2,1021,1
49486,362926,407967,-25,6,1021,1
49612,363034,408047,-27,6,1013,1
49642,363179,408160,-27,-4,1026,1
49713,363367,408294,-21,-8,1026,1
49774,363411,408328,-24,-8,1024,1
49828,363649,408530,-27,-3,1035,1
49831,363658,408549,-27,-3,1041,1
49902,363781,408581,-26,2,1041,1
49896,363958,408646,-21,2,1041,1
49969,364005,408712,-21,-7,1035,1
50058,364243,408844,-30,-4,1035,1
50174,364366,409044,-20,1,1037,1
50125,364448,409092,-20,1,1032,1
50229,364541,409136,-30,-6,1032,1
50171,364594,409194,-32,-5,1021,1
50253,364671,409363,-15,-5,1035,1
50283,364787,409369,-15,-3,1024,1
50312,364836,409295,-28,-3,1024,1
50343,365014,409457,-25,-3,1041,1
50402,365058,409426,-25,-4,1017,1
50439,365263,409656,-22,-7,1017,1
50557,365306,409620,-22,1,1024,1
50621,365325,409700,-22,1,1047,1
50579,365466,409660,-28,2,1017,1
50594,365547,409845,-24,-9,1017,1
50701,365681,409798,-27,-9,1043,1
50655,365697,409943,-27,-1,1026,1
50676,365654,409944,-21,-2,1026,1
50654,365503,409843,-29,-2,1016,1
50595,365404,409818,-29,-3,1024,1
50433,365211,409799,-16,-3,1024,1
50131,364450,409318,-20,-3,1024,1
50025,364083,409018,-18,-4,1016,1
49861,363578,408747,-18,-1,1027,1
49629,363220,408575,-27,-1,1027,1
49482,362966,408306,-29,-1,1026,1
49398,362176,408041,-29,-2,1011,1
49205,362035,407862,-27,-4,1011,1
49018,361747,407771,-19,-4,1011,1
49068,361508,407682,-19,-6,1033,1
48938,361407,407698,-24,6,1040,1
48942,361067,407554,-25,-3,1040,1
48821,360986,407513,-25,-3,1026,1
48830,360998,407555,-25,6,1018,1
48786,360959,407510,-21,-1,1018,1
48772,361013,407630,-21,-1,1035,1
48726,361162,407711,-21,-1,1018,1
48852,361254,407768,-25,0,1032,1
48896,361479,407905,-23,0,1032,1
48975,361626,408041,-24,-6,1026,1
49108,361931,408298,-24,-3,1023,1
49105,362284,408443,-25,-5,1023,1
49248,362392,408579,-15,-5,1040,1
49299,362557,408650,-15,2,1040,1
49339,362707,408669,-27,-4,1040,1
49386,362827,408847,-25,-4,1035,1
49422,363169,409003,-25,3,1021,1
49433,363260,409113,-21,-3,1021,1
49529,363300,409132,-21,-3,1035,1
49560,363427,409129,-31,-3,1029,1
49602,363563,409192,-31,2,1024,1
49656,363636,409428,-21,-5,1024,1
49734,363886,409559,-29,-5,1021,1
49750,364008,409633,-29,1,1015,1
49853,364119,409764,-25,-7,1014,1
49859,364212,409681,-30,-7,1014,1
49812,364495,409948,-30,-3,1027,1
50032,364689,410042,-25,-2,1027,1
50132,364773,410162,-27,2,1027,1
50081,364886,410219,-31,2,1032,1
50122,364936,410329,-31,-2,1018,1
50222,365169,410475,-23,0,1018,1
50233,365283,410449,-26,0,1032,1
50238,365380,410517,-26,0,1029,1
50394,365432,410610,-22,1,1029,1
50317,365506,410690,-27,1,1021,1
50386,365809,410813,-27,-5,1030,1
50512,365623,410827,-27,1,1043,1
50547,365756,410918,-30,-9,1043,1
50562,365839,410904,-20,-9,1014,1
50621,365948,411072,-20,-2,1023,1
50639,366154,411245,-24,5,1023,1
50669,366217,411172,-21,0,1037,1
50696,366324,411236,-28,0,1024,1
50738,366314,411344,-28,-6,1024,1
50739,366491,411387,-23,-2,1035,1
50732,366456,411462,-31,-2,1033,1
50585,366072,411151,-31,-4,1052,1
50519,365894,411026,-27,0,1052,1
50379,365572,410838,-27,0,1026,1
50252,365111,410629,-27,-6,1018,1
50073,364830,410483,-36,0,1010,1
49797,364075,410055,-33,0,1010,1
49709,363624,409685,-15,2,1027,1
49478,363392,409611,-15,-3,1030,1
49484,363198,409521,-26,-1,1030,1
49329,363100,409475,-28,-1,1037,1
49178,362538,409234,-28,-6,1027,1
49095,362367,409185,-22,-12,1027,1
49114,362333,409151,-21,-12,1046,1
49034,362197,409092,-21,0,1027,1
49016,362290,409165,-21,-3,1027,1
49017,362110,409077,-23,-3,1021,1
49003,362069,409070,-21,-3,1013,1
49067,362230,409111,-21,3,1029,1
49046,362342,409213,-20,0,1029,1
49071,362610,409399,-27,0,1018,1
49255,362871,409664,-27,-4,1024,1
49370,363143,409783,-28,-5,1024,1
49457,363385,409880,-30,-5,1020,1
49522,363486,410030,-30,-3,1026,1
49492,363728,410091,-22,-3,1021,1
49527,363906,410282,-30,-3,1021,1
49608,363955,410350,-23,0,1018,1
49708,364212,410399,-23,-3,1014,1
49632,364136,410518,-30,-1,1014,1
49791,364437,410634,-25,-1,1017,1
49832,364509,410749,-25,-7,1004,1
49917,364712,410891,-21,-3,1004,1
49909,364870,410934,-31,-3,1011,1
50004,364946,411006,-31,-10,1032,1
50075,365143,411147,-21,-1,1024,1
50134,365377,411267,-20,-9,1024,1
50185,365457,411413,-30,-9,1024,1
50223,365569,411417,-30,-3,1020,1
50318,365702,411520,-24,-1,1020,1
50297,365845,411691,-23,-1,1017,1
50255,366095,411807,-23,2,1017,1
50474,366120,411797,-22,-3,1021,1
50467,366281,411811,-22,-3,1021,1
50523,366331,412042,-22,-7,1032,1
50476,366525,412002,-22,-6,1027,1
50649,366630,412164,-21,-2,1027,1
50677,366821,412175,-26,-2,1027,1
50738,366831,412251,-26,0,1037,1
50775,366907,412271,-20,2,1037,1
50808,366973,412380,-31,2,1020,1
50815,367162,412466,-31,-5,1004,1
50849,367130,412543,-20,6,1004,1
50870,367232,412518,-30,6,1032,1
50985,367343,412645,-22,6,1004,1
51002,367427,412687,-22,-3,1010,1
51051,367671,412794,-15,-5,1010,1
51056,367618,412802,-27,-5,1041,1
51018,367565,412822,-27,-6,1033,1
51031,367587,412736,-27,-1,1033,1
50976,367446,412687,-25,-1,1017,1
50756,367328,412401,-25,-9,1021,1
50565,366560,412158,-32,-5,1021,1
50361,366175,412001,-18,3,1021,1
50227,365803,411725,-25,3,1029,1
50159,365356,411516,-25,0,1017,1
50007,365148,411262,-27,2,1017,1
49777,364546,411024,-21,2,1035,1
49700,364265,410942,-21,1,1035,1
49649,364097,410838,-33,-2,1035,1
49590,363991,410753,-27,-2,1027,1
49479,363939,410859,-27,-8,1021,1
49449,363642,410721,-23,0,1029,1
49428,363647,410713,-27,3,1029,1
49421,363712,410801,-27,3,1010,1
49482,363636,410732,-27,-8,1002,1
49461,363881,410875,-22,-3,1002,1
49509,364143,411091,-15,-3,1023,1
49666,364323,411180,-15,-7,1037,1
49689,364561,411473,-29,-1,1037,1
49817,364855,411576,-25,-1,1010,1
49870,365110,411749,-26,-4,1029,1
49995,365391,411946,-26,3,1015,1
50031,365641,412008,-31,-9,1015,1
50051,365719,412133,-29,-9,1008,1
50101,365828,412181,-29,-1,1035,1
50143,365996,412389,-26,-3,1035,1
50212,366237,412507,-18,-5,1026,1
50362,366277,412565,-18,-5,1020,1
50247,366491,412640,-22,-5,1020,1
50396,366656,412739,-28,0,1053,1
50453,366917,412973,-25,0,1034,1
50488,366971,413024,-25,-1,1021,1
50632,367141,413111,-18,1,1021,1
50628,367317,413322,-30,1,1032,1
50711,367514,413487,-30,-5,1021,1
50768,367660,413454,-27,-2,1021,1
50851,367956,413606,-32,6,1035,1
50904,368032,413708,-32,6,1035,1
50970,368118,413816,-19,0,1034,1
50923,368091,413898,-30,-3,1034,1
50988,368388,414047,-25,-3,1018,1
51071,368543,414092,-25,2,1008,1
51112,368688,414158,-33,-2,1008,1
51155,368744,414195,-22,-2,1020,1
51158,368866,414291,-22,-5,1020,1
51197,369116,414545,-20,2,1020,1
51231,369234,414577,-27,2,1023,1
51398,369275,414624,-22,5,1035,1
51463,369343,414725,-22,2,1014,1
51454,369438,414692,-21,0,1014,1
51501,369624,414848,-30,0,1027,1
51590,369825,414973,-30,-9,1030,1
51600,369998,415032,-29,5,1030,1
51625,370018,415096,-29,5,1023,1
51626,370137,415204,-29,1,1023,1
51648,370178,415152,-21,-7,1023,1
51611,369773,414998,-32,-8,1026,1
51351,369519,414806,-26,-8,1032,1
51204,369228,414636,-26,-12,1013,1
51086,368864,414346,-22,3,1013,1
50833,368532,414203,-21,3,1041,1
50632,367711,413785,-21,-3,1014,1
50499,367425,413517,-25,-1,1014,1
50473,367165,413473,-30,-1,1030,1
50342,367026,413407,-30,0,1029,1
50269,366874,413268,-23,-3,1032,1
50259,366558,413128,-21,-12,1032,1
50059,366439,413111,-31,-12,1030,1
50058,366492,413144,-31,-3,1027,1
50063,366406,413114,-21,0,1027,1
50000,366432,413210,-29,0,1017,1
50113,366670,413434,-31,-3,1005,1
50187,366705,413458,-31,-5,1021,1
50209,366920,413568,-32,-5,1021,1
50291,367113,413762,-31,-3,1030,1
50352,367355,413914,-31,2,1013,1
50450,367634,414161,-33,-8,1013,1
50571,367906,414323,-23,-8,1021,1
50621,368141,414381,-23,-9,1017,1
50699,368266,414521,-20,-4,1017,1
50736,368396,414584,-19,-4,1033,1
50720,368544,414746,-19,4,1037,1
50835,368796,414784,-21,0,1029,1
50889,368841,414904,-27,4,1029,1
50928,369069,414985,-24,4,1032,1
50907,369132,414955,-24,-2,1027,1
50931,369452,415338,-22,-5,1027,1
51070,369611,415289,-18,-5,1038,1
51115,369754,415503,-18,2,1027,1
51204,369890,415632,-27,-9,1027,1
51173,370030,415647,-22,-4,1029,1
51221,370344,415873,-22,-4,1035,1
51466,370415,415962,-27,3,1030,1
51489,370559,416019,-19,0,1030,1
51449,370600,416037,-27,0,1032,1
51522,370893,416192,-27,0,1040,1
51671,371018,416430,-27,-2,1040,1
51686,371086,416418,-24,-2,1020,1
51708,371344,416523,-24,-11,1017,1
51738,371377,416600,-25,3,1017,1
51828,371525,416722,-23,0,1035,1
51791,371673,416692,-20,0,1027,1
51962,371669,416799,-20,-5,1010,1
51957,371719,416890,-23,-2,1010,1
52036,371980,416970,-20,-2,1035,1
52057,372016,417003,-20,2,1007,1
52102,372233,417172,-25,-6,1007,1
52205,372351,417237,-26,-6,1020,1
52158,372476,417339,-26,-12,1049,1
52225,372627,417400,-29,-8,1023,1
52234,372682,417411,-21,-5,1023,1
52283,372955,417652,-33,-5,1035,1
52211,372564,417360,-33,0,1032,1
52099,372269,417243,-22,6,1032,1
51904,371985,416975,-29,6,1008,1
51786,371542,416758,-29,-2,1029,1
51565,371288,416560,-21,3,1029,1
51282,370431,416095,-18,-5,1024,1
51141,370021,415903,-18,-5,1027,1
51017,369614,415664,-18,-5,1017,1
50956,369320,415558,-20,-4,1017,1
50826,369100,415431,-23,-4,1023,1
50693,368728,415238,-23,-3,1017,1
50672,368535,415123,-25,0,1017,1
50550,368317,415123,-26,0,1027,1
50498,368304,414978,-26,-1,1035,1
50427,368292,415101,-29,-12,1035,1
50314,368137,414930,-33,-4,1030,1
50464,368182,415037,-15,-4,1035,1
50465,368234,415199,-15,0,1005,1
50530,368453,415363,-25,-5,1005,1
50636,368647,415440,-29,-5,1023,1
50792,369041,415729,-29,-1,1010,1
50857,369225,415925,-26,-11,1010,1
50944,369432,416021,-27,-11,1035,1
50953,369599,416161,-27,-4,1027,1
50997,369808,416346,-29,-1,1037,1
51036,370013,416412,-25,-10,1037,1
51092,370160,416512,-25,-10,1021,1
51226,370320,416509,-25,-2,1018,1
51162,370407,416624,-26,-13,1018,1
51266,370540,416772,-25,-13,1024,1
51280,370747,416911,-25,-9,1027,1
51423,370860,416971,-25,-4,1027,1
51449,371032,417167,-27,-4,1037,1
51452,371056,417180,-30,-3,1013,1
51545,371333,417187,-30,-5,1002,1
51679,371571,417522,-21,-8,1002,1
51731,371594,417553,-21,-8,1024,1
51734,371684,417631,-21,-1,1035,1
51748,371829,417607,-27,-4,1035,1
51848,372003,417705,-30,-4,1018,1
51918,372141,417835,-28,-2,1021,1
51955,372255,417908,-28,2,1021,1
51930,372278,417948,-22,-4,1017,1
51973,372372,418066,-30,-4,1010,1
52064,372464,418203,-30,-8,1024,1
52115,372578,418202,-25,-8,1024,1
52168,372800,418263,-24,-8,1020,1
52192,372760,418367,-24,-12,1032,1
52314,372935,418447,-24,-4,1032,1
52351,373021,418566,-21,-4,1004,1
52293,373091,418624,-21,-2,1023,1
52378,373220,418744,-21,0,1029,1
52418,373307,418722,-20,-9,1029,1
52494,373270,418788,-27,-9,1017,1
52475,373409,418785,-27,-8,1037,1
52520,373623,418939,-15,-2,1037,1
52506,373518,418903,-32,-2,1033,1
52560,373359,418850,-18,1,1026,1
52441,373246,418697,-18,2,1026,1
52279,372900,418552,-21,2,1044,1
52047,372636,418378,-27,-2,1026,1
51716,371572,417781,-27,-8,1027,1
51520,371104,417478,-26,-4,1027,1
51373,370686,417197,-24,-4,1014,1
51300,370243,416974,-24,3,1032,1
51134,369951,416859,-19,-6,1032,1
50917,369341,416499,-30,-4,1023,1
50756,369065,416445,-30,-4,1024,1
50797,368951,416407,-25,-7,1035,1
50727,368833,416319,-21,0,1035,1
50638,368778,416333,-29,0,1023,1
50692,368472,416168,-29,-3,1029,1
50580,368328,416071,-26,-5,1029,1
50571,368397,416150,-28,-5,1014,1
50545,368445,416206,-28,-3,1024,1
50637,368636,416496,-24,-3,1024,1
50680,368883,416493,-27,-9,1033,1
50814,369174,416786,-27,-9,1035,1
50893,369432,416877,-30,-7,1014,1
50958,369577,417100,-33,0,1014,1
51024,369836,417222,-36,0,1034,1
51183,370055,417303,-36,2,1043,1
51206,370213,417427,-22,-9,1043,1
51194,370385,417493,-27,-9,1027,1
51310,370465,417513,-27,-2,1002,1
51242,370638,417673,-30,-7,1002,1
51376,370748,417766,-18,-6,1027,1
51418,370846,417739,-18,-6,1026,1
51424,371012,417890,-27,-6,1044,1
51439,371146,418027,-32,-2,1044,1
51559,371259,418069,-25,-2,1014,1
51621,371548,418264,-25,0,1029,1
51638,371559,418281,-27,-6,1029,1
51675,371724,418413,-25,-6,1040,1
51731,371782,418381,-24,-6,1011,1
51806,371939,418580,-24,0,1011,1
51794,372120,418687,-24,-6,1034,1
51832,372210,418701,-20,-6,1027,1
51985,372283,418764,-20,3,1021,1
51999,372360,418912,-22,1,1021,1
52004,372487,418907,-23,1,1017,1
52059,372625,419042,-23,5,1037,1
52116,372698,419120,-22,1,1034,1
52239,372838,419152,-18,1,1034,1
52226,372822,419174,-18,1,1030,1
52215,373023,419336,-22,0,1023,1
52233,373079,419400,-23,-3,1023,1
52356,373158,419485,-20,-3,1018,1
52463,373254,419439,-20,-6,1037,1
52373,373304,419567,-31,-3,1037,1
52501,373414,419558,-22,-3,1030,1
52498,373522,419694,-22,-4,1037,1
52567,373588,419663,-26,-1,1037,1
52608,373554,419619,-28,1,1024,1
52600,373585,419633,-28,1,1034,1
52554,373539,419635,-20,-1,1026,1
52497,373492,419421,-23,0,1026,1
52246,372775,419162,-24,0,1034,1
52032,372385,418897,-24,-3,1024,1
51849,371946,418698,-21,2,1024,1
51700,371460,418420,-18,2,1023,1
51494,371048,417948,-18,2,1032,1
51225,370147,417767,-24,-1,1032,1
51137,369889,417554,-29,-4,1033,1
51064,369643,417356,-21,-4,1004,1
50891,369375,417239,-21,6,1029,1
50851,369305,417050,-26,0,1029,1
50756,368962,417058,-22,0,1004,1
50658,368751,416911,-22,6,1024,1
50564,368679,416925,-20,-5,1024,1
50511,368629,416947,-21,-5,1037,1
50489,368674,416982,-27,-2,999,1
50578,368667,416988,-27,-9,999,1
50594,368746,417027,-22,1,1018,1
50642,368858,417145,-18,1,1013,1
50756,369025,417333,-18,-15,1040,1
50800,369398,417662,-20,-5,1040,1
50948,369718,417769,-21,-5,1057,1
50952,369857,417908,-21,3,1017,1
51079,370022,417983,-28,0,1032,1
51166,370311,418128,-31,0,1032,1
51165,370471,418222,-31,4,1020,1
51222,370582,418364,-20,-4,1018,1
51380,370725,418415,-17,-9,1018,1
51283,370782,418463,-24,-9,1043,1
51390,370965,418563,-24,1,1018,1
51359,371073,418652,-18,-5,1018,1
51468,371345,418790,-22,-5,1038,1
51516,371315,418899,-22,-6,1029,1
51633,371514,418928,-27,6,1018,1
51659,371629,419030,-30,6,1018,1
51684,371758,419193,-21,-2,1016,1
51771,371967,419321,-21,-4,1052,1
51854,372208,419445,-25,3,1052,1
51911,372171,419490,-27,3,1034,1
51951,372326,419466,-27,-6,1029,1
51956,372545,419792,-25,-5,1029,1
52072,372692,419747,-29,5,1033,1
52079,372718,419834,-29,5,1032,1
52103,372773,419814,-23,4,1032,1
52110,372883,419902,-27,-7,1032,1
52203,373108,419935,-27,-7,1035,1
52318,373130,420134,-27,3,1027,1
52302,373223,420006,-21,-4,1027,1
52328,373240,420241,-33,-4,1013,1
52302,373372,420158,-33,-5,1040,1
52391,373457,420329,-21,-3,1040,1
52424,373471,420339,-18,-3,1032,1
52455,373451,420441,-18,5,1024,1
52488,373624,420441,-22,-8,1046,1
52476,373647,420537,-28,0,1046,1
52528,373794,420564,-26,0,1021,1
52545,373946,420679,-26,-10,1018,1
52657,373915,420679,-25,-3,1018,1
52603,373955,420678,-21,-3,1030,1
52634,373785,420599,-21,-4,1023,1
52523,373730,420583,-26,-1,1023,1
52520,373090,420202,-31,0,1017,1
52031,372664,419911,-22,0,1032,1
51985,372199,419643,-22,-6,1010,1
51769,371772,419415,-30,-5,1010,1
51639,371447,419231,-24,-5,1029,1
51548,370777,418797,-24,-5,1016,1
51257,370390,418655,-22,3,1010,1
51122,370141,418566,-26,3,1010,1
51080,369957,418390,-24,-6,1024,1
50941,369915,418328,-24,-6,1010,1
50807,369500,418157,-21,1,1010,1
50798,369303,418164,-28,1,1047,1
50779,369295,418185,-28,-3,1020,1
50795,369267,418117,-17,-3,1020,1
50753,369290,418106,-23,-3,1021,1
50739,369421,418307,-23,-3,1021,1
50792,369507,418363,-27,0,1021,1
50929,369728,418529,-27,-10,1013,1
50972,369898,418616,-27,-10,1024,1
51113,370201,418737,-36,-2,1010,1
51140,370412,419001,-24,-2,1010,1
51238,370640,419119,-27,-2,1018,1
51291,370921,419166,-27,5,1029,1
51348,371010,419342,-19,3,1029,1
51356,371045,419397,-27,3,1021,1
51401,371263,419559,-27,-2,1030,1
51452,371344,419636,-21,-3,1030,1
51539,371515,419737,-24,-5,1033,1
51513,371627,419686,-27,-5,1029,1
51676,371778,419813,-27,5,1049,1
51658,372085,419982,-27,-2,1049,1
51764,372078,420052,-27,-2,1016,1
51777,372209,420154,-27,0,1015,1
51854,372242,420156,-29,-6,1014,1
51892,372461,420281,-20,-6,1014,1
51892,372595,420506,-24,0,1038,1
52004,372802,420477,-24,-2,1038,1
52092,372886,420540,-18,3,1038,1
52158,373007,420602,-18,3,1015,1
52096,373067,420677,-18,1,1034,1
52068,373280,420763,-15,0,1034,1
52266,373272,420916,-27,0,1029,1
52205,373468,421036,-27,0,1021,1
52348,373552,421062,-22,-2,1041,1
52288,373607,421069,-26,-2,1041,1
52393,373734,421202,-21,0,1011,1
52526,373853,421213,-21,-6,1029,1
52496,373949,421344,-23,-6,1029,1
52545,373932,421372,-18,-6,1017,1
52578,374000,421429,-18,0,1038,1
52603,374187,421418,-27,-4,1038,1
52682,374251,421574,-21,-4,1017,1
52668,374348,421626,-16,-2,1041,1
52787,374410,421682,-16,0,1041,1
52770,374485,421704,-22,3,1034,1
52769,374553,421864,-28,3,1030,1
52853,374645,421812,-28,-3,996,1
52809,374481,421754,-27,-3,996,1
52676,374255,421592,-31,-3,1018,1
52599,374050,421517,-31,-1,1013,1
52441,373926,421314,-19,3,1013,1
52110,372915,420785,-26,3,1024,1
51957,372402,420535,-26,-5,1027,1
51765,371977,420257,-29,5,1029,1
51712,371734,420137,-27,-5,1029,1
51611,371490,419952,-26,-5,1021,1
51388,370969,419607,-26,1,1038,1
51356,370790,419492,-30,-3,1038,1
51158,370705,419515,-25,-3,1016,1
51195,370564,419359,-17,-3,1016,1
51181,370433,419474,-17,0,1021,1
51187,370386,419552,-24,0,1021,1
51193,370354,419479,-27,-3,1018,1
51183,370363,419528,-27,-1,1021,1
51240,370503,419570,-25,2,1021,1
51258,370594,419730,-27,2,1020,1
51320,370993,419952,-27,3,1029,1
51554,371262,420173,-24,-5,1029,1
51555,371421,420298,-25,-5,1026,1
51640,371595,420497,-25,-1,1029,1
51639,371870,420647,-25,6,1029,1
51755,372107,420785,-21,-12,1024,1
51762,372209,420749,-15,-12,1017,1
51819,372289,420872,-15,-7,1013,1
51895,372492,420937,-26,-3,1013,1
51873,372577,421004,-18,-3,1043,1
51960,372747,421257,-18,4,1017,1
51987,372954,421212,-30,2,1026,1
52040,372962,421328,-31,2,1026,1
52102,373136,421443,-31,-8,1005,1
52166,373354,421558,-29,-6,1037,1
52069,373591,421727,-18,5,1037,1
52364,373611,421713,-30,5,1032,1
52353,373760,421808,-30,-3,1030,1
52391,373849,421921,-28,-3,1030,1
52451,373969,422100,-30,-3,1041,1
52570,374207,422209,-19,-9,1038,1
52542,374356,422267,-19,6,1038,1
52599,374476,422311,-23,1,1029,1
52649,374508,422425,-23,1,996,1
52642,374655,422520,-23,1,1010,1
52717,374794,422562,-28,-3,1010,1
52805,374991,422666,-19,-3,1020,1
52833,375113,422710,-19,0,1038,1
52896,375167,422743,-17,-3,1038,1
52871,375249,422827,-18,-3,1029,1
52920,375281,423030,-18,0,1037,1
53051,375506,422985,-25,-5,1023,1
53016,375648,423116,-20,2,1023,1
53119,375706,423216,-19,2,1037,1
53155,375737,423196,-19,-7,1017,1
53205,376008,423562,-21,-4,1017,1
53299,376194,423481,-22,-4,1035,1
53343,376207,423495,-22,4,1013,1
53321,376321,423563,-27,6,1013,1
53410,376478,423699,-18,-4,1037,1
53457,376644,423634,-18,-4,1032,1
53307,376259,423612,-22,1,1032,1
53152,376037,423424,-33,-2,1032,1
53081,375780,423354,-33,-2,1041,1
52912,375396,423106,-33,-7,1018,1
52718,375143,422915,-24,-2,1018,1
52431,374278,422475,-15,-2,1024,1
52323,373997,422291,-15,-6,1035,1
52253,373690,422149,-26,0,1017,1
52109,373549,422009,-21,0,1017,1
52186,373370,422047,-27,2,1008,1
51901,373100,421895,-27,-3,1014,1
51940,372940,421802,-24,-3,1014,1
51929,372927,421807,-27,-3,1024,1
51956,372825,421809,-27,6,1038,1
51824,372905,421800,-19,-1,1027,1
51902,372940,421873,-20,-1,1027,1
51931,373111,421963,-20,-2,1035,1
52060,373252,422149,-19,2,1014,1
52104,373450,422263,-27,0,1014,1
52187,373732,422625,-26,0,1023,1
52284,374080,422774,-26,-1,1050,1
52351,374321,422905,-25,5,1050,1
52429,374417,422923,-37,5,1008,1
52417,374539,422901,-37,-6,1023,1
52481,374782,423256,-27,-3,1023,1
52562,374961,423274,-28,-1,1021,1
52616,375189,423368,-28,-1,1035,1
52678,375270,423483,-18,0,1023,1
52690,375301,423532,-27,-3,1023,1
52780,375513,423605,-26,-3,1021,1
52890,375824,423853,-26,-4,1018,1
52902,375829,423904,-21,-9,1018,1
52971,375998,423964,-22,-9,1038,1
53001,376197,424069,-22,-7,1027,1
53040,376293,424187,-18,-9,1027,1
53159,376644,424412,-26,-8,1023,1
53245,376847,424526,-20,-8,1029,1
53320,376959,424590,-20,0,1037,1
53314,377065,424721,-21,-3,1037,1
53473,377368,424965,-28,-3,1024,1
53372,377535,425034,-28,-9,1023,1
53622,377652,425089,-28,-4,1032,1
53579,377724,425190,-26,-4,1032,1
53671,377822,425184,-26,2,1034,1
53639,378028,425316,-32,1,1015,1
53804,378159,425460,-25,-1,1015,1
53870,378236,425553,-21,-1,1038,1
53884,378351,425644,-21,0,1030,1
53881,378433,425635,-23,3,1030,1
53943,378620,425722,-26,3,1043,1
53969,378829,425876,-22,-6,1035,1
53999,378817,425887,-22,3,1023,1
54043,378823,425990,-31,3,1023,1
54078,378939,426068,-15,3,1032,1
54129,379113,426157,-15,-4,1032,1
54137,379183,426057,-23,-5,1032,1
54212,379275,426180,-28,-5,1024,1
54209,379227,426206,-28,-3,1029,1
54137,379069,426098,-16,0,1029,1
54033,378895,426003,-27,0,1010,1
53943,378703,425608,-21,-3,1010,1
53513,377734,425323,-21,-2,1010,1
53350,377277,425035,-20,-9,1037,1
53212,376985,424860,-22,-9,1017,1
53066,376613,424670,-22,-6,1032,1
52922,376292,424349,-22,-4,1032,1
52759,375678,424146,-29,-4,1014,1
52630,375471,424034,-29,-2,1021,1
52537,375245,423930,-27,0,1004,1
52515,375108,423910,-25,-7,1004,1
52588,375057,423860,-25,-7,1029,1
52486,374841,423847,-24,2,1032,1
52426,374878,423855,-24,-10,1032,1
52377,374829,423889,-28,-10,1020,1
52371,374822,423903,-28,0,1032,1
52468,374952,424191,-21,1,1032,1
52581,375268,424265,-25,1,1032,1
52613,375554,424416,-21,-3,1018,1
52778,375796,424562,-21,-5,1018,1
52818,375956,424734,-28,-4,1033,1
52813,376209,424922,-23,-4,1020,1
52880,376357,425033,-23,-4,1032,1
52911,376478,424960,-25,-12,1032,1
52951,376623,425150,-25,-12,1032,1
53056,376769,425194,-25,-3,1014,1
52984,376939,425253,-27,1,1014,1
53188,377040,425432,-23,1,1011,1
53168,377225,425596,-32,-3,1018,1
53254,377301,425658,-32,-2,1035,1
53266,377450,425717,-29,6,1035,1
53356,377580,425860,-24,6,1020,1
53431,377892,426045,-24,0,1037,1
53445,377997,426084,-30,0,1037,1
53505,378057,426197,-22,0,1030,1
53568,378140,426202,-22,-4,1030,1
53662,378369,426332,-22,-4,1030,1
53787,378692,426642,-18,-9,1014,1
53684,378759,426664,-22,-9,1030,1
53830,378828,426723,-22,-1,1017,1
53815,378984,426812,-25,1,1017,1
53852,379085,427030,-28,1,1007,1
53972,379206,426930,-28,-8,1030,1
54000,379308,426994,-23,-8,1030,1
53983,379376,426981,-22,-8,1037,1
54082,379594,427101,-22,1,1046,1
54075,379662,427238,-24,1,1032,1
54219,379729,427262,-28,2,1032,1
54243,379811,427409,-27,2,1027,1
54279,379819,427300,-27,-1,1035,1
54261,379821,427378,-27,0,1035,1
54338,379981,427504,-22,0,1034,1
54406,380050,427598,-22,-2,1016,1
54354,380109,427611,-18,-7,1016,1
54443,380115,427595,-18,0,1027,1
54351,380170,427628,-18,0,1027,1
54408,380180,427649,-26,1,1013,1
54191,379578,427328,-33,-4,1013,1
53996,379270,427112,-26,-4,1016,1
53870,378741,426808,-26,-1,1023,1
53628,378297,426542,-24,-4,1023,1
53516,377873,426297,-24,-4,1029,1
53177,377019,425770,-24,-2,1021,1
52967,376572,425490,-33,-3,1046,1
52851,376185,425356,-23,-3,1046,1
52774,375814,425245,-20,8,1013,1
52718,375693,425233,-20,3,1046,1
52572,375248,424972,-29,-3,1046,1
52391,375033,424813,-18,-3,1017,1
52361,374995,424768,-18,-4,1035,1
52305,374894,424709,-28,-8,1035,1
52335,374924,424807,-29,-3,1030,1
52291,374835,424698,-29,-3,1026,1
52354,374900,424878,-20,-8,1023,1
52339,374995,424859,-24,-3,1023,1
52413,375166,424942,-26,-3,1038,1
52565,375490,425271,-26,-2,1018,1
52554,375792,425446,-14,-6,1018,1
52763,376112,425599,-25,-6,1027,1
52724,376196,425681,-25,-8,1021,1
52817,376317,425729,-18,-6,1021,1
52854,376455,425832,-26,-4,1013,1
52964,376630,425982,-26,-4,1032,1
52933,376637,425993,-29,-3,1029,1
52939,376810,426120,-24,-1,1029,1
52973,376785,426079,-30,-1,1021,1
53001,376952,426126,-30,3,1032,1
53087,377100,426255,-27,3,1032,1
53159,377202,426248,-26,3,1013,1
53191,377417,426421,-26,3,1023,1
53235,377395,426464,-26,-3,1027,1
53261,377582,426556,-29,-3,1027,1
53277,377650,426695,-22,0,1030,1
53360,377869,426830,-22,-6,1020,1
53437,377798,426758,-24,-7,1020,1
53390,377935,426942,-22,-7,1044,1
53466,378047,426935,-22,-4,1018,1
53496,378233,427206,-22,3,1018,1
53585,378281,427202,-18,-3,1034,1
53661,378392,427255,-18,-3,1027,1
53606,378435,427190,-19,-3,1007,1
53671,378524,427185,-21,0,1007,1
53799,378778,427444,-23,0,1024,1
53885,378832,427500,-23,1,1017,1
53903,378930,427546,-19,-9,1017,1
53905,378980,427572,-36,-9,1049,1
53988,379054,427674,-36,0,1018,1
53969,379228,427771,-27,-2,1018,1
53979,379111,427758,-30,-2,1035,1
54078,379163,427774,-21,-1,1023,1
54154,379327,427770,-21,-3,1030,1
54086,379283,427821,-30,-3,1030,1
54186,379377,427902,-27,-3,1005,1
54047,379169,427649,-27,-3,1023,1
53989,378927,427579,-18,6,1023,1
53809,378606,427388,-27,6,1018,1
53593,378122,427204,-27,-5,1029,1
53451,377788,426933,-24,-9,1029,1
53058,376782,426346,-23,3,1010,1
52919,376342,426043,-28,3,1021,1
52795,375980,425838,-28,-9,1020,1
52712,375631,425678,-32,-3,1020,1
52520,375439,425603,-28,-3,1030,1
52402,374915,425400,-28,2,1029,1
52305,374724,425331,-28,1,1030,1
52204,374596,425119,-21,1,1030,1
52181,374426,425097,-24,1,1029,1
52180,374504,425243,-24,-5,1024,1
52119,374286,425105,-21,-1,1024,1
52097,374251,425122,-19,-1,1021,1
52108,374178,425208,-19,2,1029,1
52132,374352,425219,-29,-1,1029,1
52203,374465,425329,-23,-1,1033,1
52307,374899,425570,-23,-5,1026,1
52444,375082,425643,-27,4,1026,1
52467,375325,425818,-20,0,1020,1
52470,375483,425960,-20,0,1020,1
52586,375699,426014,-28,-1,1030,1
52635,375872,426204,-21,3,1030,1
52618,375947,426250,-30,3,1040,1
52586,376052,426375,-30,-3,1033,1
52725,376087,426336,-27,2,1033,1
52797,376290,426485,-20,2,1011,1
52843,376421,426583,-22,4,1018,1
52792,376399,426608,-22,-4,1018,1
52888,376658,426744,-20,-2,1023,1
52944,376644,426770,-24,-2,1029,1
52788,376806,426899,-24,-3,1029,1
52994,377045,426969,-24,5,1029,1
53060,377138,427057,-17,5,1008,1
53138,377191,427112,-17,0,1032,1
53157,377252,427202,-23,-6,1023,1
53104,377478,427315,-16,-6,1023,1
53093,377625,427384,-25,-9,1013,1
53298,377838,427471,-25,0,1011,1
53313,377892,427488,-21,2,1011,1
53365,377909,427615,-23,2,1018,1
53396,378031,427709,-23,6,1020,1
53465,378167,427794,-18,-3,1020,1
53463,378146,427836,-27,-3,1038,1
53523,378184,427868,-27,-3,1016,1
53526,378243,427907,-27,-3,1016,1
53570,378406,427971,-22,-3,1040,1
53602,378621,428009,-27,0,1023,1
53686,378540,428133,-27,1,1011,1
53668,378622,428039,-23,-1,1011,1
53734,378643,428195,-21,-1,1032,1
53803,378747,428184,-21,-3,1032,1
53753,378913,428314,-17,-3,1032,1
53707,378798,428352,-25,-7,1011,1
53757,378721,428207,-25,-7,1018,1
53703,378582,428158,-15,2,1018,1
53530,378248,427944,-22,-3,1011,1
53416,377832,427423,-26,-3,1029,1
52920,376815,427084,-26,-2,1024,1
52823,376445,426805,-28,0,1024,1
52710,376057,426611,-21,0,1043,1
52521,375717,426475,-21,0,1034,1
52411,375392,426150,-19,0,1034,1
52302,374916,426051,-18,0,994,1
52174,374812,425837,-20,-4,1046,1
52158,374672,425811,-20,0,1032,1
52062,374465,425750,-20,3,1032,1
51902,374553,425838,-19,3,1038,1
51953,374265,425632,-19,-1,1021,1
51960,374272,425666,-22,3,1021,1
51948,374259,425627,-24,3,1020,1
51950,374396,425779,-24,-9,1032,1
52064,374504,425945,-20,5,1032,1
52125,374919,426094,-21,5,1015,1
52182,375071,426259,-20,0,1014,1
52292,375263,426397,-20,2,1017,1
52315,375525,426536,-32,-2,1017,1
52436,375711,426617,-25,-2,1018,1
52492,375949,426809,-25,-3,1016,1
52508,376034,426842,-28,-4,1016,1
52598,376180,427042,-33,-4,1024,1
52533,376277,427012,-21,-2,1037,1
52587,376509,427311,-21,-5,1037,1
52623,376714,427267,-24,2,1023,1
52758,376827,427357,-22,2,1027,1
52710,376861,427383,-22,-2,1023,1
52748,376955,427358,-19,-2,1023,1
52799,377334,427676,-22,-2,1035,1
52922,377375,427707,-22,-1,1024,1
53061,377529,427918,-22,-6,1024,1
53025,377623,427961,-30,2,1026,1
53066,377795,427990,-30,2,1027,1
53121,378009,428068,-23,5,1021,1
53172,378015,428184,-16,-3,1021,1
53190,378219,428275,-18,-3,1023,1
53222,378192,428223,-18,-9,1030,1
53393,378338,428442,-29,0,1030,1
53325,378457,428538,-25,0,1037,1
53519,378645,428625,-25,-12,1023,1
53436,378748,428738,-20,1,1023,1
53553,378796,428793,-20,1,1046,1
53529,378911,428774,-28,0,1023,1
53604,378984,429021,-28,-2,1016,1
53537,379095,428889,-21,3,1016,1
53666,379132,428948,-29,3,1018,1
53721,379234,429003,-29,-4,994,1
53775,379342,429068,-27,-2,994,1
53735,379356,429218,-24,-2,1008,1
53810,379439,429231,-24,-12,1029,1
53805,379414,429152,-27,5,1029,1
53822,379314,429130,-23,-6,1020,1
53748,379260,429030,-31,-6,1026,1
53579,378970,428875,-31,0,1018,1
53502,378294,428379,-27,1,1018,1
53167,377839,428261,-18,1,1030,1
53003,377356,427893,-18,-1,994,1
52861,377000,427650,-21,-1,994,1
52711,376713,427535,-26,-1,1030,1
52578,376036,427123,-26,-4,1005,1
52439,375677,427015,-22,-4,1010,1
52328,375557,426846,-26,0,1010,1
52285,375361,426750,-20,0,1023,1
52180,375284,426709,-20,6,1023,1
52187,375159,426613,-22,1,1023,1
52065,375001,426621,-23,1,1035,1
52012,374986,426467,-23,-7,1032,1
52068,375035,426597,-17,0,1032,1
52013,375054,426574,-29,3,1026,1
52146,375230,426809,-19,3,1032,1
52251,375518,426908,-19,-5,1035,1
52256,375673,427116,-24,-6,1035,1
52423,375880,427133,-21,-6,1037,1
52419,376096,427350,-21,-10,1035,1
52561,376427,427536,-18,-7,1035,1
52579,376632,427673,-25,-6,1016,1
52583,376715,427748,-25,-6,1011,1
52595,376906,427820,-21,0,1024,1
52690,377068,427877,-31,2,1024,1
52706,376970,427938,-21,2,1024,1
52740,377176,427997,-21,3,1014,1
52798,377238,428031,-15,-1,1014,1
52775,377391,428092,-18,-1,1011,1
52780,377419,428164,-18,-1,1035,1
52847,377521,428272,-24,-5,1035,1
53005,377685,428361,-25,-5,1050,1
53021,377778,428483,-21,2,1021,1
53055,377975,428513,-21,3,1032,1
53169,378102,428603,-30,-5,1032,1
53212,378248,428758,-21,-5,1016,1
53245,378362,428862,-21,-3,1016,1
53258,378449,428922,-23,-7,1016,1
53304,378456,428909,-18,-7,1026,1
53324,378522,429016,-18,-6,1035,1
53323,378723,429093,-25,0,1035,1
53458,378868,429176,-23,1,1035,1
53448,378857,429208,-19,1,1014,1
53478,378880,429253,-19,-3,1001,1
53457,379007,429237,-21,-3,1001,1
53612,379073,429476,-26,-3,1023,1
53551,379153,429403,-26,0,1062,1
53603,379207,429326,-24,-3,1030,1
53662,379221,429421,-17,-3,1030,1
53666,379270,429538,-23,3,1049,1
53665,379450,429671,-23,-2,1020,1
53662,379362,429539,-23,-9,1020,1
53699,379312,429604,-27,-9,1024,1
53617,379227,429401,-27,0,1020,1
53536,378996,429285,-15,-5,1020,1
53379,378864,429112,-30,-5,1027,1
53134,378039,428666,-27,2,1010,1
53028,377584,428443,-27,-8,1010,1
52829,377278,428287,-29,0,1037,1
52700,376951,428003,-24,0,1029,1
52617,376663,427861,-24,-9,1020,1
52513,376233,427609,-24,-1,1020,1
52428,376015,427571,-34,-1,1021,1
52396,375932,427521,-34,3,1002,1
52288,375786,427381,-21,1,1029,1
52286,375826,427434,-28,1,1029,1
52239,375669,427398,-23,-3,1010,1
52246,375678,427379,-23,0,1024,1
52263,375734,427439,-28,2,1024,1
52305,375763,427532,-24,2,1032,1
52336,375980,427694,-24,3,1023,1
52451,376204,427916,-24,-2,1023,1
52540,376396,427928,-31,-2,1030,1
52584,376561,428096,-31,3,1008,1
52600,376746,428223,-30,2,1027,1
52689,376924,428431,-22,2,1027,1
52748,377106,428469,-17,2,1021,1
52746,377113,428528,-17,3,1034,1
52828,377237,428669,-26,0,1034,1
52802,377246,428577,-25,0,1029,1
52810,377424,428741,-25,5,1049,1
52755,377501,428825,-16,0,1049,1
52934,377648,428904,-28,0,1029,1
52989,377836,428960,-28,-8,1007,1
53083,377826,429045,-21,-4,1007,1
53083,378023,429074,-24,3,1005,1
53188,378157,429204,-27,3,1021,1
53223,378188,429246,-27,-9,1023,1
53227,378323,429286,-26,0,1023,1
53255,378473,429409,-22,0,1029,1
53289,378642,429526,-22,-10,1030,1
53341,378858,429656,-26,-3,1030,1
53461,378831,429675,-17,-3,1017,1
53467,378968,429828,-17,-5,1044,1
53497,379018,429777,-26,-3,1018,1
53474,379192,429910,-23,3,1018,1
53559,379201,430071,-23,3,1035,1
53631,379269,430066,-23,-9,1013,1
53670,379386,430011,-23,-1,1013,1
53681,379471,430104,-18,-1,1038,1
53777,379606,430179,-18,0,1026,1
53742,379679,430192,-21,-2,1037,1
53772,379607,430321,-24,-2,1037,1
53811,379721,430357,-24,8,1026,1
53856,379736,430442,-25,-6,1033,1
53841,379854,430435,-19,0,1033,1
53871,379945,430532,-23,0,1010,1
53920,379883,430437,-23,-1,1041,1
53770,379767,430329,-26,-8,1041,1
53768,379475,430197,-21,-8,1026,1
53633,379223,430128,-21,3,1026,1
53275,378917,429817,-19,-1,1026,1
53162,378179,429444,-16,-1,1008,1
52991,377750,429218,-24,-1,1020,1
52958,377519,429028,-24,0,1015,1
52869,377189,428943,-27,2,1015,1
52882,377024,428845,-26,2,1032,1
52689,376774,428765,-26,0,1034,1
52613,376640,428641,-18,9,1034,1
52588,376545,428594,-21,-9,1015,1
52560,376544,428600,-21,-9,1037,1
52588,376637,428598,-29,3,1034,1
52547,376567,428670,-29,3,1034,1
52593,376661,428704,-22,3,1008,1
52571,376751,428802,-22,-3,1035,1
52646,376952,428961,-24,2,1035,1
52735,377139,429249,-18,2,1014,1
52886,377569,429348,-18,0,1026,1
52898,377690,429450,-30,-3,1026,1
52946,377921,429622,-27,-6,1027,1
52996,378043,429677,-27,-6,1023,1
53132,378263,429865,-21,-2,1008,1
53146,378370,429901,-19,0,1008,1
53157,378429,429876,-23,0,1032,1
53157,378551,430035,-23,-2,1043,1
53260,378559,430023,-15,-2,1043,1
53228,378826,430126,-16,-2,1032,1
53296,378955,430304,-16,-2,1017,1
53381,379100,430424,-13,0,1017,1
53436,379269,430517,-13,0,1017,1
53512,379386,430492,-23,-5,1024,1
53544,379432,430641,-23,-1,1027,1
53661,379628,430868,-26,1,1027,1
53641,379751,430888,-21,1,1027,1
53664,379852,430996,-21,3,1040,1
53747,380000,431074,-27,0,1040,1
53800,380210,431195,-24,0,1017,1
53898,380389,431289,-24,-10,1007,1
53934,380487,431348,-18,-3,1026,1
53983,380659,431478,-18,-3,1026,1
54044,380694,431541,-29,-3,1030,1
54031,380847,431706,-29,-2,1014,1
54163,380930,431745,-22,-3,1014,1
54178,381090,431720,-21,-3,1027,1
54213,381222,431818,-21,3,1041,1
54295,381318,431808,-26,-2,1020,1
54297,381403,431983,-21,-2,1020,1
54160,381564,432077,-21,-5,1026,1
54363,381542,432155,-15,0,1023,1
54390,381732,432193,-19,0,1023,1
54418,381727,432221,-25,0,1030,1
54504,381904,432263,-25,1,1018,1
54571,381884,432347,-18,0,1018,1
54345,381728,432169,-31,0,1005,1
54261,381447,431981,-17,-1,1026,1
54137,381127,431735,-17,-4,1026,1
53988,380790,431586,-16,1,1027,1
53845,380538,431226,-21,1,1043,1
53634,379726,431038,-21,-3,1030,1
53439,379441,430874,-26,-3,1030,1
53513,379138,430730,-22,-3,1026,1
53391,379007,430572,-22,-2,1014,1
53334,378944,430577,-21,-4,1014,1
53209,378660,430427,-30,-4,1027,1
53172,378588,430442,-30,0,1034,1
53093,378538,430393,-30,5,1034,1
53094,378561,430428,-19,-5,1021,1
53121,378625,430491,-26,-5,1013,1
53195,378674,430586,-26,-9,1017,1
53158,378950,430711,-22,2,1017,1
53260,379126,430822,-21,2,1001,1
53337,379276,430957,-21,3,1038,1
53446,379599,431307,-20,-4,1021,1
53533,379943,431446,-29,-4,1021,1
53602,380069,431488,-29,2,1017,1
53663,380297,431619,-28,3,1027,1
53741,380313,431734,-27,2,1027,1
53666,380504,431794,-26,2,1029,1
53821,380644,431891,-26,2,1027,1
53837,380718,431891,-18,-4,1027,1
53883,380722,431951,-18,-4,1037,1
53868,380889,431998,-18,-3,1050,1
53941,380995,432141,-29,0,1050,1
54029,381348,432322,-21,2,1027,1
54110,381436,432454,-25,2,1015,1
54085,381548,432518,-25,-7,1029,1
54163,381642,432470,-25,0,1029,1
54144,381869,432782,-15,0,1030,1
54286,382012,432743,-15,3,999,1
54358,382124,432850,-25,0,999,1
54422,382317,432922,-25,0,1018,1
54466,382409,433049,-25,-1,1013,1
54468,382504,433221,-21,6,1032,1
54590,382790,433265,-20,-9,1032,1
54541,382764,433388,-18,-9,1033,1
54565,382880,433424,-18,2,985,1
54647,382969,433410,-36,-5,985,1
54610,383242,433583,-24,-5,1024,1
54739,383353,433581,-24,-1,1020,1
54897,383451,433721,-21,-7,1020,1
54868,383504,433787,-25,-2,1021,1
54867,383631,433851,-25,-2,1026,1
54877,383803,433943,-19,-10,1038,1
54978,383964,434036,-21,-4,1038,1
55066,384076,434087,-26,-4,1013,1
55011,384020,434071,-26,0,1041,1
54994,384049,434134,-20,-4,1041,1
54979,383976,434124,-25,0,1035,1
54699,383538,433829,-25,0,1030,1
54630,383212,433658,-29,0,1026,1
54485,382696,433376,-28,3,1026,1
54332,382313,433020,-21,3,999,1
54210,381937,432985,-21,4,1050,1
54063,381265,432456,-27,0,1050,1
53786,380963,432402,-21,0,1026,1
53755,380738,432215,-21,-7,1033,1
53667,380630,432074,-24,-7,1033,1
53639,380437,432007,-27,-7,1024,1
53551,380086,432009,-30,-1,1008,1
53457,380154,431873,-30,3,1062,1
53466,380004,431906,-32,3,1062,1
53397,380051,431949,-23,3,1026,1
53397,380075,431933,-23,-4,1021,1
53298,380395,432199,-24,-1,1021,1
53515,380522,432259,-23,-1,1033,1
53610,380761,432452,-23,9,1046,1
53675,381023,432569,-25,2,1046,1
53818,381249,432674,-16,2,1013,1
53918,381610,433010,-32,-3,1016,1
53998,381775,433021,-32,-3,1011,1
53918,381888,433018,-15,-1,1011,1
53991,382030,433117,-19,-1,1026,1
53996,382044,433260,-19,0,1013,1
54073,382269,433399,-29,-5,1013,1
54177,382483,433484,-23,-5,1027,1
54097,382537,433561,-21,-3,1017,1
54280,382647,433640,-21,-3,1035,1
54294,382819,433714,-27,-9,1035,1
54380,382906,433882,-16,-9,1027,1
54405,383102,433936,-16,-4,1026,1
54447,383240,434061,-25,-5,1026,1
54545,383384,434139,-14,-5,1020,1
54508,383446,434184,-14,0,1020,1
54631,383624,434365,-20,-11,1020,1
54636,383891,434426,-27,-11,1054,1
54748,384048,434549,-27,-6,1035,1
54743,384078,434610,-27,-7,1002,1
54772,384247,434664,-21,4,1002,1
54747,384480,434755,-18,4,1032,1
54851,384470,434895,-18,1,1027,1
54895,384566,434894,-21,3,1027,1
54966,384674,435012,-25,3,1030,1
55015,384705,434955,-25,7,1034,1
54984,384859,435071,-21,2,1034,1
55089,384974,435150,-19,2,1034,1
55172,385086,435153,-18,-1,1023,1
55282,385163,435277,-18,-2,1023,1
55239,385239,435320,-18,0,1023,1
55246,385220,435427,-22,0,1029,1
55220,385301,435429,-22,-2,1004,1
55197,385290,435403,-11,-6,1004,1
55104,385079,435361,-21,-6,1014,1
55040,384816,435120,-18,-2,1021,1
54882,384526,434944,-18,-2,1021,1
54576,383525,434238,-20,0,1027,1
54359,383005,433964,-21,0,1024,1
54217,382590,433703,-21,-6,1035,1
54073,382228,433461,-22,3,1035,1
53902,381935,433355,-22,3,1034,1
53737,381366,433007,-22,-3,1030,1
53691,381186,432889,-24,0,1030,1
53670,381042,432774,-24,0,1030,1
53488,380874,432684,-23,-3,1008,1
53484,380871,432769,-23,-3,1035,1
53394,380410,432592,-30,-3,1035,1
53314,380456,432488,-26,-3,1029,1
53396,380562,432608,-26,-3,1032,1
53369,380503,432615,-28,-3,1032,1
53429,380621,432628,-21,-3,1016,1
53498,380930,432883,-21,3,1034,1
53500,381160,433056,-21,-5,1034,1
53595,381319,433167,-20,-3,1017,1
53700,381605,433323,-30,-3,1038,1
53816,381696,433480,-30,3,1015,1
53828,381913,433561,-18,-14,1015,1
53887,381973,433655,-19,-14,1033,1
53884,382102,433655,-19,3,1018,1
53972,382253,433754,-24,3,1023,1
54017,382360,433852,-21,3,1023,1
54029,382555,433905,-20,6,1034,1
54065,382646,433976,-20,-1,1018,1
54127,382729,434060,-26,0,1018,1
54151,382811,434139,-23,0,1027,1
54158,383036,434234,-23,-3,1035,1
54251,383145,434252,-30,0,1035,1
54346,383292,434391,-21,0,1034,1
54355,383303,434474,-21,-9,1032,1
54435,383463,434522,-29,-5,1032,1
54396,383517,434610,-21,-5,1023,1
54321,383664,434638,-25,-7,1029,1
54509,383760,434726,-25,-10,1040,1
54516,383799,434807,-11,-2,1040,1
54572,383831,434710,-22,-2,1040,1
54666,383994,434974,-22,-4,1018,1
54763,384173,435006,-12,3,1018,1
54782,384184,435040,-27,-2,1026,1
54751,384244,435148,-27,-2,1013,1
54743,384283,435149,-33,-4,1013,1
54824,384390,435180,-23,-3,1013,1
54884,384623,435301,-21,-3,1024,1
54964,384490,435282,-21,-2,1047,1
54941,384630,435326,-27,-3,1047,1
54961,384627,435420,-24,-3,1018,1
55054,384762,435474,-24,4,1032,1
54963,384725,435424,-23,-3,1032,1
54902,384659,435401,-20,-6,1020,1
54817,384507,435260,-20,-6,1033,1
54809,384269,435108,-21,4,1050,1
54605,383860,434813,-22,1,1050,1
54492,383468,434365,-21,1,1024,1
54119,382542,434021,-21,0,1015,1
53991,382152,433772,-31,-2,1015,1
53866,381671,433527,-23,-2,1007,1
53697,381324,433258,-23,-3,1001,1
53599,381178,433088,-27,-4,1001,1
53469,380579,432882,-27,-4,1046,1
53383,380370,432831,-19,0,1034,1
53266,380143,432691,-19,3,1034,1
53180,380047,432615,-19,0,1034,1
53054,380081,432593,-23,0,1032,1
53125,379877,432479,-23,4,1038,1
53017,379798,432419,-23,-5,1038,1
53064,379812,432479,-28,-4,1016,1
53089,379862,432456,-21,-4,1032,1
53144,380094,432664,-21,-8,1032,1
53157,380234,432855,-24,-1,1037,1
53218,380590,432972,-27,-1,1032,1
53346,380796,433185,-27,-5,1035,1
53382,380891,433233,-16,-8,1035,1
53411,381176,433440,-21,-8,1033,1
53520,381346,433480,-21,0,1029,1
53594,381437,433504,-30,-4,1040,1
53642,381544,433538,-29,-2,1040,1
53628,381665,433618,-29,-2,1016,1
53678,381898,433828,-21,9,1040,1
53753,382003,433834,-19,-6,1040,1
53773,382032,433929,-24,-6,1035,1
53739,382212,433960,-24,0,1037,1
53877,382279,434061,-26,3,1037,1
53867,382546,434122,-20,3,1027,1
53966,382576,434249,-20,-3,1023,1
53971,382656,434322,-17,-3,1023,1
54063,382703,434364,-30,-4,1030,1
54131,382845,434402,-30,-4,1040,1
54103,383011,434490,-24,-3,1035,1
54114,383073,434598,-28,3,1035,1
54234,383228,434682,-19,3,1026,1
54267,383304,434818,-19,3,1041,1
54305,383392,434808,-21,-4,1041,1
54311,383504,434947,-31,-4,1024,1
54454,383647,435028,-31,0,1035,1
54448,383707,435044,-30,0,1037,1
54399,383850,435001,-29,0,1037,1
54422,383851,435186,-18,3,1026,1
54449,383910,435215,-18,3,1035,1
54651,383961,435237,-21,-3,1035,1
54561,384094,435306,-22,-3,1023,1
54686,384209,435302,-22,4,1026,1
54635,384255,435332,-22,-1,1026,1
54638,384350,435444,-25,-1,1007,1
54676,384177,435316,-25,0,1035,1
54611,384237,435304,-27,-2,1035,1
54554,384006,435252,-30,-2,1021,1
54461,383777,435080,-26,-2,1008,1
54255,383450,434799,-26,0,1024,1
54064,382556,434285,-26,-6,1024,1
53851,382183,433919,-28,-6,1017,1
53664,381788,433791,-28,-5,1016,1
53582,381424,433563,-31,-5,1026,1
53433,381154,433378,-27,-5,1026,1
53369,380660,433138,-27,2,1035,1
53172,380449,433066,-29,3,1027,1
53106,380308,432985,-24,-1,1027,1
53061,380262,432808,-21,-1,1024,1
53054,380153,432896,-21,-1,1016,1
52998,380149,432854,-17,-3,1016,1
52977,379886,432793,-20,-3,1020,1
52954,379899,432728,-23,1,1008,1
52937,379954,432859,-23,-7,1008,1
52987,380069,432851,-18,-7,1017,1
53068,380252,433159,-17,1,1014,1
53191,380562,433247,-17,-1,1026,1
53253,380754,433361,-28,-2,1026,1
53335,380982,433410,-21,-2,1033,1
53273,381238,433635,-21,-8,1027,1
53364,381443,433837,-27,-8,1027,1
53408,381569,433845,-21,-7,1013,1
53473,381608,433950,-21,-7,1023,1
53509,381762,433927,-23,-12,1023,1
53514,381852,434111,-24,3,1035,1
53523,381982,434151,-28,3,1038,1
53599,382092,434173,-28,-2,1004,1
53663,382258,434231,-30,-3,1004,1
53698,382311,434325,-31,-3,1013,1
53729,382389,434375,-31,-7,1016,1
53692,382521,434498,-24,-4,1016,1
53854,382726,434530,-31,0,1041,1
53941,382755,434636,-31,0,1018,1
53936,382823,434693,-21,3,1013,1
54014,382993,434757,-28,-4,1013,1
54107,383094,435009,-27,-4,1001,1
54124,383270,435034,-27,-4,1011,1
54112,383322,435118,-21,-4,1011,1
54093,383504,435146,-21,-4,1024,1
54092,383489,435099,-21,-2,1035,1
54264,383746,435242,-27,-9,1035,1
54268,383776,435357,-20,2,1026,1
54371,383812,435410,-20,2,1004,1
54379,383866,435437,-30,-3,1043,1
54388,383908,435380,-21,-5,1043,1
54441,384027,435583,-17,-5,1024,1
54470,384061,435565,-17,2,1011,1
54538,384136,435625,-21,-3,1011,1
54501,384305,435716,-30,-3,1032,1
54540,384183,435788,-27,-4,1026,1
54558,384470,435834,-27,-1,1026,1
54603,384336,435766,-33,-2,1023,1
54654,384296,435786,-32,-2,1037,1
54521,384098,435628,-32,2,1015,1
54369,383898,435511,-18,-2,1015,1
54269,383578,435217,-21,-2,1016,1
53930,382665,434681,-21,4,1032,1
53730,382257,434419,-25,4,1024,1
53606,381785,434143,-16,4,1024,1
53491,381427,433968,-25,3,1020,1
53346,381255,433882,-25,2,1024,1
53220,380848,433578,-36,-1,1024,1
53248,380656,433463,-21,-1,1043,1
53109,380524,433325,-21,-3,1032,1
53081,380413,433396,-21,6,1032,1
53011,380323,433409,-19,6,1030,1
53030,380169,433338,-19,3,1017,1
52911,380162,433235,-27,-2,1044,1
52935,380122,433332,-15,-2,1044,1
52958,380235,433384,-15,-3,1029,1
52948,380352,433586,-24,-7,1021,1
53057,380691,433789,-21,2,1021,1
53201,380937,433904,-23,2,1051,1
53206,381060,433986,-23,-10,1024,1
53307,381306,434174,-21,-3,1024,1
53371,381548,434297,-27,-3,1043,1
53320,381749,434385,-17,-1,1005,1
53482,381877,434451,-17,0,1005,1
53544,381964,434588,-28,0,1032,1
53523,381984,434630,-27,0,1035,1
53532,382108,434573,-27,-1,1024,1
53557,382293,434783,-22,0,1024,1
53608,382323,434796,-28,0,1024,1
53584,382265,434799,-28,4,1024,1
53667,382435,434858,-18,4,1024,1
53743,382578,434976,-21,-8,1017,1
53816,382802,435120,-21,-8,1030,1
53782,382827,435096,-30,2,1040,1
53802,382940,435189,-22,-12,1040,1
53862,383032,435270,-25,-12,1038,1
53921,383079,435419,-25,2,1032,1
53974,383218,435538,-18,3,1032,1
54073,383407,435591,-27,3,1024,1
54097,383517,435605,-27,3,1015,1
54166,383551,435761,-28,-9,1015,1
54262,383664,435731,-30,-9,1032,1
54156,383794,435874,-29,-3,1024,1
54290,383908,435949,-29,0,1032,1
54351,384027,435993,-26,2,1032,1
54369,384065,436034,-26,2,1027,1
54435,384176,436102,-26,3,1013,1
54510,384330,436208,-27,-3,1018,1
54493,384427,436281,-27,2,1018,1
54487,384470,436285,-27,2,1032,1
54567,384539,436452,-18,7,1037,1
54604,384618,436425,-30,-3,1037,1
54526,384819,436547,-25,-3,1024,1
54665,384794,436536,-25,-1,1024,1
54635,384901,436559,-19,-7,1024,1
54705,384864,436565,-19,-7,1035,1
54600,384761,436529,-19,2,1032,1
54532,384674,436553,-18,6,1032,1
54293,383983,436039,-31,-3,1024,1
54136,383556,435799,-31,-3,1018,1
53983,383220,435543,-21,-3,1023,1
53794,382918,435320,-25,6,1023,1
53731,382637,435234,-27,6,1020,1
53580,381967,434839,-27,3,1002,1
53588,381878,434839,-25,-4,1002,1
53396,381754,434684,-22,-4,1020,1
53349,381627,434647,-21,-8,1027,1
53331,381546,434817,-21,-1,1027,1
53264,381456,434656,-23,-3,1029,1
53300,381432,434688,-20,-3,1033,1
53221,381389,434672,-20,0,1020,1
53178,381509,434682,-29,-5,1020,1
53307,381651,434852,-24,-5,1007,1
53381,381747,434916,-24,-5,1013,1
53448,381970,434993,-21,0,1014,1
53565,382245,435224,-21,0,1014,1
53636,382440,435324,-18,-7,1030,1
53701,382726,435557,-18,-4,1026,1
53772,382884,435668,-25,3,1026,1
53840,383033,435830,-30,3,1035,1
53840,383227,435904,-30,0,1051,1
53898,383286,435907,-24,7,1051,1
53909,383369,436050,-23,7,1024,1
53947,383602,436106,-23,1,1023,1
53990,383674,436114,-23,-5,1023,1
54011,383742,436210,-30,5,1023,1
54046,383881,436354,-30,5,1017,1
54122,384088,436552,-21,-3,1053,1
54037,384268,436613,-15,-3,1053,1
54303,384457,436704,-25,-3,1024,1
54300,384628,436863,-25,-3,1035,1
54374,384803,436996,-28,-3,1035,1
54453,385023,437150,-18,-2,1035,1
54570,385147,437268,-18,-2,1010,1
54660,385309,437373,-30,-3,1021,1
54635,385407,437400,-24,-1,1021,1
54707,385430,437402,-33,-1,1026,1
54686,385668,437601,-33,-7,1032,1
54767,385775,437567,-22,-8,1032,1
54809,385876,437758,-26,-8,1010,1
54811,386012,437732,-26,0,1041,1
54848,386085,437954,-26,-7,1041,1
54958,386234,438063,-23,-7,1046,1
54851,386449,438149,-23,0,1034,1
55057,386562,438141,-20,0,1029,1
55069,386650,438274,-27,-3,1029,1
55238,386793,438349,-22,-3,1026,1
55216,386854,438423,-22,3,1013,1
55227,386979,438418,-23,0,1013,1
55248,387005,438530,-23,0,1032,1
55244,387026,438518,-27,3,1008,1
55211,386979,438427,-27,1,1020,1
55051,386753,438192,-29,1,1020,1
54984,386628,437924,-13,0,1030,1
54624,385820,437811,-13,5,1037,1
54594,385411,437554,-23,-11,1037,1
54480,385043,437298,-18,-11,1018,1
54369,384815,437110,-18,-8,1017,1
54273,384539,436830,-18,-4,1017,1
54085,384157,436796,-20,-4,1016,1
54027,383998,436695,-20,-4,1013,1
53915,383834,436635,-23,-3,1018,1
53945,383729,436604,-28,3,1018,1
53932,383655,436455,-21,3,1023,1
53869,383565,436642,-21,0,1026,1
53875,383537,436589,-22,0,1026,1
53866,383648,436695,-26,0,1020,1
53910,383771,436741,-26,4,1023,1
54024,384011,436916,-25,-1,1023,1
54137,384310,437090,-21,-2,1026,1
54209,384527,437232,-30,-2,1040,1
54276,384716,437460,-30,-5,1030,1
54368,384887,437589,-32,2,1030,1
54300,385230,437795,-21,2,1021,1
54484,385368,437819,-21,-3,1040,1
54580,385417,437875,-18,1,1040,1
54638,385548,437977,-25,1,1024,1
54628,385708,438148,-25,3,1004,1
54717,385805,438073,-29,1,1004,1
54642,385942,438309,-15,-3,1020,1
54773,386147,438345,-18,-3,1007,1
54840,386244,438450,-18,1,1027,1
54876,386389,438445,-27,-5,1027,1
54907,386597,438699,-23,-5,1020,1
54907,386812,438849,-23,-1,1037,1
55074,386949,438832,-15,-3,1026,1
55084,386983,438935,-31,-3,1026,1
55181,387192,439022,-31,-3,1026,1
55208,387462,439423,-29,-3,1040,1
55289,387537,439413,-25,4,1040,1
55306,387593,439502,-19,4,1032,1
55384,387733,439442,-19,-1,1023,1
55481,387833,439615,-26,4,1023,1
55401,388060,439749,-26,4,1037,1
55548,388134,439759,-26,-3,1030,1
55604,388330,439898,-23,-10,1030,1
55550,388306,439936,-18,0,1030,1
55664,388431,439953,-18,0,1008,1
55679,388619,440106,-25,-3,1014,1
55778,388739,440142,-24,0,1014,1
55740,388780,440238,-17,0,1024,1
55808,388834,440350,-17,-6,1018,1
55875,389018,440384,-25,-11,1018,1
55960,389153,440505,-20,-11,1033,1
55991,389287,440544,-21,-2,1020,1
55966,389301,440584,-21,-3,1020,1
56035,389409,440619,-17,-4,1032,1
55995,389260,440593,-27,-4,1040,1
55885,389185,440611,-27,-5,1017,1
55871,388362,440070,-28,-4,1017,1
55508,387962,439785,-26,-4,1024,1
55251,387507,439417,-26,3,1032,1
55123,387022,439150,-31,3,1027,1
54973,386658,438995,-27,3,1027,1
54841,385919,438448,-27,5,1034,1
54619,385639,438331,-17,3,1018,1
54577,385419,438241,-25,-5,1018,1
54477,385111,438117,-23,-5,1043,1
54388,385055,438049,-23,-2,1013,1
54334,384713,437872,-21,-2,1013,1
54271,384672,437797,-24,-2,1027,1
54260,384513,437820,-24,0,1017,1
54195,384543,437719,-13,-13,1017,1
54185,384615,437794,-17,2,1020,1
54239,384757,438006,-23,2,1008,1
54400,384782,438082,-23,0,1014,1
54403,385050,438209,-22,3,1014,1
54475,385225,438383,-24,3,1032,1
54593,385534,438577,-24,-3,1023,1
54674,385879,438841,-33,3,1023,1
54744,386018,438898,-17,3,1011,1
54739,386153,438991,-17,-6,1040,1
54844,386332,439081,-27,3,1023,1
54761,386378,439126,-34,-5,1023,1
54827,386513,439301,-9,-5,1030,1
54922,386722,439333,-9,-6,1024,1
54950,386776,439360,-24,6,1024,1
54992,386958,439439,-32,6,1043,1
54954,387059,439492,-32,-5,1032,1
55087,387262,439719,-21,0,1032,1
55143,387412,439688,-23,0,1044,1
55171,387483,439850,-21,1,1011,1
55201,387632,439944,-21,-1,1037,1
55257,387824,440135,-27,-7,1037,1
55338,388019,440222,-20,-7,1024,1
55556,388188,440318,-20,-7,1007,1
55560,388305,440360,-24,-2,1007,1
55557,388314,440435,-28,-2,1026,1
55585,388441,440500,-28,1,1017,1
55523,388606,440615,-23,-4,1017,1
55736,388764,440691,-20,-3,1027,1
55787,388776,440751,-26,-3,1020,1
55741,388844,440731,-26,-9,1018,1
55790,388835,440755,-27,1,1018,1
55920,389019,441004,-28,1,1002,1
55898,389095,440958,-28,-3,1017,1
55930,389213,441023,-25,-2,1038,1
55884,389164,440965,-27,-4,1038,1
55951,389293,441042,-27,-4,1017,1
56028,389414,441042,-27,0,1024,1
56052,389447,441209,-23,-3,1024,1
56084,389561,441199,-24,-3,1020,1
56107,389494,441285,-24,2,1029,1
56081,389432,441213,-25,2,1029,1
56074,389434,441296,-21,2,1017,1
55780,388838,440861,-21,-12,1023,1
55615,388401,440537,-29,-5,1023,1
55411,387864,440249,-17,2,1020,1
55208,387472,439926,-17,2,1027,1
55099,387081,439798,-28,3,1027,1
54857,386254,439169,-24,3,1027,1
54722,385897,438972,-21,3,1032,1
54686,385549,438774,-21,0,1017,1
54597,385399,438694,-20,-4,1017,1
54472,385349,438664,-16,-1,1008,1
54405,384892,438477,-33,-1,1059,1
54385,384780,438364,-33,-3,1059,1
54332,384737,438410,-22,-3,1027,1
54312,384755,438355,-21,-3,1047,1
54253,384636,438353,-21,-6,1026,1
54322,384689,438362,-26,3,1026,1
54384,384837,438438,-26,3,1014,1
54483,384903,438552,-26,0,1032,1
54429,385122,438651,-22,-5,1032,1
54488,385478,438844,-20,-5,1032,1
54499,385858,439064,-22,-4,1011,1
54737,385913,439219,-22,-4,1013,1
54724,386022,439247,-19,1,1013,1
54796,386207,439398,-30,1,1004,1
54789,386475,439510,-30,-2,1035,1
54858,386523,439586,-30,0,1035,1
54992,386545,439667,-20,0,1030,1
54947,386717,439677,-20,-2,1016,1
54947,386797,439710,-21,4,1016,1
54887,386901,439747,-20,4,1023,1
55021,387128,439948,-16,0,1030,1
55106,387250,440005,-16,-4,1029,1
55152,387293,440028,-21,1,1029,1
55172,387428,440203,-14,1,1029,1
55202,387631,440328,-14,1,1020,1
55318,387776,440464,-25,-4,1020,1
55407,387866,440488,-27,1,1016,1
55362,388039,440538,-27,1,1024,1
55404,388090,440543,-24,-11,1024,1
55465,388142,440585,-21,0,1040,1
55596,388372,440771,-26,0,1023,1
55600,388410,440739,-26,0,1032,1
55645,388479,440786,-27,0,1032,1
55664,388593,440910,-21,0,993,1
55724,388664,440933,-21,2,1020,1
55755,388872,441103,-27,0,1020,1
55826,388770,441077,-15,0,1020,1
55826,388881,441141,-27,1,1011,1
55875,388945,441199,-27,-2,1037,1
55889,389028,441175,-25,-2,1037,1
55899,389155,441273,-25,-2,1026,1
55890,389140,441239,-25,-4,1017,1
56022,389203,441393,-34,-6,1017,1
55956,389253,441391,-27,-6,1018,1
55991,389263,441389,-27,5,1018,1
56029,389164,441319,-29,3,1018,1
55836,388743,441036,-24,3,1044,1
55692,388433,440835,-26,3,1027,1
55550,387995,440547,-26,-1,1024,1
55288,387555,440258,-28,0,1024,1
55100,387258,440128,-24,0,1023,1
54843,386332,439512,-24,-1,1021,1
54707,386036,439269,-19,3,1021,1
54726,385677,439150,-18,3,1029,1
54593,385365,438969,-24,-5,1018,1
54559,385373,438978,-24,1,1029,1
54452,384913,438699,-21,-10,1029,1
54292,384786,438652,-18,-10,1024,1
54231,384723,438602,-18,3,1024,1
54160,384720,438499,-22,-8,1024,1
54212,384679,438514,-16,-8,1018,1
54144,384695,438542,-16,-6,1013,1
54187,384733,438544,-24,2,1013,1
54242,384759,438676,-19,2,1027,1
54230,385042,438861,-19,0,1041,1
54349,385247,439132,-29,-6,1008,1
54492,385619,439190,-20,-5,1008,1
54580,385906,439385,-26,-5,1018,1
54570,386093,439421,-26,2,1038,1
54549,386099,439499,-20,3,1038,1
54638,386398,439701,-29,3,1043,1
54770,386522,439737,-26,-2,1018,1
54754,386526,439796,-26,-5,1023,1
54723,386565,439742,-24,-5,1023,1
54775,386659,439849,-24,-1,1035,1
54761,387015,440050,-24,0,1027,1
54887,386897,440015,-17,-6,1027,1
54880,387111,440139,-28,-6,1038,1
54969,387162,440192,-28,6,1008,1
54926,387240,440168,-30,-3,1008,1
54997,387388,440295,-22,-3,1026,1
55126,387500,440384,-22,-9,1029,1
55079,387601,440479,-22,-1,1014,1
55065,387754,440560,-25,3,1014,1
55164,387835,440560,-32,3,1035,1
55176,387944,440649,-32,2,1015,1
55102,388088,440786,-23,-8,1015,1
55359,388125,440870,-15,-8,1033,1
55355,388247,440835,-15,-1,1013,1
55385,388260,440918,-25,-12,1013,1
55386,388348,440972,-24,-2,1020,1
55425,388531,441103,-24,-2,1033,1
55509,388619,441208,-32,1,1035,1
55555,388667,441100,-23,0,1035,1
55523,388643,441136,-20,0,1037,1
55522,388734,441176,-20,-7,1032,1
55592,388906,441328,-25,5,1032,1
55646,388884,441355,-23,5,1043,1
55631,389100,441528,-20,-2,1026,1
55710,389114,441435,-20,2,1026,1
55733,389185,441492,-21,-1,1027,1
55750,389059,441423,-12,-1,1037,1
55642,389050,441278,-12,-4,1035,1
55559,388838,441306,-24,-3,1035,1
55508,388525,441036,-21,-3,1008,1
55299,388230,440809,-21,3,1008,1
55225,387809,440278,-15,6,1008,1
54862,386777,439992,-25,6,1032,1
54657,386493,439835,-25,1,1017,1
54609,386175,439605,-28,-10,1023,1
54457,385857,439345,-27,-1,1023,1
54379,385598,439151,-22,-1,1027,1
54239,385255,438957,-22,-1,1018,1
54277,385169,438978,-28,-2,1018,1
54176,385041,438883,-27,-2,1037,1
54089,385025,438860,-27,-1,1010,1
54116,385024,438851,-21,10,1010,1
54094,384874,438819,-22,10,1037,1
54041,384949,438838,-21,-1,1023,1
54113,385053,438977,-21,-3,1035,1
54197,385105,439047,-21,0,1035,1
54219,385399,439380,-28,0,1013,1
54425,385778,439505,-28,-3,1030,1
54389,385891,439636,-23,-8,1030,1
54500,386180,439807,-24,-1,1027,1
54447,386257,439811,-24,-1,1024,1
54535,386620,439977,-26,-11,1033,1
54561,386685,440127,-19,2,1033,1
54651,386793,440199,-27,2,1047,1
54698,386913,440172,-27,0,1014,1
54704,386995,440195,-22,-9,1014,1
54856,387083,440370,-18,-9,1021,1
54810,387324,440395,-18,0,1020,1
54823,387406,440565,-15,-7,1020,1
54840,387478,440555,-23,-7,1021,1
54882,387519,440606,-23,-7,1032,1
54893,387706,440721,-21,-3,1030,1
54982,387796,440805,-26,-1,1030,1
55091,387911,440831,-27,-1,1023,1
55058,387991,440895,-27,5,1030,1
55136,388083,441040,-21,3,1030,1
55156,388218,441093,-21,-2,1037,1
55186,388423,441202,-21,-2,1021,1
55224,388541,441297,-27,6,1021,1
55238,388573,441265,-32,-1,1010,1
55339,388692,441329,-27,-1,1032,1
55302,388945,441458,-27,0,1021,1
55380,388900,441626,-24,2,1021,1
55438,388997,441621,-18,2,1020,1
55465,389011,441597,-18,1,1038,1
55466,389209,441684,-23,-3,1038,1
55455,389353,441779,-22,-3,1024,1
55585,389414,441875,-22,-3,1032,1
55633,389537,441965,-18,9,1026,1
55652,389618,441975,-29,-1,1026,1
55771,389728,442073,-21,-1,1013,1
55777,389767,442212,-21,0,1032,1
55825,389887,442165,-19,-10,1032,1
55806,389957,442212,-22,-10,1032,1
55852,389934,442220,-30,3,1024,1
55799,389836,442211,-30,0,1013,1
55731,389640,442147,-19,-7,1013,1
55460,389004,441628,-25,-7,1024,1
55316,388568,441355,-25,3,1032,1
55085,388162,441205,-21,-2,1032,1
54958,387753,440880,-33,-2,1024,1
54899,387550,440775,-33,-3,1029,1
54826,387096,440449,-21,-3,1029,1
54629,386878,440381,-29,-1,1033,1
54559,386745,440249,-29,-1,1029,1
54591,386649,440323,-18,6,1023,1
54552,386663,440359,-30,0,1023,1
54487,386562,440275,-18,0,1029,1
54432,386473,440249,-18,2,1024,1
54460,386518,440302,-26,2,1024,1
54402,386538,440274,-23,2,1027,1
54535,386665,440434,-23,-3,1038,1
54521,386995,440743,-25,-1,1038,1
54696,387216,440849,-28,-1,1038,1
54734,387448,440955,-28,-8,1017,1
54851,387670,441141,-28,0,1013,1
54899,387864,441191,-21,-6,1013,1
54981,388128,441515,-26,-6,1035,1
54945,388323,441547,-26,-5,1021,1
54952,388506,441612,-23,0,1021,1
55095,388654,441718,-23,0,1034,1
55105,388709,441742,-21,-6,1030,1
55128,388939,442053,-21,-3,1030,1
55258,389096,442126,-19,0,1027,1
55295,389187,442111,-23,0,1018,1
55340,389378,442126,-23,-2,1037,1
55328,389422,442294,-18,-9,1037,1
55384,389628,442545,-19,-9,1032,1
55548,389902,442591,-19,0,1018,1
55602,390069,442718,-21,-2,1018,1
55602,390143,442803,-21,-9,1021,1
55669,390331,442862,-21,-9,1020,1
55707,390450,443175,-23,3,1026,1
55718,390710,443100,-27,0,1026,1
55875,390742,443166,-32,0,1041,1
55931,390858,443279,-32,4,1032,1
55976,391042,443443,-21,6,1032,1
55968,391290,443677,-29,6,1037,1
56051,391408,443705,-29,3,1027,1
56090,391524,443820,-21,-7,1027,1
56149,391586,443854,-24,-7,1032,1
56204,391814,443856,-20,1,1056,1
56182,392119,443996,-20,-8,1040,1
56347,392067,444106,-23,-3,1040,1
56381,392145,444214,-30,-3,1020,1
56405,392275,444276,-30,-3,1023,1
56368,392343,444348,-25,-8,1023,1
56447,392473,444469,-25,-8,1052,1
56521,392689,444456,-20,1,1030,1
56525,392623,444426,-20,-5,1030,1
56481,392535,444455,-28,-7,1014,1
56371,392381,444421,-27,-7,1032,1
56315,392186,444230,-27,0,1024,1
56035,391551,443818,-27,-2,1024,1
55866,391078,443573,-32,-2,1032,1
55667,390739,443264,-32,3,1026,1
55515,390420,443054,-30,-9,1026,1
55443,390315,443094,-20,-9,1026,1
55255,389801,442621,-20,1,1023,1
55253,389580,442621,-22,1,1034,1
55241,389454,442536,-18,-2,1034,1
55216,389363,442483,-15,-2,1016,1
55151,389494,442506,-15,-4,1016,1
55056,389183,442422,-26,-9,1016,1
55090,389237,442421,-21,-9,1018,1
55133,389269,442546,-21,1,1004,1
55090,389280,442520,-13,-3,1004,1
55182,389541,442715,-24,-3,1024,1
55323,389964,443015,-23,1,1027,1
55437,390160,443179,-23,-10,1017,1
55443,390368,443281,-30,0,1017,1
55441,390631,443421,-26,0,1010,1
55541,390797,443618,-26,1,1029,1
55539,391081,443727,-27,-4,1046,1
55675,391174,443844,-18,-4,1046,1
55737,391331,443878,-18,3,1038,1
55736,391459,444008,-21,-9,1021,1
55858,391649,444126,-21,-5,1021,1
55952,391773,444239,-21,-5,1035,1
55960,391969,444368,-21,-1,1008,1
56029,392119,444456,-19,0,1008,1
56059,392217,444509,-21,0,1030,1
56131,392506,444731,-21,-1,1018,1
56189,392594,444769,-23,1,1018,1
56212,392724,444873,-25,1,1015,1
56270,392964,444959,-22,-3,1027,1
56328,393034,445087,-22,-3,1017,1
56363,393213,445183,-21,-5,1017,1
56290,393385,445303,-29,-5,1037,1
56479,393445,445386,-29,-3,1024,1
56599,393626,445465,-19,-2,1024,1
56636,393701,445593,-18,3,1020,1
56676,393918,445636,-18,3,1024,1
56671,394036,445788,-22,-1,1032,1
56752,394202,445894,-21,-1,1032,1
56833,394199,445906,-19,-1,1014,1
56807,394325,445959,-19,1,1001,1
56871,394455,446134,-23,0,1001,1
56918,394653,446288,-29,0,1002,1
56996,394731,446303,-29,-5,1029,1
56972,394751,446324,-22,0,1029,1
57045,394784,446445,-28,0,1023,1
57095,394936,446478,-28,-3,1020,1
57067,395076,446535,-34,-1,1023,1
57155,395097,446501,-31,-6,1023,1
57149,395025,446442,-25,-6,1017,1
57046,394776,446425,-25,-5,1018,1
56825,394468,446155,-21,4,1018,1
56717,394131,445675,-25,4,1017,1
56326,393086,445312,-26,1,1034,1
56192,392667,445063,-26,-6,1032,1
55976,392182,444788,-23,-6,1032,1
55902,391776,444607,-25,-1,1020,1
55772,391669,444157,-25,-3,1030,1
55559,390936,444041,-22,-3,1030,1
55559,390670,444008,-18,-3,1027,1
55424,390592,443846,-18,-10,1008,1
55406,390382,443812,-18,-5,1008,1
55391,390392,443765,-32,-5,1030,1
55304,390132,443697,-29,-3,1023,1
55282,390138,443753,-29,-2,1027,1
55305,390143,443729,-23,1,1027,1
55311,390180,443798,-21,1,1032,1
55338,390291,443961,-21,-4,1043,1
55485,390590,444178,-23,-1,1043,1
55533,390841,444299,-22,-1,1040,1
55619,391115,444423,-22,3,1020,1
55693,391254,444566,-30,-9,1020,1
55702,391483,444808,-29,-9,1024,1
55773,391843,444919,-30,3,1027,1
55872,391841,445024,-30,-3,1033,1
55841,392049,445138,-29,-5,1033,1
55855,392091,445123,-23,-5,1011,1
56012,392294,445389,-23,3,1015,1
56014,392411,445349,-30,3,1015,1
56088,392569,445522,-22,-3,1017,1
56104,392666,445477,-22,-3,1017,1
56120,392849,445665,-18,-8,1044,1
56131,392946,445642,-18,5,1044,1
56247,392989,445806,-27,5,1015,1
56309,393236,445860,-27,-9,1029,1
56308,393381,445977,-24,0,1029,1
56366,393418,446084,-15,0,1017,1
56440,393660,446227,-15,0,1027,1
56577,393741,446344,-18,-5,1027,1
56641,393953,446394,-26,-5,1053,1
56602,394012,446458,-26,-9,1018,1
56675,394096,446545,-24,-1,1026,1
56733,394254,446624,-23,0,1026,1
56693,394353,446779,-23,0,1018,1
56738,394442,446806,-23,-8,1024,1
56846,394500,446821,-22,0,1024,1
56838,394540,446871,-20,0,1023,1
56895,394730,446998,-21,-4,1035,1
56963,394852,447128,-21,3,1035,1
57017,394948,447194,-22,3,1035,1
57028,394958,447157,-19,-4,1026,1
57024,395014,447200,-19,2,1038,1
57078,395179,447330,-19,-1,1038,1
57091,395136,447341,-32,-1,1029,1
57121,395159,447359,-32,1,1037,1
57052,395082,447277,-23,-3,1037,1
56976,395060,447245,-20,-3,1013,1
56999,394921,447235,-20,-3,1027,1
56727,394014,446635,-24,-7,1035,1
56487,393540,446337,-24,0,1035,1
56251,393090,446019,-31,0,1038,1
56115,392603,445757,-31,2,1021,1
55970,392145,445508,-27,-1,1021,1
55903,391351,445072,-18,-1,1037,1
55644,391146,444945,-18,-3,1033,1
55570,390848,444807,-31,-6,1033,1
55507,390595,444776,-23,-6,1016,1
55353,390541,444557,-27,-8,1016,1
55359,390487,444499,-27,-1,1030,1
55275,390202,444481,-33,-7,1030,1
55198,390041,444397,-39,-7,1030,1
55187,390073,444384,-39,0,1020,1
55106,390062,444375,-22,-3,1020,1
55159,390128,444571,-21,-3,1026,1
55303,390413,444721,-21,-2,1033,1
55354,390512,444810,-15,-4,1010,1
55330,390757,444938,-31,0,1010,1
55441,391062,445144,-30,0,1024,1
55474,391265,445473,-30,-9,1007,1
55650,391499,445589,-21,-5,1007,1
55724,391676,445518,-21,-5,1029,1
55707,391841,445618,-21,-2,1017,1
55699,392025,445669,-21,-4,1017,1
55711,392143,445925,-19,-3,1033,1
55819,392263,445880,-19,-3,1033,1
55889,392340,446007,-22,-4,1007,1
55914,392417,446050,-17,-4,1007,1
55952,392490,446144,-28,-4,1026,1
55837,392784,446211,-28,-6,1020,1
56023,392930,446330,-28,-3,1020,1
56138,393005,446478,-30,-3,1017,1
56187,393087,446523,-22,0,998,1
56122,393193,446554,-22,-6,998,1
56270,393233,446653,-17,0,1016,1
56252,393522,446770,-24,0,1011,1
56274,393584,446876,-24,-3,1018,1
56352,393668,446915,-26,-5,1018,1
56402,393706,446902,-21,-5,1026,1
56462,393911,447068,-21,-3,1033,1
56516,394066,447161,-18,-4,1033,1
56569,394124,447109,-24,1,1020,1
56625,394157,447214,-24,1,1038,1
56653,394202,447304,-28,-1,1007,1
56643,394307,447482,-25,0,1007,1
56700,394411,447424,-16,0,1017,1
56711,394477,447545,-16,-1,1027,1
56725,394506,447495,-28,-3,1027,1
56778,394497,447505,-23,-3,1007,1
56818,394758,447794,-23,-2,1041,1
56916,394727,447640,-23,-2,1041,1
56840,394784,447664,-20,-2,1026,1
56863,394787,447665,-27,-2,1021,1
56883,394697,447608,-27,3,1005,1
56845,394753,447629,-21,0,1005,1
56584,394047,447226,-25,0,1026,1
56490,393717,446977,-25,-8,1023,1
56233,393103,446598,-20,-3,1023,1
55975,392613,446301,-22,-3,1018,1
55880,392284,446150,-22,7,1027,1
55597,391505,445662,-22,-4,1027,1
55538,391153,445511,-30,-5,1040,1
55393,390850,445293,-26,-5,1044,1
55255,390632,445234,-26,-6,1024,1
55200,390537,445187,-33,-3,1024,1
55150,390177,444959,-21,-3,1023,1
55052,389986,444823,-21,-3,1040,1
55056,389978,444877,-18,-2,1040,1
55046,389899,444820,-15,-4,1021,1
55005,389985,444910,-18,-4,1020,1
55002,390100,444952,-18,-1,1027,1
54994,390185,445076,-21,3,1027,1
55099,390335,445222,-24,3,1027,1
55167,390604,445305,-24,-6,1014,1
55241,390844,445493,-24,-7,1014,1
55211,391252,445779,-22,-3,1020,1
55436,391401,445874,-22,-3,1011,1
55483,391629,445951,-27,5,1011,1
55485,391693,446040,-25,-2,1030,1
55526,391846,446131,-30,-2,1033,1
55510,392105,446279,-30,0,1030,1
55620,392196,446361,-26,-7,1030,1
55680,392171,446368,-23,-7,1023,1
55692,392339,446418,-23,3,1020,1
55729,392459,446470,-24,-2,1011,1
55877,392710,446635,-21,-2,1011,1
55884,392813,446822,-21,0,1050,1
55888,392885,446855,-20,-5,1026,1
55968,393061,446883,-22,2,1026,1
55856,393075,446886,-21,2,1043,1
56012,393197,447069,-21,-3,1035,1
56091,393405,447093,-20,-3,1035,1
56097,393484,447200,-23,-3,1005,1
56218,393580,447340,-23,1,1026,1
56162,393713,447300,-30,1,1018,1
56282,393863,447541,-28,1,1018,1
56221,393878,447439,-24,2,1026,1
56311,393978,447491,-24,-1,1029,1
56255,394036,447529,-24,5,1029,1
56329,394112,447668,-25,5,1021,1
56367,394230,447827,-25,1,1027,1
56497,394379,447810,-26,0,1030,1
56449,394419,447819,-26,-4,1030,1
56499,394425,447950,-23,-4,1013,1
56563,394492,447926,-23,0,1030,1
56428,394700,448081,-21,-4,1030,1
56582,394617,447999,-23,-4,1023,1
56656,394789,448053,-23,-4,1027,1
56673,394760,448090,-23,-3,1027,1
56693,394775,448064,-23,-3,1035,1
56719,394735,448113,-23,1,1008,1
56482,394307,447882,-24,-2,1008,1
56386,394038,447658,-24,2,1033,1
56145,393625,447392,-24,2,1018,1
55997,393151,447092,-23,3,1015,1
55887,392827,446842,-29,3,1015,1
55457,391799,446264,-30,3,1023,1
55376,391345,446013,-30,1,1017,1
55354,391022,445822,-20,-5,1017,1
55252,390819,445666,-29,-3,1017,1
55183,390650,445800,-29,-3,1033,1
54998,390264,445385,-27,3,1023,1
54927,390158,445372,-26,1,1023,1
54866,390057,445304,-28,1,1008,1
54882,389933,445206,-28,2,1015,1
54851,390199,445363,-22,4,1015,1
54761,389895,445284,-23,4,1001,1
54747,389994,445316,-23,-3,1020,1
54875,390083,445397,-21,-3,1020,1
54932,390296,445518,-19,-3,1035,1
54909,390541,445655,-19,0,1037,1
55034,390905,445860,-30,-2,1021,1
55081,391089,445963,-17,-3,1021,1
55132,391128,446077,-29,-3,1032,1
55205,391161,446117,-29,-3,1018,1
55137,391423,446293,-22,-1,1018,1
55284,391564,446291,-25,-1,1040,1
55327,391639,446283,-25,1,1029,1
55327,391729,446433,-30,7,1029,1
55392,391818,446555,-21,0,1013,1
55410,392068,446754,-25,0,1032,1
55301,392120,446717,-25,-8,1021,1
55456,392247,446841,-17,0,1021,1
55521,392339,446891,-19,0,1037,1
55539,392386,446891,-19,-14,1027,1
55609,392562,447003,-27,6,1027,1
55718,392749,447217,-28,6,1023,1
55669,392838,447227,-16,0,1018,1
55774,392924,447219,-16,0,1037,1
55773,393035,447316,-17,4,1037,1
55798,393256,447502,-30,4,1010,1
55937,393417,447566,-30,-1,1024,1
55900,393512,447572,-26,-5,1024,1
55972,393550,447702,-21,-5,1008,1
56061,393679,447780,-18,-8,1032,1
55987,393795,447778,-18,6,1023,1
56014,393860,447920,-20,6,1023,1
56064,393855,447895,-25,-2,1027,1
56179,393991,447953,-25,-9,1020,1
56194,394156,448031,-21,-1,1020,1
56206,394317,448069,-22,-1,1014,1
56332,394524,448293,-22,0,1027,1
56301,394509,448302,-20,-2,1027,1
56375,394520,448376,-23,-2,1021,1
56327,394598,448364,-23,-1,1027,1
56416,394684,448358,-25,0,1027,1
56453,394807,448648,-27,2,1026,1
56437,394728,448462,-33,2,1029,1
56368,394523,448276,-33,0,1010,1
56294,394285,448101,-16,0,1010,1
56137,393959,447896,-25,0,1014,1
55897,393640,447537,-25,0,1032,1
55719,392815,447162,-18,-7,1032,1
55501,392414,446924,-14,2,1016,1
55348,392011,446649,-14,2,1043,1
55343,391731,446638,-21,1,1032,1
55237,391574,446381,-21,6,1032,1
55098,391235,446277,-20,6,1010,1
55106,391125,446333,-20,-12,1013,1
54999,391057,446223,-27,-1,1013,1
54978,390936,446224,-23,-1,1052,1
54958,391134,446218,-23,-4,1032,1
54914,390887,446157,-17,-3,1032,1
54915,390984,446208,-18,1,1047,1
55016,391038,446320,-27,1,1027,1
55002,391285,446474,-27,5,1010,1
55058,391608,446757,-25,2,1010,1
55244,391836,446909,-21,2,1015,1
55318,392201,447108,-21,3,1032,1
55345,392361,447242,-15,0,1032,1
55443,392612,447406,-27,0,1020,1
55508,392842,447601,-27,0,1021,1
55506,393068,447712,-30,0,1007,1
55606,393164,447776,-24,3,1007,1
55600,393305,447763,-22,3,1015,1
55624,393486,447858,-22,-9,1029,1
55647,393530,447969,-15,-2,1029,1
55684,393807,448070,-23,-2,1026,1
55800,394032,448166,-23,-3,1021,1
55833,394160,448321,-16,8,1021,1
55909,394268,448450,-19,8,1027,1
55913,394471,448620,-23,-3,1030,1
55968,394711,448680,-23,1,1021,1
56112,394845,448775,-28,1,1021,1
