72776,390753,414176,-23,-14,1041,1
72807,390772,414169,-23,-15,1030,1
72799,390761,414252,-20,-24,1030,1
72750,390800,414313,-17,-24,1049,1
72793,390868,414368,-17,-15,1021,1
72937,391004,414483,-20,-18,1021,1
73033,391213,414676,-18,-18,1030,1
73148,391338,414751,-18,-16,1029,1
73199,391471,414821,-21,-12,1029,1
73239,391465,414883,-17,-12,1026,1
73327,391620,414845,-13,-12,1033,1
73415,391874,415143,-13,-15,1035,1
73588,391970,415208,-15,-5,1035,1
73582,392110,415227,-11,-5,1040,1
73614,392174,415265,-11,-12,1017,1
73688,392202,415418,-18,-16,1017,1
73768,392455,415529,-17,-16,1016,1
73960,392499,415548,-17,-14,1038,1
73979,392623,415711,-15,-8,1027,1
73987,392740,415737,-15,-8,1027,1
74025,392861,415779,-15,-12,1032,1
74128,392927,415799,-20,-17,1027,1
74221,393094,415974,-21,-12,1027,1
74334,393144,416001,-16,-12,1023,1
74310,393265,416049,-16,-10,1046,1
74426,393232,416100,-9,-4,1046,1
74483,393455,416273,-7,-4,1017,1
74421,393567,416347,-7,-12,1027,1
74565,393609,416431,-19,-15,1027,1
74746,393721,416512,-17,-15,1029,1
74796,393827,416644,-17,-14,1030,1
74780,393896,416672,-11,-15,1017,1
74883,394041,416714,-26,-17,1017,1
74911,394094,416817,-10,-17,1013,1
75024,394225,416794,-10,-6,1026,1
75020,394302,416924,-13,-11,1026,1
75150,394403,416970,-12,-11,1040,1
75156,394495,417019,-12,-15,1023,1
75222,394721,417184,-16,-15,1023,1
75286,394598,417186,-11,-15,1024,1
75327,394683,417182,-11,-11,1043,1
75464,394815,417318,-15,-13,1016,1
75352,394981,417508,-11,-18,1016,1
75558,395023,417478,-18,-18,1032,1
75657,395100,417455,-18,-15,1021,1
75696,395133,417475,-23,-13,1021,1
75733,395209,417557,-18,-13,1029,1
75916,395419,417786,-18,-6,1024,1
75882,395392,417712,-16,-9,1024,1
75941,395474,417830,-23,-9,1014,1
75950,395514,417835,-23,-16,1026,1
75983,395619,417932,-18,-12,1026,1
76155,395684,418052,-12,-12,1033,1
76189,395816,418091,-12,-10,1020,1
76237,395938,418129,-17,-12,1017,1
76230,395991,418117,-17,-18,1017,1
76273,395982,418171,-23,-18,1029,1
76378,396021,418145,-23,-20,1023,1
76161,395807,418186,-18,-14,1023,1
75916,395566,418007,-10,-14,1035,1
75752,395304,417942,-10,-12,1026,1
75420,394949,417779,-9,-16,1023,1
75293,394725,417486,-16,-9,1023,1
74799,394088,417519,-16,-9,1027,1
74550,393789,417368,-15,-12,1027,1
74383,393609,417277,-13,-16,1032,1
74327,393454,417208,-14,-16,1038,1
74204,393476,417182,-14,-12,1032,1
73935,393018,417051,-17,-13,1032,1
73875,392929,417044,-17,-13,1030,1
73826,392870,417031,-17,-18,1047,1
73680,392834,417053,-18,-9,1047,1
73660,392952,417085,-21,-20,1050,1
73551,392557,416927,-21,-20,1024,1
73466,392494,416926,-11,-12,1049,1
73473,392500,416984,-15,-10,1049,1
73419,392497,416962,-15,-10,1023,1
73442,392484,417079,-15,-12,1024,1
73343,392635,417064,-24,-11,1024,1
73479,392660,417249,-11,-11,1035,1
73537,392812,417230,-11,-5,1026,1
73624,392949,417326,-24,-18,1026,1
73739,393171,417505,-21,-18,1035,1
73878,393375,417658,-21,-18,1038,1
73874,393498,417747,-14,-11,1044,1
73979,393510,417870,-15,-11,1044,1
74066,393617,417967,-15,-12,1023,1
74082,393839,418143,-18,-9,1092,1
74172,393933,418201,-29,-9,1092,1
74219,393999,418202,-28,-9,1050,1
74313,394198,418361,-28,-9,1024,1
74351,394265,418409,-25,-10,1024,1
74407,394651,418553,-33,-10,1017,1
74547,394720,418641,-33,-12,1021,1
74705,394840,418801,-31,-12,1021,1
74707,394968,418888,-32,-8,1029,1
74733,395087,418942,-32,-8,999,1
74861,395235,418993,-27,-13,1035,1
74968,395381,419154,-26,-9,1035,1
75101,395523,419184,-20,-9,1020,1
75099,395586,419314,-20,-17,1037,1
75147,395739,419333,-22,-13,1037,1
75277,395885,419520,-21,-13,1023,1
75400,396052,419655,-21,-5,1021,1
75512,396184,419730,-23,-13,1021,1
75554,396279,419692,-27,-13,1041,1
75681,396305,419778,-27,-12,1026,1
75702,396528,419949,-22,-19,1026,1
75753,396659,420078,-18,-19,1017,1
75866,396712,420113,-19,-11,1032,1
75959,396969,420194,-19,-11,1018,1
76014,396947,420291,-18,-16,1018,1
76034,397147,420368,-18,-16,1026,1
76141,397353,420473,-18,-9,1030,1
76240,397392,420479,-29,-12,1030,1
76269,397424,420537,-26,-12,1030,1
76330,397584,420649,-26,-11,1027,1
76500,397743,420780,-16,-11,1027,1
76419,397865,420861,-25,-4,1032,1
76627,398029,420860,-22,-4,1026,1
76672,398057,420857,-22,-12,1026,1
76772,398093,420991,-27,-12,1013,1
76889,398364,421136,-24,-4,1044,1
76826,398432,421210,-24,-17,1020,1
77067,398543,421298,-22,-15,1020,1
77058,398615,421291,-25,-15,1024,1
77120,398753,421454,-25,-11,1037,1
77241,398738,421522,-24,-10,1037,1
77413,399008,421628,-24,-10,1021,1
77310,399048,421603,-24,-12,1040,1
77510,399148,421702,-21,-12,1040,1
77563,399257,421739,-21,-12,1033,1
77552,399373,421815,-21,-19,1026,1
77712,399391,421967,-22,-8,1038,1
77588,399342,421855,-26,-9,1038,1
77451,399171,421796,-21,-9,1035,1
77228,398999,421753,-21,-16,1026,1
76974,398771,421667,-16,-10,1026,1
76825,398595,421339,-27,-10,1035,1
76296,397849,421266,-27,-10,1037,1
76155,397600,421250,-23,-9,1021,1
76113,397549,421225,-30,-9,1021,1
75885,397256,421163,-30,-12,1017,1
75860,397340,421150,-21,-18,1017,1
75704,397125,421040,-20,-9,999,1
75577,397133,421120,-26,-9,1026,1
75510,397034,420988,-26,-12,1050,1
75442,396881,421049,-23,-11,1050,1
75467,397138,421105,-17,-11,1035,1
75340,396919,421110,-17,-15,1049,1
75373,396967,421174,-26,-10,1049,1
75298,396844,421198,-23,-10,1024,1
75307,396965,421202,-24,-9,1029,1
75386,397053,421244,-24,-6,1029,1
75404,397130,421452,-27,-16,1004,1
75510,397246,421498,-21,-16,1017,1
75506,397404,421626,-21,-12,1014,1
75553,397456,421594,-18,-12,1014,1
75650,397609,421773,-20,-12,1020,1
75870,397812,421785,-20,-3,1010,1
75876,397898,421928,-26,-9,1010,1
75913,397935,422003,-25,-9,1043,1
75921,398030,422046,-25,-16,1017,1
76025,398108,422140,-28,1,1017,1
76039,398285,422240,-16,-17,1034,1
76123,398318,422258,-22,-17,1026,1
76172,398344,422304,-22,-12,1026,1
76179,398412,422444,-21,-6,1026,1
76322,398680,422634,-25,-6,1033,1
76331,398739,422605,-25,-6,1035,1
76465,398820,422665,-24,-16,1035,1
76505,398928,422799,-24,-16,1035,1
76576,399015,422904,-24,-11,1020,1
76641,399174,422972,-30,-18,1020,1
76705,399372,423085,-23,-18,1035,1
76752,399393,423085,-23,-9,1030,1
76852,399456,423212,-20,-14,1030,1
76963,399617,423313,-29,-14,1027,1
77015,399583,423399,-28,-14,1050,1
77132,399906,423525,-28,-10,1027,1
77173,399984,423512,-27,-10,1027,1
77294,400043,423485,-27,-10,1027,1
77194,400048,423519,-27,-14,1029,1
77306,400197,423783,-19,-9,1029,1
77371,400298,423713,-19,-9,1049,1
77500,400349,423823,-19,-16,1040,1
77502,400403,423804,-18,-15,1040,1
77573,400503,423927,-18,-15,1030,1
77586,400530,424008,-18,-11,1027,1
77748,400661,423961,-22,-8,1021,1
77722,400705,424141,-29,-13,1021,1
77817,400805,424147,-17,-13,1062,1
77825,400827,424176,-17,-12,1030,1
77955,401014,424357,-20,-9,1030,1
77950,401106,424351,-30,-9,1023,1
78074,401143,424362,-30,-12,1030,1
78090,401208,424396,-23,-8,1007,1
78174,401247,424478,-26,-8,1007,1
78188,401318,424540,-15,-10,1040,1
78029,401477,424660,-15,-7,1040,1
78415,401544,424727,-22,-12,1037,1
78505,401621,424755,-28,-12,1027,1
78529,401688,424816,-28,-9,1007,1
78552,401811,424849,-24,-15,1007,1
78638,401838,424999,-21,-15,1016,1
78584,401824,424929,-21,-1,1043,1
78543,401785,424936,-20,-2,1043,1
78343,401528,424775,-16,-2,1021,1
78193,401331,424619,-16,-11,1023,1
77938,401123,424413,-20,-9,1023,1
77408,400318,424294,-21,-9,1021,1
77203,400124,424182,-21,-18,1029,1
77008,399778,424159,-27,-15,1026,1
76845,399562,424092,-29,-6,1026,1
76684,399377,423888,-19,-6,1023,1
76426,399160,423812,-19,-16,1029,1
76314,399008,423837,-27,-8,1029,1
76210,398859,423730,-21,-8,1032,1
76221,398700,423784,-21,-11,1011,1
76132,398735,423714,-20,-8,1040,1
75953,398490,423708,-27,-8,1040,1
75915,398421,423621,-28,-12,1023,1
75827,398401,423732,-28,-9,1023,1
75766,398418,423594,-26,-14,1017,1
75776,398376,423645,-18,-14,1024,1
75676,398316,423775,-18,-7,1030,1
75685,398360,423757,-22,-6,1030,1
75801,398454,423787,-25,-6,1021,1
75888,398552,423890,-25,-11,1041,1
75808,398867,424046,-16,-13,1041,1
76026,398995,424134,-25,-13,1038,1
76139,399081,424196,-25,-10,1032,1
76219,399182,424342,-21,-18,1032,1
76248,399234,424306,-27,-18,1023,1
76316,399411,424463,-27,-12,1029,1
76313,399423,424416,-22,-4,1023,1
76513,399581,424666,-21,-9,1023,1
76414,399625,424537,-21,-9,1020,1
76508,399687,424697,-21,-10,1023,1
76671,399859,424765,-18,-14,1023,1
76819,400023,424893,-18,-14,1023,1
76864,400122,424989,-18,-14,1017,1
76907,400284,425120,-24,-13,1017,1
77027,400303,425166,-18,-13,1027,1
76991,400482,425412,-24,-15,1018,1
77027,400473,425195,-24,-5,1018,1
77186,400603,425375,-25,-9,1008,1
77222,400606,425351,-19,-9,1013,1
77248,400624,425410,-19,-10,1035,1
77278,400896,425536,-18,-10,1035,1
77470,400891,425664,-21,-10,1035,1
77471,400986,425714,-21,-12,1027,1
77498,401016,425665,-20,-9,1027,1
77595,401040,425771,-25,-9,1030,1
77672,401215,425752,-18,-13,1029,1
77744,401231,425883,-18,-8,1029,1
77773,401284,425904,-23,-8,1030,1
77765,401366,425891,-23,-9,1023,1
77826,401435,426021,-21,-10,1033,1
77914,401552,426094,-27,-7,1033,1
78002,401568,426078,-28,-7,1018,1
77994,401584,426154,-28,-13,1016,1
78090,401729,426233,-24,-15,1016,1
78115,401784,426259,-20,-15,1041,1
78237,401916,426332,-20,-15,1023,1
78065,401953,426446,-17,-9,1020,1
78337,401890,426383,-15,-9,1020,1
78311,402035,426484,-27,-1,1026,1
78421,402102,426495,-27,-21,1024,1
78475,402235,426610,-18,-12,1024,1
78493,402286,426693,-21,-12,1035,1
78617,402274,426736,-21,-7,1001,1
78580,402379,426793,-12,-10,1001,1
78685,402382,426809,-26,-10,1032,1
78676,402494,426901,-26,-17,1030,1
78763,402647,426881,-21,-16,1023,1
78841,402679,426930,-18,-16,1023,1
78835,402710,426982,-18,-8,1035,1
78879,402756,427020,-20,-10,1029,1
78937,402772,427067,-19,-14,1029,1
78774,402719,427149,-22,-14,1023,1
78801,402572,426954,-22,-13,1047,1
78652,402425,426849,-22,-10,1047,1
78436,402113,426758,-29,-10,1020,1
78143,401805,426634,-29,-20,1041,1
77952,401082,426345,-21,-12,1041,1
77370,400753,426192,-26,-12,1032,1
77278,400487,426092,-26,-12,1040,1
77100,400310,425925,-28,-14,1040,1
76897,400086,425898,-19,-14,1024,1
76819,399983,425726,-23,-9,1021,1
76581,399589,425834,-23,-9,1027,1
76533,399530,425718,-22,-7,1027,1
76409,399472,425733,-19,-7,1043,1
76277,399258,425770,-19,-18,1027,1
76210,399333,425642,-18,-14,1027,1
76091,399127,425626,-13,-14,1030,1
75982,399111,425714,-13,-5,1027,1
75954,399012,425671,-23,-7,1027,1
75962,398941,425690,-21,-7,1035,1
75987,398974,425762,-21,-15,1026,1
75919,399025,425766,-29,-9,1032,1
76006,399170,425811,-25,-14,1032,1
76123,399192,426000,-27,-14,1024,1
76209,399366,426065,-27,-18,1030,1
76284,399749,426270,-19,-9,1030,1
76338,399782,426318,-28,-9,1021,1
76328,399820,426228,-28,-12,1008,1
76530,399960,426317,-23,-4,1008,1
76536,400120,426450,-23,-13,1023,1
76484,400276,426477,-27,-13,1035,1
76655,400190,426615,-27,-13,1035,1
76805,400252,426672,-25,-13,1029,1
76754,400368,426690,-19,-8,1046,1
76821,400456,426720,-19,-4,1033,1
76951,400535,426937,-18,-12,1033,1
76981,400696,426982,-21,-12,1033,1
77056,400785,426991,-21,-7,1024,1
77110,400940,427143,-23,-17,1024,1
77171,400962,427142,-22,-17,1030,1
77231,401128,427245,-24,-14,1033,1
77389,401250,427326,-24,-12,1033,1
77406,401381,427438,-21,-12,1020,1
77508,401487,427514,-18,-12,1038,1
77590,401475,427559,-18,-10,1017,1
77635,401653,427786,-21,-10,1017,1
77693,401661,427768,-21,-10,1046,1
77816,401791,427809,-21,-9,1030,1
77816,401860,427791,-25,-4,1030,1
77849,402031,427867,-26,-4,1035,1
77886,402309,428102,-26,-13,1032,1
78012,402296,428156,-7,-6,1032,1
78104,402393,428100,-18,-6,1021,1
78134,402426,428175,-18,-11,1044,1
78187,402448,428214,-27,-4,1035,1
78265,402631,428293,-20,-15,1035,1
78400,402834,428384,-22,-15,1014,1
78464,402897,428483,-22,-15,1029,1
78535,402990,428602,-19,-5,1029,1
78568,403096,428692,-18,-5,1029,1
78656,403207,428751,-18,-18,1026,1
78756,403284,428895,-20,-6,1026,1
78867,403507,428888,-15,-6,1026,1
78874,403547,428947,-15,-12,1029,1
78984,403784,429105,-20,-9,1029,1
79113,403906,429214,-26,-9,1035,1
79013,403989,429409,-18,-7,1002,1
79249,404146,429415,-18,-7,1030,1
79343,404214,429528,-21,-12,1030,1
79402,404355,429579,-24,-12,1024,1
79446,404511,429653,-24,-15,1040,1
79564,404611,429723,-18,-5,1040,1
79625,404648,429758,-25,-5,1024,1
79690,404746,429866,-25,-5,1024,1
79802,404910,429967,-33,-9,1024,1
79828,405043,430120,-23,-9,1026,1
79877,405007,430116,-15,-9,1021,1
79729,404936,429980,-15,-11,1033,1
79664,404883,429949,-19,-13,1033,1
79555,404667,429830,-26,-13,1024,1
79201,404304,429758,-26,-12,1014,1
78834,403555,429506,-16,-3,1014,1
78504,403304,429483,-29,-3,1027,1
78325,403054,429230,-29,-7,1023,1
78207,402927,429185,-17,-13,1023,1
78044,402797,429130,-27,-6,1033,1
78053,402815,429108,-27,-6,1027,1
77717,402464,429028,-18,-15,1032,1
77721,402375,429074,-27,-13,1032,1
77628,402304,428906,-21,-13,1024,1
77458,402228,428985,-21,-5,1017,1
77586,402309,429081,-21,-8,1017,1
77279,402107,428997,-18,-8,1016,1
77338,402119,429094,-18,-13,1021,1
77242,402100,429133,-21,-5,1021,1
77224,402089,429110,-21,-5,1027,1
77222,402211,429277,-21,-3,1014,1
77271,402361,429285,-27,-21,1014,1
77332,402389,429313,-20,-21,1032,1
77404,402598,429451,-20,-9,1018,1
77505,402740,429571,-23,-5,1023,1
77555,403086,429793,-20,-11,1023,1
77725,403190,429774,-21,-11,1037,1
77826,403332,429945,-21,-5,1026,1
77944,403513,430022,-33,-12,1026,1
77967,403599,430021,-25,-12,1044,1
78037,403815,430254,-25,-12,1016,1
78206,403997,430359,-19,-4,1016,1
78161,404112,430357,-22,-15,1018,1
78301,404152,430418,-22,-15,1013,1
78356,404278,430448,-22,-14,1029,1
78464,404488,430585,-24,-12,1029,1
78635,404618,430768,-25,-12,1010,1
78711,404724,430851,-25,-8,1020,1
78665,404889,431010,-27,-14,1020,1
78718,405021,431087,-30,-14,1017,1
78905,405092,431184,-30,-15,1030,1
78971,405437,431370,-21,-9,1030,1
79170,405480,431457,-17,-9,1038,1
79162,405643,431415,-17,-8,1007,1
79261,405718,431600,-30,-11,1007,1
79253,405748,431726,-18,-11,1027,1
79402,405965,431759,-18,-3,1035,1
79490,406041,431739,-22,-15,1035,1
79522,406156,431875,-23,-12,1035,1
79609,406225,431956,-20,-12,1024,1
79678,406510,432197,-20,-10,1033,1
79777,406555,432180,-19,-12,1033,1
79831,406680,432186,-25,-12,1029,1
79843,406729,432245,-25,-14,1038,1
79879,406755,432293,-27,-15,1038,1
79997,407136,432546,-24,-15,1038,1
80078,407084,432596,-24,-9,1024,1
80211,407210,432687,-27,-21,1027,1
80182,407141,432656,-27,-12,1027,1
80291,407273,432647,-21,-12,1029,1
80253,407471,432744,-21,-13,1021,1
80376,407544,432914,-27,-14,1021,1
80428,407554,432817,-21,-14,1035,1
80504,407579,432886,-21,-15,1020,1
80523,407641,432895,-21,-11,1020,1
80492,407786,433094,-32,-11,1043,1
80618,407858,433118,-32,-9,1021,1
80683,407942,433137,-18,-6,1021,1
80794,407961,433214,-26,-12,1018,1
80773,408112,433264,-21,-12,1035,1
80859,408197,433412,-21,-12,1024,1
80786,408283,433452,-22,-13,1024,1
81002,408328,433487,-25,-13,1035,1
81041,408335,433508,-25,-9,1052,1
81008,408370,433541,-18,-17,1052,1
80849,408333,433480,-30,-17,1020,1
80850,407739,433277,-30,-5,1047,1
80304,407471,433111,-29,-10,1026,1
80006,407170,433041,-26,-13,1026,1
79758,406783,432886,-26,-13,1026,1
79602,406626,432819,-23,-10,1021,1
79450,406058,432654,-22,-14,1021,1
79034,405977,432592,-19,-14,1026,1
79012,405734,432435,-19,-11,1047,1
78877,405657,432440,-26,-18,1047,1
78847,405605,432473,-30,-18,1035,1
78561,405385,432408,-30,-10,1023,1
78627,405290,432341,-19,-7,1023,1
78545,405201,432305,-23,-7,1024,1
78448,405117,432320,-23,-3,1011,1
78364,405100,432283,-23,-9,1011,1
78512,405163,432235,-21,-10,1021,1
78376,404931,432244,-21,-10,1029,1
78319,404920,432291,-21,-11,1046,1
78272,405048,432338,-18,-13,1046,1
78423,405184,432475,-20,-13,1020,1
78487,405281,432643,-20,-9,1011,1
78649,405366,432597,-32,-9,1011,1
78688,405573,432665,-18,-9,1030,1
78862,405684,432739,-18,-7,1033,1
78842,405780,432761,-19,-8,1033,1
78902,405913,432931,-27,-8,1029,1
78979,405903,433072,-27,-17,1029,1
78999,406012,433092,-20,-9,1029,1
79098,406131,433006,-26,-9,1029,1
79178,406186,433139,-24,-9,1024,1
79137,406238,433231,-24,-15,1026,1
79291,406415,433343,-22,-12,1026,1
79376,406515,433395,-31,-12,1020,1
79490,406583,433444,-31,-18,1029,1
79489,406743,433504,-19,-11,1021,1
79558,406928,433723,-16,-14,1021,1
79676,406914,433728,-16,-14,1023,1
79754,407131,433883,-21,-20,1016,1
79799,407039,433808,-19,-9,1016,1
79864,407260,433938,-25,-9,1041,1
79767,407419,433964,-25,-7,1004,1
80047,407443,434131,-21,-7,1004,1
80092,407541,434099,-31,-7,1029,1
80068,407541,434184,-31,-17,1023,1
80182,407572,434231,-27,-17,1023,1
80290,407688,434334,-23,-17,1026,1
80275,407779,434405,-18,-14,1020,1
80309,407803,434363,-18,-12,1020,1
80398,407890,434466,-21,-12,1010,1
80464,407938,434451,-21,-18,1020,1
80470,408093,434592,-21,-13,1021,1
80689,408167,434624,-30,-12,1021,1
80648,408256,434654,-22,-12,1046,1
80710,408240,434656,-22,-11,1023,1
80771,408195,434713,-21,-9,1023,1
80784,408276,434854,-20,-9,1024,1
80881,408326,434818,-20,-12,1030,1
80871,408356,434872,-22,-3,1023,1
80946,408454,434920,-21,-3,1023,1
81025,408491,434908,-27,-12,1035,1
81014,408703,435103,-27,-9,1035,1
81163,408617,435147,-14,-5,1020,1
81222,408530,435108,-18,-5,1027,1
81195,408672,435094,-18,-9,1049,1
81244,408812,435165,-33,-17,1049,1
81322,408909,435239,-25,-17,1013,1
81445,408954,435372,-25,-15,1016,1
81504,409011,435410,-19,-10,1016,1
81516,409112,435541,-12,-10,1032,1
81563,409149,435483,-12,-9,1027,1
81601,409181,435542,-25,-14,1027,1
81521,409033,435531,-21,-14,999,1
81399,408913,435378,-21,-12,1033,1
81228,408665,435312,-27,-11,1027,1
80996,408399,435211,-18,-7,1027,1
80645,408106,435095,-24,-7,1005,1
80281,407203,434761,-24,-14,1033,1
79934,406967,434523,-18,-13,1033,1
79833,406623,434471,-26,-13,1017,1
79598,406515,434380,-26,-4,1029,1
79458,406247,434375,-18,-11,1029,1
79435,405960,434136,-22,-11,1052,1
79128,405855,434182,-21,-18,1023,1
78993,405774,434134,-21,-7,1023,1
78978,405718,434079,-25,-18,1047,1
78873,405680,434112,-21,-18,1018,1
78777,405556,434115,-21,-11,1011,1
78579,405414,434142,-24,-9,1011,1
78569,405307,434104,-21,-9,1035,1
78516,405399,434064,-21,-12,1024,1
78492,405416,434161,-30,-15,1024,1
78340,405407,434121,-18,-15,1044,1
78576,405483,434173,-18,-18,1024,1
78552,405562,434254,-21,-13,1035,1
78767,405755,434347,-23,-13,1035,1
78831,405928,434441,-23,-13,1023,1
78970,406189,434650,-21,-12,1014,1
78962,406215,434696,-26,1,1014,1
79105,406354,434716,-18,1,1013,1
79107,406463,434811,-18,-11,1021,1
79152,406555,434901,-27,-9,1021,1
79196,406678,434926,-26,-9,1010,1
79304,406739,435017,-26,-15,1020,1
79414,406904,435015,-21,-4,1020,1
79444,406934,435213,-27,-4,1018,1
79536,406901,435166,-27,-9,1037,1
79635,407206,435279,-21,-12,1037,1
79667,407250,435405,-24,-9,1040,1
79771,407418,435549,-22,-9,1029,1
79847,407512,435523,-22,-11,1043,1
79832,407635,435560,-15,-10,1043,1
79890,407728,435734,-18,-10,1035,1
80097,407864,435749,-18,-7,1029,1
80109,408030,435767,-16,-13,1029,1
80157,408041,435889,-17,-13,1032,1
80270,408155,435953,-25,-7,1026,1
80284,408507,436080,-25,-12,1026,1
80366,408315,436103,-21,-10,1021,1
80352,408465,436185,-26,-10,1032,1
80468,408540,436194,-26,-14,1032,1
80563,408555,436247,-21,-13,1032,1
80328,408749,436276,-28,-13,1040,1
80740,408755,436397,-28,-14,1038,1
80775,408783,436460,-25,-12,1038,1
80820,408860,436494,-19,-12,1047,1
80803,408899,436541,-19,-3,1035,1
81000,408963,436666,-31,-12,1035,1
81001,409071,436719,-21,-12,1049,1
81006,409134,436738,-21,-10,1029,1
81151,409200,436774,-27,2,1029,1
81075,409275,436843,-23,-20,1027,1
81167,409401,436830,-26,-20,1013,1
81294,409463,436864,-26,-13,1030,1
81328,409521,436931,-25,-15,1030,1
81390,409663,437081,-16,-15,1017,1
81418,409631,437119,-16,-17,1030,1
81551,409872,437216,-19,-4,1030,1
81481,409837,437260,-23,-8,1035,1
81532,409927,437325,-23,-8,1020,1
81572,409930,437289,-20,-12,1032,1
81617,409981,437295,-18,-9,1032,1
81589,410192,437584,-19,-9,1014,1
81759,410151,437410,-19,-18,1024,1
81777,410270,437486,-30,-9,1024,1
81893,410342,437545,-21,-9,1037,1
81835,410285,437580,-21,-4,1035,1
81924,410404,437655,-16,-8,1035,1
81799,410150,437548,-11,-8,1010,1
81570,409888,437403,-11,0,1024,1
81316,409588,437244,-17,-8,1038,1
81123,409321,437075,-22,-8,1038,1
80788,408892,436971,-22,-2,1016,1
80307,408156,436646,-18,-4,1023,1
80131,407859,436468,-20,-13,1023,1
79949,407733,436461,-22,-13,1050,1
79744,407562,436432,-22,-6,1023,1
79692,407405,436388,-17,-5,1023,1
79352,407150,436238,-32,-5,1037,1
79292,407067,436112,-32,-9,1017,1
79229,406929,436258,-32,-15,1017,1
79191,406886,436102,-18,-9,1014,1
79054,406940,436260,-18,-9,1027,1
79033,406630,436088,-18,-4,1027,1
78826,406612,436077,-21,-4,1021,1
78747,406548,436074,-22,-6,1035,1
78727,406549,436132,-22,-12,1021,1
78700,406577,436062,-14,-14,1021,1
78670,406651,436168,-18,-14,1024,1
78731,406715,436203,-18,-14,1043,1
78767,406941,436330,-27,-17,1043,1
78820,407025,436484,-21,-17,1017,1
79000,407329,436627,-21,-6,1035,1
78904,407515,436712,-20,-11,1035,1
79184,407679,436773,-30,-11,1029,1
79255,407789,436843,-30,-8,1038,1
79289,407993,436994,-19,-3,1035,1
79443,408188,436993,-24,-17,1035,1
79474,408364,437227,-21,-17,1033,1
79553,408455,437285,-21,-15,1021,1
79669,408546,437323,-19,-16,1021,1
79709,408629,437469,-21,-16,1030,1
79763,408931,437526,-21,-7,1032,1
79762,409121,437711,-21,-10,1032,1
79962,409217,437714,-15,-10,1027,1
80026,409342,437876,-18,-11,1029,1
80071,409482,437948,-18,-15,1029,1
80145,409598,438064,-25,-14,1021,1
80230,409692,438121,-27,-14,1038,1
80326,409937,438220,-27,-7,1037,1
80376,410083,438328,-20,-8,1037,1
80460,410128,438423,-20,-8,1044,1
80504,410287,438449,-20,-12,1023,1
80594,410430,438537,-18,-12,1023,1
80740,410658,438638,-26,-12,1020,1
80742,410720,438771,-20,-9,1013,1
80843,410869,438823,-20,-9,1013,1
80912,410948,438969,-23,-8,1030,1
80911,411105,439053,-21,-8,1020,1
81103,411250,439138,-21,-15,1032,1
81115,411315,439169,-22,-4,1032,1
81147,411374,439185,-20,-4,1035,1
81218,411504,439320,-20,-8,1027,1
81042,411693,439368,-26,-7,1027,1
81345,411697,439431,-17,-7,1032,1
81398,411845,439532,-17,-12,1040,1
81448,411918,439620,-21,-12,1040,1
81566,411926,439650,-23,-12,1029,1
81701,412233,439764,-23,-12,1021,1
81730,412351,439910,-15,-12,1024,1
81769,412477,439899,-23,-11,1024,1
81715,412534,439861,-23,-11,1029,1
81844,412681,439937,-23,-13,1037,1
81896,412797,440198,-25,-10,1037,1
82038,413015,440320,-18,-10,1035,1
82145,413053,440371,-18,-12,1026,1
82145,413189,440437,-26,-6,1026,1
82196,413306,440408,-27,-6,1032,1
82245,413524,440779,-27,-8,1024,1
82436,413579,440680,-24,-3,1035,1
82516,413630,440785,-17,-15,1035,1
82563,413769,440782,-21,-15,1021,1
82535,413958,440841,-21,-20,1011,1
82614,414241,441065,-24,-12,1011,1
82626,414146,440976,-20,-12,1018,1
82599,414032,440957,-20,-14,1020,1
82400,413956,440862,-18,-11,1020,1
82151,413682,440812,-18,-11,1035,1
81889,413452,440667,-18,-7,1037,1
81326,412753,440370,-33,-18,1037,1
81180,412465,440323,-23,-8,1014,1
81046,412321,440209,-22,-8,1035,1
80815,412166,440162,-22,-5,1027,1
80674,411984,440161,-23,-12,1027,1
80434,411787,439957,-13,-12,1043,1
80334,411591,439929,-13,-10,1030,1
80212,411487,439910,-25,-6,1030,1
80229,411542,440044,-21,-6,1008,1
80114,411560,440062,-21,-4,1029,1
79891,411413,440018,-19,-9,1029,1
79842,411401,439869,-21,-12,1030,1
79789,411364,439974,-21,-12,1023,1
79753,411330,439976,-21,-15,1030,1
79734,411496,440124,-20,-12,1030,1
79843,411466,440100,-21,-12,1027,1
79835,411535,440180,-21,-14,1007,1
79917,411725,440325,-21,-18,1007,1
79940,411828,440322,-17,-18,1033,1
80058,412068,440511,-17,-12,1035,1
80096,412333,440636,-24,-6,1035,1
80173,412397,440684,-23,-4,1030,1
80296,412514,440790,-23,-4,1032,1
80339,412634,440885,-28,-8,1020,1
80379,412777,440981,-27,-18,1020,1
80322,412883,440969,-22,-18,1024,1
80442,412921,441060,-22,-10,1043,1
80542,412990,441091,-27,-13,1043,1
80531,413178,441084,-25,-13,1035,1
80616,413158,441247,-25,-12,1016,1
80691,413402,441293,-22,-13,1016,1
80756,413432,441434,-24,-13,1021,1
80861,413547,441375,-24,-17,1020,1
80822,413681,441592,-18,-16,1026,1
80975,413802,441589,-17,-10,1026,1
81043,413876,441638,-17,-10,1044,1
81040,413959,441761,-18,-16,1040,1
81167,414101,441820,-20,-12,1040,1
81181,414215,441913,-24,-12,1035,1
81234,414258,441919,-24,-16,1020,1
81324,414357,442065,-24,-15,1020,1
81381,414452,441992,-21,-15,1020,1
81367,414500,442011,-21,-14,1041,1
81439,414561,442106,-22,-6,1041,1
81588,414494,442202,-23,-6,1029,1
81634,414647,442213,-22,-4,1021,1
81627,414837,442299,-22,-15,1021,1
81662,414901,442345,-27,-3,1032,1
81720,414886,442451,-22,-3,1014,1
81816,414988,442414,-22,-13,1021,1
81856,415194,442525,-24,-12,1021,1
81915,415115,442524,-27,-12,1035,1
82019,415153,442562,-27,-5,1020,1
81944,415248,442599,-18,-18,1020,1
82058,415382,442726,-20,-18,1030,1
82048,415528,442760,-22,-14,1029,1
82182,415518,442824,-22,-5,1029,1
82190,415574,442853,-27,-5,1029,1
82251,415581,442869,-27,-14,1038,1
82301,415695,442984,-23,-8,1017,1
82395,415619,443040,-27,-11,1017,1
82299,415654,443018,-24,-11,1043,1
82339,415750,443092,-24,-10,1037,1
82453,415878,443119,-29,-18,1037,1
82483,415922,443134,-21,-18,1033,1
82622,415962,443251,-21,-13,1029,1
82628,416128,443321,-27,-15,1029,1
82658,416047,443196,-26,-13,1024,1
82634,415976,443206,-18,-13,1018,1
82500,415909,443186,-18,-11,1018,1
82288,415781,443275,-27,-9,1018,1
81814,415227,442868,-21,-9,1035,1
81535,414747,442687,-21,-9,1026,1
81240,414384,442502,-21,-14,1026,1
81047,414109,442448,-26,-14,1008,1
80811,414084,442507,-26,-11,1013,1
80429,413485,442114,-17,-23,1013,1
80385,413302,442097,-21,-12,1040,1
80222,413227,442107,-25,-12,1018,1
80033,413102,442044,-25,-10,1026,1
79985,413007,441976,-28,-3,1026,1
79878,412815,441976,-16,-3,1027,1
79685,412756,441980,-16,-10,1030,1
79686,412649,441929,-26,-13,1030,1
79701,412619,441931,-18,-13,1014,1
79522,412602,441915,-18,-12,1040,1
79451,412499,441821,-18,-12,1040,1
79411,412539,441863,-21,-12,1020,1
79453,412602,441979,-21,-12,1029,1
79484,412616,442018,-22,-15,1018,1
79545,412788,442203,-15,-7,1018,1
79622,413089,442291,-15,-7,1030,1
79676,413111,442265,-27,-13,1020,1
79780,413231,442325,-24,-15,1020,1
79905,413380,442430,-33,-15,1020,1
79898,413449,442573,-33,-12,1037,1
79874,413575,442613,-21,-3,1037,1
80042,413643,442622,-20,-3,1040,1
80084,413657,442633,-20,-8,1035,1
80058,413712,442707,-17,-4,1010,1
80115,413949,442803,-21,-4,1010,1
80163,414052,442957,-21,-13,1023,1
80357,414129,442948,-25,-11,1046,1
80336,414128,442831,-21,-18,1046,1
80398,414219,443063,-27,-18,1023,1
80459,414386,443238,-27,-14,1014,1
80517,414510,443147,-21,-9,1014,1
80629,414608,443242,-21,-9,1033,1
80725,414674,443306,-21,-11,1017,1
80767,414850,443458,-23,-10,1017,1
80802,414779,443417,-27,-10,1029,1
80976,415096,443588,-27,-11,1017,1
80900,415064,443520,-22,-13,1023,1
81037,415212,443688,-21,-12,1023,1
81107,415219,443753,-16,-12,1026,1
81188,415380,443821,-16,-15,1026,1
81241,415383,443820,-21,-6,1026,1
81286,415491,443934,-19,-6,1021,1
81425,415536,443927,-19,-7,1020,1
81432,415668,444060,-27,-14,1020,1
81496,415697,444036,-17,-14,1024,1
81588,415840,444107,-17,-11,1050,1
81607,415806,444165,-22,-7,1050,1
81656,415918,444247,-21,-12,1033,1
81590,415952,444240,-27,-12,1020,1
81688,416064,444271,-27,-5,1032,1
81770,416127,444472,-25,-16,1032,1
81876,416101,444487,-21,-16,1027,1
81957,416211,444472,-21,-13,1026,1
81944,416307,444552,-18,-19,1026,1
82017,416313,444537,-17,-19,1005,1
82049,416666,444629,-17,-15,1011,1
82181,416557,444709,-19,-11,1011,1
82143,416623,444712,-29,-16,1029,1
82165,416644,444751,-21,-16,1024,1
82258,416693,444783,-21,-7,1024,1
82351,416803,444834,-22,-7,1024,1
82398,416866,444952,-18,-7,1023,1
82423,416928,444974,-18,-15,1023,1
82391,416915,444995,-18,-15,1023,1
82559,416948,445015,-27,-15,1014,1
82402,417058,445110,-27,-18,1030,1
82245,416726,444875,-18,-11,1030,1
82014,416469,444781,-20,-12,1032,1
81771,416086,444636,-20,-12,1026,1
81456,415704,444367,-27,-11,1030,1
81204,415367,444316,-17,-17,1030,1
80695,414632,443961,-20,-17,1030,1
80532,414377,443908,-20,-14,1023,1
80254,414243,443851,-21,-9,1023,1
80161,413997,443698,-27,-9,1017,1
80055,414015,443930,-27,-3,1018,1
79845,413677,443549,-28,-10,1018,1
79689,413427,443507,-19,-10,1037,1
79625,413402,443359,-15,-6,1029,1
79569,413283,443476,-15,-12,1029,1
79421,413378,443513,-30,-15,1018,1
79331,413110,443387,-21,-15,1023,1
79319,413020,443410,-21,-12,1030,1
79273,413085,443400,-21,-14,1030,1
79174,413125,443395,-26,-14,1038,1
79137,413069,443514,-26,-9,1037,1
79227,413209,443527,-23,-8,1037,1
79252,413275,443601,-21,-8,1018,1
79344,413448,443784,-21,-12,1014,1
79435,413549,443863,-21,-11,1014,1
79556,413799,443949,-23,-11,1023,1
79571,414064,444173,-25,-11,1026,1
79811,414200,444171,-25,-9,1030,1
79824,414285,444258,-24,-9,1030,1
79847,414341,444371,-18,-9,1026,1
79879,414603,444491,-18,-12,1035,1
80028,414559,444535,-18,-13,1035,1
80008,414627,444532,-27,-13,1024,1
80063,414834,444619,-27,-10,1024,1
80159,414863,444645,-24,-11,1024,1
80266,415034,444855,-21,-11,1021,1
80289,415264,444888,-21,-4,1029,1
80386,415264,444949,-27,2,1029,1
80354,415394,444984,-17,2,1032,1
80556,415548,445120,-24,-11,1018,1
80559,415694,445281,-24,-6,1026,1
80486,415828,445316,-25,-12,1026,1
80761,415893,445361,-25,-12,1026,1
80919,416099,445375,-25,-9,1024,1
80921,416097,445485,-19,-9,1024,1
81033,416261,445553,-14,-9,1046,1
81162,416452,445691,-14,-11,1029,1
81159,416566,445729,-18,-15,1020,1
81224,416548,445788,-30,-15,1020,1
81281,416657,445829,-30,-12,1007,1
81322,416694,445856,-24,-11,1004,1
81396,416848,446009,-23,-7,1004,1
81407,416762,446017,-26,-7,1047,1
81514,416891,446022,-26,-10,1049,1
81490,416979,446035,-18,-8,1049,1
81630,417187,446148,-27,-8,1035,1
81673,417239,446213,-27,-14,1010,1
81718,417239,446242,-20,-13,1010,1
81736,417271,446271,-25,-15,1023,1
81785,417359,446338,-23,-15,1020,1
81900,417404,446345,-23,-12,1024,1
82014,417561,446556,-27,-9,1024,1
82104,417663,446542,-28,-9,999,1
82075,417704,446566,-28,-9,1035,1
82144,417912,446694,-19,-14,1035,1
82163,417906,446708,-23,-14,1024,1
82270,418017,446768,-23,-13,1033,1
82268,418104,446820,-21,-15,1033,1
82344,418213,446877,-23,-15,1035,1
82516,418344,447024,-23,-11,1026,1
82520,418376,447049,-21,-12,1026,1
82328,418657,447153,-20,-12,1044,1
82574,418598,447159,-27,-10,1033,1
82623,418611,447203,-27,-12,1017,1
82620,418713,447307,-22,-14,1017,1
82522,418521,447114,-27,-14,1021,1
82421,418502,447214,-27,-13,1035,1
81857,417870,446791,-23,-12,1035,1
81552,417442,446692,-15,-12,1024,1
81251,417089,446525,-15,-3,1056,1
81088,416917,446529,-21,-12,1056,1
81004,416792,446452,-24,-12,1029,1
80633,416423,446281,-24,-3,1033,1
80502,416298,446235,-30,0,1033,1
80355,416236,446128,-27,-13,1032,1
80298,416163,446138,-30,-13,1026,1
80238,416147,446410,-30,-5,1035,1
80036,415964,446239,-20,-6,1035,1
80004,415980,446147,-22,-6,1024,1
79931,415904,446069,-22,-19,1027,1
79870,415872,446188,-30,-13,1027,1
79725,416074,446244,-23,-13,1057,1
79701,415808,446044,-23,-18,1043,1
79767,415927,446201,-24,0,1043,1
79774,416023,446287,-24,0,1026,1
79798,416132,446441,-24,-12,1047,1
79907,416381,446429,-18,-11,1041,1
80014,416518,446642,-20,-11,1041,1
80146,416729,446730,-25,-11,1007,1
80157,416911,446802,-25,-15,1033,1
80310,417075,446902,-23,-8,1033,1
80332,417090,447084,-21,-8,1035,1
80489,417387,447127,-21,-3,1037,1
80452,417460,447164,-17,-9,1046,1
80512,417566,447185,-22,-9,1046,1
80671,417715,447386,-24,-10,1032,1
80777,417970,447474,-24,-4,1035,1
80662,418034,447515,-20,-8,1035,1
80965,418155,447648,-21,-8,1016,1
81015,418336,447696,-21,-17,1017,1
81046,418430,447790,-15,-12,1017,1
81167,418664,447980,-22,-12,1035,1
81282,418930,448034,-22,-15,1026,1
81322,419018,448072,-14,-9,1026,1
81477,419153,448104,-27,-9,1035,1
81518,419218,448368,-27,-5,1013,1
81630,419454,448443,-21,-10,1013,1
81723,419519,448429,-27,-10,1032,1
81806,419673,448613,-27,-11,1032,1
81789,419796,448692,-23,-16,1033,1
81959,419866,448666,-24,-9,1033,1
81968,420024,448689,-21,-9,1037,1
81838,420185,448824,-21,-14,1020,1
82151,420298,448984,-18,-12,1020,1
82195,420294,448899,-26,-12,1026,1
82287,420364,448963,-26,-11,1021,1
82317,420496,449156,-26,-7,1018,1
82472,420704,449167,-18,-10,1018,1
82514,420831,449184,-18,-10,1010,1
82558,420935,449349,-21,-9,1016,1
82603,421000,449345,-23,-2,1016,1
82685,421041,449345,-33,-2,1010,1
82745,421267,449508,-33,-12,1016,1
82900,421373,449591,-18,-9,1016,1
82946,421483,449619,-24,-9,1030,1
82999,421628,449771,-24,-12,1018,1
83005,421622,449847,-18,-11,1018,1
83078,421723,449872,-27,-11,1030,1
83175,421847,449945,-29,-13,1021,1
83268,422001,450023,-29,-11,1021,1
83270,422081,450021,-27,-7,1032,1
83317,422114,450032,-24,-7,1050,1
83473,422339,450259,-24,-13,1054,1
83565,422394,450235,-21,-10,1054,1
83548,422461,450215,-24,-10,1030,1
83653,422489,450304,-24,-10,1027,1
83635,422514,450324,-18,-18,1027,1
83520,422652,450323,-24,-18,1035,1
83180,422030,450197,-24,-13,1013,1
82918,421819,450028,-23,-9,1013,1
82621,421556,449915,-29,-10,1013,1
82358,421120,449703,-25,-10,1026,1
81927,421022,449723,-25,-11,1017,1
81769,420494,449504,-27,-11,1017,1
81705,420322,449487,-29,-11,1018,1
81615,420304,449433,-29,-5,1029,1
81459,420003,449341,-23,-3,1029,1
81403,420091,449429,-21,-3,1029,1
81188,419845,449316,-21,-2,1035,1
81049,419687,449244,-26,-10,1035,1
81107,419595,449264,-18,-10,1016,1
81032,419533,449124,-18,-15,1017,1
80958,419601,449206,-26,-7,1037,1
80862,419422,449121,-27,-12,1037,1
80847,419407,449163,-20,-12,1016,1
80851,419359,449146,-20,-11,1023,1
80879,419408,449133,-20,-12,1023,1
80919,419453,449347,-28,-12,1002,1
80988,419684,449350,-28,-7,1040,1
81100,419919,449441,-23,-2,1040,1
81274,419962,449551,-26,-2,1024,1
81197,420110,449656,-26,-4,1002,1
81289,420221,449765,-32,-14,1002,1
81413,420317,449843,-21,-14,1030,1
81441,420357,449847,-21,-12,1023,1
81543,420475,449934,-19,0,1032,1
81503,420492,449880,-30,-6,1032,1
81614,420719,449942,-21,-6,1040,1
81688,420729,450097,-21,-6,1030,1
81696,420771,450098,-22,-9,1030,1
81761,420893,450230,-26,-9,1016,1
81790,420914,450168,-26,-14,1001,1
81875,421167,450435,-23,-7,1001,1
82007,421274,450442,-18,-7,1035,1
82048,421341,450498,-18,-10,1043,1
82063,421311,450528,-29,-8,1043,1
82092,421390,450566,-19,-9,1035,1
82214,421622,450750,-21,-9,1023,1
82145,421706,450719,-21,-11,1014,1
82294,421667,450754,-23,-14,1014,1
82383,421775,450842,-30,-14,1027,1
82500,421885,450930,-30,-11,1030,1
82486,422035,451026,-24,-1,1030,1
82707,422099,451036,-22,-1,1002,1
82742,422191,451111,-18,-11,1021,1
82802,422197,451138,-18,-11,1023,1
82788,422198,451121,-20,-11,1023,1
82814,422442,451229,-20,-8,1023,1
82925,422480,451185,-26,-9,1001,1
83017,422498,451265,-24,-4,1001,1
83040,422601,451232,-22,-4,1035,1
83054,422609,451343,-22,-14,1035,1
83132,422764,451398,-22,-18,1035,1
83078,422808,451521,-21,-18,1020,1
83337,422775,451432,-21,-5,1024,1
83340,422935,451599,-21,-9,1024,1
83369,422962,451577,-14,-9,1021,1
83464,423017,451698,-18,-13,1026,1
83576,423144,451634,-18,-3,1020,1
83602,423205,451697,-27,-4,1020,1
83683,423270,451787,-23,-4,1033,1
83644,423119,451740,-23,-8,1032,1
83699,423358,451828,-13,-12,1032,1
83735,423596,452053,-27,-12,1035,1
83842,423462,451952,-27,-13,1035,1
83874,423611,451999,-26,-12,1035,1
83799,423496,451920,-14,-12,1008,1
83745,423326,451951,-14,-5,1026,1
83430,423174,451634,-21,-8,1026,1
82930,422448,451480,-27,-4,1027,1
82606,422062,451341,-21,-4,1021,1
82443,421789,451197,-21,-13,1027,1
82197,421469,451126,-22,-10,1027,1
81987,421284,450882,-20,-10,1037,1
81679,420853,450798,-20,-9,1024,1
81499,420708,450813,-15,-14,1024,1
81454,420520,450616,-16,-14,1026,1
81351,420462,450772,-16,-7,1030,1
81211,420523,450705,-30,-11,1030,1
81025,420176,450715,-25,-11,1026,1
81016,420099,450545,-25,-2,1043,1
80919,420061,450580,-20,-9,1020,1
80782,419948,450625,-18,-11,1020,1
80650,420101,450661,-27,-11,1035,1
80634,419881,450572,-27,-16,1024,1
80706,419854,450526,-27,-14,1024,1
80752,419928,450622,-18,-14,1023,1
80709,420065,450665,-18,-12,1033,1
80918,420213,450854,-18,-6,1033,1
81023,420442,450935,-21,-9,1027,1
81112,420569,451007,-23,-9,1030,1
81134,420689,450973,-23,-4,1020,1
81177,420810,451068,-25,-4,1020,1
81322,421007,451169,-21,-4,1021,1
81377,421090,451345,-21,-10,1029,1
81427,421073,451307,-18,-13,1029,1
81528,421184,451345,-21,-13,1035,1
81548,421234,451365,-21,-6,1020,1
81620,421413,451653,-26,-8,1020,1
81775,421464,451597,-27,-5,1029,1
81723,421516,451655,-13,-5,1035,1
81900,421713,451750,-13,-6,1016,1
81925,421842,451845,-20,-12,1016,1
81936,422115,452016,-21,-12,1018,1
82016,422095,451985,-21,-16,1027,1
82175,422237,452021,-24,-10,1027,1
82222,422205,452049,-26,-10,1026,1
82277,422253,452164,-26,-13,1020,1
82347,422532,452167,-22,-9,1020,1
82402,422607,452207,-22,-9,1026,1
82475,422737,452290,-22,-14,1026,1
82583,422778,452412,-23,-12,1026,1
82638,422840,452399,-18,-12,1030,1
82670,422970,452579,-27,-3,1023,1
82825,423045,452548,-27,-12,1026,1
82872,423160,452588,-15,-15,1026,1
82968,423188,452659,-18,-15,1026,1
83016,423226,452774,-18,-12,1040,1
83083,423363,452919,-17,-4,1040,1
83075,423464,452792,-20,-4,1046,1
83287,423520,452874,-20,-13,1021,1
83338,423578,452899,-22,-10,1021,1
83367,423623,453020,-21,-10,1023,1
83391,423788,453035,-21,-13,1027,1
83526,423766,453064,-23,-10,1027,1
83517,423813,453052,-27,-8,1010,1
83524,423873,453109,-27,-8,1016,1
83612,423961,453201,-27,-9,1024,1
83692,423988,453274,-20,-9,1024,1
83800,424061,453212,-22,-9,1024,1
83803,424068,453296,-22,-15,1054,1
83851,424142,453253,-21,-19,1054,1
83849,424242,453386,-23,-19,1046,1
83900,424336,453498,-23,-3,1043,1
83812,424386,453490,-26,-12,1020,1
84136,424519,453576,-28,-10,1020,1
84091,424442,453615,-28,-10,1040,1
84209,424486,453597,-21,-8,1021,1
84074,424530,453550,-21,-6,1021,1
84033,424165,453483,-21,-6,1035,1
83512,423750,453324,-21,-15,1026,1
83116,423423,453100,-20,-9,1026,1
82855,423082,452945,-18,-9,1032,1
82641,422838,452802,-18,-7,1033,1
82495,422683,452567,-27,-10,1033,1
82082,422011,452494,-18,-10,1038,1
82017,421897,452382,-18,-9,1017,1
81869,421736,452319,-21,-5,1017,1
81777,421580,452343,-20,-5,1018,1
81627,421514,452327,-27,-6,1040,1
81417,421277,452183,-27,-13,1029,1
81298,421167,452161,-29,0,1029,1
81253,421087,452130,-28,0,1010,1
81191,421056,452123,-28,-9,1017,1
81102,421098,452130,-20,-7,1017,1
81018,420959,452176,-27,-7,1014,1
80918,420945,452141,-27,-9,1033,1
80955,420952,452154,-22,-13,1033,1
80987,420907,452210,-16,-13,1023,1
81070,421030,452327,-16,-14,1033,1
81135,421180,452375,-18,0,1032,1
81311,421377,452483,-25,-9,1032,1
81375,421560,452535,-22,-9,1033,1
81486,421604,452614,-22,-9,1041,1
81456,421933,452821,-22,-10,1041,1
81648,422013,452894,-26,-10,1023,1
81721,422080,452938,-26,-9,1023,1
81759,422079,452978,-26,-3,1035,1
81758,422169,452931,-20,-3,1035,1
81920,422394,453069,-20,-3,1016,1
81930,422368,453055,-20,-12,1032,1
81966,422518,453063,-14,-16,1032,1
82068,422673,453302,-28,-16,1021,1
82182,422669,453271,-28,-12,1014,1
82210,422775,453344,-21,-9,1014,1
82399,422871,453470,-15,-9,1035,1
82426,422999,453561,-15,-13,1001,1
82490,423223,453624,-26,-13,1001,1
82543,423223,453632,-22,-13,1027,1
82625,423363,453839,-29,0,1018,1
82832,423570,453842,-29,-8,1018,1
82835,423637,453894,-21,-18,1030,1
82912,423755,453937,-18,-18,1018,1
82953,423921,454047,-18,-10,1030,1
82915,424164,454234,-28,-10,1030,1
83224,424162,454294,-20,-10,1027,1
83326,424315,454361,-20,-9,1014,1
83313,424304,454389,-18,-12,1014,1
83445,424459,454500,-21,-12,1013,1
83490,424668,454633,-21,-13,1010,1
83517,424773,454675,-25,-12,1010,1
83611,424849,454673,-23,-12,1040,1
83652,424942,454797,-23,-10,1029,1
83832,425034,454852,-17,-10,1038,1
83805,425152,454930,-17,-5,1038,1
83900,425223,455017,-16,-5,1011,1
84011,425292,454990,-16,-6,1024,1
84034,425382,455153,-27,-13,1024,1
84093,425574,455173,-22,-13,1035,1
84172,425649,455305,-22,-7,1017,1
84277,425678,455288,-16,-9,1017,1
84299,425859,455232,-18,-9,1040,1
84354,425990,455402,-18,-12,1035,1
84471,426023,455505,-21,-15,1035,1
84443,426245,455676,-11,-15,1020,1
84624,426342,455625,-19,-4,1035,1
84638,426392,455682,-19,-6,1046,1
84733,426548,455830,-21,-15,1046,1
84739,426598,455770,-10,-15,1046,1
84801,426678,455900,-10,-13,1029,1
84949,426799,455993,-21,-14,1029,1
84873,426745,455859,-26,-14,1024,1
84717,426577,455851,-26,-12,1027,1
84485,426337,455842,-18,-18,1026,1
84194,426179,455777,-24,-18,1026,1
83855,425499,455519,-24,-13,1035,1
83459,425246,455296,-18,-8,1027,1
83313,424927,455252,-21,-8,1027,1
83142,424793,455122,-27,-8,1029,1
82975,424704,455154,-27,-12,1026,1
82880,424518,454928,-24,-18,1026,1
82685,424304,454918,-14,-18,1033,1
82537,424260,454836,-14,-14,1035,1
82491,424180,454939,-27,-14,1035,1
82402,424068,454858,-15,-12,1038,1
82304,424058,454797,-15,-12,1043,1
82132,424015,454920,-15,-6,1043,1
82166,423931,454933,-19,-6,994,1
82051,423936,454857,-22,-15,1020,1
82124,423970,454900,-22,-13,1037,1
82053,423927,454959,-22,-4,1037,1
82135,424151,455043,-27,-4,1010,1
82201,424282,455153,-27,-9,1040,1
82288,424481,455245,-17,-15,1040,1
82284,424553,455250,-30,-15,1030,1
82406,424843,455549,-30,-10,1021,1
82588,425017,455730,-14,-17,1016,1
82633,425153,455749,-18,-8,1016,1
82648,425376,455724,-18,-8,1032,1
82680,425319,455719,-21,-8,1035,1
82761,425577,456007,-30,-5,1035,1
82884,425598,456008,-21,-5,1023,1
82975,425777,456068,-21,-14,1035,1
83044,425953,456098,-21,-11,1035,1
83099,426092,456202,-30,-11,1016,1
83101,426387,456486,-30,-13,1018,1
83304,426457,456434,-27,-8,1018,1
83371,426532,456578,-30,-8,1011,1
83421,426642,456585,-20,-12,1032,1
83484,426692,456621,-20,-12,1032,1
83601,426907,456820,-19,-3,1011,1
83638,427045,456807,-24,-3,1037,1
83779,427134,456921,-24,-9,1020,1
83780,427248,456907,-22,-3,1020,1
83763,427367,457017,-19,-3,1023,1
83933,427591,457146,-19,-9,1023,1
84136,427562,457217,-23,-6,1023,1
84128,427647,457245,-33,-6,1027,1
84212,427757,457281,-33,-12,1018,1
84260,427814,457318,-23,-14,1018,1
84334,427931,457517,-27,-14,1037,1
84516,428046,457506,-27,-15,1038,1
84516,428194,457559,-21,-12,1035,1
84562,428135,457548,-23,-12,1035,1
84627,428204,457664,-21,-12,1021,1
84583,428505,457713,-21,-9,1001,1
84684,428450,457776,-25,-9,1001,1
84808,428451,457798,-20,-9,1016,1
84875,428619,457800,-20,-12,1032,1
84862,428513,457839,-18,-9,1032,1
84939,428733,457857,-21,-4,1002,1
85027,428766,457961,-18,-4,1038,1
85126,428827,458040,-18,-12,1040,1
85154,428886,458016,-21,-12,1040,1
85183,428982,458074,-25,-12,1007,1
85245,428952,458142,-25,-12,1016,1
85342,429134,458264,-27,-12,1016,1
85484,429126,458294,-20,-12,1007,1
85432,429315,458317,-20,-12,1035,1
85532,429270,458407,-27,-11,1035,1
85594,429461,458412,-26,-11,1020,1
85605,429422,458414,-17,-11,1021,1
85501,429310,458398,-17,-10,1021,1
85383,429190,458359,-21,-14,1037,1
85166,428937,458216,-29,-14,1038,1
84943,428674,458145,-29,-11,1027,1
84704,427984,457874,-19,-15,1027,1
84146,427667,457633,-25,-15,1008,1
83941,427398,457523,-25,-9,1020,1
83841,427069,457459,-28,-15,1020,1
83609,426999,457451,-30,-15,1037,1
83581,426643,457250,-30,-14,1032,1
83262,426517,457146,-32,-15,1040,1
83210,426456,457162,-27,-15,1040,1
83049,426330,457179,-27,-9,1035,1
82919,426268,457030,-28,-6,1035,1
82819,426177,457037,-14,-16,1035,1
82853,426043,457011,-22,-16,1035,1
82797,426020,456950,-22,-8,1017,1
82675,426027,457014,-19,-19,1017,1
82733,426041,457070,-16,-19,1033,1
82706,425976,457111,-16,-13,1023,1
82739,425941,456922,-17,-15,1023,1
82878,426096,457181,-23,-15,1014,1
82942,426279,457245,-23,-15,1020,1
82933,426347,457286,-24,-14,1020,1
83166,426511,457440,-21,-17,1020,1
83141,426673,457527,-19,-17,1029,1
83203,426777,457596,-19,-4,1013,1
83291,426892,457720,-21,-6,1013,1
83306,426940,457736,-15,-6,1027,1
83367,427013,457828,-15,-8,1020,1
83364,427097,457628,-20,-16,1020,1
83531,427269,457840,-23,-8,1037,1
83540,427238,457969,-27,-8,1032,1
83619,427280,457998,-27,-15,1020,1
83738,427596,458143,-22,-9,1020,1
83850,427737,458256,-28,-9,1016,1
83928,427862,458264,-28,-14,1013,1
83957,427932,458413,-21,-17,1013,1
84017,427932,458328,-16,-17,1020,1
84059,428072,458387,-16,-13,1024,1
84081,428213,458441,-24,-15,1024,1
84232,428202,458533,-24,-15,1041,1
84332,428275,458616,-24,-8,1033,1
84331,428426,458663,-23,-11,1033,1
84331,428607,458841,-16,-11,1033,1
84489,428645,458708,-16,-9,1008,1
84563,428724,458871,-21,-16,1043,1
84659,428695,458823,-21,-16,1043,1
84720,428761,458900,-23,-16,1035,1
84789,428909,458967,-23,-11,1043,1
84803,428883,458948,-20,-12,1043,1
84858,428893,459078,-24,-12,1014,1
84913,429057,459042,-24,-16,1030,1
84929,428982,459057,-23,-5,1030,1
85053,429128,459118,-18,-5,1032,1
85146,429255,459207,-24,-10,1026,1
85242,429300,459212,-24,-4,1026,1
85337,429326,459315,-23,-17,1027,1
85388,429378,459301,-24,-17,1023,1
85308,429412,459477,-24,-12,1035,1
85403,429476,459381,-23,-12,1035,1
85466,429470,459324,-21,-12,1020,1
85570,429562,459332,-21,-7,1023,1
85564,429663,459464,-15,-13,1023,1
85527,429836,459553,-23,-13,1016,1
85754,429753,459625,-23,-12,1014,1
85754,429914,459552,-21,-10,1014,1
85834,429846,459627,-24,-10,1024,1
85865,430056,459605,-24,-9,1037,1
85884,430239,459764,-18,-19,1024,1
86024,430079,459742,-16,-11,1024,1
86015,430019,459756,-16,-11,1035,1
85865,429906,459667,-16,-12,1032,1
85714,429704,459524,-13,-9,1032,1
85474,429390,459511,-18,-9,1040,1
84866,428665,459091,-18,-11,1024,1
84607,428365,458986,-22,-12,1032,1
84368,428095,458794,-21,-9,1032,1
84205,427801,458664,-21,-9,1029,1
84045,427667,458634,-21,-6,1029,1
83770,427210,458409,-16,-6,1030,1
83636,426993,458299,-24,-6,1011,1
83481,426925,458260,-24,-9,1026,1
83454,426841,458276,-16,-4,1026,1
83276,426796,458395,-25,-4,1027,1
83280,426509,458243,-25,-9,1043,1
83098,426497,458333,-21,-8,1043,1
83011,426326,458208,-20,-8,1035,1
83023,426481,458272,-20,-18,1038,1
82944,426429,458232,-24,-20,1038,1
82949,426306,458157,-21,-20,1008,1
82864,426329,458182,-19,-18,1030,1
82851,426432,458310,-19,-12,1030,1
82915,426438,458326,-21,-10,1030,1
82953,426689,458467,-21,-10,1020,1
82969,426882,458610,-21,-11,1037,1
83318,427048,458662,-18,-8,1037,1
83418,427102,458640,-18,-8,1029,1
83392,427156,458712,-18,-8,1026,1
83534,427316,458811,-18,-12,1016,1
83623,427392,458984,-22,-12,1016,1
83743,427427,458949,-15,-7,1023,1
83727,427555,458985,-15,-12,1032,1
83840,427548,459004,-21,-12,1032,1
83703,427591,458998,-17,-12,1020,1
83839,427865,459113,-17,-10,1021,1
84076,427888,459104,-24,-12,1021,1
84040,427852,459201,-21,-12,1037,1
84084,428034,459354,-21,-10,1040,1
84200,428146,459347,-27,-9,1040,1
84201,428315,459436,-21,-9,1023,1
84381,428375,459506,-21,-15,1032,1
84406,428426,459567,-18,-12,1032,1
84548,428549,459541,-19,-14,1037,1
84558,428580,459554,-25,-14,1023,1
84686,428669,459749,-25,-9,1035,1
84802,428861,459785,-16,-10,1035,1
84882,428829,459864,-24,-10,1021,1
84854,428963,459701,-24,-11,1035,1
84866,428883,459828,-18,-3,1035,1
84966,429045,459953,-17,-3,1029,1
84989,429163,460026,-17,-9,1041,1
85187,429275,460060,-30,-5,1041,1
85179,429287,460060,-18,-5,1030,1
85215,429288,460098,-24,-13,1018,1
84998,429505,460213,-24,-14,1007,1
85377,429390,460303,-24,-11,1007,1
85443,429382,460133,-29,-11,1027,1
85427,429500,460278,-29,-9,1029,1
85538,429565,460287,-24,-12,1029,1
85574,429656,460394,-14,-12,1021,1
85672,429715,460405,-14,-19,1053,1
85623,429796,460472,-27,-8,1026,1
85674,429764,460373,-24,-9,1026,1
85730,429935,460528,-24,-9,1032,1
85854,429998,460575,-20,-16,1007,1
85913,430030,460649,-23,-12,1007,1
85948,430079,460657,-24,-12,1032,1
86026,430027,460701,-24,-17,1016,1
86069,430149,460736,-21,-10,1016,1
86177,430310,460973,-27,-10,1008,1
86308,430252,460740,-27,-9,1013,1
86293,430450,460880,-19,-8,1016,1
86292,430437,460892,-23,-8,1016,1
86204,430418,460838,-23,-9,1011,1
86258,430498,461074,-18,-11,1027,1
85948,429826,460624,-26,-6,1027,1
85674,429546,460526,-24,-6,993,1
85382,429196,460254,-24,-9,1020,1
85143,428929,460216,-29,-13,1020,1
84911,428705,460150,-26,-13,1020,1
84563,428137,459898,-26,-7,1038,1
84374,428030,459835,-24,-12,1038,1
84309,427945,459773,-23,-12,1027,1
84181,427776,459832,-23,-9,1038,1
84086,427641,459774,-22,-8,1035,1
83901,427592,459709,-19,-8,1035,1
83815,427552,459707,-19,-15,1029,1
83725,427542,459725,-24,-6,1030,1
83794,427587,459759,-16,-12,1030,1
83720,427708,459942,-25,-12,1049,1
83564,427567,459826,-25,-9,1035,1
83529,427542,459892,-23,-13,1035,1
83629,427599,459996,-28,-13,1024,1
83610,427739,460046,-28,-14,1054,1
83659,427802,460033,-24,-13,1054,1
83814,428079,460268,-21,-13,1016,1
83873,428229,460254,-21,-12,1030,1
83939,428332,460327,-25,-12,1023,1
84095,428545,460364,-21,-12,1023,1
84078,428738,460581,-16,-12,1010,1
84318,428998,460747,-16,-13,1004,1
84318,428969,460740,-20,-10,1004,1
84396,429020,460854,-16,-10,1023,1
84433,429115,460902,-16,-12,1029,1
84580,429396,460995,-19,-10,1029,1
84426,429485,461041,-15,-11,1033,1
84733,429519,461063,-30,-11,1026,1
84784,429595,461116,-30,-17,1026,1
84759,429604,461189,-21,-17,1024,1
84931,429836,461409,-31,-13,1027,1
85031,429992,461366,-31,-17,1035,1
85066,430005,461388,-30,-9,1035,1
85134,430174,461507,-20,-9,1030,1
85128,430282,461557,-20,-10,1005,1
85160,430290,461617,-33,-7,1005,1
85291,430498,461685,-18,-7,1038,1
85452,430688,461813,-18,-15,1004,1
85466,430726,461824,-21,5,1004,1
85611,430849,461848,-22,5,1026,1
85631,430830,461842,-22,-11,1018,1
85654,431098,462026,-23,-9,1035,1
85817,431154,462151,-27,-10,1035,1
85798,431150,462146,-32,-10,1026,1
85892,431205,462173,-32,-4,1020,1
85934,431404,462284,-28,-11,1020,1
85996,431555,462586,-23,-11,1035,1
86108,431735,462565,-23,-16,1007,1
86273,431729,462600,-18,-9,1007,1
86346,431882,462632,-20,-14,1032,1
86315,431930,462634,-27,-14,1030,1
86308,432108,462868,-27,-9,1021,1
86559,432280,462818,-26,-11,1021,1
86541,432257,462864,-24,-11,1037,1
86555,432388,463018,-24,-10,1014,1
86652,432560,463128,-23,-18,1014,1
86726,432677,463140,-17,-18,1005,1
86921,432744,463269,-17,-10,1017,1
86912,432808,463353,-15,-10,1017,1
86926,432914,463420,-27,-7,1038,1
87015,433032,463446,-27,-7,1037,1
87170,433117,463534,-27,-11,1014,1
87234,433260,463675,-22,-11,1014,1
87288,433419,463665,-18,-14,1016,1
87352,433446,463713,-18,-13,1030,1
87378,433570,463823,-22,-15,1030,1
87472,433691,463884,-28,-15,1044,1
87436,433701,463836,-28,-20,1014,1
87370,433528,463873,-26,-14,1014,1
87129,433406,463794,-22,-14,1001,1
86878,433183,463639,-22,-13,1011,1
86609,432952,463643,-20,-12,1011,1
86015,432302,463281,-25,-15,1027,1
85893,431947,463183,-25,-15,1029,1
85778,431691,463026,-20,-3,1038,1
85608,431558,462941,-22,-7,1038,1
85462,431670,463015,-19,-7,999,1
85218,431182,462833,-19,-11,1024,1
85097,431206,462776,-23,-10,1024,1
85009,431098,462782,-18,-10,1018,1
85012,431000,462772,-18,-6,1037,1
84911,430932,462813,-22,-10,1020,1
84820,430796,462730,-24,-15,1020,1
84695,430709,462731,-24,-15,1007,1
84686,430749,462783,-21,-15,1007,1
84695,430704,462715,-22,-11,1053,1
84630,430686,462806,-28,-11,1041,1
84740,430842,462799,-28,-3,1030,1
84808,430975,462798,-24,-13,1030,1
84793,431001,462882,-24,-13,1023,1
84986,431215,463074,-24,-9,1020,1
84969,431241,463149,-32,-9,1020,1
85131,431454,463260,-18,-9,1018,1
85148,431580,463306,-30,-11,1027,1
85204,431632,463302,-30,-10,1027,1
85204,431719,463381,-22,-10,1018,1
85340,431842,463456,-22,-13,1041,1
85364,431917,463537,-18,-2,1008,1
85424,431946,463511,-17,-9,1008,1
85494,432120,463590,-16,-9,1029,1
85487,432148,463680,-16,-5,1038,1
85545,432249,463797,-26,-10,1038,1
85423,432377,463806,-30,-10,1020,1
85707,432453,463755,-30,-14,1021,1
85834,432578,463921,-27,-12,1021,1
85855,432626,463930,-20,-10,1020,1
85987,432782,464085,-22,-10,1023,1
86078,432960,464061,-22,-16,1008,1
86082,432909,464147,-34,-8,1008,1
86107,433043,464188,-23,-8,1030,1
86260,433122,464216,-23,-15,1027,1
86251,433213,464278,-19,-3,1027,1
86331,433280,464344,-18,-3,1033,1
86448,433252,464435,-18,-14,1029,1
86481,433308,464416,-19,-10,1029,1
86525,433396,464497,-26,-9,1030,1
86572,433529,464484,-26,-9,1029,1
86673,433651,464590,-21,-9,1030,1
86640,433641,464555,-18,-12,1030,1
86749,433694,464560,-23,-12,1026,1
86777,433700,464656,-23,-15,1024,1
86858,433729,464695,-26,-13,1024,1
86902,433956,464814,-15,-13,1021,1
87040,433971,464846,-15,-16,1013,1
87074,434024,464750,-25,-11,1013,1
87118,434085,464867,-27,-11,1014,1
87142,434090,464889,-27,-12,1037,1
87200,434135,464989,-27,-13,1037,1
87254,434180,464993,-27,-13,1010,1
87288,434203,464967,-27,-15,1038,1
87284,434213,465041,-18,-15,1035,1
87390,434306,465094,-23,-10,1035,1
87349,434620,465302,-21,-10,1029,1
87600,434419,465124,-21,-5,1016,1
87556,434472,465215,-28,-15,1016,1
87611,434598,465305,-15,-15,1023,1
87647,434559,465177,-15,-19,1020,1
87754,434576,465272,-27,-3,1020,1
87329,434110,465009,-20,-3,1007,1
87157,433839,464979,-21,-9,1026,1
86832,433551,464694,-21,-10,1026,1
86579,433167,464640,-19,-16,1011,1
86309,432889,464563,-23,-16,1030,1
85906,432168,464204,-23,-10,1040,1
85751,432008,464050,-17,-10,1040,1
85544,431872,464097,-26,-10,1038,1
85427,431685,464006,-26,-4,1016,1
85309,431566,464079,-25,-3,1016,1
85124,431212,463798,-24,-3,1040,1
84999,431205,463816,-26,-9,1027,1
84933,431163,463805,-26,-4,1027,1
84873,431137,463759,-23,-9,1023,1
84752,431164,463903,-30,-9,1017,1
84692,430762,463651,-30,-8,1040,1
84721,430799,463639,-18,-13,1040,1
84590,430764,463729,-24,-13,1030,1
84552,430748,463660,-24,-6,1023,1
84617,430930,463763,-23,0,1023,1
84776,430998,463802,-27,0,1014,1
84814,431190,463947,-27,-16,1020,1
84910,431196,464014,-22,-12,1020,1
85017,431487,464129,-21,-12,1023,1
85012,431546,464270,-18,-12,1044,1
85216,431681,464251,-18,-15,1013,1
85307,431768,464283,-32,-13,1013,1
85297,431881,464335,-20,-13,1021,1
85313,431825,464391,-20,-12,1021,1
85315,431963,464480,-26,-18,1021,1
85181,431976,464361,-20,-18,1024,1
85477,432025,464499,-20,-9,1029,1
85515,432116,464552,-32,-18,1029,1
85701,432247,464541,-28,-18,1024,1
85640,432395,464707,-28,-10,1018,1
85850,432589,464804,-27,-11,1018,1
85878,432534,464752,-23,-17,1020,1
85897,432605,464782,-25,-17,1001,1
85987,432741,464857,-25,-6,1014,1
86033,432914,464940,-23,-7,1014,1
86051,433034,464907,-22,-7,1037,1
86199,433066,465059,-22,-17,1024,1
86208,433106,465146,-26,-6,1024,1
86274,433155,465108,-17,-6,1021,1
86356,433302,465219,-26,-18,1013,1
86286,433351,465278,-26,-15,1013,1
86564,433342,465187,-27,-15,1008,1
86482,433399,465341,-27,-9,1041,1
86658,433460,465318,-19,-12,1010,1
86666,433571,465421,-20,-10,1010,1
86858,433794,465513,-27,-10,1026,1
86794,433646,465435,-27,-14,1035,1
86834,433768,465510,-24,-15,1035,1
86874,433768,465591,-14,-15,1041,1
86892,433870,465697,-14,-12,1029,1
87021,433917,465676,-25,-9,1032,1
87043,433919,465667,-22,-8,1032,1
87107,434015,465690,-22,-8,1049,1
87217,434041,465761,-27,-17,1020,1
87207,434032,465762,-26,-9,1020,1
87276,434235,465882,-18,-9,1021,1
87309,434279,465867,-18,-9,1005,1
87333,434260,465864,-16,-13,1005,1
87413,434336,465926,-19,-13,1021,1
87524,434388,465930,-19,-3,1029,1
87436,434482,466111,-26,-8,1023,1
87587,434533,466024,-24,-11,1023,1
87638,434537,466120,-24,-11,1027,1
87678,434589,466109,-16,-12,1027,1
87721,434620,466058,-10,-10,1026,1
87619,434690,465982,-24,-10,1021,1
87357,434191,465905,-24,-11,1020,1
87082,433862,465758,-33,-12,1020,1
86852,433539,465547,-20,-12,1030,1
86554,433178,465467,-20,-18,1020,1
86173,432958,465301,-22,-9,1020,1
85922,432370,465023,-24,-9,1024,1
85710,432083,464977,-24,-11,1024,1
85596,432000,464860,-28,-11,1024,1
85410,431839,464807,-23,-11,1026,1
85324,431744,464862,-27,-15,1027,1
85067,431465,464658,-27,-11,1016,1
85036,431415,464705,-21,-10,1016,1
84886,431283,464534,-15,-10,1008,1
84865,431126,464571,-15,-12,1029,1
84766,431138,464602,-21,-6,1029,1
84675,430904,464522,-25,-6,1029,1
84609,430953,464512,-25,-13,1029,1
84619,430925,464566,-25,-12,1027,1
84546,430903,464547,-16,-8,1027,1
84521,430970,464624,-16,-8,1043,1
84696,431053,464657,-21,-6,1017,1
84763,431161,464775,-15,-11,1017,1
84831,431314,464790,-20,-11,1035,1
84903,431452,464874,-20,-9,1020,1
84956,431688,465039,-22,-9,1020,1
85154,431754,464997,-25,-9,1043,1
85170,431777,465092,-25,-7,1044,1
85248,431760,465060,-22,-7,1030,1
85297,431865,465058,-25,-12,1030,1
85305,431981,465235,-25,-12,1027,1
85415,432078,465207,-15,-14,1027,1
85534,432163,465265,-18,-15,1021,1
85559,432170,465257,-29,-15,1021,1
85608,432256,465374,-29,-9,1049,1
85682,432463,465461,-15,-12,1049,1
85754,432463,465469,-16,-12,1018,1
85858,432632,465550,-16,-16,1023,1
85838,432733,465571,-24,-8,1023,1
85971,432746,465643,-21,-8,1050,1
86000,432975,465832,-21,-6,1035,1
86111,433064,465934,-14,-15,1035,1
86175,433182,465914,-24,-15,1035,1
86269,433292,465917,-24,-13,1020,1
86299,433351,466042,-21,-5,1027,1
86361,433467,466195,-30,-9,1027,1
86568,433709,466158,-30,-9,1027,1
86535,433808,466305,-30,-13,1029,1
86660,433814,466345,-11,-12,1029,1
86660,433937,466400,-28,-12,1041,1
86671,434021,466536,-28,-12,1037,1
86725,434278,466665,-25,-16,1037,1
86911,434300,466567,-20,-12,1020,1
86917,434364,466632,-27,-12,1030,1
87038,434492,466684,-27,-11,1035,1
87126,434678,466862,-20,-16,1035,1
87196,434782,466900,-24,-16,1027,1
87370,434816,466987,-24,-5,1024,1
87333,434846,466972,-25,-14,1024,1
87403,434942,467018,-28,-14,1020,1
87447,435066,467131,-28,-13,1044,1
87577,435221,467157,-31,-18,1044,1
87616,435315,467277,-28,-13,1020,1
87672,435441,467294,-17,-13,1033,1
87733,435483,467468,-17,-12,1033,1
87769,435501,467471,-19,-12,1035,1
87852,435708,467576,-22,-10,1026,1
88071,435904,467577,-22,-9,1037,1
88010,435985,467620,-21,-12,1037,1
88099,436124,467731,-23,-12,1021,1
88169,436180,467754,-23,-3,1024,1
88166,436221,467834,-19,-6,1024,1
88144,436163,467726,-21,-6,1035,1
88036,435994,467736,-21,-14,1021,1
87789,435796,467616,-22,-21,1021,1
87498,435565,467386,-24,-21,1029,1
87203,435232,467246,-24,-9,1016,1
86802,434652,467154,-21,-6,1049,1
86595,434375,466962,-21,-10,1049,1
86486,434249,466980,-21,-10,1030,1
86287,434178,466909,-21,-8,1047,1
86047,434164,467103,-23,-12,1047,1
86065,433999,466915,-25,-12,1017,1
85938,433828,466928,-25,-6,997,1
85822,433807,466774,-22,-12,997,1
85814,433672,466784,-18,-12,1032,1
85837,433763,466836,-18,-15,1023,1
85611,433614,466853,-15,-5,1035,1
85647,433549,466870,-22,-10,1035,1
85537,433704,466767,-27,-10,1035,1
85593,433643,466818,-27,-12,1023,1
85565,433643,466918,-27,-7,1023,1
85593,433661,466954,-25,-7,1007,1
85710,433846,467086,-25,-9,1040,1
85844,433943,467193,-21,-4,1040,1
85933,434133,467129,-21,-6,1021,1
86000,434315,467491,-21,-6,1049,1
86144,434525,467440,-31,-10,1029,1
86264,434657,467509,-23,-8,1029,1
86269,434713,467527,-18,-8,1029,1
86378,434786,467702,-18,-15,1021,1
86370,435072,467782,-15,-8,1021,1
86548,435225,467819,-19,-8,1021,1
86578,435179,467834,-19,-11,1011,1
86695,435243,467871,-14,-2,1011,1
86694,435466,467953,-16,-2,1035,1
86747,435529,467973,-16,-12,1044,1
86820,435755,468098,-21,-8,1024,1
86988,435789,468165,-13,-18,1024,1
87036,435885,468190,-13,-18,1056,1
87150,435982,468275,-25,-15,1026,1
87098,436105,468495,-21,-4,1026,1
87339,436399,468546,-21,-4,1024,1
87348,436337,468532,-21,-7,1037,1
87489,436454,468636,-31,-20,1037,1
87557,436609,468733,-21,-20,1044,1
87479,436637,468804,-21,-8,1037,1
87439,436780,468799,-18,-14,1016,1
87727,436846,468794,-17,4,1016,1
87837,437008,468937,-17,4,1032,1
87892,437129,468971,-23,-8,1027,1
87864,437205,469026,-33,-6,1027,1
88063,437270,469181,-22,-6,1041,1
88056,437360,469174,-22,-6,1021,1
88106,437404,469168,-27,-2,1021,1
88209,437407,469157,-27,-2,1049,1
88238,437598,469283,-27,-5,1026,1
88302,437729,469450,-29,-10,1026,1
88417,437741,469517,-27,-10,1032,1
88509,437861,469478,-27,-9,1024,1
88619,437811,469585,-21,-10,1026,1
88610,438006,469636,-29,-10,1026,1
88538,438089,469665,-29,-10,1032,1
88754,438057,469623,-19,-12,1017,1
88845,438179,469732,-24,-8,1017,1
88902,438218,469807,-18,-8,1032,1
88932,438401,469787,-18,-6,1033,1
89139,438584,469873,-27,-9,1033,1
89087,438538,469922,-27,-9,1037,1
89097,438545,469990,-27,-4,1027,1
89122,438645,470003,-25,-12,1032,1
89216,438612,469956,-21,-12,1032,1
89267,438741,469931,-21,-10,1021,1
88906,438350,469786,-21,-10,1027,1
88698,438009,469742,-27,-9,1027,1
88343,437675,469588,-19,-9,1030,1
88110,437361,469430,-19,-10,1030,1
87899,437245,469178,-26,-6,1030,1
87473,436436,469020,-17,-6,1030,1
87323,436310,468957,-17,-8,1014,1
87270,436136,468877,-29,-10,1014,1
87024,436013,468864,-24,-11,1026,1
86960,436020,468879,-25,-11,1018,1
86774,435703,468754,-25,-13,1018,1
86683,435571,468617,-18,-13,1016,1
86628,435460,468658,-18,-9,1043,1
86562,435347,468694,-18,-9,1016,1
86484,435511,468744,-26,-12,1016,1
86388,435226,468600,-20,-12,1046,1
86388,435201,468641,-20,-10,1026,1
86419,435087,468564,-24,-12,1026,1
86455,435153,468574,-26,-12,1021,1
86433,435440,468674,-26,-10,1023,1
86585,435311,468759,-15,-9,1046,1
86550,435482,468772,-24,-17,1046,1
86657,435535,468841,-24,-17,1024,1
86716,435643,468938,-22,-15,1029,1
86817,435888,469128,-22,-3,1029,1
86854,435854,469040,-33,-3,1029,1
86973,436044,469176,-33,-11,1005,1
87029,436109,469138,-27,-8,1005,1
87037,436142,469232,-27,-8,1035,1
87204,436166,469335,-27,-16,1033,1
87199,436234,469328,-19,-5,1037,1
87268,436377,469390,-17,-5,1037,1
87406,436562,469560,-17,-9,1029,1
87435,436561,469482,-23,-11,1029,1
87485,436721,469693,-21,-14,1014,1
87616,436814,469740,-21,-14,1035,1
87615,436864,469619,-21,-12,1047,1
87659,436855,469599,-21,-14,1047,1
87793,437036,469707,-26,-14,1024,1
87810,437132,469952,-26,-17,1043,1
87984,437280,469964,-26,-7,1043,1
88026,437389,469994,-15,-7,1026,1
88060,437426,469949,-15,-9,1011,1
88117,437376,470046,-20,-13,1011,1
88154,437504,470044,-25,-13,1014,1
88332,437646,470124,-23,-14,1037,1
88391,437775,470138,-23,-15,1037,1
88444,437807,470286,-20,-21,1037,1
88442,437792,470229,-31,-21,1018,1
88559,437848,470363,-31,-15,1040,1
88702,437956,470333,-19,-13,1040,1
88703,437980,470374,-18,-13,1024,1
88725,438007,470393,-18,-10,1010,1
88734,438073,470465,-24,-15,1035,1
88769,438171,470542,-13,-15,1035,1
88899,438271,470573,-13,-15,1008,1
88957,438353,470624,-23,-6,1017,1
88960,438327,470684,-25,-4,1017,1
89086,438405,470586,-21,-4,1035,1
89089,438528,470737,-21,-15,1024,1
89210,438490,470781,-19,-8,1024,1
89264,438584,470746,-24,-8,1026,1
89341,438604,470726,-24,-11,1020,1
89326,438636,470797,-31,-12,1020,1
89393,438772,470894,-21,-12,1035,1
89375,438874,470897,-18,-15,1027,1
89588,438878,470868,-18,-8,1027,1
89426,438852,470887,-21,-8,1026,1
89534,438842,470806,-18,-15,1043,1
89465,438775,470886,-18,-3,1035,1
89245,438250,470645,-21,-11,1035,1
88578,437843,470421,-28,-11,1029,1
88400,437471,470328,-28,-10,1035,1
88205,437237,470154,-21,-7,1035,1
88009,436922,470029,-21,-7,1018,1
87842,436878,469852,-21,-6,1021,1
87487,436362,469749,-23,-9,1035,1
87379,436221,469639,-21,-12,1035,1
87274,435974,469702,-21,-12,1037,1
87203,435946,469646,-25,-15,1013,1
87098,435917,469631,-29,-9,1013,1
86866,435578,469550,-18,-9,1035,1
86824,435489,469412,-18,-8,1021,1
86733,435442,469477,-18,-9,1021,1
86646,435420,469409,-21,-9,1024,1
86705,435421,469343,-21,-11,1033,1
86499,435367,469418,-23,-6,1049,1
86481,435276,469327,-26,-6,1049,1
86529,435354,469355,-26,-13,1030,1
86605,435315,469429,-19,-1,1027,1
86614,435531,469547,-21,-9,1027,1
86775,435542,469662,-18,-9,1023,1
86856,435730,469685,-18,-3,1029,1
86929,435715,469682,-16,-11,1029,1
87006,435927,469862,-21,-11,1027,1
86796,436169,469966,-21,-6,1024,1
87202,436069,469862,-20,-9,1024,1
87155,436187,469867,-21,-9,1040,1
87129,436194,469964,-23,-9,1033,1
87265,436205,470037,-23,-19,1033,1
87388,436299,470177,-20,-12,1037,1
87413,436580,470099,-22,-12,1033,1
87433,436557,470123,-22,-16,1032,1
87516,436564,470144,-31,-15,1032,1
87528,436744,470248,-23,-15,1021,1
87634,436892,470318,-23,-5,1027,1
87824,437017,470489,-30,-16,1027,1
87907,437118,470483,-25,-16,1026,1
87849,437133,470547,-25,-15,1040,1
87906,437283,470593,-25,-10,1040,1
88072,437422,470737,-28,-10,1030,1
88052,437412,470647,-28,-8,1011,1
88174,437550,470699,-21,-12,1046,1
88207,437553,470764,-21,-7,1046,1
88235,437650,470779,-30,-7,1021,1
88245,437885,471002,-30,-8,1024,1
88447,437781,470973,-27,-8,1024,1
88464,437914,470997,-25,-8,1035,1
88547,438001,470986,-25,-15,1047,1
88589,437980,471011,-18,-10,1047,1
88658,438047,471149,-11,-10,1030,1
88688,438081,471114,-11,-15,1001,1
88814,438180,471165,-24,-11,1035,1
88804,438205,471198,-27,-7,1035,1
88917,438251,471201,-24,-7,1035,1
88863,438305,471330,-24,-7,1020,1
89010,438467,471291,-21,-25,1020,1
89073,438490,471417,-18,-25,1016,1
89112,438475,471444,-18,-10,1017,1
89143,438564,471386,-26,-13,1017,1
89214,438755,471556,-27,-13,1010,1
89224,438825,471596,-27,-9,1020,1
89368,438833,471570,-18,-12,1020,1
89427,438879,471675,-26,-12,1033,1
89445,439016,471641,-26,-9,1038,1
89554,439174,471844,-28,-13,1047,1
89631,439277,471784,-24,-12,1047,1
89651,439260,471806,-23,-12,1030,1
89694,439262,471808,-23,-21,1027,1
89564,439174,471785,-20,-13,1027,1
89414,439082,471815,-18,-13,1033,1
89231,438477,471491,-18,-3,1037,1
88685,438162,471363,-20,-10,1035,1
88460,437875,471082,-21,-10,1035,1
88290,437656,471018,-21,-11,1020,1
88081,437574,470995,-15,-11,1023,1
87909,437166,470847,-21,-9,1023,1
87691,437104,470917,-21,-9,1016,1
87664,436926,470853,-21,-15,1032,1
87499,436894,470803,-26,-10,1032,1
87428,436768,470799,-30,-10,1046,1
87453,436874,470825,-30,-15,1035,1
87202,436653,470730,-31,-8,1035,1
87061,436607,470729,-22,-8,1010,1
87138,436648,470665,-22,-12,1032,1
87013,436459,470706,-28,-9,1032,1
86996,436629,470713,-18,-9,1041,1
87028,436564,470791,-21,-3,996,1
86959,436597,470863,-21,-15,1040,1
87091,436683,470829,-21,-8,1040,1
87058,436858,470903,-23,-8,1026,1
87230,436987,471036,-23,-11,1035,1
87360,437252,471186,-32,-17,1035,1
87467,437350,471161,-19,-17,1011,1
87508,437503,471280,-19,-21,1023,1
87622,437608,471353,-21,-15,1023,1
87714,437806,471474,-24,-15,1030,1
87764,437813,471519,-27,-12,1033,1
87848,437965,471511,-27,0,1030,1
87890,438053,471650,-20,-14,1030,1
87929,438245,471700,-21,-14,1024,1
88012,438510,471888,-21,-11,1013,1
88189,438547,471937,-21,-18,1013,1
88225,438640,471916,-25,-18,1029,1
88309,438769,472044,-25,-13,1035,1
88413,438909,472153,-21,-8,1035,1
88495,439154,472214,-33,-8,1018,1
88595,439295,472250,-33,-13,1010,1
88642,439407,472278,-26,-15,1010,1
88670,439691,472479,-29,-6,1017,1
88755,439713,472529,-14,-6,1030,1
88760,439871,472523,-14,-13,1035,1
88978,439966,472606,-19,-10,1035,1
89081,440138,472861,-29,-10,1040,1
89091,440154,472860,-29,-16,1029,1
89187,440309,472936,-31,-4,1029,1
89195,440439,473048,-22,-4,1035,1
89380,440667,473066,-22,-20,1014,1
89418,440756,473060,-22,-5,1052,1
89531,440900,473188,-29,-5,1052,1
89524,441011,473147,-23,-3,1035,1
89642,441282,473464,-23,-9,1032,1
89683,441222,473407,-16,-10,1032,1
89742,441234,473446,-24,-10,1032,1
89831,441416,473510,-24,-12,1032,1
89859,441526,473562,-21,-10,1032,1
89977,441700,473687,-23,-10,1029,1
90055,441769,473732,-23,-3,1035,1
90084,441879,473762,-18,-9,1027,1
90100,441981,473748,-24,-9,1027,1
90222,441980,473882,-24,-8,1035,1
90314,442181,473991,-26,-10,1017,1
90441,442417,474055,-25,-18,1017,1
90494,442526,474161,-22,-18,1027,1
90491,442673,474209,-22,-15,1021,1
90643,442704,474274,-15,-19,1021,1
90667,442897,474496,-24,-19,1011,1
90585,442827,474327,-24,-9,1032,1
90684,442796,474365,-18,-11,1032,1
90550,442777,474241,-18,-11,1029,1
90390,442602,474139,-18,-20,1027,1
90110,442398,474223,-28,-7,1027,1
89914,441744,473983,-24,-7,1027,1
89346,441501,473808,-21,-9,1033,1
89136,441304,473625,-21,-12,1024,1
89034,440969,473512,-19,-3,1024,1
88875,440990,473607,-25,-3,1026,1
88825,440729,473524,-25,-10,1021,1
88588,440627,473508,-21,-10,1021,1
88393,440472,473373,-26,-10,1029,1
88281,440415,473269,-26,-12,1018,1
88295,440534,473349,-22,-11,1018,1
87978,440281,473223,-20,-11,1029,1
88108,440202,473318,-20,-1,1059,1
88105,440200,473167,-23,-13,1040,1
88010,440118,473204,-21,-9,1040,1
88013,440203,473190,-21,-9,1029,1
88121,440205,473257,-21,-8,1026,1
88102,440226,473277,-22,-9,1026,1
88046,440333,473365,-23,-9,1023,1
88252,440413,473375,-23,-4,1029,1
88261,440565,473386,-17,-17,1029,1
88374,440857,473592,-19,-17,1013,1
88436,440860,473582,-19,-13,1017,1
88474,440832,473597,-21,-12,1035,1
88539,441020,473644,-19,-13,1035,1
88603,440990,473717,-18,-13,1018,1
88599,441212,473827,-18,-9,1035,1
88730,441331,473812,-27,-6,1035,1
88745,441321,473849,-15,-6,1040,1
88817,441418,473941,-15,-9,1035,1
88870,441515,474101,-33,-15,1035,1
88933,441667,474103,-22,-10,1017,1
89056,441600,474111,-30,-10,1029,1
89042,441783,474151,-30,-8,1043,1
89100,441838,474267,-25,-19,1043,1
89158,441935,474298,-31,-19,1023,1
89276,442170,474326,-31,-12,1014,1
89363,442169,474381,-18,-14,1014,1
89438,442236,474396,-25,-14,1005,1
89471,442205,474420,-25,-7,1035,1
89552,442299,474476,-28,-15,1035,1
89458,442402,474420,-23,-15,1023,1
89568,442402,474459,-23,-5,1030,1
89661,442522,474518,-16,-10,1017,1
89737,442545,474537,-30,-13,1017,1
89851,442535,474657,-30,-13,1018,1
89940,442656,474674,-30,-12,1014,1
89976,442696,474762,-22,-10,1014,1
90001,442799,474825,-30,-10,1037,1
90075,442794,474815,-30,-12,1029,1
90119,442861,474766,-21,-15,1029,1
90178,443051,474959,-16,-15,1014,1
90318,443083,474895,-16,-7,1035,1
90256,443075,474960,-21,-13,1030,1
90421,443082,474965,-21,-2,1030,1
90378,443177,474841,-21,-2,1018,1
90454,443284,475142,-21,-11,1018,1
90474,443289,475038,-21,-13,1014,1
90537,443204,475083,-24,-13,1030,1
90523,443254,475063,-24,-15,1032,1
90618,443321,475159,-21,-10,1032,1
90702,443671,475366,-26,-10,1030,1
90844,443585,475239,-26,-18,1038,1
90732,443561,475213,-23,-6,1038,1
90781,443437,475149,-21,-6,1035,1
90653,443352,475179,-21,-9,1030,1
90454,443249,475052,-16,-8,1030,1
89906,442533,474738,-24,-8,1023,1
89700,442214,474610,-20,-3,1024,1
89371,441810,474475,-20,-9,1020,1
89238,441556,474274,-18,-8,1020,1
88976,441463,474290,-19,-8,1043,1
88701,441010,474129,-19,-15,1020,1
88585,440828,473994,-23,-13,1020,1
88434,440699,474018,-12,-13,1044,1
88335,440504,473905,-12,-12,1007,1
88237,440537,473912,-25,-13,1007,1
88283,440364,473798,-24,-13,1024,1
88043,440077,473714,-24,-14,1020,1
87938,440145,473823,-24,-12,1008,1
87902,440064,473659,-23,-19,1008,1
87817,440155,473777,-25,-19,1037,1
87883,439936,473660,-25,-9,1018,1
87784,439993,473670,-22,-9,1018,1
87767,440133,473758,-19,-9,1035,1
87888,440172,473871,-19,-11,1023,1
87885,440364,473973,-24,-11,1023,1
87972,440562,474102,-24,-11,1020,1
88237,440660,474014,-27,-10,1024,1
88285,440708,474135,-27,-11,1030,1
88284,440854,474195,-24,-12,1030,1
88414,440891,474202,-17,-12,1021,1
88413,441036,474359,-17,-12,1014,1
88507,441022,474224,-23,-9,1014,1
88579,441041,474278,-26,-9,1018,1
88633,441092,474327,-26,-6,1013,1
88665,441199,474417,-27,-5,1013,1
88742,441349,474500,-29,-5,1035,1
88808,441441,474505,-20,-12,1029,1
88853,441496,474410,-20,-18,1029,1
88935,441480,474593,-27,-9,1011,1
88969,441645,474632,-32,-9,1037,1
89088,441736,474727,-32,-18,1026,1
89259,441813,474753,-28,-10,1026,1
89336,441992,474875,-30,-10,1014,1
89320,442032,474879,-30,-11,1038,1
89387,442055,474951,-25,-8,1038,1
89458,442255,474975,-18,-8,1026,1
89547,442243,474993,-18,-12,1001,1
89655,442387,475059,-24,-6,1026,1
89615,442415,475073,-27,-8,1026,1
89659,442516,475107,-27,-8,1035,1
89751,442602,475239,-27,-15,1030,1
89883,442640,475245,-24,-6,1030,1
89960,442631,475304,-30,-6,1038,1
89913,442686,475289,-30,-15,1041,1
89973,442715,475302,-20,-4,1041,1
89838,443017,475273,-29,-4,1032,1
90138,442857,475432,-16,-8,1029,1
90132,442891,475364,-16,-14,1029,1
90203,443018,475501,-18,-17,1027,1
90271,442985,475465,-30,-17,1050,1
90414,442962,475540,-30,-9,1021,1
90412,443145,475605,-19,-13,1021,1
90338,443167,475665,-17,-13,1011,1
90497,443247,475617,-17,-20,1016,1
90482,443256,475602,-30,-9,1016,1
90607,443465,475739,-24,-9,1024,1
90674,443542,475759,-24,-16,1023,1
90762,443581,475729,-23,-11,1023,1
90755,443610,475795,-25,-6,1035,1
90759,443576,475901,-25,-6,1041,1
90854,443699,475933,-25,-6,1024,1
90718,443517,475805,-18,-11,1024,1
90597,443416,475729,-23,-11,1023,1
90336,443066,475634,-23,-9,1016,1
90070,442789,475468,-26,-12,1016,1
89847,442636,475365,-17,-12,1016,1
89386,441857,474963,-17,-12,1024,1
89177,441620,474860,-23,-9,1024,1
88999,441402,474877,-32,-9,1030,1
88819,441170,474731,-32,-3,1026,1
88647,441082,474600,-26,-9,1026,1
88542,440892,474468,-28,-9,1023,1
88430,440769,474447,-18,-15,1040,1
88285,440637,474475,-18,-13,1040,1
88215,440576,474451,-24,-15,1040,1
88114,440503,474477,-22,-15,1035,1
88030,440439,474347,-22,-15,1033,1
87906,440315,474392,-22,-15,1033,1
87890,440322,474329,-23,-15,1029,1
87881,440244,474298,-23,-10,1038,1
87862,440364,474414,-15,-9,1038,1
87807,440285,474329,-27,-9,1035,1
87921,440346,474326,-27,-14,1043,1
87892,440444,474379,-26,-15,1027,1
88016,440500,474433,-14,-15,1027,1
88148,440818,474689,-18,-15,1020,1
88255,441035,474708,-18,-15,1011,1
88301,441043,474731,-18,-9,1011,1
88378,440983,474808,-21,-9,1026,1
88413,441109,474812,-21,-15,1029,1
88461,441259,474926,-21,-18,1029,1
88483,441319,474997,-18,-18,1038,1
88717,441427,474943,-18,-9,1041,1
88793,441521,475077,-22,-13,1056,1
88849,441638,475184,-21,-10,1056,1
88835,441731,475197,-21,-10,1035,1
88938,441840,475231,-21,-9,1032,1
89124,441975,475368,-22,-9,1032,1
89214,442046,475393,-21,-9,1024,1
89216,442141,475378,-21,-12,1023,1
89302,442189,475535,-30,-15,1023,1
89489,442496,475538,-18,-15,1010,1
89450,442622,475653,-26,-8,1035,1
89509,442696,475788,-26,-12,1043,1
89586,442751,475789,-26,-19,1043,1
89705,442861,475843,-27,-19,1035,1
89786,442985,476055,-27,-12,1044,1
89964,443094,476036,-27,-13,1044,1
89957,443238,476048,-30,-13,1044,1
90032,443400,476142,-30,-9,1018,1
90127,443496,476177,-17,-11,1018,1
90166,443502,476289,-29,-11,1011,1
90230,443659,476371,-29,-9,1033,1
90337,443818,476488,-16,-3,1016,1
90416,443877,476481,-17,-6,1016,1
90476,443918,476465,-25,-6,1035,1
90571,444046,476604,-25,-12,1035,1
90627,444035,476586,-18,-5,1035,1
90739,444175,476690,-28,-5,1043,1
90763,444287,476695,-28,-9,1020,1
90752,444473,476839,-31,-10,1020,1
90629,444705,476977,-18,-10,1026,1
91003,444703,476957,-24,-16,1018,1
91020,444827,477051,-24,-8,1018,1
91075,444846,477156,-20,-9,1021,1
91134,445012,477172,-17,-9,1035,1
91323,445162,477263,-17,-10,1005,1
91314,445280,477343,-22,-12,1005,1
91473,445362,477411,-25,-12,1035,1
91387,445475,477346,-25,-20,1020,1
91500,445536,477437,-25,-10,1020,1
91562,445667,477572,-21,-10,1021,1
91544,445570,477539,-21,-7,1021,1
91324,445446,477459,-27,-10,1021,1
91201,445215,477400,-22,-10,1052,1
90897,445012,477238,-22,-9,1041,1
90570,444693,477263,-28,-15,1026,1
90156,444280,476992,-26,-16,1026,1
89888,443924,476813,-26,-16,1024,1
89785,443829,476787,-26,-15,1030,1
89643,443764,476601,-21,-15,1030,1
89518,443787,476801,-25,-15,1013,1
89385,443513,476591,-25,-7,1021,1
89296,443309,476482,-21,-12,1021,1
89223,443330,476507,-26,-12,1030,1
89174,443188,476481,-26,-11,1040,1
89009,443401,476447,-19,-3,1040,1
88951,443189,476534,-30,-8,1049,1
88935,443136,476396,-27,-8,1004,1
88850,443114,476467,-27,-10,1024,1
88823,443118,476423,-30,-6,1024,1
88921,443200,476562,-25,-6,1040,1
88992,443311,476679,-25,-13,1017,1
89056,443466,476734,-22,-13,1017,1
89145,443608,476751,-21,-13,1037,1
89188,443793,476921,-18,-15,1041,1
89307,443961,477072,-18,-17,1041,1
89308,444236,477238,-24,-17,1016,1
89516,444316,477141,-24,-11,1037,1
89507,444379,477281,-27,-15,1057,1
89488,444508,477317,-23,-4,1057,1
89649,444809,477378,-24,-4,1021,1
89826,444946,477543,-24,-7,1033,1
89877,445094,477565,-27,-9,1033,1
89870,445147,477562,-22,-9,1023,1
89939,445269,477729,-22,-8,1040,1
90056,445421,477621,-22,-8,1024,1
90173,445557,477830,-21,-8,1024,1
90281,445562,477896,-21,-19,1021,1
90440,445695,477920,-26,-14,1026,1
90398,445884,477975,-21,-9,1026,1
90455,446017,478174,-25,-9,1035,1
90454,446190,478190,-25,-7,1037,1
90711,446188,478165,-18,-15,1037,1
90790,446266,478184,-21,-15,1040,1
90808,446375,478270,-21,-15,1026,1
90802,446511,478393,-20,-1,1026,1
91004,446628,478498,-24,-1,1049,1
90989,446529,478446,-24,-7,1035,1
91028,446656,478490,-14,-10,1035,1
91065,446759,478445,-18,-10,1021,1
91152,446850,478570,-26,-12,1023,1
91224,446955,478740,-26,-12,1033,1
91328,447082,478718,-31,-13,1033,1
91416,447085,478696,-25,-13,1044,1
91567,447154,478720,-25,-7,1029,1
91531,447194,478828,-19,-12,1029,1
91551,447321,478930,-22,-12,1017,1
91698,447405,478974,-21,-10,1027,1
91721,447518,478942,-21,-12,1027,1
91766,447552,478978,-26,-17,1024,1
91869,447579,479075,-19,-17,1023,1
91900,447678,479074,-19,-12,1054,1
92067,447835,479219,-20,-10,1054,1
92107,447878,479104,-18,-10,1027,1
92111,447829,479176,-18,-13,1032,1
92125,447985,479222,-27,-9,1032,1
92199,448235,479396,-29,-9,1035,1
92279,448159,479443,-29,-15,1037,1
92282,448169,479435,-27,-15,1037,1
92415,448210,479439,-27,-8,1013,1
92353,448198,479431,-22,-8,1018,1
92186,448120,479409,-22,-12,1014,1
91718,447456,479105,-29,-17,1014,1
91455,447131,478935,-26,-17,1027,1
91104,446910,478793,-26,-12,1038,1
90936,446589,478677,-18,-15,1038,1
90593,446245,478590,-22,-15,1033,1
90303,445887,478325,-22,-9,1032,1
90228,445719,478324,-21,-8,1032,1
90130,445578,478179,-19,-8,1033,1
89958,445366,478106,-25,-17,1011,1
89862,445383,478199,-25,-6,1011,1
89765,445160,478098,-21,-16,1026,1
89694,445081,478003,-28,-16,1035,1
89615,444955,477913,-28,-6,1035,1
89485,444924,478007,-21,-20,1035,1
89392,445060,478072,-18,-20,1020,1
89289,444730,477906,-18,-9,1020,1
89293,444699,477866,-21,-6,1020,1
89319,444700,477785,-26,-13,1020,1
89368,444680,477793,-29,-13,1024,1
89455,444984,477893,-29,-12,1024,1
89600,445039,478058,-30,-12,1032,1
89684,445112,478094,-18,-10,1024,1
89723,445269,478130,-18,-3,1024,1
89778,445393,478140,-20,-11,1024,1
89911,445547,478372,-25,-11,1020,1
90051,445564,478335,-25,-5,1035,1
89978,445612,478385,-22,-10,1035,1
90035,445751,478426,-25,-10,1014,1
90103,445798,478449,-21,-12,1033,1
90193,445908,478597,-21,-14,1033,1
90110,445965,478658,-30,-14,1024,1
90343,445900,478650,-30,-12,1037,1
90442,446113,478607,-23,-5,1023,1
90448,446264,478714,-21,-9,1023,1
90518,446387,478793,-27,-9,1032,1
90711,446430,478868,-27,-3,1021,1
90718,446433,478885,-29,-13,1021,1
90745,446425,478866,-17,-13,1038,1
90848,446631,478933,-17,-13,1021,1
90864,446727,479053,-18,-15,1021,1
90958,446830,479058,-22,-15,1008,1
91058,446922,479177,-22,-9,1053,1
91154,446922,479207,-18,-15,1026,1
91138,446921,479082,-19,-11,1026,1
91187,447107,479285,-19,-11,1024,1
91160,447133,479247,-19,-8,1002,1
91421,447127,479280,-15,-14,1002,1
91476,447130,479197,-22,-14,1044,1
91512,447235,479263,-22,-9,1020,1
91544,447379,479351,-18,-2,1020,1
91706,447359,479289,-20,-2,1020,1
91642,447477,479308,-20,-2,1029,1
91756,447435,479367,-22,-20,1035,1
91764,447441,479437,-23,-6,1035,1
91766,447506,479379,-18,-6,1020,1
91851,447786,479450,-18,-12,1001,1
91987,447685,479453,-15,-5,1001,1
92012,447735,479532,-30,-5,1023,1
92134,447766,479521,-30,-18,1037,1
92130,447868,479606,-20,-12,1035,1
92210,447969,479651,-18,-17,1035,1
92292,447899,479614,-18,-17,1020,1
92357,447934,479683,-25,-6,1020,1
92400,448049,479669,-25,-10,1038,1
92366,448173,479742,-21,-10,1046,1
92472,448232,479840,-21,-18,1005,1
92499,448224,479828,-23,-11,1005,1
92553,448132,479716,-13,-11,1035,1
92447,448018,479777,-13,-6,1026,1
92188,447905,479680,-24,-13,1026,1
91935,447746,479431,-20,-13,1020,1
91367,446791,479171,-20,-6,1016,1
91164,446540,479081,-18,-14,1016,1
90924,446341,478966,-23,-15,1041,1
90759,445949,478894,-27,-15,1049,1
90318,445947,478747,-27,-7,1030,1
90382,445628,478690,-26,-8,1030,1
90202,445461,478557,-14,-8,1027,1
90049,445312,478565,-14,-9,1018,1
89996,445195,478523,-19,-10,1018,1
89959,445123,478607,-22,-10,1032,1
89615,444893,478387,-22,-6,1032,1
89582,444799,478433,-25,-8,1005,1
89606,444840,478379,-23,-8,1005,1
89539,444712,478231,-23,-13,1026,1
89593,444859,478430,-21,-15,1050,1
89534,444702,478405,-28,-5,1050,1
89587,444673,478418,-23,-5,1024,1
89487,444712,478353,-23,-16,1021,1
89589,444789,478426,-27,-8,1021,1
89659,445077,478624,-27,-8,1011,1
89845,445141,478610,-27,-16,1030,1
89915,445277,478611,-29,-11,1030,1
89998,445447,478770,-25,-11,1030,1
90044,445623,478887,-19,-14,1032,1
90048,445748,478966,-19,-14,1029,1
90215,445698,478923,-17,-12,1029,1
90279,445740,478970,-21,-12,1014,1
90325,445837,479033,-21,-9,1035,1
90448,445901,479046,-18,-15,1035,1
90470,446086,479102,-15,-15,1032,1
90578,446108,479152,-15,-17,1024,1
90633,446087,479240,-33,-7,1020,1
90716,446186,479156,-27,-7,1020,1
90740,446313,479194,-27,-11,1038,1
90775,446378,479329,-23,-12,1026,1
91050,446532,479341,-31,-6,1026,1
90977,446596,479473,-21,-6,1010,1
91060,446620,479420,-21,-9,1032,1
91231,446646,479390,-30,-11,1032,1
91196,446790,479633,-28,-11,1020,1
91236,446937,479707,-28,-13,1027,1
91407,446984,479582,-26,-10,1027,1
91400,446982,479654,-20,-10,1040,1
91501,447086,479736,-20,-1,1032,1
91631,447204,479776,-18,-12,1032,1
91653,447294,479829,-27,-12,1020,1
91699,447246,479811,-20,-9,1027,1
91728,447255,479789,-20,-7,1041,1
91793,447400,479903,-23,-3,1041,1
91871,447516,479970,-30,-3,1023,1
91913,447622,480106,-30,-12,1033,1
91962,447540,480015,-14,-9,1033,1
92158,447643,480013,-30,-9,1026,1
92179,447612,480006,-30,-4,1037,1
92185,447765,480162,-22,-7,1037,1
92169,447850,480207,-25,-7,1030,1
92259,447866,480192,-29,-14,1032,1
92414,447816,480204,-29,-9,1044,1
92476,447933,480197,-14,-13,1044,1
92489,447999,480176,-24,-13,1043,1
92625,448222,480364,-24,-14,1035,1
92618,448121,480302,-26,-10,1035,1
92627,448157,480394,-19,-10,1030,1
92722,448166,480327,-19,-12,1020,1
92789,448209,480389,-26,-12,1044,1
92826,448252,480400,-21,-12,1044,1
92876,448322,480457,-21,-8,1026,1
92871,448346,480345,-24,-9,1030,1
92848,448267,480451,-27,-8,1030,1
92703,448051,480304,-24,-8,1033,1
92481,447970,480003,-24,-10,1023,1
91985,447284,479899,-21,-3,1023,1
91649,446869,479793,-20,-3,1040,1
91445,446594,479700,-20,-11,1024,1
91225,446361,479623,-20,3,1024,1
91028,446209,479379,-22,3,1030,1
90757,445920,479465,-22,-12,1029,1
90604,445768,479280,-21,-12,1029,1
90440,445616,479225,-24,-12,1044,1
90432,445546,479197,-36,-15,1020,1
90275,445584,479170,-36,-12,1016,1
90121,445212,479122,-19,-6,1016,1
89976,445253,479099,-18,-6,1020,1
89948,445249,479168,-18,-12,1016,1
89873,445178,479089,-25,-13,1016,1
89922,445231,479069,-24,-13,1037,1
89740,445083,479022,-24,-8,1023,1
89894,445150,479181,-21,-8,1043,1
89873,445199,479106,-18,-9,1043,1
89895,445286,479208,-18,-9,1016,1
89961,445474,479300,-25,-11,1013,1
90196,445743,479378,-15,-8,1013,1
90273,445823,479539,-19,-8,1023,1
90378,445996,479538,-19,-12,1023,1
90417,446143,479646,-22,-11,1023,1
90568,446246,479759,-18,-11,1029,1
90689,446343,479793,-18,-4,1014,1
90660,446404,479801,-21,-13,1014,1
90798,446502,479955,-20,-13,1016,1
90842,446634,479959,-20,-9,1023,1
90917,446834,480186,-18,-12,1023,1
90983,446915,480129,-22,-11,1016,1
91107,446878,480108,-24,-11,1040,1
91114,447096,480181,-24,-16,1046,1
91260,447171,480265,-22,-12,1046,1
91289,447532,480392,-18,-12,1024,1
91542,447576,480498,-18,-12,1017,1
91552,447630,480600,-27,-9,1017,1
91633,447687,480549,-21,-9,1018,1
91670,447867,480729,-21,-24,1026,1
91738,447944,480798,-16,-15,1026,1
91940,448136,480898,-23,-15,1035,1
91998,448397,480931,-30,-7,1033,1
92012,448388,480998,-30,-12,1024,1
92133,448599,480996,-25,-8,1024,1
92178,448684,481187,-24,-8,1004,1
92207,448732,481159,-24,-14,1026,1
92393,448799,481309,-23,-14,1026,1
92521,448906,481273,-16,-14,1029,1
92538,449122,481463,-16,-10,1035,1
92618,449257,481513,-22,-12,1023,1
92808,449231,481510,-25,-18,1023,1
92802,449355,481563,-25,-18,1014,1
92842,449485,481659,-21,-13,1038,1
92947,449568,481632,-26,-13,1038,1
93036,449641,481740,-20,-13,1038,1
93076,449747,481831,-20,-18,1035,1
93195,449873,481868,-24,-12,1035,1
93218,449949,481940,-25,-12,1030,1
93282,450095,481949,-25,-7,1032,1
93355,450192,482040,-18,-12,1032,1
93216,450222,482174,-19,-12,1021,1
93511,450331,482091,-25,-12,1016,1
93631,450390,482166,-25,-9,1020,1
93675,450482,482225,-13,-10,1020,1
93806,450613,482277,-30,-10,999,1
93980,450804,482336,-30,-2,1044,1
93925,450908,482520,-19,-3,1044,1
93995,450894,482425,-18,-3,1024,1
94011,450937,482520,-18,-13,1030,1
93909,450921,482476,-21,-18,1032,1
93953,451034,482449,-20,-9,1032,1
93498,450468,482314,-20,-9,1017,1
93241,450180,482130,-23,-9,1017,1
92930,449957,482012,-24,-12,1033,1
92637,449610,481835,-19,-12,1052,1
92522,449366,481759,-19,-14,1037,1
92139,448920,481714,-25,-7,1037,1
92121,448773,481578,-21,-7,1018,1
91895,448677,481564,-21,-12,1026,1
91843,448584,481505,-19,-14,1026,1
91705,448565,481494,-27,-14,1024,1
91549,448289,481387,-27,-9,1033,1
91399,448218,481334,-21,-12,1017,1
91394,448258,481289,-18,-3,1017,1
91346,448176,481360,-21,-3,1026,1
91247,448346,481269,-21,-14,1016,1
91100,448052,481253,-28,-6,1016,1
91154,448022,481200,-19,-6,1030,1
91104,448035,481227,-19,-12,1044,1
91156,447996,481254,-22,-2,1044,1
91015,448172,481378,-19,-12,1030,1
91339,448304,481384,-19,-12,1020,1
91411,448358,481425,-21,-12,1037,1
91529,448402,481509,-29,-15,1037,1
91564,448549,481563,-15,-15,1030,1
91650,448664,481714,-15,-12,1038,1
91756,448749,481846,-25,-12,1038,1
91762,448837,481856,-27,-12,1032,1
91859,448960,481850,-27,-15,1020,1
91843,449001,481822,-21,-14,1020,1
91939,449131,481931,-29,-14,1035,1
92083,449209,482051,-29,-10,1021,1
92140,449243,482056,-17,-10,1021,1
92175,449350,482069,-16,-18,1041,1
92280,449368,482077,-16,-18,1038,1
92312,449589,482272,-25,-12,1017,1
92424,449670,482290,-28,-12,1017,1
92502,449669,482285,-24,-12,1005,1
92539,449798,482377,-24,-9,1037,1
92519,449846,482310,-18,-4,1037,1
92680,450029,482562,-25,-4,1011,1
92823,450069,482479,-25,-13,1010,1
92829,450131,482394,-17,-18,1010,1
92959,450189,482498,-27,-18,1013,1
92990,450189,482472,-25,-9,1014,1
93034,450398,482617,-25,-10,1026,1
93038,450367,482588,-15,-9,1026,1
93195,450383,482565,-21,-9,1032,1
93234,450439,482610,-21,-8,1023,1
93276,450488,482777,-18,-10,1023,1
93303,450509,482828,-21,-10,1023,1
93438,450720,482788,-21,-11,1035,1
93490,450698,482921,-26,-11,1035,1
93549,450748,482874,-16,-11,1023,1
93544,450785,482837,-19,-8,1013,1
93699,450948,482976,-19,-13,1016,1
93574,450936,483016,-27,-3,1016,1
93771,451002,483107,-22,-3,1038,1
93833,451041,483118,-22,-18,1032,1
93886,451205,483228,-18,-9,1032,1
93947,451227,483249,-26,-9,1023,1
94051,451318,483256,-26,-14,994,1
94134,451478,483259,-21,-12,994,1
94191,451349,483291,-18,-12,1027,1
94231,451466,483340,-18,-14,1021,1
94196,451620,483451,-22,-11,1021,1
94295,451741,483417,-26,-11,1026,1
94289,451635,483380,-20,-13,1010,1
94386,451635,483441,-20,-7,1026,1
94304,451584,483353,-22,-14,1026,1
94142,451532,483401,-18,-14,1013,1
93921,450948,483189,-18,-7,1027,1
93459,450627,483033,-26,-5,1027,1
93102,450274,482817,-28,-5,1004,1
92912,449913,482721,-28,-15,1018,1
92646,449756,482546,-30,-15,1018,1
92503,449547,482416,-18,-7,1011,1
92080,449019,482207,-33,-7,1030,1
91983,448822,482166,-33,-11,1026,1
91874,448666,482051,-25,-17,1026,1
91702,448521,481928,-23,-17,1011,1
91653,448501,481918,-23,-4,1017,1
91415,448277,481934,-15,-12,1017,1
91378,448152,481853,-25,-12,1021,1
91244,448050,481796,-25,-9,1026,1
91216,448023,481766,-15,-4,1026,1
91187,448104,481760,-20,-4,1024,1
91123,447860,481669,-20,-12,1018,1
91089,447769,481694,-23,-23,1027,1
91185,447938,481744,-21,-12,1027,1
91209,448006,481784,-18,-12,1041,1
91281,448144,481948,-18,-12,1020,1
91558,448188,481947,-28,-10,1020,1
91646,448328,481999,-20,-10,1016,1
91570,448431,482020,-20,-10,1013,1
91725,448610,482056,-16,-2,1013,1
91753,448788,482187,-22,-2,1027,1
91835,448685,482175,-22,-9,1030,1
91941,448646,482225,-18,-12,1016,1
92036,448797,482301,-27,-15,1016,1
92067,448806,482278,-21,-15,1037,1
92147,449045,482327,-21,-3,1011,1
92214,448986,482316,-20,-9,1011,1
92253,449041,482364,-24,-9,1021,1
92430,449046,482445,-24,-12,1023,1
92351,449145,482473,-15,-3,1023,1
92398,449290,482653,-19,-3,1008,1
92555,449386,482630,-19,-6,1030,1
92599,449424,482633,-24,-8,1030,1
92630,449541,482775,-18,-8,1014,1
92799,449546,482673,-19,-9,1018,1
92830,449673,482858,-19,-4,1027,1
92927,449695,482934,-17,-3,1027,1
92966,449688,482890,-17,-3,1016,1
93059,449752,482913,-17,-9,1040,1
93105,449809,482934,-24,-8,1040,1
93139,450079,483049,-21,-8,1035,1
93234,450015,482949,-21,-11,1037,1
93278,450077,483074,-19,-13,1037,1
93446,450059,483158,-18,-13,1033,1
93371,450075,483059,-18,-12,1035,1
93491,450290,483274,-17,-5,1040,1
93641,450317,483190,-25,-10,1040,1
93698,450197,483221,-23,-10,1014,1
93684,450232,483100,-23,-7,1035,1
93777,450310,483201,-25,-7,1035,1
93762,450249,483332,-22,-7,1035,1
93922,450396,483227,-22,-7,1053,1
93944,450451,483249,-19,-7,1053,1
94005,450509,483387,-19,-7,1047,1
94043,450527,483295,-19,-4,1027,1
94160,450608,483449,-23,-3,1032,1
94231,450536,483409,-28,-3,1032,1
94290,450526,483485,-20,-3,1046,1
94277,450497,483329,-20,-16,1007,1
94365,450661,483434,-23,-8,1007,1
94465,450699,483513,-27,-8,1029,1
94617,450698,483428,-27,-15,1016,1
94539,450712,483525,-27,-6,1016,1
94570,450738,483497,-32,-6,1005,1
94496,450611,483474,-32,-12,1023,1
94499,450654,483435,-25,-3,1023,1
94391,450086,483278,-26,-3,1026,1
93788,449778,483067,-14,-3,1020,1
93469,449389,482798,-14,-14,1026,1
93237,448984,482708,-19,-10,1026,1
92829,448825,482564,-15,-10,1020,1
92593,448240,482218,-15,-14,1020,1
92366,447977,482190,-18,-15,1020,1
92209,447917,482169,-22,-15,1040,1
92073,447664,482032,-22,-3,1020,1
91902,447521,482009,-18,-9,1020,1
91858,447284,481791,-21,-9,1026,1
91604,447134,481789,-24,2,1017,1
91406,446997,481712,-24,-11,1011,1
91433,446989,481669,-21,-12,1011,1
91342,446869,481655,-20,-12,1049,1
91307,446812,481709,-20,-6,1021,1
91150,446734,481705,-24,-2,1021,1
91168,446683,481710,-16,-2,1023,1
91149,446630,481672,-16,-13,1021,1
91091,446616,481606,-23,-18,1033,1
91190,446777,481720,-25,-9,1033,1
91263,446812,481711,-25,-9,1037,1
91474,446977,481806,-17,-13,1023,1
91483,447035,481795,-23,-9,1023,1
91540,447216,481971,-21,-9,1017,1
91663,447388,481956,-21,-9,1016,1
91668,447399,481998,-19,-15,1016,1
91854,447460,482077,-20,-15,1010,1
91935,447577,482199,-20,-12,1014,1
91877,447610,482298,-22,-5,1014,1
92049,447627,482349,-10,-5,1027,1
92106,447771,482328,-10,-15,1030,1
92123,447767,482308,-18,-6,1014,1
92229,447817,482418,-22,-2,1014,1
92297,447905,482443,-15,-2,1038,1
92298,448156,482653,-15,-7,1029,1
92492,448192,482579,-15,-10,1029,1
92455,448177,482598,-26,-10,1032,1
92644,448222,482620,-26,-9,1037,1
92701,448280,482643,-21,-9,1037,1
92782,448371,482865,-18,-12,1011,1
92851,448513,482753,-20,-12,1041,1
92916,448566,482845,-20,-11,1041,1
92988,448619,482811,-19,-11,1038,1
92969,448681,482916,-18,-7,1029,1
93159,448909,483024,-18,-12,1021,1
93324,448957,483003,-19,-11,1021,1
93331,448917,483097,-21,-11,1041,1
93403,449057,483119,-21,-9,1024,1
93479,449129,483170,-33,-12,1024,1
93538,449155,483308,-19,-12,1040,1
93677,449382,483295,-26,-5,1027,1
93618,449395,483333,-26,-14,1027,1
93671,449416,483339,-19,-6,1035,1
93781,449549,483380,-18,-6,1029,1
93778,449846,483585,-18,-12,1017,1
93978,449842,483490,-29,-9,1017,1
94065,449849,483531,-22,-9,1033,1
94130,450072,483562,-22,-10,1035,1
94138,449972,483662,-20,-10,1035,1
94221,450343,483849,-25,-10,1016,1
94326,450258,483887,-25,-15,1023,1
94462,450349,483843,-21,-10,1023,1
94577,450487,483995,-16,-10,1033,1
94672,450589,483939,-16,-12,1027,1
94725,450599,484065,-30,-14,1011,1
94761,450690,484060,-26,-6,1011,1
94774,450843,484142,-23,-6,1026,1
94921,450989,484264,-23,-11,1029,1
94981,451014,484293,-27,-11,1029,1
94987,451220,484486,-25,-11,1033,1
95076,451303,484529,-25,-10,1021,1
94982,451352,484531,-21,-12,1021,1
94914,451247,484387,-16,-12,1026,1
94718,451057,484302,-16,-8,1027,1
94480,450814,484272,-30,-14,1047,1
94278,450146,483894,-11,-12,1047,1
93590,449848,483760,-23,-12,1033,1
93421,449590,483650,-23,-11,1049,1
93282,449472,483604,-21,-4,1049,1
93058,449280,483605,-21,-4,1014,1
93056,449068,483338,-21,-5,1029,1
92691,448909,483404,-22,-12,1029,1
92540,448840,483390,-22,-12,1041,1
92415,448706,483382,-22,-15,1029,1
92425,448761,483395,-18,-2,1041,1
92157,448588,483414,-20,-14,1041,1
92292,448582,483327,-21,-14,1030,1
92099,448579,483246,-21,-10,1037,1
92143,448527,483296,-21,-11,1037,1
92094,448591,483285,-28,-11,1021,1
92157,448679,483410,-28,-13,1046,1
92156,448573,483420,-21,-23,1046,1
92156,448679,483388,-21,-23,1032,1
92237,448842,483501,-21,-9,1037,1
92316,449090,483540,-19,-11,1037,1
92475,449368,483804,-18,-11,1056,1
92571,449419,483807,-19,-9,1020,1
92639,449514,483778,-19,-9,1049,1
92683,449675,483987,-22,-11,1049,1
92830,449706,484005,-19,-11,1017,1
92803,449881,484159,-19,-12,1033,1
92901,449893,484160,-21,-17,1033,1
92969,450064,484236,-19,-17,1024,1
93063,450149,484321,-19,-4,1026,1
93152,450206,484281,-20,-14,1026,1
93200,450291,484425,-29,-14,1023,1
93401,450488,484473,-29,-17,1026,1
93422,450647,484528,-18,-21,1017,1
93470,450765,484735,-20,-15,1017,1
93623,450860,484611,-27,-15,1035,1
93697,451058,484851,-27,-4,1040,1
93771,451146,484798,-32,-10,1040,1
93869,451238,484819,-28,-10,1024,1
93969,451366,485001,-28,-21,1023,1
94088,451437,485130,-24,-9,1023,1
94089,451675,485218,-19,-9,1024,1
94315,451732,485277,-19,-8,1041,1
94334,451820,485245,-21,-15,1030,1
94375,451906,485299,-24,-15,1030,1
94462,451944,485260,-24,-12,1024,1
94580,452134,485351,-24,-7,1030,1
94691,452145,485535,-22,-14,1030,1
94735,452225,485538,-21,-14,1035,1
94706,452364,485605,-21,-11,1029,1
94869,452415,485674,-18,-15,1029,1
94949,452636,485735,-19,-15,1040,1
95075,452645,485766,-19,-7,1035,1
95049,452754,485831,-19,-9,1041,1
95203,452815,485927,-19,-3,1041,1
95113,452848,485966,-19,-3,1020,1
95221,453001,486190,-27,-7,1032,1
95328,453124,486081,-30,-12,1032,1
95373,453173,486087,-18,-12,1023,1
95450,453246,486171,-18,-3,1002,1
95547,453327,486310,-22,-9,1002,1
95535,453535,486342,-18,-9,1024,1
95729,453585,486235,-18,-5,1005,1
95793,453568,486277,-24,-9,1005,1
95824,453601,486332,-18,-9,1030,1
95915,453657,486439,-18,-10,1037,1
95921,453923,486504,-23,-7,1050,1
95888,453832,486532,-16,-11,1050,1
95994,453766,486518,-27,-11,1018,1
95835,453555,486401,-27,-6,1032,1
95589,453380,486218,-21,-13,1032,1
95400,453061,486079,-24,-13,1029,1
94796,452481,485801,-24,-10,1035,1
94580,452088,485710,-21,-14,1035,1
94248,451758,485445,-20,-14,1020,1
94110,451484,485420,-21,-12,1029,1
93868,451410,485443,-21,-16,1029,1
93537,451085,485235,-25,-4,1013,1
93548,450878,485152,-18,-4,1027,1
93426,450747,485128,-18,-13,1027,1
93400,450671,485037,-21,-12,1027,1
93261,450664,485064,-21,-12,1044,1
93188,450347,484899,-21,-13,1026,1
92957,450300,484858,-18,-9,1026,1
93000,450247,484858,-18,-9,1029,1
92837,450109,484797,-17,-8,1043,1
92857,450131,484715,-17,-7,1043,1
92863,450067,484815,-20,-7,1040,1
92855,450129,484852,-20,-15,1013,1
92932,450087,484816,-28,-16,1030,1
93018,450165,484924,-24,-15,1030,1
93103,450338,484967,-28,-15,1027,1
93012,450464,485047,-28,-9,1030,1
93301,450485,485073,-19,-12,1030,1
93371,450666,485056,-15,-12,1027,1
93377,450702,485100,-15,-8,1008,1
93496,450815,485232,-22,-16,1029,1
93626,450765,485238,-20,-16,1029,1
93588,450940,485246,-20,-13,1047,1
93663,450965,485194,-19,-18,1024,1
93622,450963,485184,-27,-11,1024,1
93670,451047,485302,-18,-11,1030,1
93900,451120,485391,-18,-6,1033,1
93919,451259,485457,-22,-1,1033,1
93998,451312,485489,-22,-1,1023,1
93997,451377,485471,-22,-12,1026,1
94072,451391,485527,-21,-12,1026,1
94240,451644,485735,-28,-12,1026,1
94289,451561,485713,-18,-14,1014,1
94296,451580,485709,-18,-19,1044,1
94365,451654,485783,-27,-11,1044,1
94503,451716,485828,-18,-11,1053,1
94536,451851,485929,-18,-4,1040,1
94615,451993,485972,-27,-11,1040,1
94696,452040,486009,-23,-11,1027,1
94795,452059,485911,-23,-12,1023,1
94814,452064,486033,-28,-13,1023,1
94888,452391,485996,-14,-13,1013,1
94915,452234,486187,-14,-10,1030,1
95047,452246,486062,-27,-17,1038,1
95096,452358,486164,-24,-15,1038,1
95160,452441,486186,-19,-15,1016,1
95038,452563,486127,-19,-19,1041,1
95233,452468,486265,-28,-12,1041,1
95337,452548,486255,-18,-12,1030,1
95333,452482,486203,-18,-10,1018,1
95433,452648,486354,-15,-12,1018,1
95582,452618,486377,-32,-12,1011,1
95436,452700,486352,-32,-14,1027,1
95637,452785,486432,-32,-9,1027,1
95686,452815,486523,-24,-9,1013,1
95722,452880,486565,-24,-12,1040,1
95786,452884,486657,-18,-16,1037,1
95912,452984,486521,-20,-6,1037,1
95948,453044,486574,-24,-6,1040,1
95945,453090,486556,-24,-12,1026,1
96007,453066,486622,-14,-11,1026,1
95996,453189,486874,-23,-11,1005,1
96063,453071,486667,-23,-14,1040,1
95945,452979,486646,-22,-16,1040,1
95738,452859,486569,-16,-9,1011,1
95500,452497,486364,-20,-9,1004,1
95204,452370,486307,-20,-7,1040,1
94683,451440,485867,-18,-9,1040,1
94409,451139,485750,-22,-9,1026,1
94194,450834,485594,-22,-7,1029,1
94029,450513,485437,-21,-9,1029,1
93823,450356,485381,-30,-9,1033,1
93597,449904,485211,-30,-11,1044,1
93449,449760,485111,-27,-13,1044,1
93317,449667,485020,-18,-13,1026,1
93162,449542,485032,-18,-5,1026,1
93086,449634,485049,-21,-13,1026,1
92964,449370,485029,-29,-8,1024,1
92850,449244,484991,-26,-8,1023,1
92783,449142,484952,-26,-12,1023,1
92763,449075,484895,-29,-12,1023,1
92777,449065,485012,-22,-12,1024,1
92802,449085,484933,-22,-9,1026,1
92694,449124,484875,-22,-7,1026,1
92829,449194,485033,-18,-7,1032,1
92937,449276,484974,-18,-11,1052,1
93014,449435,485131,-24,-8,1052,1
93165,449809,485252,-24,-8,1026,1
93264,449870,485268,-26,-6,1026,1
93298,449916,485353,-26,-8,1035,1
93359,449944,485347,-17,-5,1035,1
93381,450130,485475,-17,-5,1041,1
93418,450215,485494,-17,-7,1029,1
93598,450212,485507,-23,-12,1029,1
93710,450427,485629,-26,-12,1037,1
93659,450272,485638,-26,-9,1030,1
93773,450493,485694,-18,-10,1007,1
93770,450684,485737,-21,-8,1007,1
94016,450755,485881,-21,-8,1023,1
94126,450769,485879,-16,-8,1038,1
94114,450853,485999,-17,-15,1038,1
94237,450915,485927,-19,-15,1037,1
94312,451187,486088,-19,-12,1032,1
94358,451221,486125,-15,-15,1032,1
94408,451202,486200,-17,-15,1046,1
94555,451325,486201,-17,-12,1004,1
94567,451340,486201,-16,-16,1004,1
94654,451514,486438,-12,-16,1032,1
94780,451685,486390,-12,-12,1030,1
94877,451627,486374,-17,-9,1013,1
94920,451701,486476,-25,-9,1013,1
94878,451770,486440,-18,-9,1038,1
94933,451932,486707,-18,-11,1043,1
95085,451972,486662,-21,-12,1043,1
95222,452105,486683,-18,-12,1018,1
95291,452151,486742,-18,-12,1023,1
95238,452145,486685,-23,-11,1023,1
95408,452251,486864,-11,-11,1047,1
95555,452393,486927,-27,-6,1030,1
95492,452364,486876,-27,-9,1030,1
95575,452401,486967,-31,-13,1035,1
95621,452465,486909,-18,-13,1017,1
95677,452661,487152,-18,-8,1011,1
95911,452712,487152,-20,-14,1011,1
95820,452669,487132,-27,-14,1033,1
95837,452700,487107,-27,-10,1050,1
95956,452797,487153,-29,-6,1050,1
96123,452881,487319,-19,-6,1020,1
96186,452938,487330,-19,-14,1023,1
96175,452968,487260,-17,-16,1023,1
96243,453033,487271,-25,-16,1023,1
96191,453083,487352,-10,-12,1029,1
96314,453199,487385,-10,-6,1010,1
96480,453252,487521,-22,-15,1010,1
96407,453226,487515,-25,-15,1021,1
96548,453153,487450,-25,-9,1033,1
96399,453092,487424,-20,-10,1033,1
96170,453003,487408,-22,-10,1032,1
95657,452228,486929,-22,-9,1008,1
95351,451918,486747,-27,-12,1008,1
95040,451470,486593,-26,-12,1005,1
94831,451159,486475,-26,-12,1011,1
94565,451072,486568,-20,-12,1020,1
94284,450375,486120,-25,-3,1020,1
94139,450234,486053,-24,-3,1023,1
93935,450021,485922,-24,-11,1035,1
93802,449779,485885,-27,-9,1035,1
93685,449873,485769,-15,-9,1038,1
93489,449557,485698,-15,-11,1005,1
93396,449556,485781,-19,-16,1026,1
93381,449458,485771,-26,-12,1026,1
93372,449443,485782,-26,-12,1041,1
93321,449390,485837,-24,-17,1041,1
93156,449251,485647,-22,-17,1029,1
93133,449247,485673,-15,-17,1007,1
93168,449227,485541,-15,-9,1026,1
93200,449278,485682,-24,-10,1026,1
93235,449424,485726,-22,-10,1008,1
93305,449552,485912,-22,-9,1024,1
93546,449711,486060,-23,-9,1024,1
93738,449775,486087,-13,1,1021,1
93728,449921,486080,-26,1,1027,1
93828,450050,486210,-26,-9,1030,1
93972,450238,486373,-21,-9,1030,1
93993,450274,486318,-18,-15,1029,1
94061,450408,486336,-18,-11,1038,1
94128,450526,486442,-21,-14,1038,1
94126,450643,486523,-26,-14,1021,1
94347,450777,486529,-26,-9,1014,1
94459,450849,486626,-18,-15,1014,1
94472,450988,486729,-18,-15,1024,1
94541,451019,486699,-18,-9,1024,1
94612,451248,486808,-33,-6,1024,1
94444,451347,486971,-18,-4,1023,1
94879,451474,487022,-23,-4,1047,1
94973,451531,487115,-23,-8,1041,1
94997,451674,487160,-25,-9,1041,1
95091,451902,487229,-27,-9,1033,1
95248,452068,487480,-27,-6,1014,1
95280,452133,487521,-29,-12,1014,1
95334,452198,487471,-15,-12,1017,1
95461,452233,487475,-15,-15,1026,1
95546,452430,487515,-24,-14,1026,1
95632,452574,487607,-21,-14,1020,1
95667,452609,487670,-21,-9,1032,1
95769,452709,487670,-27,-13,1037,1
95780,452778,487822,-22,-9,1037,1
95811,452756,487836,-15,-9,1020,1
95939,452951,487961,-15,-10,1037,1
96062,453099,487965,-24,-11,1037,1
96125,453244,488062,-27,-11,1021,1
96228,453380,488098,-27,-9,1020,1
96243,453437,488233,-26,-3,1020,1
96351,454050,488332,-25,-3,1013,1
96435,453608,488290,-18,-4,1030,1
96449,453643,488290,-18,-9,1030,1
96518,453770,488390,-21,-9,1035,1
96598,453869,488336,-21,-9,1027,1
96590,454052,488594,-21,-15,1047,1
96891,454064,488556,-24,-15,1047,1
96853,454131,488709,-25,-15,1017,1
96945,454227,488742,-25,-8,1020,1
96998,454321,488756,-22,-12,1020,1
96906,454683,488929,-21,-12,1016,1
97319,454716,488968,-21,-13,1035,1
97247,454761,489043,-27,-9,1021,1
97341,454896,489093,-24,-9,1021,1
97440,455005,489158,-15,-10,1035,1
97523,455039,489206,-15,-17,1023,1
97456,455036,489108,-14,-10,1023,1
97388,454959,489051,-21,-10,1043,1
97076,454827,489013,-21,-17,1029,1
96846,454531,488851,-25,-18,1029,1
96592,454365,488852,-18,-18,1037,1
96132,453534,488434,-18,-15,1035,1
95876,453239,488279,-18,-20,1037,1
95693,452999,488216,-21,-10,1037,1
95530,452902,488094,-21,-10,1016,1
95449,452715,488263,-23,-18,1027,1
95149,452441,487967,-29,-8,1027,1
95141,452424,487929,-18,-8,1020,1
95031,452317,487890,-18,-8,1018,1
94906,452261,487942,-17,-5,1018,1
94743,452456,487997,-20,-5,1021,1
94680,452071,487775,-20,-12,1032,1
94761,452029,487758,-15,-10,1032,1
94697,452074,487791,-15,-10,1037,1
94687,451974,487808,-15,-4,1040,1
94591,452235,487880,-27,-12,1021,1
94684,452161,487791,-15,-14,1021,1
94707,452232,487841,-24,-14,1041,1
94783,452408,488058,-24,-5,1030,1
94892,452590,488085,-21,-11,1030,1
95013,452847,488321,-22,-11,1054,1
95155,452977,488357,-22,-12,1035,1
95182,453084,488352,-21,-13,1035,1
95252,453239,488513,-20,-6,1026,1
95350,453324,488607,-27,-6,1038,1
95393,453569,488722,-27,-13,1038,1
95229,453619,488679,-19,-13,1026,1
95498,453748,488691,-21,-4,1040,1
95650,453798,488819,-21,-12,1029,1
95776,453823,488819,-14,-15,1029,1
95735,453973,488988,-16,-15,1035,1
95879,454173,489067,-16,-9,1044,1
95998,454192,489056,-19,-4,1044,1
96062,454346,489119,-26,-4,1035,1
96064,454456,489127,-26,-14,1018,1
96158,454493,489289,-23,-12,1018,1
96296,454726,489345,-30,-17,1026,1
96361,454773,489441,-21,-17,1021,1
96262,454750,489259,-21,-7,1033,1
96363,454906,489414,-21,-15,1033,1
96459,455043,489516,-18,-15,1035,1
96393,455074,489553,-18,-11,1046,1
96747,455146,489495,-19,-12,1046,1
96723,455263,489600,-18,-12,1011,1
96820,455280,489526,-18,-15,1033,1
96816,455429,489638,-19,-10,1033,1
97021,455537,489790,-18,-10,1049,1
97088,455477,489814,-18,-7,1023,1
97025,455671,489856,-19,-3,1027,1
97137,455626,489928,-19,-9,1027,1
97284,455717,489893,-20,-9,1035,1
97279,456003,489893,-20,-5,1021,1
97365,455815,489961,-20,-9,1021,1
97342,455853,490032,-16,-9,1029,1
97434,455985,490003,-16,-9,1020,1
97499,455934,489994,-25,-12,1020,1
97632,456094,490114,-22,-12,1029,1
97584,456204,490012,-22,-12,1030,1
97661,456114,490101,-18,-9,1030,1
97771,456203,490190,-18,-9,1035,1
97692,456274,490196,-25,-9,1033,1
97709,456307,490155,-25,-5,1040,1
97889,456494,490190,-18,-9,1040,1
97902,456474,490155,-25,-9,1056,1
97878,456517,490243,-25,-15,1040,1
98062,456531,490330,-26,-14,1040,1
98034,456750,490311,-29,-14,1038,1
97968,456492,490342,-29,-3,1035,1
97985,456475,490338,-27,-6,1026,1
97754,456290,490212,-18,-6,1026,1
97517,455924,490012,-20,-6,1050,1
96869,455702,489856,-20,-9,1033,1
96643,454791,489521,-15,-10,1033,1
96326,454488,489312,-19,-10,1029,1
96124,454125,489194,-19,-8,1026,1
95959,453924,489043,-20,-10,1026,1
95922,453893,489170,-22,-10,1024,1
95567,453475,488946,-22,-15,1032,1
95477,453358,488823,-15,-7,1032,1
95334,453273,488690,-19,-9,1032,1
95287,453072,488666,-19,-9,1014,1
95236,453129,488699,-27,-11,1020,1
95058,452890,488563,-20,-13,1020,1
95044,452760,488624,-29,-13,1040,1
94907,452731,488503,-29,-19,1023,1
94881,452641,488417,-21,-9,1023,1
94912,452683,488649,-25,-9,1016,1
94919,452658,488562,-25,-12,1035,1
94964,452686,488552,-25,-16,1035,1
94923,452819,488573,-21,-16,1016,1
95137,452967,488684,-19,-11,1030,1
95143,453392,488943,-19,-18,1032,1
95325,453263,488853,-20,-13,1032,1
95332,453353,488816,-18,-13,1035,1
95342,453456,488922,-18,-15,1037,1
95436,453570,488996,-13,-6,1037,1
95539,453672,488983,-19,-6,1038,1
95632,453784,489128,-19,-14,1044,1
95679,453797,489109,-24,-9,1044,1
95682,453911,489114,-25,-9,1026,1
95788,453864,489195,-25,-6,1017,1
95752,454021,489331,-19,-9,1017,1
95927,454106,489287,-28,-9,1024,1
95970,454145,489349,-22,-14,1017,1
96051,454234,489301,-22,-7,1040,1
96103,454426,489448,-24,-9,1040,1
96174,454436,489553,-24,-9,1027,1
96266,454581,489570,-24,-15,1035,1
96310,454662,489663,-21,-7,1035,1
96400,454783,489667,-23,-7,1011,1
96459,454747,489653,-28,-10,1011,1
96569,454955,489786,-28,-15,1011,1
96558,454985,489758,-21,-8,1023,1
96682,455028,489866,-26,-8,1020,1
96699,455035,489992,-26,-15,1041,1
96830,455169,489905,-16,-13,1041,1
96833,455398,489974,-26,-13,1035,1
96859,455440,490059,-26,-9,1041,1
97018,455422,490103,-24,-9,1041,1
97070,455522,490078,-22,-9,1027,1
97091,455472,490126,-22,-15,1030,1
97089,455560,490214,-27,-9,1043,1
97128,455717,490350,-13,-9,1043,1
97343,455793,490180,-13,-15,1057,1
97401,455839,490334,-21,-6,1027,1
97400,455827,490408,-21,-11,1027,1
97524,455833,490345,-17,-11,1035,1
97583,456075,490407,-17,-12,1027,1
97540,455905,490412,-26,-13,1027,1
97556,456047,490457,-18,-13,1032,1
97694,455987,490432,-18,-5,1020,1
97672,456022,490377,-20,-4,1020,1
97881,456189,490560,-26,-4,1037,1
97926,456207,490634,-15,-9,1024,1
97927,456307,490613,-15,-9,1024,1
97983,456385,490569,-18,-18,1037,1
98087,456389,490725,-27,-18,1011,1
98053,456434,490685,-27,-13,1013,1
98111,456479,490723,-28,-12,1013,1
98054,456362,490696,-22,-12,1043,1
97866,456213,490596,-22,-12,1032,1
97682,455973,490446,-13,-15,1032,1
97328,455631,490037,-26,-15,1016,1
96854,454828,489934,-18,-9,1027,1
96537,454369,489687,-18,-13,1027,1
96275,454125,489524,-20,-13,1026,1
96165,453842,489439,-20,-11,1040,1
95874,453671,489348,-25,-9,1020,1
95598,453250,489158,-29,-3,1020,1
95503,453091,489019,-18,-3,1029,1
95356,452948,488970,-18,-3,1041,1
95214,452790,488975,-22,-12,1041,1
95170,452887,488929,-18,-12,1024,1
95039,452607,488859,-18,-10,1016,1
94856,452499,488803,-18,-15,1016,1
94857,452443,488867,-19,-15,1040,1
94756,452387,488773,-21,-13,1035,1
94766,452456,488840,-21,-18,1013,1
94691,452294,488738,-24,-12,1013,1
94672,452370,488815,-26,-12,1030,1
94675,452436,488922,-26,-6,1021,1
94827,452609,488961,-21,-11,1021,1
94825,452729,489116,-23,-11,1040,1
95077,452970,489107,-23,-10,1026,1
95166,453104,489235,-15,-9,1029,1
95228,453289,489352,-18,-9,1029,1
95242,453381,489344,-18,-15,1013,1
95306,453519,489517,-42,-7,1014,1
95433,453463,489484,-21,-9,1014,1
95483,453586,489531,-26,-9,1035,1
95524,453677,489613,-26,-12,1030,1
95615,453790,489536,-23,-15,1030,1
95629,453971,489691,-21,-15,1037,1
95845,454022,489684,-21,-15,1027,1
95808,454133,489853,-23,-9,1027,1
95889,454291,489828,-26,-9,1008,1
95994,454338,489934,-26,-11,1029,1
96039,454427,490083,-28,-3,1029,1
96205,454628,490146,-8,-3,1013,1
96230,454622,490196,-14,-4,1037,1
96243,454732,490148,-14,-14,1029,1
96355,454699,490162,-23,-6,1029,1
96391,454925,490414,-24,-6,1014,1
96499,455008,490388,-24,-7,1016,1
96565,455059,490412,-21,-1,1016,1
96652,455134,490376,-26,-1,1040,1
96712,455235,490506,-26,-11,1007,1
96703,455335,490604,-17,-14,1032,1
96753,455398,490593,-22,-14,1032,1
96876,455496,490618,-22,-9,1049,1
96943,455535,490681,-24,-4,1027,1
96919,455607,490729,-22,-11,1027,1
97036,455706,490888,-21,-11,1020,1
97240,455834,490830,-21,-4,1018,1
97275,455944,490905,-27,-12,1018,1
97218,455951,490877,-20,-12,1021,1
97297,455974,490854,-20,-7,1017,1
97366,456122,491012,-20,-12,1017,1
97351,456212,491090,-20,-11,1027,1
97540,456255,491096,-21,-11,1024,1
97640,456274,491082,-21,-9,1014,1
97645,456326,491083,-15,-9,1014,1
97608,456475,491280,-25,-9,1038,1
97693,456563,491327,-25,-6,1021,1
97866,456658,491240,-16,-15,1021,1
97913,456784,491319,-21,-15,1013,1
98017,456894,491527,-21,-16,1023,1
98079,457005,491593,-7,-12,1023,1
98252,457200,491667,-21,-12,1024,1
98165,457332,491738,-21,-10,1032,1
98235,457366,491799,-27,-13,1032,1
98325,457276,491880,-23,-12,1027,1
98202,457258,491789,-21,-12,1035,1
98102,457109,491566,-21,-12,1054,1
97581,456512,491434,-21,-12,1054,1
97173,456101,491252,-20,-12,1027,1
96870,455769,491110,-20,-15,1035,1
96612,455389,490899,-21,-12,1035,1
96378,455213,490617,-25,-12,1018,1
96064,454574,490487,-25,-5,1032,1
95849,454398,490488,-16,-10,1032,1
95761,454382,490395,-20,-10,1041,1
95616,454255,490349,-15,-18,1033,1
95484,454221,490322,-15,-17,1027,1
95280,454140,490399,-22,-10,1027,1
95314,454098,490356,-28,-10,1013,1
95158,454086,490285,-28,-13,1033,1
95059,454003,490233,-15,-8,1033,1
95070,454176,490321,-22,-8,1037,1
94916,453908,490285,-22,-3,1030,1
94955,453932,490428,-27,-5,1030,1
94927,453944,490373,-27,-15,1046,1
94945,454060,490388,-21,-15,1024,1
95063,454367,490535,-21,-16,1041,1
95198,454501,490653,-22,-14,1041,1
95318,454726,490845,-24,-14,1052,1
95399,454791,490926,-24,-9,1021,1
95486,455085,490995,-15,-7,1021,1
95639,455271,491293,-28,-7,1033,1
95716,455450,491305,-28,-15,1017,1
95750,455553,491249,-26,-12,1027,1
95835,455727,491348,-22,-10,1027,1
95933,455797,491402,-22,-10,1027,1
95971,456078,491732,-28,-14,1033,1
96064,456178,491682,-21,-11,1033,1
96132,456264,491690,-19,-11,1023,1
96179,456348,491739,-19,-11,1026,1
96236,456382,491785,-33,-11,1026,1
96222,456666,491999,-22,-11,1023,1
96395,456703,491978,-22,-13,1038,1
96549,456924,492135,-26,-17,1038,1
96540,457076,492220,-17,-17,1014,1
96649,457213,492140,-17,-14,1041,1
96649,457472,492374,-26,-13,1038,1
96868,457401,492420,-22,-9,1038,1
96924,457533,492455,-29,-9,1023,1
97014,457596,492520,-29,-9,1027,1
96976,457795,492588,-20,-11,1027,1
97088,457920,492716,-14,-11,1035,1
97168,458006,492773,-14,-12,1035,1
97223,458062,492731,-25,-5,1035,1
97296,458184,492875,-27,-16,1017,1
97362,458304,492955,-22,-16,1029,1
97433,458381,492947,-22,-17,1029,1
97513,458498,492901,-27,-17,1029,1
97617,458597,493057,-26,-20,1037,1
97611,458620,493098,-26,-9,1041,1
97650,458675,493153,-21,-7,1041,1
97690,458867,493274,-23,-7,1020,1
97941,459010,493196,-23,-12,1032,1
97929,459026,493368,-21,-12,1032,1
97991,459093,493415,-20,-12,1030,1
97990,459177,493494,-29,-17,1023,1
98020,459420,493570,-29,-10,1027,1
98120,459465,493616,-18,-10,1027,1
98226,459546,493595,-18,-4,1032,1
98231,459622,493693,-24,-9,1020,1
98226,459654,493656,-21,-12,1020,1
98323,459830,493877,-25,-12,1035,1
98245,459937,493939,-25,-12,1040,1
98538,459961,493880,-30,-10,1040,1
98515,459964,493836,-16,-10,1041,1
98487,459927,493832,-16,-9,1035,1
98487,459979,493899,-22,-8,1035,1
98247,459566,493652,-23,-8,1014,1
97777,459152,493539,-23,-6,1043,1
97396,458780,493293,-28,-5,1035,1
97212,458316,493064,-18,-17,1035,1
96962,458080,492969,-29,-17,1023,1
96728,457777,492751,-29,-8,1047,1
96217,457174,492611,-18,-8,1047,1
96142,456971,492565,-21,-8,1030,1
96034,456894,492238,-21,-10,1011,1
95858,456768,492380,-14,-14,1018,1
95760,456828,492280,-30,-13,1018,1
95567,456443,492227,-30,-13,1037,1
95467,456328,492301,-24,-9,1037,1
95394,456308,492164,-21,-14,1016,1
95336,456203,492140,-22,-14,1021,1
95193,456219,492150,-22,-9,1029,1
95171,456059,492002,-26,-17,1029,1
95118,456050,491921,-20,-17,1016,1
95165,456091,492039,-20,-9,1040,1
95167,456160,492142,-16,-11,1040,1
95223,456348,492326,-19,-11,1030,1
95467,456533,492398,-19,-13,1013,1
95515,456546,492350,-25,-12,1035,1
95579,456670,492420,-21,-6,1035,1
95599,456758,492378,-24,-6,1044,1
95592,457012,492621,-24,-15,1024,1
95682,457034,492634,-21,-9,1024,1
95703,456909,492635,-27,-9,1005,1
95752,457061,492589,-27,-12,1014,1
95911,457172,492748,-24,-13,1014,1
95956,457387,492809,-26,-13,1026,1
96006,457397,492843,-26,-15,1035,1
96003,457454,492996,-26,-14,1035,1
96110,457609,493046,-15,-5,1032,1
96098,457652,493035,-23,-5,1018,1
96303,457831,493175,-23,-15,1027,1
96322,457829,493167,-23,-14,1027,1
96404,457968,493130,-25,-14,1021,1
96321,457993,493127,-25,-18,1037,1
96485,458076,493223,-15,-10,1037,1
96488,458069,493384,-25,-10,1035,1
96595,458191,493284,-25,-15,1033,1
96609,458238,493355,-25,-12,1027,1
96682,458354,493440,-18,-12,1027,1
96727,458432,493447,-18,-9,1035,1
96798,458580,493669,-27,-6,1010,1
96867,458532,493567,-21,-6,1010,1
96977,458637,493588,-17,-6,1043,1
97037,458717,493593,-17,-10,1035,1
97109,458746,493631,-21,-15,1035,1
97059,458906,493695,-22,-15,1023,1
97198,458930,493724,-22,-9,1021,1
97253,458999,493798,-22,-9,1021,1
97277,458962,493733,-20,-9,1029,1
97269,459107,493791,-20,-13,1035,1
97381,459126,493928,-18,-11,1021,1
97400,459196,493876,-26,-9,1021,1
97466,459210,493933,-24,-9,1027,1
97566,459255,493930,-24,-9,1032,1
97624,459359,493968,-25,-12,1032,1
97621,459401,494055,-28,-12,1027,1
97533,459523,494089,-28,-12,1040,1
97737,459588,494153,-23,-7,1040,1
97762,459497,494185,-20,-7,1037,1
97795,459617,494145,-20,-17,1020,1
97841,459802,494285,-21,-14,1020,1
98071,459749,494276,-19,-14,1018,1
97868,459655,494160,-26,-14,1011,1
97676,459519,494078,-26,-18,1018,1
97583,459278,493987,-21,-17,1018,1
97312,458970,493883,-20,-17,1027,1
97027,458122,493455,-20,-9,1035,1
96388,457774,493285,-20,-16,1035,1
96100,457419,493144,-27,-16,1024,1
95831,457157,493009,-21,-16,1029,1
95665,457007,492906,-21,-17,1029,1
95337,456569,492702,-24,-17,1054,1
95262,456405,492706,-24,-11,1010,1
95188,456292,492646,-20,-6,1027,1
95019,456254,492518,-25,-12,1027,1
94922,456203,492432,-25,-12,1027,1
94958,455916,492431,-25,-14,1026,1
94679,455825,492393,-26,-15,1026,1
94567,455719,492373,-30,-15,1040,1
94575,455782,492350,-30,-12,1052,1
94402,455783,492261,-18,-8,1052,1
94408,455910,492399,-24,-8,1023,1
94424,455731,492330,-24,-10,1023,1
94464,455831,492424,-20,-4,1037,1
94497,455812,492336,-16,-12,1037,1
94568,455963,492433,-21,-12,1021,1
94637,456251,492750,-21,-15,1027,1
94881,456405,492744,-18,-9,1027,1
95004,456542,492901,-24,-9,1027,1
95077,456725,492945,-24,-16,1035,1
95073,456811,493025,-24,-16,1035,1
95140,456878,493070,-21,-16,1020,1
95223,456924,493069,-21,-13,1035,1
95268,457032,493073,-19,-12,1020,1
95336,456978,493060,-20,-3,1020,1
95366,457133,493203,-9,-3,1035,1
95474,457361,493355,-9,-16,1035,1
95524,457375,493332,-17,-11,1035,1
95570,457476,493380,-19,-11,1029,1
95703,457593,493471,-19,-11,1020,1
95679,457719,493504,-27,-15,1020,1
95506,457839,493663,-21,-15,1050,1
95842,457977,493665,-21,-7,1032,1
95990,458048,493688,-21,-8,1026,1
96056,458044,493806,-22,-10,1026,1
96074,458190,493769,-24,-10,1024,1
96156,458308,493901,-24,-9,1027,1
96199,458305,493944,-18,-15,1027,1
96300,458488,493937,-16,-15,1035,1
96266,458524,493959,-16,-12,1035,1
96320,458449,493970,-21,-10,1035,1
96393,458625,494066,-25,-10,1020,1
96502,458712,494084,-25,-15,1035,1
96713,458870,494107,-31,-10,1035,1
96697,458787,494162,-24,-10,1018,1
96716,458852,494244,-19,-13,1029,1
96796,458907,494503,-19,-12,1018,1
96792,459052,494319,-25,-8,1018,1
96877,459045,494349,-25,-8,1032,1
96921,459088,494297,-25,-11,1035,1
96897,459193,494393,-26,-14,1035,1
97026,459310,494528,-20,-14,1024,1
97239,459388,494433,-20,-12,1021,1
97176,459384,494485,-19,-15,1027,1
97277,459452,494561,-18,-15,1027,1
97317,459477,494539,-18,-15,1030,1
97381,459661,494673,-19,-12,1011,1
97402,459647,494648,-18,-9,1011,1
97526,459636,494694,-13,-9,1040,1
97469,459749,494661,-13,-8,1017,1
97568,459774,494785,-19,-18,1017,1
97607,459773,494891,-21,-18,1010,1
97569,459873,494891,-21,-16,1033,1
97597,459877,494822,-15,-14,1033,1
97461,459667,494628,-17,-15,1056,1
97175,459354,494503,-26,-15,1040,1
96908,459041,494457,-26,-7,1023,1
96390,458184,494049,-21,-15,1023,1
96038,457798,493832,-22,-15,1020,1
95752,457489,493747,-22,-8,1035,1
95721,457245,493623,-19,-10,1035,1
95428,457180,493529,-24,-10,1041,1
95349,456761,493295,-24,-5,1001,1
94993,456533,493318,-22,-12,1001,1
94858,456459,493223,-21,-12,1016,1
94801,456292,493124,-21,-3,1008,1
94643,456238,493143,-24,-12,1008,1
94636,455962,493056,-25,-12,1035,1
94401,455985,493051,-16,-11,1035,1
94260,455864,492979,-16,-7,1040,1
94281,455854,492944,-13,-3,1040,1
94236,455879,492945,-19,-3,1021,1
94056,455815,492916,-19,-9,1027,1
94266,455985,492967,-21,-12,1027,1
94250,455935,493048,-19,-12,1014,1
94343,456105,493016,-19,-7,1017,1
94414,456279,493200,-28,-15,1017,1
94645,456678,493437,-27,-9,1011,1
94723,456888,493376,-21,-9,1037,1
94721,456963,493534,-21,-5,1024,1
94839,456974,493568,-21,-9,1024,1
94980,457170,493547,-14,-9,1016,1
95015,457436,493703,-14,-3,1024,1
95129,457509,493799,-25,-11,1024,1
95187,457509,493883,-25,-11,1010,1
95249,457658,493929,-23,-9,1013,1
95376,457684,493999,-23,-15,1013,1
95341,457843,494179,-18,-15,1013,1
95540,458026,494213,-26,-8,1033,1
95669,458168,494340,-26,-19,1030,1
95649,458337,494339,-30,-7,1030,1
95711,458407,494364,-25,-7,1038,1
95779,458572,494460,-25,-8,1017,1
95864,458603,494519,-23,-15,1017,1
96001,458694,494518,-22,-15,1029,1
96035,458793,494653,-22,-8,1023,1
96155,458871,494744,-17,-15,1023,1
96219,459283,494897,-26,-15,1032,1
96397,459217,494932,-21,-14,1041,1
96508,459382,495028,-21,-8,1029,1
96500,459513,495080,-22,-9,1029,1
96629,459572,495100,-15,-9,1024,1
96502,459903,495487,-15,-12,1030,1
96759,459836,495166,-24,-11,1030,1
96873,459920,495283,-15,-11,1008,1
96859,460017,495346,-15,-11,1020,1
96861,460081,495342,-21,-12,1035,1
97112,460285,495559,-24,-12,1035,1
97112,460319,495636,-24,-12,1044,1
97083,460432,495572,-29,-12,1041,1
97243,460508,495636,-28,-16,1041,1
97274,460546,495644,-15,-16,1032,1
97380,460792,495759,-15,-7,1024,1
97404,460868,495813,-21,-15,1024,1
97508,460923,495864,-18,-15,1016,1
97617,460945,495874,-18,-9,1053,1
97641,461133,496012,-21,-16,1053,1
97655,461278,496124,-16,-11,1035,1
97759,461221,496009,-22,-11,1040,1
97904,461451,496129,-22,-12,1014,1
97831,461568,496166,-27,-8,1014,1
98011,461623,496262,-20,-8,1035,1
98083,461780,496497,-20,-3,1020,1
98128,461799,496394,-31,-7,1020,1
98173,461890,496356,-23,-7,1032,1
98158,461916,496430,-23,-9,1032,1
97991,461842,496304,-13,-10,1032,1
97872,461702,496361,-26,-10,1033,1
97362,461004,496041,-26,-21,1023,1
96991,460646,495781,-24,-14,1023,1
96774,460323,495684,-18,-13,1044,1
96491,460027,495587,-13,-13,1023,1
96274,459849,495509,-13,-4,1013,1
96013,459529,495326,-20,-13,1013,1
95802,459421,495249,-21,-13,1046,1
95661,459226,495148,-21,-6,1018,1
95589,459109,495116,-21,-12,1018,1
95519,459154,495189,-24,-12,1043,1
95372,459018,495044,-16,-12,1033,1
95273,458999,495041,-16,-3,1033,1
95202,459022,495030,-20,-3,1021,1
95112,459032,495064,-20,-9,1023,1
95093,459139,495143,-33,-8,1033,1
95155,459039,495013,-28,-9,1033,1
95028,459034,494986,-22,-9,1023,1
95004,459152,495079,-22,-20,1043,1
95078,459263,495298,-15,-13,1043,1
95149,459521,495370,-28,-13,1038,1
95301,459729,495483,-28,-15,1030,1
95411,459845,495587,-19,-12,1024,1
95526,460023,495585,-21,-12,1024,1
95607,460170,495721,-23,-11,1032,1
95684,460266,495821,-23,-12,1035,1
95641,460398,495708,-29,-9,1035,1
95803,460443,495712,-27,-9,1018,1
95858,460564,495896,-27,-12,1011,1
95935,460695,495947,-21,-10,1011,1
95904,460695,496018,-29,-10,1040,1
96056,460898,496178,-29,-12,1029,1
96156,461057,496204,-18,0,1029,1
96185,461212,496228,-27,0,1008,1
