29035,195517,222166,1,-16,1035,1
29026,195527,222168,0,-16,1035,1
28947,195513,222182,9,-23,1024,1
29004,195444,222211,9,-15,1024,1
29003,195475,222159,0,-15,1026,1
28864,195511,222234,-11,-17,1021,1
28999,195490,222258,-11,-21,1038,1
28992,195611,222190,1,-14,1038,1
28948,195545,222215,0,-14,1023,1
29042,195543,222242,0,-24,1032,1
29092,195591,222231,8,-17,1032,1
29029,195583,222274,2,-17,1033,1
29044,195601,222248,2,-10,1030,1
29064,195575,222165,6,-17,1030,1
29007,195623,222195,-3,-17,1027,1
29044,195694,222236,-3,-18,1035,1
29064,195644,222199,-3,-19,1035,1
29095,195610,222233,0,-19,1014,1
29045,195601,222216,0,-16,1027,1
29088,195632,222177,3,-17,1027,1
29025,195623,222143,7,-17,1011,1
29042,195630,222189,8,-15,1040,1
29030,195648,222175,8,-23,1033,1
29065,195635,222181,5,-18,1033,1
29074,195641,222155,0,-18,1026,1
29137,195814,222293,0,-20,1032,1
29101,195659,222256,-2,-20,1032,1
29129,195710,222256,3,-20,1027,1
29071,195660,222219,3,-17,1016,1
29051,195596,222139,0,-12,1016,1
29061,195656,222283,4,-12,1043,1
29147,195643,222284,4,-21,1044,1
29098,195692,222257,7,-20,1027,1
29051,195621,222241,1,-15,1027,1
29130,195659,222260,1,-15,1026,1
29110,195623,222263,15,-16,1035,1
29089,195648,222241,15,-19,1035,1
29110,195657,222273,6,-19,1023,1
29108,195719,222227,6,-18,1057,1
29128,195642,222243,5,-18,1057,1
29145,195667,222366,9,-18,1032,1
29033,195542,222277,9,-22,1029,1
29042,195547,222288,10,-18,1029,1
29085,195533,222222,-4,-18,1017,1
29075,195496,222123,-4,-23,1004,1
29068,195490,222209,-5,-19,1004,1
29167,195504,222143,-2,-19,1032,1
28990,195358,222069,-2,-15,1044,1
29019,195352,222062,0,-21,1044,1
29017,195321,221985,-3,-21,1016,1
29105,195435,222095,-8,-18,1041,1
29143,195301,221978,-8,-16,1041,1
29127,195266,221944,1,-13,1033,1
29004,195243,221911,1,-13,1038,1
29026,195164,221918,1,-16,1050,1
29054,195290,221986,6,-12,1050,1
29053,195293,222015,9,-12,1029,1
29048,195293,221993,9,-11,1040,1
29080,195249,221956,6,-19,1040,1
29049,195298,222031,5,-19,1024,1
29049,195348,221995,5,-19,1021,1
29168,195255,221944,-15,-15,1021,1
29103,195318,221946,-5,-15,1032,1
29201,195235,222015,-6,-12,1011,1
29093,195376,221961,-6,-12,1011,1
29137,195400,222015,1,-13,1035,1
29147,195433,222003,6,-13,1024,1
29095,195371,222045,6,-12,1050,1
29240,195425,222041,-3,-17,1050,1
29189,195453,222080,5,-17,1026,1
29177,195458,222094,5,-14,1023,1
29214,195538,222096,4,-9,1023,1
29190,195443,222085,-3,-9,1037,1
29167,195485,222165,-3,-10,1027,1
29226,195499,222127,4,-20,1027,1
29149,195488,222100,1,-20,1037,1
29177,195542,222154,1,-18,1043,1
29274,195547,222138,2,-10,1043,1
29195,195562,222232,3,-11,1033,1
29266,195562,222240,3,-11,1032,1
29272,195728,222226,3,-23,1032,1
29337,195700,222312,-6,-23,1037,1
29350,195764,222350,-6,-21,1033,1
29253,195781,222305,-4,-18,1018,1
29305,195756,222421,0,-16,1018,1
29300,195793,222346,0,-16,1010,1
29268,195871,222404,0,-13,1043,1
29344,195819,222437,0,-18,1043,1
29372,195860,222481,4,-18,1026,1
29373,195864,222397,4,-7,1018,1
29413,195883,222457,4,6,1018,1
29351,195899,222469,2,6,1027,1
29284,195779,222363,2,-12,1010,1
29337,195817,222404,0,-45,1010,1
29308,195838,222490,0,-21,1010,1
29409,195854,222487,0,-21,1029,1
29328,195824,222521,-9,-2,1035,1
29330,195750,222453,0,-8,1035,1
29294,195837,222433,0,-8,1016,1
29303,195821,222504,0,-18,1026,1
29304,195884,222502,-8,-16,1026,1
29349,195880,222626,-9,-16,1037,1
29283,195923,222573,-9,0,1013,1
29356,195985,222695,-3,-12,1013,1
29337,196058,222672,-3,-12,1018,1
29372,195966,222722,-3,-17,1037,1
29302,196045,222739,4,-11,1037,1
29398,196026,222688,-5,-11,1040,1
29358,196026,222746,-5,-12,1030,1
29333,195991,222744,-6,-11,1060,1
29422,196039,222736,-5,-11,1060,1
29335,196207,222815,-5,-17,1020,1
29480,196093,222790,-6,-25,1021,1
29450,196145,222763,-5,-25,1021,1
29409,196179,222872,-5,-12,1032,1
29423,196168,222854,0,-21,1032,1
29468,196177,222854,-3,-13,1032,1
29421,196223,222865,-2,-13,1047,1
29456,196221,222901,-2,-17,1024,1
29406,196289,222891,-6,-17,1024,1
29457,196311,222949,-3,-17,1044,1
29492,196355,222975,-3,-11,1029,1
29343,196345,222982,-3,-17,1029,1
29456,196362,223016,-11,-17,1033,1
29469,196505,223070,-11,-21,1046,1
29488,196421,223004,0,-15,1046,1
29538,196493,223154,-3,-15,1033,1
29589,196494,223110,3,-21,1018,1
29561,196505,223079,3,-14,1018,1
29554,196462,223096,-3,-10,1030,1
29518,196432,223055,0,-10,1035,1
29562,196458,223129,0,-15,1037,1
29526,196553,223085,-6,-17,1037,1
29627,196513,223106,-3,-17,1032,1
29561,196535,223115,-3,-12,1024,1
29560,196613,223140,-2,-15,1024,1
29638,196624,223093,-7,-15,1020,1
29520,196583,223136,-7,-11,1035,1
29640,196556,223218,2,-16,1035,1
29530,196498,223175,6,-16,1046,1
29594,196584,223147,6,-17,1029,1
29596,196645,223221,-2,-18,1014,1
29734,196671,223207,-5,-18,1014,1
29678,196633,223165,-5,-9,1035,1
29573,196640,223178,3,-19,1018,1
29587,196660,223275,-6,-21,1018,1
29589,196626,223231,4,-21,1032,1
29609,196860,223198,4,-11,1017,1
29649,196744,223315,-5,-12,1017,1
29630,196663,223273,-3,-12,1038,1
29666,197198,223825,-3,-17,1020,1
29710,197251,223997,-3,-18,1020,1
29661,197371,224095,-2,-18,1027,1
29700,197425,224120,-2,-12,1043,1
29692,197426,224144,-4,-18,1043,1
29684,197350,224126,0,-18,1027,1
29725,197376,224157,0,-17,1016,1
29696,197301,224101,-9,-12,1016,1
29712,197399,224039,2,-12,1035,1
29729,197365,224070,-6,-26,1032,1
29668,197419,223997,-6,-13,1023,1
29732,197362,224067,-3,-12,1023,1
29716,197419,224124,-7,-12,1043,1
29793,197479,224104,-7,-17,1029,1
29730,197384,224128,0,-14,1029,1
29752,197393,224154,2,-14,1016,1
29752,197437,224168,2,-11,1043,1
29599,197499,224186,3,-13,1043,1
29726,197388,224220,-6,-13,1035,1
29714,197402,224216,-6,-19,1024,1
29731,197457,224224,-3,-17,1024,1
29786,197428,224222,3,-14,1029,1
29803,197502,224219,3,-14,1021,1
29725,197460,224206,-3,-19,1021,1
29731,197534,224337,7,-19,1032,1
29786,197578,224297,-6,-9,1029,1
29776,197598,224375,-6,-18,1049,1
29818,197660,224364,-3,-8,1049,1
29806,197665,224454,0,-8,1024,1
29799,197648,224390,0,-11,1063,1
29800,197636,224420,-6,-12,1063,1
29856,197621,224341,-6,-12,1037,1
29804,197718,224619,-6,-18,1032,1
29914,197762,224552,2,-20,1032,1
29883,197823,224537,-3,-20,1050,1
29887,197808,224462,-3,-12,1024,1
29835,197802,224539,-8,-16,1013,1
29873,197976,224645,0,-20,1013,1
29884,197922,224511,0,-20,1035,1
29877,197939,224540,-7,-16,1035,1
29910,197936,224562,9,-8,1035,1
29961,198049,224550,-10,-8,1014,1
29904,198048,224589,-10,-13,1024,1
29957,198018,224623,0,-10,1024,1
29941,198052,224597,8,-10,1043,1
29935,198089,224593,8,-18,1040,1
29935,198045,224598,0,-21,1040,1
30008,198095,224697,6,-21,1035,1
30025,197987,224593,6,-16,1046,1
29913,198008,224582,4,-15,1046,1
30013,197932,224629,-4,-15,1014,1
29968,198029,224610,-4,-16,1037,1
29991,198067,224718,3,-17,1037,1
29936,197996,224519,-3,-17,1023,1
29934,198019,224538,-3,-23,1014,1
29902,197963,224499,-6,-22,1014,1
29929,198073,224608,3,-18,1050,1
29904,198058,224560,3,-18,1033,1
30032,198093,224682,3,-21,1008,1
29987,198089,224736,2,-20,1008,1
29961,198070,224717,-7,-20,1041,1
30005,198024,224732,-7,-13,1032,1
29997,198096,224817,0,-13,1032,1
30035,198163,224802,2,-13,1037,1
30061,198189,224825,2,-20,1023,1
30001,198132,224801,2,-16,1023,1
30042,198195,224808,1,-16,1033,1
30052,198204,224910,8,-16,1018,1
29988,198313,224965,8,-14,1018,1
30032,198297,224923,3,-19,1020,1
30050,198313,224874,4,-19,1035,1
30078,198294,224953,4,-21,1023,1
30083,198402,225033,-2,-15,1023,1
30091,198402,225100,-5,-15,1027,1
30078,198423,225050,-5,6,1015,1
30096,198447,225058,-31,-12,1015,1
30092,198430,225039,45,-12,1050,1
30106,198424,225013,45,-54,1007,1
30153,198534,225113,-20,3,1007,1
30141,198556,225116,-8,3,1014,1
30107,198524,225116,-8,-18,1035,1
30162,198562,225101,-6,-12,1035,1
30144,198599,225219,0,-12,1038,1
30204,198649,225238,0,-30,1047,1
30171,198627,225200,2,-14,1020,1
30202,198661,225267,-5,-15,1020,1
30195,198732,225204,-5,-15,1023,1
30191,198653,225197,-3,-19,1035,1
30222,198728,225293,12,-29,1035,1
30208,198707,225264,2,-29,1053,1
30204,198752,225331,2,-18,1035,1
30311,198765,225349,-5,-16,1035,1
30174,198813,225294,-3,-16,1041,1
30181,198822,225312,-3,-20,1035,1
30246,198792,225273,-2,-17,1035,1
30226,198851,225376,0,-17,1033,1
30245,198819,225373,0,-15,1044,1
30260,198808,225335,-12,-12,1021,1
30153,198903,225476,-8,-12,1021,1
30325,198835,225389,-8,-18,1023,1
30288,198914,225439,2,-17,1023,1
30275,198907,225382,3,-17,1027,1
30113,198843,225339,3,-14,1016,1
30279,198814,225470,5,-12,1044,1
30255,198750,225397,0,-18,1044,1
30266,198773,225354,-4,-18,1040,1
30245,198838,225320,-4,-18,1050,1
30328,198773,225299,5,-14,1050,1
30261,198749,225311,0,-14,1037,1
30251,198621,225311,0,-12,1053,1
30243,198585,225239,5,-19,1053,1
30327,198588,225167,-5,-19,1020,1
30316,198619,225203,-5,-15,1044,1
30272,198583,225240,-6,-9,1044,1
30259,198520,225107,1,-9,1024,1
30212,198543,225135,-2,-9,1033,1
30239,198503,225093,-2,-11,1033,1
30258,198484,225166,1,-24,1035,1
30167,198693,225251,-3,-24,1046,1
30234,198576,225268,-3,-15,1029,1
30255,198643,225353,-3,-10,1029,1
30281,198639,225270,3,-10,1016,1
30274,198625,225295,3,-19,1024,1
30320,198753,225370,8,-16,1024,1
30255,198667,225359,-4,-16,1033,1
30324,198688,225396,-4,-15,1013,1
30298,198681,225330,-2,-17,1013,1
30282,198653,225333,9,-17,1046,1
30374,198751,225438,9,-24,1029,1
30340,198786,225405,-3,-14,1029,1
30386,198831,225458,0,-21,1029,1
30306,198801,225460,0,-21,1030,1
30241,198854,225421,-3,-17,1030,1
30362,198910,225523,-3,-18,1030,1
30285,198931,225453,0,-18,1041,1
30442,198906,225460,0,-18,1023,1
30393,198902,225500,7,-14,1023,1
30382,198888,225508,0,-14,1023,1
30443,198990,225598,0,-10,1030,1
30411,198943,225632,-12,-15,1030,1
30342,198920,225500,-3,-15,1050,1
30422,198991,225541,-3,-22,1050,1
30374,198962,225554,-11,-20,1050,1
30326,199054,225564,-14,-12,1047,1
30427,199000,225630,-14,-12,1030,1
30463,199056,225585,-6,-18,1030,1
30448,198999,225581,3,-18,1037,1
30343,198973,225524,3,-16,1033,1
30425,199027,225561,3,-18,1035,1
30277,198993,225521,-3,-13,1035,1
30375,198991,225559,0,-13,1027,1
30424,198979,225601,0,-16,1035,1
30340,198969,225602,0,-13,1035,1
30355,198979,225598,-3,-13,1013,1
30354,198911,225573,-3,-21,1033,1
30341,198859,225585,0,-12,1033,1
30361,198890,225583,0,-12,1021,1
30309,198897,225533,0,-16,1016,1
30408,198874,225525,-6,-20,1016,1
30308,199058,225542,3,-20,1023,1
30323,198838,225618,3,-12,1037,1
30359,198772,225570,0,-16,1037,1
30338,198814,225595,6,-16,1032,1
30257,198802,225499,6,-12,1027,1
30342,198791,225563,-3,-21,1016,1
30339,198736,225474,3,-15,1016,1
30344,198773,225527,-3,-15,1020,1
30346,198793,225535,-3,-17,1041,1
30389,198836,225561,1,-15,1041,1
30305,198852,225612,6,-15,1020,1
30342,198895,225602,6,-18,1035,1
30314,198907,225592,-2,-14,1035,1
30427,198874,225605,-5,-14,1032,1
30392,198985,225658,-5,-16,1043,1
30468,198994,225717,-7,-21,1026,1
30488,198987,225742,-7,-21,1026,1
30424,199026,225699,-7,-15,1017,1
30470,199077,225725,-3,-17,1035,1
30441,199063,225730,1,-17,1035,1
30372,199126,225786,1,-18,1033,1
30435,198993,225703,0,-18,1026,1
30469,198985,225721,-4,-6,1026,1
30482,199094,225727,3,-6,1021,1
30482,199160,225762,3,-20,1021,1
30495,199086,225834,-7,-18,1021,1
30496,199026,225834,9,-18,1017,1
30490,199111,225832,9,-19,1024,1
30458,199093,225803,1,-15,1024,1
30510,199138,225871,2,-15,1021,1
30465,199198,225879,2,-10,1014,1
30494,199159,225916,-2,-18,1014,1
30510,199170,225880,-9,-19,1044,1
30503,199151,225871,-3,-19,1021,1
30475,199164,225825,-3,-14,1021,1
30547,199213,225891,-4,-12,1020,1
30481,199189,225746,-5,-12,1016,1
30531,199149,225764,-5,-15,1020,1
30498,199140,225867,-3,-13,1020,1
30536,199090,225780,-5,-13,1011,1
30571,199298,225948,-5,-21,1030,1
30559,199102,225792,2,-12,1030,1
30492,199061,225781,2,-12,1021,1
30585,199092,225813,2,-18,1032,1
30524,198969,225835,0,-15,1032,1
30473,199123,225814,-4,-15,1023,1
30435,199004,225816,-4,-11,1030,1
30482,199086,225790,1,-18,1040,1
30429,198992,225767,0,-18,1040,1
30468,198925,225777,0,-18,1016,1
30434,198976,225793,-3,-15,1033,1
30457,198948,225775,-6,-14,1033,1
30501,198895,225784,-11,-14,1029,1
30422,198937,225768,-11,-21,1029,1
30457,198956,225805,3,-18,1029,1
30493,198927,225779,-2,-18,1027,1
30437,198951,225762,-2,-19,1038,1
30487,198990,225869,0,-15,1038,1
30482,198973,225720,1,-15,1033,1
30464,198976,225830,1,-11,1032,1
30469,199039,225879,-6,-12,1032,1
30529,198993,225849,0,-12,1056,1
30453,199006,225857,0,-16,1037,1
30469,199002,225768,-4,-14,1027,1
30461,198989,225920,4,-14,1027,1
30419,199129,226005,4,-21,1024,1
30501,199153,225939,-5,-17,1033,1
30561,199047,225931,6,-18,1033,1
30536,199064,225953,0,-18,1052,1
30513,199147,225997,0,-21,1029,1
30528,199097,225990,0,-15,1029,1
30461,199068,225989,0,-15,1037,1
30497,199111,225949,0,-20,1044,1
30517,199177,226072,-6,-18,1044,1
30595,199259,226048,0,-18,1021,1
30596,199258,226033,0,-20,1043,1
30619,199283,226112,2,-25,1043,1
30549,199247,226076,-3,-23,1035,1
30582,199253,226048,-3,-23,1018,1
30639,199252,226080,1,-18,1017,1
30580,199290,226104,-4,-10,1017,1
30579,199370,226157,-4,-10,1029,1
30624,199360,226158,0,-18,1032,1
30614,199327,226152,-9,-15,1032,1
30553,199401,226164,-7,-15,1029,1
30598,199421,226215,-7,-22,1030,1
30652,199444,226200,-3,-18,1030,1
30637,199433,226269,-9,-18,1030,1
30649,199478,226339,-9,-18,1033,1
30648,199418,226242,3,-18,1033,1
30594,199504,226252,-7,-18,1029,1
30681,199478,226271,-7,-21,1035,1
30590,199497,226269,-10,-19,1035,1
30684,199405,226244,-5,-12,1018,1
30581,199414,226193,0,-12,1033,1
30611,199405,226270,0,-15,1033,1
30632,199548,226251,-7,-11,1035,1
30546,199430,226236,3,-11,1033,1
30565,199458,226347,3,-9,1040,1
30596,199382,226279,6,-7,1040,1
30586,199400,226329,-9,-7,1056,1
30524,199535,226317,-9,-21,1049,1
30688,199434,226314,3,-15,1049,1
30680,199373,226256,0,-15,1026,1
30615,199389,226225,0,-20,1043,1
30595,199419,226203,-3,-12,1043,1
30650,199387,226370,-8,-12,1044,1
30596,199406,226301,-8,-17,1035,1
30631,199451,226351,-3,-14,1035,1
30590,199466,226304,-3,-14,1017,1
30565,199385,226294,-3,-13,1035,1
30661,199514,226406,-3,-19,1035,1
30621,199463,226373,-5,-14,1057,1
30608,199454,226363,-3,-14,1035,1
30604,199505,226386,-3,-12,1038,1
30617,199534,226420,2,-15,1038,1
30652,199586,226608,1,-15,1035,1
30641,199619,226507,1,-14,1016,1
30705,199638,226539,7,-18,1016,1
30702,199573,226584,-8,-18,1023,1
30622,199641,226610,-8,-22,1041,1
30698,199702,226638,-2,-13,1041,1
30674,199743,226585,-11,-13,1018,1
30658,199740,226627,0,-12,1033,1
30738,199724,226645,0,-19,1033,1
30732,199772,226621,-9,-24,1035,1
30723,199858,226709,-9,-24,1033,1
30671,199756,226686,5,-13,1037,1
30738,199812,226685,-3,-11,1037,1
30709,199832,226713,-9,-11,1043,1
30768,199888,226610,-9,-15,1038,1
30797,199857,226706,-3,-16,1038,1
30702,199772,226656,-7,-16,1046,1
30812,199801,226659,-7,-15,1026,1
30726,199762,226707,-3,-23,1026,1
30713,199820,226736,-2,-23,1024,1
30676,199859,226805,-2,-12,1047,1
30719,199881,226721,0,-27,1026,1
30703,199858,226763,2,-27,1026,1
30797,199838,226772,4,-10,1043,1
30837,199938,226722,4,-10,1043,1
30718,199944,226820,-4,-10,1032,1
30881,199916,226765,-3,-11,1043,1
30838,199865,226756,-3,-18,1030,1
30798,199922,226760,-3,-12,1030,1
30729,199839,226697,-6,-12,1013,1
30797,199896,226751,-6,-21,1026,1
30730,199828,226693,-4,-9,1026,1
30685,199864,226715,3,-9,1047,1
30770,199825,226710,3,-19,1027,1
30782,199716,226689,-4,-14,1027,1
30822,199743,226686,3,-14,1017,1
30644,199774,226661,3,-13,1037,1
30691,199734,226653,-2,-17,1037,1
30697,199706,226684,0,-15,1043,1
30727,199702,226656,-4,-15,1024,1
30708,199703,226672,-4,-15,1024,1
30730,199815,226822,-11,-11,1027,1
30766,199806,226781,-11,-11,1027,1
30722,199808,226792,-11,-8,1021,1
30732,199745,226762,1,-16,1021,1
30740,199838,226894,-6,-16,1040,1
30729,199961,226895,-6,-15,1033,1
30733,199855,226868,1,-18,1033,1
30774,199910,226900,-9,-18,1020,1
30775,199950,226878,-9,-16,1013,1
30783,199968,226922,1,-18,1013,1
30806,200099,227028,-3,-18,1018,1
30798,200045,227070,-3,-15,1062,1
30781,200086,227076,-6,-21,1032,1
30814,200138,227081,0,-18,1032,1
30810,200093,227069,0,-18,1035,1
30852,200147,227207,1,-21,1035,1
30861,200196,227204,-3,-18,1035,1
30911,200279,227269,-4,-18,1014,1
30908,200342,227344,-4,-18,1017,1
30993,200352,227270,-5,-17,1017,1
30956,200416,227352,0,-17,1029,1
30978,200440,227349,0,-12,1018,1
30944,200588,227436,0,-17,1018,1
31041,200518,227482,-5,-17,1027,1
31022,200460,227444,-5,-23,1020,1
30973,200609,227565,-4,-17,1020,1
31116,200620,227596,1,-17,1004,1
31003,200608,227537,2,-18,1024,1
31036,200628,227547,2,-16,1024,1
31038,200648,227489,9,-16,1035,1
31017,200644,227606,9,-19,1032,1
30974,200768,227650,4,-12,1027,1
31006,200859,227740,-4,-18,1027,1
31022,200904,227811,-3,-18,1024,1
31134,200917,227755,-3,-24,1017,1
31037,200915,227827,-3,-14,1017,1
31084,201037,227943,6,-14,1041,1
31089,200981,227926,6,-21,1035,1
31043,201027,227923,-3,-20,1035,1
31066,201060,228007,0,-20,1059,1
31047,201172,228113,0,-19,1041,1
31070,201232,228102,-2,-21,1023,1
31057,201175,228091,-7,-17,1023,1
30990,201299,228134,-7,-17,1027,1
30963,201219,228180,0,-15,1027,1
30985,201242,228242,-3,-23,1026,1
31050,201212,228163,-3,-23,1037,1
31065,201201,228211,-3,-10,1023,1
31006,201230,228246,4,-23,1023,1
31073,201260,228287,-2,-23,1011,1
31048,201192,228242,-2,-24,1018,1
31133,201293,228274,5,-14,1018,1
31119,201257,228216,-3,-14,1023,1
31107,201306,228321,-3,-14,1021,1
31085,201304,228311,-3,-20,1021,1
31002,201380,228362,-6,-15,1035,1
31118,201351,228331,-6,-15,1033,1
31108,201414,228351,5,-11,1010,1
31077,201351,228374,0,-11,1010,1
31060,201334,228444,0,-24,1037,1
31105,201527,228550,-8,-24,1030,1
31100,201498,228472,-6,-20,1030,1
31110,201500,228495,-18,-20,1016,1
31119,201545,228526,-18,-12,1024,1
31117,201540,228572,-11,-14,1024,1
31162,201571,228576,-3,-14,1026,1
31198,201672,228647,-3,-14,1021,1
31203,201665,228699,4,-16,1021,1
31149,201645,228677,-3,-16,1035,1
31194,201710,228668,-3,-12,1035,1
31243,201671,228726,-8,-16,1035,1
31251,201755,228678,-6,-16,1029,1
31144,201844,228746,-6,-14,1026,1
31159,201749,228809,-5,-17,1026,1
31252,201830,228746,-4,-13,1027,1
31188,201852,228864,-8,-13,1021,1
31139,201808,228803,-8,-13,1030,1
31185,201767,228818,7,-12,1030,1
31256,201855,228811,-7,-12,1049,1
31210,201867,228827,-7,-15,1040,1
31260,201890,228842,-4,-15,1040,1
31272,202033,228946,-4,-15,1044,1
31343,201981,228923,-4,-12,1027,1
31183,201947,228956,3,-18,1027,1
31215,202027,228930,6,-18,1026,1
31292,202112,228989,2,-22,1021,1
31289,202133,229033,2,-15,1021,1
31331,202170,229068,-3,-20,1040,1
31292,202078,228989,-3,-20,1030,1
31352,202100,229049,0,-12,1029,1
31318,202105,229027,3,-29,1029,1
31369,202167,229127,0,-29,1032,1
31266,202014,229038,0,-22,1040,1
31310,202090,229037,-12,-24,1040,1
31277,202167,229096,2,-24,1035,1
31286,202134,229090,2,-13,1035,1
31271,202140,229051,0,-19,1035,1
31235,202089,229104,-3,-19,1016,1
31299,202136,229176,-3,-14,1026,1
31299,202067,229150,-2,-16,1023,1
31259,202077,229043,5,-16,1023,1
31285,202060,229235,-3,-17,1030,1
31216,201965,229083,-3,-20,1017,1
31218,201985,229083,4,-20,1017,1
31252,202009,229104,3,-16,1026,1
31273,202051,229043,3,-21,1021,1
31202,202062,229115,1,-6,1021,1
31198,202037,229100,-2,-6,1023,1
31218,201975,229119,-2,-21,1033,1
31209,202005,229140,-9,-23,1033,1
31214,202060,229220,-3,-23,1024,1
31258,202147,229212,-3,-12,1021,1
31184,202103,229211,2,-18,1021,1
31251,202162,229195,0,-18,1033,1
31304,202160,229225,0,-18,1023,1
31275,202204,229288,0,-17,1023,1
31205,202183,229307,-10,-17,1037,1
31280,202198,229300,-10,-18,1024,1
31277,202196,229337,2,-12,1024,1
31282,202269,229320,-3,-12,1041,1
31306,202179,229359,4,-18,1030,1
31366,202243,229369,4,-16,1023,1
31277,202208,229285,2,-15,1023,1
31255,202201,229325,0,-15,1037,1
31299,202218,229289,0,-18,1026,1
31316,202122,229205,2,-15,1026,1
31275,202218,229324,2,-15,1038,1
31224,202199,229337,2,-15,1047,1
31305,202180,229321,-2,-19,1047,1
31277,202228,229321,-2,-19,1023,1
31330,202221,229309,-2,-18,1026,1
31279,202201,229298,1,-15,1017,1
31277,202217,229350,-5,-15,1017,1
31292,202249,229374,-5,-22,1032,1
31327,202196,229343,-2,-19,1026,1
31385,202275,229419,-2,-12,1026,1
31379,202392,229468,-4,-12,1023,1
31364,202393,229505,-4,-16,1033,1
31425,202426,229403,-3,-16,1033,1
31340,202432,229482,-11,-16,1038,1
31322,202400,229462,-11,-17,1013,1
31356,202417,229502,-6,-10,1013,1
31283,202417,229460,3,-10,1024,1
31386,202464,229482,3,-18,1037,1
31371,202546,229573,-7,-16,1037,1
31276,202473,229488,-8,-13,1040,1
31388,202622,229595,-8,-13,1027,1
31320,202466,229562,-3,-16,1027,1
31287,202509,229567,-5,-16,1011,1
31238,202485,229641,-5,-16,1060,1
31313,202489,229708,6,-15,1037,1
31358,202595,229675,3,-14,1037,1
31314,202495,229696,-4,-14,1032,1
31289,202566,229673,-4,-16,1016,1
31281,202627,229704,-6,-17,1016,1
31313,202492,229706,-8,-17,1026,1
31242,202641,229799,-8,-17,1037,1
31209,202598,229831,2,-15,1037,1
31348,202658,229871,2,-15,1010,1
31387,202717,229839,2,-12,1020,1
31318,202671,229816,1,-14,1030,1
31256,202688,229804,3,-14,1030,1
31326,202853,229917,-3,-16,1023,1
31303,202785,229908,-3,-16,1023,1
31312,202749,229900,3,-16,1018,1
31340,202852,229971,-5,-16,1021,1
31316,202876,229976,-5,-12,1005,1
31382,202886,230068,6,-19,1005,1
31310,202857,230017,2,-19,1049,1
31312,202922,230094,2,-14,1005,1
31341,202943,230111,4,-16,1005,1
31339,202987,230090,0,-16,1029,1
31356,203045,230131,0,-13,1037,1
31363,202990,230115,-6,-21,1037,1
31406,203027,230192,1,-21,1043,1
31366,202993,230156,1,-12,1041,1
31358,203064,230107,4,-20,1041,1
31388,203140,230299,5,-19,1027,1
31318,203097,230295,-9,-19,1026,1
31459,203136,230316,-9,-17,1026,1
31413,203149,230283,2,-17,1037,1
31320,203189,230285,4,-17,1017,1
31413,203164,230306,4,-15,1032,1
31418,203182,230348,0,-16,1032,1
31405,203354,230402,-3,-16,1046,1
31410,203277,230388,-3,-12,1032,1
31465,203274,230406,-8,-20,1032,1
31399,203399,230499,1,-20,1018,1
31461,203391,230555,1,-16,1032,1
31410,203311,230473,2,-16,1032,1
31536,203416,230542,3,-16,1033,1
31543,203484,230551,3,-21,1030,1
31557,203439,230590,-3,-19,1014,1
31483,203429,230534,-2,-19,1014,1
31448,203431,230552,-2,-13,1040,1
31448,203404,230516,3,-16,1040,1
31473,203436,230526,6,-15,1033,1
31503,203521,230665,2,-15,1044,1
31498,203445,230605,2,-12,1029,1
31440,203387,230646,8,-16,1029,1
31470,203345,230573,-5,-16,1033,1
31424,203337,230594,-5,-13,1024,1
31383,203400,230624,4,-18,1024,1
31419,203331,230536,3,-18,1035,1
31343,203292,230524,3,-10,1027,1
31422,203221,230520,4,-16,1027,1
31433,203244,230476,-6,-16,1035,1
31366,203314,230527,-15,-16,1038,1
31385,203172,230412,-15,-12,1038,1
31332,203190,230374,-3,-12,1035,1
31390,203080,230436,-3,-23,1043,1
31357,203090,230473,-6,-22,1033,1
31375,203141,230452,-4,-14,1033,1
31380,203078,230332,6,-14,1018,1
31404,203100,230416,6,-14,1035,1
31449,203119,230471,0,-16,1035,1
31378,203104,230477,-8,-16,1026,1
31282,203105,230523,-8,-13,1010,1
31436,203139,230456,-10,-21,1010,1
31362,203251,230522,0,-21,1033,1
31349,203240,230555,0,-24,1035,1
31392,203204,230536,4,-15,1038,1
31415,203328,230611,0,-15,1038,1
31449,203289,230604,-9,-10,1020,1
31440,203285,230623,-9,-12,1026,1
31437,203350,230608,4,-12,1026,1
31430,203321,230620,4,-20,1041,1
31456,203378,230628,3,-19,1030,1
31570,203382,230588,-3,-15,1030,1
31460,203310,230553,0,-15,1032,1
31478,203370,230616,0,-18,1041,1
31491,203314,230591,-6,-17,1041,1
31510,203299,230611,-6,-17,1021,1
31444,203265,230628,-6,-12,1027,1
31414,203246,230536,-9,-24,1027,1
31427,203255,230545,-3,-24,1013,1
31500,203269,230501,-3,-20,1037,1
31510,203260,230583,-3,-23,1032,1
31453,203224,230574,-6,-21,1032,1
31414,203279,230596,-6,-21,1030,1
31522,203219,230523,1,-13,1030,1
31471,203228,230495,-4,-15,1027,1
31414,203190,230498,-4,-15,1037,1
31446,203175,230453,-4,-19,1018,1
31422,203180,230541,3,-12,1018,1
31389,203155,230490,-4,-12,1037,1
31448,203147,230451,-4,-10,1033,1
31467,203174,230553,-5,-12,1033,1
31374,203087,230478,-6,-12,1037,1
31450,203058,230381,-6,-11,1030,1
31400,203058,230465,6,-22,1030,1
31461,203091,230378,-2,-22,1035,1
31403,202995,230378,-5,-11,1033,1
31387,203004,230366,-5,-15,1033,1
31363,202948,230302,-3,-15,1020,1
31344,202920,230286,-5,-18,1029,1
31344,202912,230362,-5,-15,1024,1
31286,203006,230424,0,-15,1024,1
31404,202975,230459,-4,-15,1008,1
31408,203051,230472,-4,-12,1017,1
31395,203011,230419,0,-17,1017,1
31339,202973,230447,3,-17,1038,1
31435,203036,230476,3,-20,1049,1
31362,203078,230475,0,-18,1049,1
31373,203035,230523,-3,-18,1023,1
31402,203058,230548,-3,-17,1021,1
31409,203079,230548,-2,-25,1021,1
31387,203112,230553,3,-25,1021,1
31453,203238,230575,3,-17,1017,1
31440,203175,230636,-5,-18,1017,1
31437,203198,230659,1,-18,1044,1
31486,203121,230626,-3,-15,1021,1
31339,203175,230740,-3,-24,1023,1
31405,203201,230767,-2,-21,1023,1
31396,203187,230737,-3,-21,1035,1
31405,203210,230724,-3,-15,1037,1
31455,203245,230765,4,-12,1037,1
31489,203317,230800,-4,-12,1030,1
31491,203322,230901,-4,-9,1038,1
31438,203376,230831,-2,-16,1038,1
31442,203355,230822,-4,-16,1027,1
31503,203447,230898,-4,-15,1038,1
31493,203378,230872,0,-21,1038,1
31575,203545,230985,0,-21,1018,1
31507,203488,230952,-2,-15,1040,1
31481,203557,230866,-2,-21,1040,1
31504,203561,230955,2,-22,1027,1
31494,203634,230965,-6,-22,1046,1
31526,203638,230981,-6,-15,1020,1
31555,203609,231016,4,-20,1020,1
31601,203625,231094,0,-20,1043,1
31618,203660,230993,0,-15,1016,1
31540,203694,231044,3,-18,1016,1
31552,203696,231120,7,-18,1037,1
31571,203660,231060,7,-12,1043,1
31643,203726,231056,0,-12,1043,1
31608,203788,231077,0,-12,1032,1
31587,203731,231154,0,-23,1020,1
31556,203740,231268,0,-20,1020,1
31538,203723,231128,-2,-20,1046,1
31472,203726,231165,-2,-19,1020,1
31563,203697,231105,-6,-19,1035,1
31541,203655,231137,4,-12,1035,1
31594,203686,231133,-6,-12,1024,1
31592,203671,231128,-6,-19,1010,1
31542,203630,231141,3,-18,1010,1
31482,203608,231106,-3,-18,1032,1
31480,203543,231096,-3,-21,1021,1
31452,203634,231116,2,-16,1021,1
31540,203619,231134,0,-16,1023,1
31543,203620,231130,0,-15,1017,1
31521,203637,231081,-5,-24,1014,1
31452,203648,231112,6,-24,1014,1
31499,203663,231159,6,-22,1017,1
31532,203655,231138,4,-15,1029,1
31594,203650,231123,4,-15,1029,1
31520,203624,231213,4,-20,1049,1
31521,203685,231193,6,-18,1033,1
31559,203760,231181,0,-21,1033,1
31549,203728,231214,-7,-21,1032,1
31519,203694,231293,-7,-13,1032,1
31629,203710,231225,5,-21,1032,1
31651,203805,231278,-2,-21,1026,1
31582,203763,231218,-2,-18,1033,1
31605,203807,231316,5,-19,1033,1
31516,203767,231255,0,-19,1020,1
31558,203780,231316,0,-25,1043,1
31674,203779,231249,0,-20,1030,1
31584,203780,231310,3,-21,1030,1
31613,203821,231306,3,-21,1033,1
31651,203842,231404,-7,-15,1046,1
31647,203883,231327,2,-18,1046,1
31642,203860,231374,-3,-18,1030,1
31704,203892,231360,-3,-13,1027,1
31597,203933,231399,5,-18,1027,1
31650,203854,231436,-3,-18,1018,1
31583,203890,231448,-3,-18,1023,1
31643,203893,231464,-5,-21,1023,1
31655,203985,231518,-3,-21,1030,1
31680,204095,231535,-3,-24,1044,1
31678,204034,231515,-3,-21,1044,1
31623,204072,231491,0,-21,1021,1
31678,204037,231536,-6,-17,1024,1
31606,204009,231546,-6,-20,1024,1
31687,204125,231566,-6,-20,1035,1
31711,204060,231534,-6,-21,1026,1
31634,204091,231515,-5,-18,1035,1
31661,204102,231575,8,-15,1035,1
31616,204061,231496,-5,-15,1023,1
31644,204098,231553,-5,-17,1038,1
31634,204043,231498,-3,-21,1038,1
31704,204021,231595,0,-21,1037,1
31604,204022,231556,0,-21,1038,1
31642,203986,231617,13,-23,1038,1
31608,203939,231491,-7,-23,1023,1
31552,203894,231478,-7,-20,1027,1
31537,203921,231510,0,-20,1027,1
31613,203885,231532,-3,-24,1021,1
31619,203884,231543,-3,-24,1024,1
31544,203831,231557,-9,-20,1026,1
31578,203846,231543,-5,-21,1026,1
31600,203824,231535,-5,-21,1027,1
31591,203869,231543,-6,-20,1050,1
31562,203922,231526,3,-15,1050,1
31676,203879,231737,-14,-15,1021,1
31577,203870,231677,-14,-14,1035,1
31629,203847,231574,0,-20,1035,1
31557,203866,231649,-9,-20,1010,1
31621,203909,231699,-9,-15,1073,1
31608,203875,231628,-5,-21,1073,1
31623,204001,231669,0,-21,1011,1
31603,203881,231631,0,-15,1029,1
31568,203946,231655,5,-13,1029,1
31624,203972,231761,0,-22,1041,1
31528,203959,231763,-6,-22,1023,1
31585,204007,231729,-6,-19,1023,1
31609,203982,231774,2,-15,1020,1
31543,203997,231706,-12,-15,1030,1
31563,204029,231721,-12,-15,1010,1
31544,204069,231824,-3,-22,1010,1
31602,204070,231837,-6,-22,1007,1
31605,204058,231814,-6,-17,1026,1
31543,204059,231848,-6,-21,1026,1
31654,204079,231849,-9,-21,1035,1
31635,204196,231884,-9,-19,1032,1
31650,204164,231927,-3,-25,1032,1
31595,204115,231898,4,-25,1040,1
31618,204154,231920,4,-18,1029,1
31545,204189,231837,-6,-19,1029,1
31645,204210,231995,-8,-19,1027,1
31633,204240,231924,-7,-16,1033,1
31655,204186,231949,-7,-23,1020,1
31616,204307,231944,5,-21,1020,1
31671,204350,232127,-5,-21,1029,1
31710,204423,232139,-5,-23,1026,1
31635,204553,232317,3,-20,1026,1
31728,204580,232262,-4,-20,1020,1
31693,204690,232302,-4,-17,1033,1
31754,204737,232370,-7,-16,1033,1
31688,204764,232496,6,-16,1033,1
31706,204869,232540,6,-27,1007,1
31655,204910,232582,9,-10,1007,1
31746,204905,232565,2,-10,1037,1
31734,204939,232562,-4,-28,1052,1
31749,204928,232574,-4,-13,1052,1
31737,204930,232550,-6,-13,1057,1
31717,204841,232604,-3,-18,1020,1
31676,204960,232569,-3,-22,1035,1
31693,204876,232662,-6,-22,1035,1
31728,204916,232608,-6,-22,1013,1
31768,204910,232647,-6,-20,1026,1
31692,204874,232571,-5,-24,1026,1
31683,204873,232607,-4,-24,1044,1
31659,204883,232582,-4,-17,1023,1
31707,204841,232589,3,-17,1023,1
31730,204787,232636,-3,-17,1014,1
31738,204773,232619,-3,-17,1027,1
31602,204823,232620,-6,-3,1027,1
31724,204754,232638,4,-3,1017,1
31650,204730,232635,-7,-18,1056,1
31722,204734,232724,-7,-21,1016,1
31711,204767,232658,6,-21,1016,1
31707,204801,232722,13,-21,1014,1
31734,204839,232725,13,-9,1049,1
31688,204801,232706,4,-23,1049,1
31697,204855,232828,0,-23,1021,1
31693,204820,232749,0,-19,1035,1
31717,204781,232795,-6,-18,1035,1
31681,204792,232772,-9,-18,1044,1
31708,204818,232750,-9,-10,1037,1
31740,204921,232808,6,-17,1021,1
31682,204863,232913,-6,-17,1021,1
31671,204962,232911,-3,-15,1027,1
31740,204972,232908,-3,-18,1035,1
31704,204915,232900,0,-18,1035,1
31775,205016,232939,0,-14,1024,1
31750,204973,232905,-3,-16,1017,1
31792,204952,232960,-3,-20,1017,1
31710,204973,232984,-15,-20,1044,1
31804,205000,233005,-15,-12,1035,1
31757,205017,233070,-7,-18,1035,1
31755,205088,233051,2,-18,1013,1
31797,205098,232993,2,-22,1013,1
31847,205083,233025,0,-19,1013,1
31811,205140,233056,2,-19,1033,1
31761,205281,233130,2,-19,1026,1
31833,205058,233124,1,-12,1032,1
31806,205126,233045,1,-12,1032,1
31783,205139,233008,1,-13,1021,1
31726,205020,233006,-3,-25,1046,1
31766,205118,233059,1,-20,1046,1
31727,205005,232922,0,-20,1043,1
31745,204933,232923,0,-12,1035,1
31734,204867,232921,1,-22,1035,1
31656,204833,232891,7,-22,1037,1
31703,204737,232886,7,-15,1020,1
31651,204656,232786,-2,-20,1020,1
31671,204623,232772,4,-20,1030,1
31751,204719,232841,4,-21,1052,1
31694,204631,232866,8,-24,1052,1
31592,204584,232795,-8,-18,1030,1
31623,204593,232772,-8,-18,1040,1
31597,204499,232725,3,-12,1029,1
31610,204456,232709,-6,-11,1029,1
31589,204465,232760,-6,-11,1047,1
31589,204472,232690,-3,-24,1030,1
31717,204474,232763,0,-11,1030,1
31663,204416,232716,-7,-11,1023,1
31674,204440,232778,-7,-16,1041,1
31601,204502,232717,-4,-20,1041,1
31605,204636,232860,-3,-20,1033,1
31676,204647,232806,-3,-18,1027,1
31610,204613,232869,-8,-15,1027,1
31683,204584,232929,-6,-15,1024,1
31703,204580,232963,-6,-20,1017,1
31672,204705,232938,6,-21,1023,1
31672,204623,232958,4,-21,1023,1
31663,204609,232950,4,-15,1041,1
31671,204618,232958,4,-13,1041,1
31749,204636,232975,-3,-13,1021,1
31665,204678,233017,-3,-18,1007,1
31706,204652,232963,-3,-16,1033,1
31715,204698,233019,-10,-12,1033,1
31683,204695,233010,1,-12,1030,1
31695,204744,233061,1,-20,1013,1
31677,204662,232967,5,-14,1013,1
31719,204760,233005,3,-14,1038,1
31765,204715,233093,3,-19,1017,1
31724,204707,233069,4,-14,1017,1
31662,204718,233048,-3,-14,1018,1
31673,204742,233100,-3,-22,1018,1
31765,204825,233100,-3,-16,1021,1
31751,204772,233048,-15,-19,1021,1
31730,204830,233078,-15,-19,1027,1
31760,204782,233127,-3,-16,1027,1
31627,204768,233125,1,-14,1032,1
31726,204848,233118,0,-14,1032,1
31674,204677,233014,0,-18,1010,1
31664,204723,233099,0,-22,1010,1
31670,204726,233080,0,-22,1027,1
31652,204650,233046,0,-20,1021,1
31714,204754,233014,-3,-18,1021,1
31693,204583,233053,-9,-18,1027,1
31582,204641,233039,-9,-14,1041,1
31617,204500,233051,-9,-18,1041,1
31659,204639,233080,5,-18,1027,1
31605,204604,233112,5,-21,1059,1
31551,204466,232956,-2,-14,1059,1
31582,204479,233023,-3,-14,1018,1
31545,204394,232940,-3,-20,1027,1
31510,204369,232923,-6,-15,1030,1
31579,204416,232973,0,-19,1030,1
31494,204389,232861,-4,-19,1011,1
31480,204312,232946,-4,-15,1017,1
31505,204301,232916,3,-19,1017,1
31481,204316,232858,0,-19,1007,1
31560,204342,232913,0,-18,1040,1
31485,204361,232811,8,-17,1040,1
31567,204343,232935,-3,-17,1027,1
31526,204345,232939,-3,-17,1035,1
31554,204276,232923,-3,-18,1035,1
31548,204350,232966,-3,-18,1020,1
31555,204402,232924,-3,-24,1030,1
31573,204348,232903,-6,-20,1030,1
31519,204355,232918,-7,-20,1007,1
31544,204285,232856,-7,-7,1029,1
31611,204365,232943,2,-20,1016,1
31618,204294,232870,-5,-9,1016,1
31551,204217,232840,0,-9,1014,1
31588,204207,232889,0,-8,1027,1
31580,204274,232905,0,-14,1027,1
31511,204252,232897,-9,-14,1033,1
31548,204181,232882,-9,-15,1024,1
31487,204213,232871,-5,-15,1024,1
31605,204251,232947,1,-15,1014,1
31529,204255,232974,1,-17,1041,1
31546,204190,232935,-2,-10,1041,1
31511,204179,232870,9,-21,1038,1
31540,204227,232904,-8,-21,1018,1
31485,204179,232997,-8,-19,1018,1
31481,204216,232888,-5,-18,1018,1
31545,204325,232976,7,-18,1027,1
31533,204291,232946,7,-18,1032,1
31475,204300,232888,-2,-11,1032,1
31529,204215,232905,0,-11,1020,1
31525,204344,232874,0,-15,1026,1
31574,204304,232998,0,-10,1026,1
31566,204258,232992,2,-10,1020,1
31515,204333,232969,2,-18,1017,1
31518,204301,232912,2,0,1017,1
31546,204360,232932,-18,0,1002,1
31548,204431,233023,-18,-12,1033,1
31587,204463,232959,0,-11,1024,1
31546,204410,233015,0,-18,1024,1
31592,204312,233058,0,-18,1011,1
31489,204299,233000,1,-16,1011,1
31537,204358,232964,-3,-19,1029,1
31502,204258,233020,-3,-19,1043,1
31593,204187,232878,-3,-14,1041,1
31477,204191,232811,1,-16,1041,1
31504,204122,232775,-2,-16,1038,1
31534,204197,232858,-2,-11,1033,1
31422,204155,232836,0,-25,1033,1
31478,204159,232877,4,-25,1026,1
31503,204092,232876,4,-16,1023,1
31585,204189,232851,-2,-18,1023,1
31546,204132,232915,-7,-18,1026,1
31554,204242,232926,-3,-15,1029,1
31509,204223,232842,-3,-12,1029,1
31545,204255,232926,-4,-21,1035,1
31587,204328,233062,1,-21,1027,1
31523,204321,233039,1,-17,1026,1
31610,204382,233009,-4,-19,1026,1
31562,204380,233118,-3,-19,1018,1
31572,204474,233119,-3,-15,1035,1
31604,204485,233143,3,-12,1035,1
31670,204507,233195,0,-12,1029,1
31591,204555,233235,0,-6,1023,1
31652,204639,233255,-2,-12,1023,1
31702,204710,233336,-8,-12,1033,1
31660,204655,233297,-8,-14,1029,1
31723,204750,233370,-9,-18,1029,1
31764,204777,233366,2,-18,1029,1
31680,204799,233367,2,-17,1044,1
31714,204867,233430,-4,-17,1044,1
31781,204894,233524,3,-17,1021,1
31763,204931,233486,3,-12,1026,1
31749,205055,233641,3,-11,1056,1
31789,205019,233631,0,-12,1056,1
31799,205028,233628,7,-12,1029,1
31823,205104,233722,7,-13,1024,1
31819,205018,233636,-2,-18,1024,1
31859,205118,233736,2,-18,1037,1
31793,205190,233690,2,-22,1041,1
31851,205179,233679,6,-10,1041,1
31894,205164,233702,-7,-10,1035,1
31835,205205,233716,-7,-15,1032,1
31897,205216,233759,3,-19,1026,1
31870,205271,233716,1,-14,1026,1
31834,205252,233743,1,-14,1026,1
31800,205261,233710,0,-13,1026,1
31865,205229,233809,3,-15,1033,1
31892,205279,233764,-3,-15,1029,1
31816,205253,233788,-3,-16,1029,1
31775,205287,233764,1,-11,1029,1
31773,205253,233791,4,-11,1017,1
31784,205241,233723,4,-9,1020,1
31811,205224,233817,7,-10,1020,1
31846,205171,233758,-3,-10,1030,1
31726,205214,233753,-3,-18,1033,1
31757,205190,233706,-2,-21,1033,1
31844,205154,233715,10,-21,1037,1
31716,205231,233756,12,-12,1024,1
31721,205134,233689,12,-9,1024,1
31758,205122,233723,3,-17,1030,1
31740,205156,233729,6,-17,1026,1
31747,205076,233700,6,-12,1024,1
31756,205114,233780,6,-20,1024,1
31695,205131,233797,0,-20,1016,1
31814,205148,233782,0,-10,1035,1
31772,205166,233692,-4,-14,1035,1
31851,205183,233842,4,-14,1014,1
31724,205197,233837,4,-12,1033,1
31788,205229,233711,3,-18,1033,1
31787,205235,233804,3,-18,1030,1
31745,205163,233743,3,-14,1026,1
31722,205137,233776,-5,-9,1026,1
31829,205221,233817,1,-9,1021,1
31767,205268,233898,1,-15,1014,1
31768,205219,233850,5,-15,1014,1
31789,205191,233852,13,-15,1043,1
31840,205172,233803,0,-19,1035,1
31801,205271,233896,0,-19,1038,1
31819,205297,233875,7,-14,1038,1
31807,205272,233904,7,-14,1027,1
31796,205256,233880,7,-14,1021,1
31881,205251,233905,0,-22,1021,1
31767,205334,233882,-4,-22,1023,1
31816,205326,233871,-4,-9,1018,1
31822,205288,233895,0,-18,1018,1
31811,205341,233909,0,-18,1024,1
31912,205275,233884,0,-16,1038,1
31896,205339,233928,-2,-10,1038,1
31878,205371,233947,-7,-10,1033,1
31955,205364,233912,-7,-8,1041,1
31926,205366,233899,5,-12,1041,1
31899,205341,233918,-3,-12,1032,1
31852,205280,233877,-9,-18,1035,1
31901,205405,233940,-9,-15,1035,1
31952,205323,233795,7,-15,1035,1
31938,205327,233820,5,-15,1044,1
31979,205325,233899,5,-9,1065,1
31950,205361,233838,-3,-12,1065,1
31927,205343,233922,-4,-12,1029,1
31945,205389,233884,-4,-12,1038,1
32056,205336,233883,3,-19,1038,1
31997,205430,233978,4,-19,1026,1
31981,205393,233953,4,-17,1037,1
31902,205438,233905,-5,-18,1037,1
31920,205293,233844,3,-18,1035,1
31921,205303,233868,2,-15,1030,1
31996,205330,233905,2,-13,1030,1
31990,205311,233859,2,-9,1017,1
31934,205405,233954,-3,-9,1021,1
31910,205331,233954,-3,-21,1033,1
31901,205217,233882,0,-18,1033,1
31885,205270,233793,7,-18,1016,1
31891,205259,233844,7,-14,1037,1
31977,205341,233921,2,-9,1037,1
31886,205210,233906,1,-9,1027,1
31955,205253,233884,1,-15,1026,1
31923,205240,233873,3,-18,1026,1
31942,205254,233921,4,-18,1035,1
31941,205286,233904,3,-14,1050,1
31859,205143,233884,3,-13,1050,1
31945,205223,233915,4,-17,1038,1
31884,205202,233850,-9,-17,1049,1
31797,205181,233841,-9,-14,1035,1
31909,205263,233953,1,-23,1035,1
31965,205212,233945,4,-23,1030,1
31882,205274,233902,4,-19,1011,1
31875,205215,233899,2,-13,1011,1
31870,205222,233955,-2,-13,1027,1
31841,205309,233937,-2,-16,1029,1
31868,205296,233937,3,-17,1029,1
31920,205274,233980,-9,-17,1038,1
31907,205219,233939,-9,-18,1024,1
31941,205276,234022,9,-15,1024,1
31989,205284,234084,4,-15,1013,1
31970,205293,233970,4,-13,1023,1
31899,205247,234012,-3,-16,1023,1
31866,205204,233945,1,-16,1052,1
31877,205232,234007,5,-18,1046,1
31916,205317,233984,5,-12,1029,1
31926,205206,233910,4,-17,1029,1
31873,205155,233835,3,-17,1040,1
31884,205212,233889,3,-17,1023,1
31912,205266,233974,-5,-9,1023,1
31884,205239,233938,-6,-9,1038,1
31925,205170,233912,-6,-12,1017,1
31900,205270,233953,5,-11,1017,1
31890,205135,233914,0,-11,1011,1
31915,205100,233972,0,-12,1035,1
31914,205191,233947,5,-15,1035,1
31859,205085,233817,5,-15,1026,1
31889,205049,233780,5,-8,1027,1
31815,204990,233799,-4,-14,1027,1
31829,204909,233861,3,-14,1050,1
31810,204962,233774,3,-15,1024,1
31806,204839,233708,4,-11,1033,1
31766,204847,233779,0,-22,1033,1
31773,204722,233647,4,-22,1023,1
31787,204756,233679,4,-12,1030,1
31815,204746,233726,9,-12,1030,1
31817,204740,233757,-6,-12,1043,1
31802,204666,233672,-6,-11,1035,1
31788,204666,233647,3,-17,1035,1
31817,204718,233656,2,-17,1040,1
31781,204684,233689,2,-11,1037,1
31724,204637,233654,0,-11,1020,1
31805,204685,233663,16,-16,1020,1
31833,204642,233645,16,-16,1037,1
31757,204615,233734,-2,-14,1037,1
31870,204689,233800,0,-9,1021,1
31868,204678,233803,-5,-9,1018,1
31839,204689,233778,-5,-6,1035,1
31851,204689,233773,6,-17,1035,1
31787,204684,233796,-6,-17,1043,1
31813,204648,233782,-6,-21,1032,1
31867,204753,233845,0,-15,1032,1
31840,204809,233860,3,-15,1033,1
31845,204784,233834,3,-18,1024,1
31848,204767,233837,8,-16,1024,1
31846,204795,233854,6,-12,1043,1
31880,204833,233852,6,-12,1038,1
31901,204856,233912,3,-13,1024,1
31869,204812,233771,1,-13,1024,1
31844,204814,233934,1,-14,1030,1
31840,204812,233822,3,-17,1023,1
31859,204850,233879,0,-15,1023,1
31912,204870,233921,-3,-15,1035,1
31873,204915,233988,-3,-14,1035,1
31883,204930,233909,-7,-11,1035,1
31956,204934,233904,4,-11,1044,1
31897,204962,233950,4,-18,1032,1
31838,204965,233939,0,-12,1032,1
31920,204980,233914,2,-12,1018,1
31858,204945,233904,2,-9,1033,1
31907,205018,233943,3,-13,1033,1
31847,205551,234459,-4,-13,1032,1
32035,205777,234814,2,-15,1023,1
31973,205834,234873,2,-12,1023,1
32001,205834,234861,6,-12,1035,1
31976,205754,234842,5,-12,1033,1
31980,205769,234909,5,-15,1027,1
31970,205834,234950,0,-16,1027,1
31926,205907,235005,2,-16,1037,1
31919,205882,234999,2,-21,1033,1
31975,205897,234982,8,-12,1033,1
31925,205923,235119,9,-12,1018,1
31962,205894,235123,9,-9,1014,1
31947,206010,235107,2,-13,1014,1
31981,205974,235104,-3,-13,1030,1
31908,205941,235049,-3,-18,1023,1
31952,206020,235191,3,-15,1023,1
31912,205962,235143,-2,-15,1038,1
31972,206004,235226,-2,-13,1018,1
31935,206095,235235,3,-12,1030,1
31952,206068,235177,6,-13,1030,1
31984,206160,235258,-6,-13,1033,1
31998,206016,235190,-6,-12,1035,1
31927,206083,235275,5,-18,1035,1
32014,206147,235276,0,-18,1024,1
31980,206116,235328,0,-13,1029,1
32019,206221,235261,4,-12,1029,1
31950,206163,235287,-3,-12,1032,1
32000,206212,235375,-3,-10,1027,1
31977,206194,235304,-3,-14,1017,1
31941,206183,235351,3,-14,1017,1
32000,206252,235381,-2,-11,1040,1
31994,206256,235448,-2,-18,1038,1
32013,206244,235411,4,-18,1038,1
31997,206218,235372,4,-9,1026,1
32049,206239,235382,-2,-18,1013,1
32033,206351,235425,-3,-19,1013,1
32021,206411,235463,8,-19,1047,1
32061,206372,235497,8,-15,1035,1
32132,206403,235437,-4,-19,1035,1
32154,206378,235506,3,-19,1043,1
32118,206447,235454,3,-13,1018,1
32120,206570,235517,6,-9,1018,1
32137,206544,235472,3,-9,1041,1
32058,206467,235490,3,-12,1024,1
32080,206477,235515,4,-18,1024,1
32103,206545,235517,-3,-10,1024,1
32079,206491,235492,-3,-10,1020,1
32006,206547,235516,-2,-18,1018,1
32045,206507,235468,3,-12,1018,1
32091,206439,235499,3,-12,1013,1
32062,206487,235555,3,-16,1033,1
32062,206422,235509,7,-21,1033,1
32067,206374,235482,-3,-21,1043,1
31981,206400,235467,-3,-16,1037,1
32029,206424,235492,9,-15,1037,1
32058,206355,235476,3,-15,1021,1
32003,206426,235455,3,-17,1038,1
32023,206258,235455,-3,-13,1038,1
31971,206264,235399,8,-13,1049,1
32061,206328,235424,-3,-15,1026,1
31998,206240,235392,-3,-18,1026,1
31972,206184,235431,14,-18,1013,1
32006,206207,235326,14,-14,1032,1
32037,206254,235408,-3,-10,1035,1
32024,206162,235351,1,-16,1035,1
31942,206135,235332,1,-16,1046,1
31976,206263,235287,1,-18,1020,1
31994,206175,235367,9,-20,1020,1
31952,206195,235360,6,-20,1021,1
32013,206142,235328,6,-18,1041,1
31984,206221,235388,-6,-12,1041,1
31994,206218,235448,2,-12,1033,1
31925,206204,235363,2,-12,1016,1
32043,206273,235465,3,-11,1033,1
32043,206228,235457,0,-11,1033,1
32043,206342,235486,0,-15,1040,1
32003,206338,235335,-6,-19,1040,1
31971,206248,235448,0,-19,1017,1
31948,206230,235443,0,-12,1060,1
31973,206251,235499,6,-18,1040,1
32010,206316,235455,5,-19,1040,1
32001,206454,235514,-3,-19,1035,1
32019,206362,235509,-3,-12,1043,1
32030,206372,235559,6,-12,1043,1
32039,206331,235604,3,-12,1008,1
32066,206468,235645,3,-9,1035,1
32078,206545,235644,-8,-17,1035,1
32112,206589,235584,1,-17,1040,1
32055,206594,235711,1,-10,1014,1
32118,206603,235767,3,-11,1029,1
32141,206580,235831,1,-15,1029,1
32140,206669,235769,1,-15,1020,1
32094,206648,235789,6,-12,1010,1
32156,206669,235834,-2,-12,1010,1
32175,206640,235842,-8,-12,1027,1
32106,206649,235821,-8,-12,1040,1
32085,206754,235933,3,-12,1040,1
32082,206735,235859,-6,-12,1023,1
32179,206723,235896,-6,-17,1026,1
32143,206719,235883,-9,-19,1026,1
32023,206780,235909,0,-19,1023,1
32142,206778,235981,0,-12,1020,1
32107,206734,235941,18,-15,1020,1
32073,206690,235958,-3,-15,1047,1
32115,206670,235989,4,-18,1037,1
32065,206749,235969,4,-19,1037,1
32134,206671,235952,3,-13,1041,1
32086,206765,235934,3,-13,1023,1
32065,206675,235979,1,-8,1007,1
32085,206742,235958,1,-18,1007,1
32092,206662,235947,0,-18,1023,1
32063,206731,235951,0,-9,1041,1
32148,206615,235916,-3,-8,1041,1
32136,206689,235987,-3,-8,1021,1
32126,206680,235997,-3,-10,1029,1
32138,206583,235862,3,-8,1029,1
32027,206633,236069,6,-8,1030,1
32162,206703,235971,6,-21,1043,1
32167,206662,235983,6,-15,1043,1
32100,206628,235974,0,-15,1032,1
32088,206674,235955,0,-14,1038,1
32069,206674,236064,3,-13,1038,1
32073,206637,236065,5,-14,1050,1
32107,206706,236088,8,-14,1017,1
32030,206715,236162,8,-12,1014,1
32057,206703,236105,0,-16,1014,1
32135,206747,236165,6,-16,1021,1
32065,206765,236215,6,-17,1027,1
32152,206901,236215,3,-9,1027,1
32139,206838,236204,5,-9,1032,1
32134,206896,236288,5,-17,1052,1
32102,206912,236252,-6,-16,1052,1
32136,207014,236390,6,-6,1038,1
32142,207010,236384,6,-6,1021,1
32204,206994,236369,0,-15,1035,1
32199,207040,236367,-3,-12,1035,1
32113,207024,236385,-3,-12,1013,1
32205,207152,236474,0,-18,1032,1
32145,207150,236489,5,-10,1032,1
32231,207170,236475,2,-10,1021,1
32182,207105,236479,2,-15,1037,1
32182,207219,236444,-3,-22,1037,1
32237,207191,236564,5,-22,1004,1
32211,207228,236526,5,-12,1030,1
32139,207087,236476,6,-19,1030,1
32182,207183,236559,2,-19,1037,1
32173,207207,236513,2,-13,1014,1
32201,207318,236542,1,-13,1014,1
32123,207182,236488,-3,-13,1020,1
32141,207179,236488,1,-15,1020,1
32111,207210,236582,1,-6,1021,1
32183,207152,236556,0,-8,1021,1
32131,207228,236610,0,-8,1035,1
32160,207097,236522,0,-6,1037,1
32101,207090,236517,0,-13,1037,1
32133,207107,236535,-3,-13,1027,1
32157,207130,236548,-3,-11,1018,1
32097,207123,236675,6,-18,1018,1
32157,207100,236648,6,-18,1038,1
32104,207072,236622,6,-5,1023,1
32214,207128,236626,4,-17,1023,1
32128,207127,236653,-6,-12,1044,1
32225,207175,236660,-6,-12,1032,1
32234,207232,236739,13,-20,1023,1
32088,207193,236714,4,-11,1023,1
32100,207139,236744,4,-11,1016,1
32120,207265,236748,3,-10,1030,1
32086,207282,236776,8,-15,1030,1
32164,207270,236835,4,-15,1037,1
32151,207326,236829,4,-14,1052,1
32197,207270,236812,13,-16,1052,1
32218,207338,236883,6,-16,1014,1
32170,207390,237002,6,-21,1046,1
32162,207363,236889,2,-12,1046,1
32176,207336,236879,2,-12,1052,1
32266,207450,236971,2,-15,1030,1
32246,207463,236929,1,-19,1046,1
32217,207543,237035,-2,-19,1046,1
32143,207465,236966,-2,-7,1027,1
32208,207467,236904,3,-14,1033,1
32189,207505,237062,-6,-14,1033,1
32198,207450,237057,-6,-9,1035,1
32216,207610,236987,2,-15,1029,1
32167,207521,237060,9,-21,1029,1
32296,207517,237088,2,-21,1027,1
32285,207604,237107,2,-21,1044,1
32169,207529,237107,-6,-12,1044,1
32235,207588,237158,4,-12,1024,1
32285,207662,237139,4,-16,1020,1
32220,207619,237164,0,-21,1020,1
32277,207639,237157,4,-21,1032,1
32231,207694,237176,4,-21,1018,1
32236,207680,237226,0,-15,1018,1
32177,207701,237159,6,-15,1021,1
32355,207739,237214,6,-8,1018,1
32297,207642,237193,5,-13,1018,1
32276,207665,237254,2,-13,1032,1
32296,207687,237295,-7,-18,1029,1
32325,207689,237204,-7,-10,1040,1
32308,207730,237243,9,-15,1040,1
32323,207693,237267,-5,-15,1021,1
32258,207607,237275,-5,-15,1026,1
32251,207679,237255,-3,-9,1026,1
32278,207543,237190,4,-9,1040,1
32301,207492,237170,4,-15,1017,1
32236,207582,237136,1,-15,1017,1
32283,207538,237183,-3,-15,1030,1
32192,207617,237210,-3,-14,1037,1
32221,207606,237210,3,-14,1053,1
32270,207606,237166,-10,-14,1053,1
32266,207561,237180,-10,-11,1035,1
32268,207445,237161,7,-12,1016,1
32330,207698,237283,5,-15,1016,1
32296,207688,237262,-4,-15,1035,1
32243,207728,237274,-4,-18,1027,1
32268,207704,237292,2,-21,1027,1
32245,207800,237370,4,-21,1029,1
32333,207782,237356,4,-14,1038,1
32309,207809,237397,1,-20,1038,1
32319,207883,237432,-2,-20,1029,1
32369,207822,237443,-2,-15,1014,1
32328,207832,237515,4,-14,1029,1
32362,207920,237470,-3,-14,1029,1
32342,208013,237466,-3,-8,1047,1
32373,207981,237583,4,-15,1033,1
32402,208034,237494,-8,-15,1033,1
32340,207995,237519,-8,-14,1037,1
32354,208061,237537,3,-18,1010,1
32307,208083,237589,5,-8,1010,1
32373,208196,237732,-2,-8,1026,1
32352,208189,237691,-2,-21,1024,1
32463,208204,237703,2,-10,1024,1
32380,208197,237646,0,-10,1035,1
32454,208288,237710,0,-14,1050,1
32438,208309,237788,0,-12,1050,1
32474,208244,237885,5,-12,1038,1
32431,208302,237811,5,-12,1033,1
32488,208397,237887,0,-18,1033,1
32363,208484,237845,4,-18,1018,1
32447,208423,237877,1,-11,1026,1
32502,208390,237844,1,-18,1026,1
32474,208459,237928,-3,-11,1033,1
32465,208512,237923,3,-11,1018,1
32492,208480,237959,3,-21,1021,1
32414,208527,237929,0,-5,1021,1
32387,208471,237888,-5,-5,1029,1
32422,208470,237939,-5,-17,1026,1
32447,208427,237922,5,-14,1026,1
32443,208474,237882,0,-14,1037,1
32424,208515,237954,0,-15,1029,1
32476,208459,237912,7,-12,1029,1
32388,208473,237928,0,-12,1033,1
32411,208440,237923,0,-12,1026,1
32422,208464,237962,-3,-13,1026,1
32447,208471,238007,0,-13,1033,1
32375,208481,237987,0,-14,1035,1
32441,208458,238015,2,-19,1024,1
32391,208480,237910,-3,-13,1024,1
32396,208466,237990,-5,-13,1038,1
32424,208516,238081,-5,-12,1032,1
32455,208412,238005,12,-19,1032,1
32437,208489,237997,-2,-19,1037,1
32430,208486,238008,-2,-13,1027,1
32437,208554,238000,5,-20,1027,1
32408,208503,238046,6,-20,1033,1
32339,208430,237944,6,-12,1030,1
32416,208528,238015,-3,-15,1030,1
32401,208411,238011,-6,-17,1027,1
32432,208447,238070,0,-17,1024,1
32354,208440,238013,0,-15,1024,1
32387,208453,238063,-6,-12,1010,1
32389,208469,238032,-10,-12,1038,1
32380,208486,238051,-10,-14,1011,1
32464,208599,238097,4,-17,1011,1
32415,208526,238098,3,-17,1044,1
32388,208652,238146,3,-22,1027,1
32464,208554,238171,-3,-15,1027,1
32471,208646,238170,1,-15,1027,1
32453,208653,238197,1,-14,1014,1
32482,208616,238203,2,-9,1014,1
32449,208626,238250,0,-9,1005,1
32459,208662,238211,0,-12,1029,1
32517,208631,238186,0,-9,1033,1
32469,208686,238297,1,-9,1033,1
32529,208632,238249,1,-14,1026,1
32431,208702,238199,3,-15,1054,1
32512,208671,238226,4,-16,1054,1
32388,208704,238182,0,-16,1026,1
32560,208735,238347,0,-19,1029,1
32478,208644,238244,3,-8,1029,1
32416,208680,238226,-6,-8,1033,1
32528,208676,238207,-6,-15,1010,1
32500,208660,238214,7,-13,1010,1
32458,208648,238292,-3,-13,1050,1
32535,208796,238265,-3,-16,1023,1
32493,208671,238299,-3,-7,1023,1
32477,208648,238266,0,-7,1024,1
32469,208634,238211,-3,-21,1040,1
32441,208697,238206,-3,-12,1040,1
32502,208647,238196,3,-12,1035,1
32433,208523,238175,0,-16,1024,1
32386,208545,238136,0,-13,1030,1
32407,208495,238167,-3,-11,1030,1
32312,208431,238098,-2,-11,1038,1
32412,208475,238068,-2,-14,1037,1
32348,208416,238070,-3,-14,1037,1
32333,208403,238110,3,-14,1046,1
32323,208394,238063,3,-9,1040,1
32370,208470,238152,-5,-17,1040,1
32346,208351,238182,1,-17,1035,1
32345,208365,238151,1,-15,1024,1
32432,208299,238132,4,-10,1032,1
32404,208437,238094,3,-12,1032,1
32405,208453,238151,3,-12,1035,1
32379,208500,238246,2,-15,1024,1
32339,208463,238183,2,-12,1024,1
32373,208427,238235,-7,-12,1020,1
32438,208429,238209,-7,-14,1016,1
32469,208507,238282,3,-15,1016,1
32392,208489,238206,-4,-15,1035,1
32398,208384,238180,-4,-10,1018,1
32389,208456,238245,-3,-3,1018,1
32452,208453,238256,10,-3,1032,1
32443,208525,238313,10,-15,1040,1
32445,208515,238343,3,-18,1040,1
32449,208476,238353,4,-18,1008,1
32391,208456,238309,8,-18,1027,1
32461,208449,238321,8,-8,1027,1
32433,208531,238426,9,-8,1038,1
32455,208556,238416,9,-12,1049,1
32437,208497,238332,1,-12,1023,1
32518,208547,238393,12,-9,1023,1
32472,208500,238324,6,-9,1021,1
32469,208488,238363,6,-16,1044,1
32456,208527,238375,9,-19,1044,1
32499,208569,238417,0,-19,1043,1
32452,208567,238416,0,-11,1023,1
32501,208511,238399,-4,-13,1023,1
32529,208549,238462,4,-13,1035,1
32493,208636,238380,4,-18,1016,1
32440,208593,238394,-3,-13,1016,1
32489,208525,238411,2,-13,1007,1
32542,208573,238339,2,-18,1026,1
32465,208604,238359,3,-15,1026,1
32446,208589,238423,0,-13,1018,1
32437,208511,238388,0,-13,1002,1
32450,208472,238368,0,-18,1027,1
32386,208439,238318,-9,-10,1027,1
32440,208407,238342,5,-10,1024,1
32385,208395,238303,5,-10,1043,1
32377,208415,238335,3,-9,1043,1
32381,208339,238318,-5,-9,1029,1
32372,208307,238261,-5,-7,1043,1
32408,208257,238272,-3,-13,1043,1
32408,208336,238290,6,-13,1024,1
32397,208242,238354,6,-3,1023,1
32401,208245,238267,-6,-15,1043,1
32398,208256,238286,7,-15,1043,1
32354,208289,238286,7,-18,1035,1
32419,208302,238270,4,-15,1023,1
32419,208295,238325,8,-13,1023,1
32340,208199,238255,-6,-13,1023,1
32425,208275,238318,-6,-13,1023,1
32470,208347,238323,6,-16,1023,1
32425,208379,238397,-3,-16,1018,1
32360,208328,238376,-3,-8,1038,1
32365,208350,238354,0,-12,1038,1
32390,208323,238399,0,-12,1017,1
32382,208328,238440,0,-18,1040,1
32452,208430,238526,3,-13,1040,1
32337,208410,238440,-6,-13,1014,1
32395,208431,238343,0,-12,1021,1
32380,208423,238448,0,-12,1021,1
32435,208413,238522,3,-12,1032,1
32464,208537,238517,-3,-15,1038,1
32524,208613,238496,-3,-11,1033,1
32456,208498,238557,13,-21,1033,1
32454,208532,238612,4,-21,999,1
32435,208585,238592,4,-6,1020,1
32397,208510,238659,-3,-16,1020,1
32477,208549,238659,3,-16,1030,1
32489,208600,238691,3,-10,1035,1
32452,208592,238636,-4,-15,1035,1
32488,208559,238656,-2,-15,1024,1
32423,208564,238613,-2,-18,1035,1
32494,208689,238589,-2,-21,1037,1
32441,208645,238658,-2,-18,1037,1
32440,208676,238742,-2,-18,1033,1
32512,208649,238712,1,-18,1027,1
32500,208705,238766,-9,-16,1027,1
32488,208742,238765,-2,-16,1033,1
32501,208698,238697,-2,-13,1041,1
32528,208772,238692,3,-4,1041,1
32467,208697,238765,2,-4,1032,1
32492,208692,238757,2,-15,1020,1
32511,208771,238910,-2,-15,1020,1
32470,208664,238722,3,-15,1014,1
32449,208626,238696,3,-17,1037,1
32544,208716,238667,7,-12,1037,1
32401,208597,238721,0,-12,1024,1
32483,208693,238770,0,-12,1032,1
32345,208483,238674,2,-16,1032,1
32478,208515,238678,3,-16,1033,1
32365,208449,238609,3,-15,1035,1
32386,208494,238612,-7,-17,1016,1
32450,208517,238609,-5,-15,1016,1
32424,208469,238584,-4,-15,1035,1
32411,208430,238563,-4,-15,1035,1
32348,208429,238568,-3,-17,1035,1
32386,208412,238677,-3,-17,1027,1
32436,208408,238734,-3,-8,1033,1
32450,208399,238665,1,-16,1033,1
32411,208401,238548,-3,-16,1033,1
32415,208386,238582,-3,-9,1026,1
32426,208377,238653,6,-16,1040,1
32479,208512,238780,5,-16,1040,1
32373,208443,238670,5,-7,1027,1
32429,208443,238696,1,-13,1027,1
32465,208452,238713,-5,-13,1023,1
32481,208518,238718,2,-14,1018,1
32530,208590,238758,2,-15,1032,1
32479,208516,238779,-2,-21,1032,1
32450,208564,238865,8,-21,1027,1
32425,208566,238815,8,-19,1041,1
32469,208610,238862,-3,-10,1041,1
32418,208658,238901,2,-10,1013,1
32492,208620,238884,2,-10,1027,1
32442,208725,238883,-3,-16,1027,1
32473,208619,238898,1,-16,1017,1
32403,208624,238995,1,-13,1041,1
32491,208702,238980,-3,-13,1041,1
32447,208658,238905,2,-13,1018,1
32375,208651,238906,0,-12,1041,1
32466,208679,238902,0,-13,1041,1
32506,208783,238978,3,-5,1027,1
32477,208714,239036,1,-5,1027,1
32450,208740,239009,1,-12,1038,1
32436,208739,238995,-2,-12,1038,1
32538,208684,239025,6,-12,1026,1
32540,208755,239012,6,-16,1026,1
32490,208747,239021,0,-12,1026,1
32550,208782,238984,1,-12,1032,1
32535,208791,239058,1,-9,1040,1
32497,208728,239009,10,-11,1040,1
32494,208732,239019,-3,-6,1029,1
32518,208776,239089,-3,-6,1037,1
32441,208768,239100,1,-16,1032,1
32550,208723,239014,0,-16,1032,1
32489,208774,238992,0,-20,1035,1
32464,208749,239002,-2,-11,1016,1
32487,208762,239059,5,-15,1016,1
32529,208712,239050,5,-15,1024,1
32499,208681,239047,5,-10,1024,1
32469,208668,238996,-5,-9,1024,1
32507,208593,238924,3,-9,1038,1
32492,208620,238973,3,-10,1026,1
32459,208674,238864,-4,-11,1026,1
32414,208462,238911,-5,-11,1046,1
32394,208469,238849,-5,-8,1024,1
32447,208428,238926,7,-16,1041,1
32461,208437,238909,0,-16,1041,1
32420,208498,238896,3,-15,1038,1
32466,208380,238826,3,-11,1029,1
32441,208497,238949,4,-12,1029,1
32411,208488,238922,0,-12,1005,1
32323,208491,238929,0,-10,1033,1
32422,208512,239017,-6,-17,1033,1
32437,208430,238935,0,-17,1024,1
32449,208505,239032,0,-21,1030,1
32393,208563,239098,9,-14,1030,1
32444,208499,238947,-6,-14,1038,1
32484,208579,239032,-6,-13,1033,1
32524,208530,239134,-6,-12,1033,1
32473,208515,239153,0,-12,1018,1
32521,208677,239179,0,-15,1014,1
32506,208624,239121,6,-18,1014,1
32367,208676,239132,2,-18,1021,1
32421,208576,239034,3,-13,1032,1
32458,208625,239154,3,-23,1041,1
32431,208598,239130,6,-12,1041,1
32375,208584,239103,-2,-12,1023,1
32430,208647,239139,-2,-13,1030,1
32453,208710,239220,-3,-12,1030,1
32446,208657,239153,3,-12,1033,1
32477,208710,239212,3,-15,1032,1
32477,208642,239130,9,-10,1032,1
32422,208718,239200,4,-10,1014,1
32371,208662,239120,3,-12,1029,1
32546,208678,239142,3,-18,1029,1
32446,208704,239155,0,-11,1027,1
32498,208709,239169,0,-11,1030,1
32501,208825,239295,0,-14,1037,1
32511,208681,239173,1,-18,1037,1
32440,208803,239240,2,-18,1014,1
32443,208713,239166,2,-21,1030,1
32585,208774,239180,2,-14,1030,1
32496,208772,239219,5,-14,1021,1
32376,208620,239141,5,-12,1001,1
32412,208650,239155,0,-12,1001,1
32458,208626,239195,1,-12,1018,1
32498,208630,239154,1,-19,1035,1
32344,208612,239065,-3,-18,1035,1
32435,208560,239059,2,-18,1030,1
32411,208513,239081,2,-14,1027,1
32435,208492,239048,-4,-16,1047,1
32464,208548,239094,-3,-12,1047,1
32450,208444,239156,4,-12,1024,1
32440,208446,239057,4,-15,1023,1
32438,208407,239065,-4,-10,1023,1
32385,208440,239047,0,-10,1016,1
32402,208393,239059,0,-11,1018,1
32350,208415,239071,-5,-12,1018,1
32377,208428,239083,3,-12,1021,1
32407,208414,239166,3,-12,1026,1
32353,208446,239157,4,-9,1026,1
32454,208418,239069,7,-9,1020,1
32472,208437,239137,7,-16,1032,1
32495,208511,239110,-2,-17,1032,1
32474,208442,239119,5,-17,1035,1
32482,208528,239153,-4,-10,1053,1
32521,208561,239125,-4,-12,1027,1
32433,208491,239083,-2,-17,1027,1
32439,208470,239183,0,-17,1020,1
32384,208481,239182,0,-12,1035,1
32411,208454,239126,-10,-12,1035,1
32500,208495,239097,-3,-12,1027,1
32404,208462,239165,-3,-12,1035,1
32457,208505,239171,0,-12,1035,1
32440,208442,239155,-5,-12,1035,1
32467,208413,239115,2,-18,1043,1
32466,208397,239252,2,-15,1043,1
32504,208387,239174,-5,-13,1032,1
32448,208512,239209,-5,-13,1021,1
32466,208545,239105,0,-11,1035,1
32399,208516,239218,-5,-11,1035,1
32445,208518,239223,9,-11,1029,1
32445,208524,239178,9,-9,1041,1
32524,208602,239275,4,-16,1041,1
32527,208596,239226,1,-16,1023,1
32481,208602,239244,1,-6,1027,1
32523,208552,239257,5,-6,1027,1
32506,208551,239275,2,-6,1037,1
32430,208592,239335,2,-18,1044,1
32475,208533,239241,-2,-16,1035,1
32422,208559,239231,1,-15,1035,1
32552,208603,239299,1,-15,1018,1
32552,208560,239172,1,-12,1018,1
32518,208584,239199,9,-11,1038,1
32528,208438,239235,-3,-11,1024,1
32463,208529,239172,-3,-15,1033,1
32504,208509,239171,-4,-15,1033,1
32479,208466,239248,2,-15,1027,1
32454,208489,239158,2,-11,1016,1
32463,208436,239142,-3,-13,1016,1
32425,208385,239069,1,-13,1017,1
32498,208411,239089,1,-16,1032,1
32401,208356,239070,3,-13,1032,1
32481,208397,239117,-5,-15,1024,1
32437,208311,239100,-5,-15,1024,1
32425,208307,239143,8,-18,1016,1
32454,208208,239079,4,-12,1016,1
32443,208271,239135,4,-12,1033,1
32406,208364,239186,5,-15,1014,1
32418,208288,239092,-6,-18,1014,1
32493,208312,239075,3,-18,999,1
32398,208277,239057,3,-13,1026,1
32492,208248,239104,3,-13,1026,1
32444,208302,239218,-2,-13,1014,1
32457,208337,239159,-2,-7,1038,1
32476,208404,239102,-3,-19,1038,1
32454,208299,239072,2,-19,1011,1
32483,208365,239154,2,-17,1020,1
32541,208433,239209,-3,-19,1041,1
32452,208287,239143,-3,-11,1041,1
32490,208340,239149,-3,-11,1038,1
32432,208358,239134,-6,-9,1038,1
32512,208262,239180,-6,-15,1033,1
32515,208532,239308,-6,-15,1033,1
32464,208431,239321,-6,-12,1035,1
32543,208424,239307,3,-19,1035,1
32517,208459,239248,3,-19,1029,1
32555,208464,239303,3,-14,1044,1
32555,208404,239315,-6,-14,1044,1
32509,208478,239226,7,-14,1040,1
32515,208483,239291,7,-10,1026,1
32499,208501,239307,3,-12,1041,1
32510,208455,239262,-3,-12,1041,1
32514,208568,239393,-3,-20,1023,1
32573,208540,239401,0,-11,1023,1
32595,208566,239336,3,-11,1021,1
32552,208542,239365,6,-10,1010,1
32579,208623,239456,6,-18,1017,1
32535,208617,239492,3,-18,1017,1
32548,208626,239395,6,-18,1023,1
32579,208667,239489,6,-21,1024,1
32603,208671,239509,3,-13,1024,1
32570,208597,239455,-3,-13,1032,1
32578,208756,239485,-3,-14,1038,1
32658,208689,239439,-2,-16,1038,1
32566,208668,239444,-3,-16,1010,1
32614,208688,239527,-3,-15,1038,1
32557,208674,239434,-2,-8,1030,1
32603,208751,239484,-3,-8,1030,1
32507,208682,239566,-3,-9,1038,1
32530,208632,239521,3,-12,1027,1
32576,208616,239492,-9,-18,1027,1
32601,208579,239543,-6,-18,1052,1
32514,208610,239398,-6,-10,1020,1
32527,208549,239425,0,-16,1020,1
32615,208573,239473,3,-16,1030,1
32538,208457,239409,3,-21,1029,1
32530,208448,239453,0,-21,1029,1
32512,208376,239461,3,-21,1037,1
32548,208449,239464,3,-10,1038,1
32482,208381,239370,2,-22,1021,1
32502,208449,239393,0,-22,1021,1
32527,208453,239407,3,-12,1032,1
32536,208428,239449,3,-23,1030,1
32538,208446,239433,3,-23,1030,1
32539,208384,239448,3,-22,1033,1
32525,208380,239408,13,-12,1035,1
32493,208381,239406,-4,-12,1035,1
32529,208336,239369,10,-12,1026,1
32517,208398,239442,10,-15,1052,1
32573,208474,239492,-2,-15,1052,1
32500,208428,239449,6,-15,1027,1
32552,208443,239445,6,-17,1027,1
32611,208335,239478,-6,-10,1027,1
32587,208398,239503,4,-10,1047,1
32499,208376,239464,4,-9,1024,1
32593,208463,239459,-2,-18,1024,1
32495,208365,239521,1,-18,1023,1
32573,208405,239499,-2,-16,1024,1
32556,208421,239515,-2,-18,1021,1
32551,208371,239527,-3,-14,1021,1
32570,208354,239479,3,-14,1032,1
32529,208368,239452,3,-10,1035,1
32565,208359,239499,9,-15,1035,1
32601,208379,239481,1,-15,1035,1
32488,208387,239502,1,-21,1023,1
32575,208396,239595,0,-9,1023,1
32526,208397,239536,6,-9,1023,1
32566,208412,239557,6,-13,1020,1
32469,208429,239563,3,-21,1033,1
32544,208419,239564,2,-21,1033,1
32565,208436,239495,8,-9,1007,1
32596,208406,239594,8,-12,1018,1
32599,208386,239529,0,-12,1018,1
32596,208470,239464,0,-18,1024,1
32516,208343,239478,0,-15,1032,1
32518,208441,239468,6,-14,1032,1
32549,208390,239485,6,-14,1020,1
32527,208305,239484,6,-15,1035,1
32522,208402,239632,0,-17,1035,1
32470,208342,239578,-2,-17,1041,1
32502,208300,239517,-2,-11,1017,1
32449,208306,239538,-3,-13,1017,1
32570,208344,239483,1,-13,1029,1
32471,208337,239548,1,-20,1027,1
32411,208250,239501,3,-10,1027,1
32436,208232,239426,3,-10,1038,1
32416,208242,239489,4,-16,1001,1
32508,208147,239458,4,-19,1017,1
32450,208151,239476,1,-23,1017,1
32455,208197,239553,3,-23,1037,1
32439,208243,239483,3,-10,1046,1
32473,208124,239489,4,-18,1046,1
32462,208157,239509,8,-18,999,1
32464,208179,239439,8,-12,1014,1
32525,208156,239520,4,-10,1014,1
32505,208198,239525,9,-10,1046,1
32445,208214,239536,9,-6,1032,1
32489,208190,239495,2,-17,1032,1
32490,208242,239582,1,-18,1014,1
32549,208255,239633,1,-18,1040,1
32540,208281,239642,-4,-7,1040,1
32534,208313,239562,6,-7,1016,1
32620,208272,239653,2,-19,1027,1
32529,208343,239707,2,-10,1030,1
32511,208394,239700,12,-15,1030,1
32542,208341,239709,-4,-15,1038,1
32557,208368,239688,-4,-18,1044,1
32649,208379,239759,-3,-12,1044,1
32507,208467,239703,0,-12,1023,1
32502,208461,239782,0,-12,1024,1
32561,208412,239767,-6,-18,1024,1
32547,208331,239784,3,-18,1029,1
32632,208448,239678,3,-17,1046,1
32616,208512,239824,-2,-13,1046,1
32627,208473,239786,0,-13,1024,1
32575,208466,239716,0,-20,1033,1
32608,208520,239772,3,-4,1027,1
32580,208508,239750,6,-7,1027,1
32628,208459,239826,-2,-7,1029,1
32696,208581,239877,-2,-18,1038,1
32572,208503,239806,-3,-21,1038,1
32625,208645,239874,10,-21,1023,1
32614,208591,239845,10,-18,1023,1
32681,208642,239865,2,-15,1023,1
32686,208668,239913,3,-15,1026,1
32631,208587,239868,3,-13,1041,1
32629,208617,239915,4,-18,1041,1
32649,208763,239960,9,-15,1026,1
32618,208604,239924,9,-15,1030,1
32677,208704,239943,3,-12,1016,1
32612,208644,239873,-4,-12,1016,1
32568,208598,239940,-4,-16,1041,1
32615,208615,239886,2,-11,1026,1
32648,208555,239869,-6,-14,1026,1
32534,208564,239834,1,-14,1035,1
32640,208530,239869,1,-11,1026,1
32576,208504,239858,3,-19,1026,1
32578,208460,239827,-3,-19,1021,1
32510,208362,239832,-3,-16,1029,1
32596,208464,239719,6,-11,1029,1
32536,208324,239653,4,-11,1017,1
32572,208249,239768,4,-6,1043,1
32561,208309,239819,12,-14,1043,1
32499,208244,239736,-3,-14,1037,1
32593,208307,239738,-3,-18,1037,1
32508,208336,239703,14,-18,1041,1
32597,208285,239724,6,-13,1041,1
32508,208204,239688,3,-13,1035,1
32599,208183,239669,3,-12,1026,1
32573,208237,239669,-3,-13,1026,1
32548,208138,239705,1,-13,1040,1
32576,208150,239680,1,-6,1041,1
32532,208174,239621,-7,-21,1041,1
32572,208154,239651,-2,-21,1032,1
32521,208166,239688,-2,-20,1032,1
32526,208095,239592,5,-21,1032,1
32495,208090,239654,-4,-17,1037,1
32514,208060,239666,-4,-17,1024,1
32568,208004,239552,2,-15,1023,1
32549,208172,239718,-3,-11,1023,1
32511,208081,239649,-3,-11,1030,1
32501,208044,239630,9,-16,1029,1
32482,208141,239720,6,-14,1029,1
32517,208162,239770,1,-14,1046,1
32497,208157,239691,1,-17,1027,1
32492,208153,239780,6,-16,1027,1
32570,208119,239706,4,-16,1020,1
32500,208170,239801,4,-9,1037,1
32538,208155,239762,9,-14,1037,1
32475,208204,239822,1,-14,1046,1
32528,208307,239783,1,-15,1040,1
32471,208196,239741,0,-21,1040,1
32509,208294,239785,-6,-21,1047,1
32548,208268,239875,-6,-18,1026,1
32606,208418,239962,1,-10,1026,1
32593,208438,239905,2,-17,1024,1
32581,208450,239900,8,-17,1021,1
32599,208386,239816,8,-13,1018,1
32600,208406,239861,-3,-21,1018,1
32620,208510,239909,3,-21,1011,1
32613,208418,239925,3,-21,1029,1
32548,208423,239906,2,-16,1029,1
32515,208395,239852,9,-16,1040,1
32566,208450,239909,9,-12,1049,1
32557,208388,239964,0,-15,1049,1
32550,208348,239944,-6,-15,1037,1
32591,208367,239915,0,-12,1037,1
32583,208381,239894,0,-15,1037,1
32587,208337,239884,1,-15,1023,1
32557,208362,239932,1,-11,1026,1
32512,208396,239973,8,-17,1041,1
32679,208412,240037,-9,-17,1041,1
32628,208473,240032,-6,-17,1023,1
32650,208403,240031,-6,-10,1026,1
32646,208487,240043,8,-14,1026,1
32567,208475,240074,12,-14,1035,1
32555,208558,240133,12,-17,1033,1
32595,208515,240095,0,-15,1033,1
32651,208580,240195,0,-15,1023,1
32698,208633,240219,0,-7,1056,1
32670,208612,240200,5,-18,1056,1
32676,208652,240223,1,-15,1030,1
32683,208666,240232,1,-15,1033,1
32711,208747,240240,0,-20,1033,1
32688,208653,240244,-2,-20,1037,1
32743,208717,240297,0,-18,1037,1
32738,208693,240289,0,-16,1032,1
32661,208658,240246,-2,-18,1032,1
32794,208746,240293,-2,-18,1035,1
32719,208839,240334,-2,-14,1014,1
32694,208800,240284,2,-15,1014,1
32720,208683,240237,-10,-15,1020,1
32650,208683,240248,-10,-16,1023,1
32692,208756,240323,-9,-10,1023,1
32756,208636,240262,0,-10,1010,1
32648,208683,240312,-3,-19,1027,1
32640,208722,240253,-3,-12,1027,1
32726,208727,240338,0,-12,1035,1
32713,208751,240387,0,-13,1020,1
32703,208717,240299,-6,-13,1043,1
32757,208882,240398,-3,-13,1043,1
32769,208823,240328,7,-13,1020,1
32746,208899,240406,7,-17,1023,1
32757,208866,240468,0,-16,1023,1
32787,208867,240455,0,-16,1050,1
32774,208889,240428,0,-17,1027,1
32796,208887,240385,-6,-15,1027,1
32720,208879,240331,3,-15,1027,1
32839,208941,240452,3,-14,1029,1
32824,208972,240478,-2,-3,1029,1
32780,208919,240452,-2,-3,1026,1
32728,208894,240389,-8,-22,1035,1
32756,208906,240465,-8,-17,1035,1
32764,208754,240308,3,-18,1013,1
32640,208813,240303,-2,-18,1049,1
32730,208745,240373,-2,-13,1024,1
32683,208728,240297,2,-13,1024,1
32706,208607,240218,-4,-13,1027,1
32658,208623,240251,-4,-13,1043,1
32663,208566,240284,0,-17,1043,1
32680,208636,240302,-3,-17,1038,1
32608,208594,240225,-3,-15,1041,1
32584,208516,240148,7,-14,1041,1
32684,208543,240219,-5,-14,1004,1
32649,208567,240198,-5,-18,1014,1
32715,208564,240278,9,-17,1027,1
32642,208637,240298,-5,-17,1027,1
32671,208623,240317,-5,-14,1035,1
32701,208561,240336,-8,-21,1043,1
32689,208490,240354,1,-15,1043,1
32604,208574,240338,-6,-15,1001,1
32623,208532,240279,-6,-12,1024,1
32640,208537,240381,1,-17,1024,1
32734,208560,240396,4,-17,1030,1
32695,208558,240343,4,-14,1050,1
32691,208630,240400,10,-26,1050,1
32736,208633,240448,-5,-26,1029,1
32735,208626,240417,-5,-10,1026,1
32705,208643,240436,0,-9,1026,1
32658,208632,240442,1,-9,1050,1
32683,208716,240498,-7,-18,1020,1
32715,208778,240510,-7,-21,1020,1
32725,208701,240503,6,-21,1033,1
32823,208723,240528,4,-15,1027,1
32719,208784,240534,4,-7,1040,1
32824,208805,240608,3,-11,1040,1
32715,208797,240514,3,-11,1032,1
32777,208833,240590,3,-14,1029,1
32796,208756,240501,-5,-16,1029,1
32735,208818,240586,-8,-16,1026,1
32719,208789,240552,-8,-16,1026,1
32683,208767,240471,-4,-12,1026,1
32683,208854,240569,0,-12,1041,1
32780,208892,240570,0,-16,1037,1
32731,208899,240596,9,-13,1037,1
32792,208882,240645,6,-13,1029,1
32778,208938,240619,6,-19,1029,1
32749,208932,240620,1,-18,1023,1
32843,208954,240594,2,-13,1023,1
32765,208903,240583,3,-13,1035,1
32766,208982,240662,3,-18,1021,1
32763,209018,240591,-2,-13,1021,1
32792,208934,240643,9,-13,1029,1
32848,208928,240612,9,-15,1023,1
32768,208940,240596,5,-21,1023,1
32751,208967,240601,12,-21,1032,1
32768,208920,240582,12,-15,1026,1
32769,208898,240598,-4,-13,1026,1
32694,208833,240591,-5,-13,1020,1
32740,208834,240602,1,-14,1030,1
32766,208839,240637,1,-15,1030,1
32731,208880,240608,-6,-15,1027,1
32770,208904,240623,-6,-14,1017,1
32717,208813,240573,5,-12,1030,1
32825,208937,240687,-9,-15,1030,1
32732,208880,240678,6,-15,1026,1
32753,208922,240673,6,-22,1021,1
32676,208815,240694,5,-15,1021,1
32783,208950,240638,0,-15,1037,1
32807,208936,240720,0,-18,1040,1
32781,208939,240778,0,-16,1040,1
32751,209106,240770,4,-16,1040,1
32739,208991,240709,4,-18,1044,1
32837,209013,240726,1,-12,1044,1
32751,208962,240677,3,-12,1013,1
32786,209036,240770,0,-15,1004,1
32867,209150,240790,0,-18,1004,1
32869,209107,240817,-2,-12,1038,1
32899,209128,240879,-2,-12,1035,1
32795,209133,240850,-2,-16,1044,1
32882,209128,240789,4,-20,1044,1
32840,209263,240968,1,-20,1027,1
32869,209128,240927,1,-13,1024,1
32857,209166,240822,-8,-17,1024,1
32877,209172,240914,1,-17,1021,1
32882,209136,240878,1,-17,1024,1
32965,209251,240925,-7,-15,1024,1
32886,209248,240963,5,-15,1037,1
32921,209310,240943,5,-12,1018,1
32921,209226,240856,-3,-18,1024,1
32900,209206,240933,3,-18,1024,1
32921,209330,241019,3,-15,1041,1
32961,209323,241034,-4,-14,1027,1
33038,209296,241002,-4,-18,1027,1
32908,209260,240927,7,-18,1037,1
32914,209273,240940,7,-21,1032,1
32934,209264,240984,2,-14,1032,1
32947,209225,240956,2,-14,1024,1
32984,209306,240917,2,-8,1035,1
32900,209329,240898,-3,-15,1035,1
32942,209242,240976,1,-15,1033,1
32916,209388,240953,1,-17,1043,1
32903,209334,240999,2,-12,1043,1
32934,209295,241020,6,-12,1024,1
32925,209310,240974,6,-20,1030,1
32965,209339,241076,-6,-15,1030,1
32928,209324,241034,1,-15,1038,1
32938,209251,241037,0,-13,1021,1
32966,209345,240997,0,-16,1040,1
32949,209359,240987,0,-20,1040,1
32891,209373,240968,5,-20,1027,1
32811,209417,240970,5,-18,1032,1
32832,209296,240951,5,-19,1032,1
32879,209251,240911,3,-19,1027,1
32860,209244,240937,3,-18,1014,1
32913,209248,240885,-4,-15,1014,1
32865,209359,240990,0,-15,1027,1
32921,209309,240822,0,-17,1033,1
32859,209274,240859,0,-13,1033,1
32858,209329,240844,5,-21,1033,1
32798,209120,240804,5,-21,1044,1
32970,209156,240909,-8,-14,1040,1
32854,209204,240841,-3,-16,1040,1
32888,209165,240852,-3,-16,1030,1
32891,209173,240924,-3,-21,1032,1
32947,209085,240878,1,-13,1032,1
32918,209190,240863,-5,-13,1038,1
32939,209149,240892,-5,-13,1044,1
32885,209163,240929,-2,-21,1044,1
32869,209111,240910,0,-21,1043,1
32920,209186,240875,0,-16,1035,1
32890,209230,240934,-2,-18,1035,1
32913,209271,240867,3,-18,1033,1
32938,209181,240947,10,-21,1041,1
32890,209207,241045,10,-16,1041,1
32892,209229,240988,5,-15,1024,1
32951,209224,241001,-4,-15,1026,1
32903,209240,240951,-4,-12,1035,1
32896,209210,241025,3,-15,1035,1
32936,209240,241004,9,-15,1037,1
32935,209235,241046,9,-16,1030,1
32916,209276,240974,-9,-13,1030,1
32910,209281,241033,-3,-13,1035,1
32934,209291,241102,-3,-15,1046,1
32933,209310,241065,-7,-16,1046,1
32967,209314,241105,-2,-16,1040,1
32886,209346,241055,-2,-24,1035,1
32927,209319,241096,-3,-16,1035,1
32995,209333,241141,1,-16,1035,1
32967,209368,241112,1,-20,1032,1
32994,209341,241106,2,-12,1033,1
32951,209325,241064,-7,-12,1033,1
32943,209415,241161,-7,-22,1032,1
32943,209344,241080,4,-18,1033,1
32940,209319,241111,0,-20,1033,1
32943,209350,241120,-10,-20,1023,1
32970,209286,241070,-10,-16,1020,1
32965,209346,241125,6,-17,1020,1
32907,209223,241119,0,-17,1027,1
32822,209218,241052,0,-13,1040,1
32843,209233,241056,1,-17,1040,1
32817,209169,241043,-7,-17,1035,1
32850,209167,241062,-7,-18,1029,1
32865,209130,240935,-3,-20,1030,1
32790,209179,240986,0,-20,1030,1
32842,209133,241014,0,-17,1027,1
32804,209079,240967,6,-15,1027,1
32856,209132,241019,0,-14,1027,1
32755,209147,240911,-6,-14,1029,1
32820,209142,240968,-6,-16,1037,1
32817,209143,240995,0,-11,1037,1
32825,209132,241015,3,-11,1023,1
32958,209205,241003,3,-16,1035,1
32927,209119,241026,-8,-21,1035,1
32841,209178,241074,0,-21,1021,1
32909,209256,241096,0,-18,1038,1
32858,209246,241008,0,-17,1038,1
32890,209286,241108,2,-15,1040,1
32908,209288,241153,2,-15,1017,1
32934,209291,241144,-3,-19,1041,1
32867,209277,241103,-5,-16,1041,1
32932,209303,241117,-5,-16,1023,1
32850,209233,241131,0,-17,1047,1
32867,209277,241195,3,-18,1047,1
32932,209349,241142,10,-18,1023,1
32961,209319,241141,10,-16,1023,1
32915,209358,241124,6,-13,1023,1
32890,209332,241190,-3,-13,1032,1
32924,209351,241214,-3,-14,1013,1
32947,209286,241190,8,-19,1013,1
32908,209346,241234,-3,-19,1026,1
32881,209361,241168,-3,-20,1035,1
32923,209356,241286,2,-18,1035,1
32948,209322,241247,-6,-15,1020,1
32944,209348,241243,4,-15,1038,1
32941,209392,241237,4,-15,1038,1
32968,209426,241208,4,-21,1023,1
32938,209462,241241,2,-21,1038,1
33025,209483,241326,2,-16,1010,1
32927,209449,241237,6,-16,1010,1
32965,209481,241254,-2,-16,1035,1
33047,209496,241302,-2,-21,1027,1
32923,209505,241319,-4,-18,1027,1
32916,209532,241371,0,-18,1030,1
32988,209483,241324,0,-18,1032,1
33064,209500,241291,3,-13,1032,1
33017,209554,241251,8,-13,1029,1
32995,209467,241246,3,-18,1024,1
32981,209376,241179,3,-15,1024,1
32958,209434,241144,1,-15,1029,1
32897,209366,241209,1,-18,1011,1
32903,209334,241137,-5,-18,1033,1
32954,209298,241083,2,-15,1033,1
33030,209306,241206,3,-15,1030,1
32953,209279,241113,3,-12,1005,1
32931,209224,241081,3,-19,1005,1
32968,209175,241070,0,-19,1049,1
32894,209160,241085,0,-15,1033,1
32938,209158,241010,-6,-19,1033,1
32877,209129,241036,-5,-19,1024,1
32881,209115,241042,-5,-18,1035,1
32943,209088,241015,0,-11,1035,1
32876,209092,241036,4,-11,1035,1
32913,209118,241096,4,-15,1030,1
32973,209095,241115,-4,-20,1030,1
32872,209187,241192,3,-20,1037,1
32884,209131,241175,3,-15,1035,1
32925,209215,241135,0,-9,1018,1
32893,209213,241212,3,-7,1018,1
32913,209182,241212,3,-7,1026,1
32928,209173,241173,3,-13,1014,1
32850,209139,241210,-4,-20,1014,1
32907,209221,241162,1,-20,1029,1
32933,209336,241295,1,-21,1037,1
32968,209175,241266,-3,-24,1037,1
32948,209194,241240,4,-24,999,1
32939,209257,241301,4,-21,1043,1
32965,209324,241267,0,-17,1043,1
32998,209376,241410,3,-17,1047,1
33021,209348,241339,-6,-11,1041,1
33017,209348,241315,-6,-21,1041,1
33002,209329,241374,5,-17,1033,1
32973,209360,241388,0,-17,1035,1
33001,209489,241387,0,-11,1033,1
33027,209427,241398,5,-17,1033,1
33024,209331,241301,0,-17,1059,1
33073,209418,241404,0,-18,1016,1
33056,209413,241455,-2,-8,1016,1
33079,209435,241414,6,-8,1027,1
33038,209409,241335,6,-21,1035,1
33085,209455,241407,0,-15,1030,1
33072,209465,241397,2,-15,1030,1
33022,209498,241431,2,-11,1029,1
33051,209583,241519,3,-17,1029,1
32967,209476,241338,-9,-21,1037,1
33072,209434,241387,6,-21,1013,1
33039,209418,241427,6,-11,1049,1
33075,209491,241361,-3,-14,1049,1
33000,209442,241341,-6,-14,1033,1
32972,209370,241267,-6,-16,1027,1
32960,209327,241275,6,-11,1027,1
32933,209247,241252,8,-11,1021,1
32944,209262,241219,8,-18,1024,1
32934,209299,241302,8,-18,1024,1
32955,209298,241240,2,-18,1032,1
32965,209218,241189,2,-15,1047,1
32968,209246,241199,-2,-15,1047,1
32932,209195,241144,-2,-15,1024,1
32961,209244,241239,-2,-12,1032,1
32938,209126,241178,-5,-16,1029,1
32981,209218,241195,0,-18,1029,1
32919,209198,241206,3,-18,1029,1
32910,209142,241174,3,-16,1053,1
32931,209153,241240,0,-20,1053,1
32874,209146,241169,4,-20,1023,1
32891,209148,241224,4,-15,1027,1
32932,209163,241157,1,-14,1027,1
32947,209180,241219,-6,-14,1035,1
32948,209206,241263,-6,-15,1032,1
33022,209198,241273,2,-16,1029,1
32941,209132,241240,6,-15,1029,1
32936,209210,241276,6,-15,1035,1
32882,209198,241294,3,-18,1026,1
32917,209256,241293,3,-14,1026,1
32918,209198,241332,3,-14,1046,1
32919,209278,241316,3,-12,1010,1
32919,209296,241246,3,-10,1010,1
32961,209215,241309,-5,-10,1035,1
32961,209342,241360,-5,-12,1024,1
32966,209317,241369,10,-19,1024,1
32972,209342,241373,-2,-19,1033,1
32947,209322,241352,-2,-16,1021,1
32990,209264,241346,-2,-9,1021,1
33053,209378,241432,-3,-9,1021,1
33074,209581,241507,-3,-20,1020,1
33039,209388,241428,0,-13,1020,1
33015,209430,241440,0,-13,1023,1
33056,209421,241452,0,-15,1027,1
33001,209408,241408,-3,-14,1026,1
33009,209367,241468,-2,-14,1026,1
33061,209451,241397,-2,-14,1029,1
32993,209397,241448,-2,-16,1044,1
33044,209479,241478,2,-13,1044,1
33038,209512,241513,0,-13,1011,1
33075,209514,241560,0,-17,1020,1
33069,209504,241479,0,-18,1020,1
33068,209532,241472,0,-18,1023,1
32937,209529,241485,0,-14,1026,1
33077,209570,241456,-6,-16,1038,1
33114,209473,241463,-4,-16,1038,1
33045,209515,241520,-4,-11,1056,1
32950,209463,241466,-7,-21,1056,1
32994,209457,241456,-8,-21,1043,1
33053,209468,241419,-8,-12,1026,1
33082,209523,241480,-3,-17,1014,1
33004,209425,241415,-7,-18,1014,1
32996,209428,241444,0,-18,1021,1
33054,209399,241434,0,-16,1033,1
33015,209398,241431,7,-15,1033,1
32973,209447,241360,-7,-15,1018,1
32983,209320,241409,-7,-17,1026,1
33015,209419,241386,4,-21,1026,1
32897,209357,241356,1,-21,1035,1
33043,209382,241354,1,-15,1026,1
33024,209503,241462,0,-15,1026,1
33069,209496,241420,-2,-15,1026,1
32992,209444,241479,-2,-13,1033,1
32972,209473,241442,2,-9,1033,1
33006,209439,241420,6,-15,1037,1
33029,209530,241502,0,-15,1032,1
33059,209484,241528,0,-23,1023,1
33048,209556,241516,-6,-17,1023,1
33116,209622,241581,2,-17,1037,1
33051,209557,241595,2,-20,1024,1
33039,209555,241636,-3,-19,1024,1
33141,209648,241593,-6,-19,1020,1
33035,209677,241654,-6,-23,1026,1
33108,209672,241528,-3,-17,1026,1
33016,209640,241587,-4,-17,1047,1
33030,209836,241728,-4,-23,1017,1
33030,209804,241678,1,-17,1017,1
33084,209783,241677,-6,-17,1035,1
33132,209776,241715,-6,-16,1043,1
33121,209791,241741,0,-12,1053,1
33093,209813,241768,-6,-24,1053,1
33188,209882,241745,7,-24,1035,1
33141,209902,241724,7,-16,1026,1
33075,209886,241815,0,-24,1026,1
33146,209932,241750,4,-24,1020,1
33164,210015,241781,4,-14,1047,1
33160,209909,241802,4,-13,1047,1
33174,210019,241885,0,-13,1044,1
33210,209968,241836,0,-16,1037,1
33169,209928,241836,2,-18,1037,1
33169,210075,241921,-7,-18,1021,1
33175,210014,241848,-7,-13,1032,1
33201,210092,241933,1,-18,1032,1
33218,210020,241903,14,-18,1050,1
33241,210064,241924,-3,-17,1038,1
33176,210045,241915,-3,-21,1030,1
33258,210118,241857,3,-18,1030,1
33133,210045,241844,1,-18,1029,1
33191,209996,241738,1,-19,1026,1
33110,210073,241769,2,-23,1026,1
33091,209985,241770,6,-23,1035,1
33136,209915,241767,6,-13,1029,1
33069,209954,241747,3,-17,1029,1
33146,209897,241812,2,-17,1027,1
33131,209872,241750,1,-17,1044,1
33106,209891,241763,1,-21,1044,1
33093,209894,241768,-6,-21,1030,1
33058,209879,241671,-6,-17,1026,1
33074,209914,241720,3,-24,1050,1
33149,209949,241762,-3,-17,1050,1
33093,209976,241789,2,-17,1024,1
33190,210025,241779,2,-17,1023,1
33164,209926,241709,4,-15,1023,1
33137,209907,241695,-5,-15,1043,1
33069,209949,241710,-5,-20,1018,1
33118,209907,241785,6,-19,1018,1
33161,209972,241816,3,-19,1016,1
33104,209946,241764,3,-8,1013,1
33108,209975,241768,-4,-16,1040,1
33153,209958,241832,1,-14,1040,1
33170,210045,241829,1,-14,1030,1
33136,209963,241736,-3,-21,1030,1
33062,209994,241799,-3,-15,1023,1
33107,210030,241800,6,-15,1041,1
33191,209986,241829,6,-13,1038,1
33159,209981,241792,-6,-23,1038,1
33210,210068,241835,0,-23,1032,1
33180,210049,241851,0,-24,1035,1
33108,210051,241891,-6,-15,1035,1
33115,210031,241917,3,-15,1035,1
33109,210043,241889,3,-13,1014,1
33174,210105,241850,-2,-16,1014,1
33131,210068,241824,-7,-16,1029,1
33129,210033,241829,-7,-13,1023,1
33187,210058,241906,0,-15,1023,1
33166,210002,241827,-3,-15,1024,1
33171,210185,241910,-3,-19,1040,1
33222,210122,241849,3,-12,1046,1
33207,210049,241860,-6,-19,1046,1
33276,210048,241880,1,-19,1013,1
33139,210142,241873,1,-15,1013,1
33126,210096,241872,0,-18,1013,1
33112,210146,241871,4,-18,1020,1
33152,210149,241885,4,-14,1032,1
33161,210153,241888,8,-9,1032,1
33131,210099,241903,-7,-9,1027,1
33152,210024,241904,-7,-22,1033,1
33121,210054,241830,-3,-25,1033,1
33179,210035,241845,4,-25,1033,1
33114,209982,241826,4,-14,1038,1
33070,209894,241754,5,-18,1038,1
33154,209931,241809,0,-14,1027,1
33104,209865,241762,0,-14,1047,1
33114,209931,241753,0,-27,1041,1
33027,209878,241691,5,-17,1041,1
33101,209764,241630,-2,-17,1027,1
33064,209803,241718,-2,-23,1035,1
33078,209819,241703,0,-18,1035,1
33051,209724,241624,3,-18,1041,1
33113,209761,241643,3,-15,1029,1
33042,209744,241642,6,-12,1029,1
33072,209820,241647,12,-12,1017,1
33063,209783,241635,0,-18,1013,1
33063,209809,241693,0,-25,1013,1
33078,209764,241645,5,-25,1041,1
33055,209770,241743,5,-28,1026,1
33073,209830,241809,0,-21,1030,1
33133,209784,241756,7,-18,1030,1
33057,209770,241765,5,-18,1035,1
33095,209768,241767,5,-10,1011,1
33094,209810,241733,3,-19,1011,1
33089,209859,241789,9,-19,1035,1
32996,209829,241745,9,-17,1016,1
33179,209882,241792,9,-22,1016,1
33057,209804,241814,-6,-22,1037,1
33097,209860,241844,-6,-16,1032,1
33069,209972,241910,-6,-22,1032,1
33112,209928,241905,-3,-22,1027,1
33089,209888,241803,-3,-7,1040,1
33126,209885,241831,-5,-14,1040,1
33179,209976,241870,0,-18,1035,1
33155,210030,241939,-5,-18,1037,1
33161,210030,242001,-5,-19,1047,1
33142,210030,241933,3,-18,1047,1
33158,210080,241948,3,-18,1041,1
33196,210033,241862,3,-17,1024,1
33261,210113,242041,-2,-18,1024,1
33217,210142,242061,0,-18,1024,1
33216,210166,241998,0,-10,1024,1
33227,210169,242000,2,-18,1024,1
33234,210147,242103,6,-18,1035,1
33275,210222,242031,6,-14,1021,1
33259,210242,242114,6,-18,1021,1
33274,210169,242077,0,-18,1044,1
33238,210235,242125,0,-20,1010,1
33296,210172,242023,3,-15,1035,1
33205,210176,242039,-3,-27,1035,1
33276,210289,242015,7,-27,1035,1
33162,210236,242029,7,-17,1023,1
33166,210217,242020,-6,-9,1023,1
33251,210152,242018,5,-9,1026,1
33216,210139,242051,5,-16,1032,1
33126,210143,241950,3,-22,1032,1
33201,210085,241947,3,-22,1043,1
33131,209947,241867,3,-12,1032,1
33210,209979,241904,2,-16,1032,1
33093,209908,241826,4,-16,1020,1
33107,209997,241884,4,-12,1020,1
33075,209873,241834,3,-15,1020,1
33149,209906,241848,3,-20,1033,1
33086,209854,241802,1,-20,1018,1
33082,209911,241838,1,-15,1010,1
33101,209988,241892,1,-21,1010,1
33095,209929,241864,1,-21,1052,1
33109,209923,241898,1,-15,1033,1
33142,209842,241887,-4,-18,1033,1
33166,209859,241855,-3,-18,1026,1
33065,209969,241922,-3,-17,1032,1
33153,209896,241937,4,-17,1032,1
33148,209928,241879,-3,-17,1046,1
33181,209882,241914,-3,-14,1021,1
33171,209967,241958,0,-20,1021,1
33159,209963,241895,-6,-20,1001,1
33195,209908,241921,3,-12,1018,1
33118,209995,241937,3,-17,1038,1
33095,209993,241875,4,-10,1038,1
33106,209949,241914,4,-10,1029,1
33176,210032,241916,4,-21,1043,1
33165,209961,241926,-4,-19,1043,1
33153,209863,242009,0,-19,1047,1
33191,209974,242015,0,-21,1011,1
33116,209933,241978,2,-17,1011,1
33176,210085,242066,-2,-17,1033,1
33129,209986,241948,-2,-15,1044,1
33191,210015,242036,-3,-12,1044,1
33203,209985,242085,-3,-20,1018,1
33130,210029,242039,3,-20,1038,1
33142,210085,242110,3,-20,1038,1
33249,210036,242074,6,-12,1037,1
33205,210007,242062,-2,-12,1029,1
33186,209981,242036,-2,-14,1043,1
33153,210048,242043,2,-15,1043,1
33238,210148,242093,-3,-15,1035,1
33211,210010,242010,-3,-12,1018,1
33195,210020,242032,-2,-14,1018,1
33240,210103,242041,5,-14,1029,1
33256,210121,242108,5,-18,1024,1
33154,210127,242145,1,-16,1024,1
33244,209996,242056,-2,-16,1032,1
33215,209965,241986,-2,-21,1033,1
33180,210034,242180,3,-13,1033,1
33205,210006,242018,1,-13,1030,1
33169,209961,242061,0,-14,1035,1
33180,209907,241997,0,-14,1020,1
33186,209861,242005,7,-17,1020,1
33198,209856,242038,6,-17,1044,1
33176,209819,241959,6,-18,1021,1
33153,209874,242020,12,-23,1021,1
33229,209800,241977,7,-23,1014,1
33186,209745,241937,7,-14,1004,1
33095,209693,241853,-3,-16,1004,1
33091,209689,241869,-4,-16,1043,1
33140,209800,241966,-4,-21,1040,1
33186,209785,241959,3,-17,1029,1
33171,209808,241909,7,-17,1029,1
33132,209776,241998,7,-9,1035,1
33164,209746,242021,0,-18,1035,1
33156,209768,241964,-3,-18,1040,1
33102,209762,241989,0,-17,1020,1
33140,209772,241984,0,-9,1018,1
33176,209823,241959,-6,-19,1018,1
33178,209818,241969,3,-19,1043,1
33170,209859,242058,3,-23,1030,1
33229,209932,242071,2,-17,1030,1
33157,209857,242038,3,-17,1032,1
33173,209846,242073,3,-9,1013,1
33189,209904,242041,0,-18,1013,1
33122,209981,242063,-2,-18,1030,1
33173,209882,242092,-2,-22,1010,1
33192,209946,242092,0,-21,1010,1
33222,209960,242113,3,-21,1021,1
33271,209941,242109,3,-15,1030,1
33214,209914,242131,0,-15,1035,1
33189,209975,242095,4,-20,1035,1
33182,209948,242118,5,-20,1013,1
33162,209941,242128,5,-14,1033,1
33226,209972,242172,1,-21,1033,1
33250,210039,242082,-2,-21,1041,1
33235,210013,242174,-2,-24,1026,1
33229,210014,242134,0,-20,1026,1
33188,210011,242195,-4,-20,1033,1
33230,210019,242140,-4,-12,1035,1
33206,210051,242155,-2,-17,1035,1
33251,210133,242190,3,-18,1017,1
33235,210068,242181,3,-18,1017,1
33150,210024,242161,-7,-18,1032,1
33159,209993,242143,2,-11,1032,1
33247,210062,242206,-4,-11,1030,1
33160,210188,242258,-4,-15,1005,1
33249,210016,242124,-5,-12,1005,1
33242,209968,242094,-6,-12,1027,1
33212,209843,242079,-6,-19,1044,1
33158,210017,242191,2,-24,1044,1
33193,209911,242172,3,-24,1007,1
33129,209836,242009,3,-13,1047,1
33158,209876,242090,-3,-18,1047,1
33137,209812,241990,6,-18,1037,1
33119,209811,242014,6,-21,1010,1
33120,209778,242039,-7,-11,1010,1
33120,209767,241990,6,-11,1037,1
33133,209734,241925,6,-15,1029,1
33091,209701,241931,-5,-25,1014,1
33079,209651,241959,4,-15,1014,1
33079,209788,242092,-3,-15,1026,1
33180,209722,241957,-3,-22,1023,1
33137,209722,242014,0,-13,1023,1
33109,209790,242055,6,-13,1027,1
33108,209758,242017,6,-21,1023,1
33125,209824,242096,1,-18,1023,1
33092,209807,241994,7,-18,1021,1
33137,209751,242119,7,-15,1030,1
33188,209768,242011,-10,-15,1030,1
33141,209792,242004,-9,-15,1032,1
33112,209898,242102,-9,-15,1013,1
33152,209823,242127,-4,-12,1029,1
33179,209819,242135,6,-17,1029,1
33183,209891,242145,5,-17,1038,1
33182,209904,242154,5,-22,1049,1
33186,209874,242163,0,-18,1049,1
33152,209966,242171,4,-18,1035,1
33172,209919,242196,4,-21,1029,1
33187,209896,242169,6,-18,1029,1
33156,209916,242106,-7,-18,1035,1
33231,209982,242203,-7,-13,1026,1
33196,210012,242116,3,-10,1026,1
33170,209941,242240,-3,-10,1043,1
33197,209989,242225,-3,-19,1032,1
33145,210039,242226,6,-18,1032,1
33165,210063,242280,3,-26,1029,1
33258,210154,242312,3,-26,1049,1
33188,210122,242272,6,-14,1033,1
33255,210132,242285,-2,-14,1033,1
33160,210159,242283,1,-14,1029,1
33184,210143,242291,1,-21,1027,1
33276,210164,242307,3,-20,1027,1
33278,210220,242355,-3,-20,1037,1
33318,210228,242333,-3,-14,1053,1
33266,210207,242313,-2,-12,1053,1
33321,210321,242386,0,-12,1018,1
33262,210239,242400,0,-20,1018,1
33303,210302,242332,2,-13,1018,1
33255,210177,242326,0,-13,1033,1
33243,210173,242339,0,-19,1032,1
33234,210212,242276,6,-16,1032,1
33226,210284,242317,-3,-15,1033,1
33173,210073,242204,8,-15,1037,1
33167,210109,242256,8,-13,1011,1
33252,210082,242234,0,-18,1011,1
33251,210026,242199,3,-18,1035,1
33235,210044,242174,3,-16,1026,1
33217,210050,242190,1,-13,1026,1
33306,210056,242202,-4,-13,1032,1
33224,210008,242216,-4,-16,1026,1
33179,209922,242144,-9,-15,1026,1
33183,209962,242197,-6,-18,1018,1
33181,209932,242107,-6,-18,1035,1
33233,209966,242069,0,-14,1032,1
33221,209996,242185,1,-15,1032,1
33206,209980,242232,1,-15,1029,1
33229,210029,242199,6,-18,1043,1
33169,210025,242229,0,-22,1043,1
33213,209980,242157,0,-22,1038,1
33184,209940,242162,0,-20,1038,1
33194,209890,242136,1,-15,1038,1
33181,210122,242231,-3,-15,1027,1
33239,210081,242224,-3,-13,1029,1
33237,210034,242236,-7,-15,1029,1
33184,210100,242332,0,-15,1040,1
33234,210098,242195,0,-21,1029,1
33200,210113,242270,-5,-12,1029,1
33205,210044,242278,5,-12,1024,1
33308,210149,242273,5,-13,1026,1
33233,210091,242317,0,-15,1026,1
33278,210153,242339,5,-15,1052,1
33302,210223,242389,-3,-16,1030,1
33260,210205,242352,-3,-15,1032,1
33306,210244,242396,4,-9,1032,1
33299,210252,242382,4,-9,1035,1
33350,210282,242383,4,-12,1029,1
33282,210306,242413,3,-12,1029,1
33328,210265,242343,0,-12,1024,1
33324,210337,242401,0,-24,1026,1
33346,210304,242390,-2,-16,1026,1
33346,210411,242433,1,-18,1030,1
33315,210382,242490,1,-18,1035,1
33359,210401,242509,8,-23,1035,1
33279,210490,242574,8,-23,1047,1
33335,210468,242501,-7,-17,1033,1
33392,210450,242528,-7,-13,1021,1
33411,210540,242631,-4,-19,1021,1
33360,210522,242519,3,-19,1050,1
33343,210538,242585,3,-19,1004,1
33378,210455,242503,2,-14,1004,1
33402,210460,242523,2,-14,1033,1
33347,210493,242428,2,-15,1030,1
33351,210400,242459,-4,-12,1030,1
33283,210352,242475,-3,-12,1027,1
33262,210347,242454,1,-20,1033,1
33315,210369,242432,1,-19,1033,1
33375,210398,242445,-3,-19,1029,1
33337,210365,242391,-3,-18,1021,1
33312,210367,242504,-3,-19,1026,1
33280,210360,242414,-9,-24,1026,1
33187,210225,242361,6,-24,1044,1
33300,210330,242377,6,-13,1047,1
33285,210374,242454,0,-15,1047,1
33355,210395,242520,0,-15,1040,1
33263,210375,242460,0,-20,1037,1
33288,210440,242548,0,-15,1037,1
33341,210472,242537,3,-15,1029,1
33352,210474,242526,3,-16,1027,1
33354,210524,242580,8,-10,1027,1
33319,210536,242589,6,-16,1016,1
33419,210597,242623,4,-16,1049,1
33345,210577,242613,4,-22,1049,1
33361,210587,242579,4,-22,1018,1
33394,210622,242569,4,-13,1026,1
33354,210532,242551,4,-15,1017,1
33365,210648,242620,-6,-21,1017,1
33376,210722,242634,-4,-21,1044,1
33391,210734,242706,-4,-22,1023,1
33453,210748,242682,0,-16,1023,1
33435,210729,242790,9,-16,1030,1
33433,210695,242745,9,-16,1060,1
33471,210783,242775,7,-20,1060,1
33541,210856,242782,3,-20,1029,1
33416,210853,242845,7,-18,1013,1
33489,210822,242825,7,-15,1013,1
33548,210835,242742,-3,-17,1016,1
33398,210895,242718,-7,-17,1044,1
33498,210895,242830,-7,-21,1020,1
33456,210941,242879,-6,-16,1020,1
33457,210945,242824,3,-16,1017,1
33457,210929,242816,3,-20,1023,1
33491,210992,242768,3,-8,1023,1
33518,211066,242957,1,-8,1035,1
33486,210964,242984,1,-17,1033,1
33579,211074,242936,0,-19,1033,1
33539,211091,242976,0,-19,1011,1
33467,211061,242959,0,-15,1038,1
33588,211129,242999,-3,-13,1038,1
33502,211102,242992,2,-15,1037,1
33540,211074,242987,8,-15,1021,1
33518,211108,242950,8,-21,1021,1
33524,211132,242935,-5,-21,1029,1
33488,211141,243007,0,-21,1046,1
33529,211082,242980,0,-18,1027,1
33572,211086,242942,0,-28,1027,1
33540,211053,242894,4,-28,1024,1
33500,211044,242924,4,-12,1032,1
33474,211097,242897,4,-11,1032,1
33435,210920,242891,9,-11,1016,1
33520,210985,242845,9,-11,1030,1
33542,211056,242983,6,-17,1030,1
33453,211003,242921,3,-17,1032,1
33462,211030,242996,2,-7,1008,1
33420,210960,242889,2,-15,1008,1
33496,210952,242887,3,-15,1043,1
33485,210994,242921,3,-24,1040,1
33491,210988,242920,5,-14,1044,1
33523,211000,242925,4,-14,1044,1
33497,210990,242957,3,-14,1046,1
33581,211044,242991,3,-27,1040,1
33550,211024,243002,6,-18,1040,1
33506,211093,243050,-8,-18,1020,1
33544,211161,243127,-8,-16,1033,1
33559,211156,243039,-4,-14,1033,1
33564,211060,243050,-4,-14,1033,1
33536,211137,243092,-4,-20,1030,1
33572,211107,243051,-3,-21,1030,1
33540,211156,243146,6,-21,1018,1
33514,211119,243040,6,-14,1049,1
33556,211141,243029,-3,-21,1049,1
33603,211059,242990,3,-21,1024,1
33607,211138,243065,3,-19,1033,1
33615,211127,243136,3,-15,1037,1
33587,211170,243097,-4,-18,1037,1
33627,211172,243099,0,-18,1033,1
33651,211171,243148,0,-15,1018,1
33627,211136,243048,-5,-23,1018,1
33554,211247,243147,3,-23,1017,1
33667,211191,243174,3,-11,1027,1
33654,211237,243196,2,-18,1027,1
33657,211237,243164,-7,-18,1026,1
33665,211258,243158,4,-17,1024,1
33635,211341,243123,4,-15,1024,1
33655,211212,243152,6,-15,1035,1
33570,211194,243159,6,-22,1050,1
33605,211197,243130,6,-13,1023,1
33610,211291,243121,-4,-21,1023,1
33665,211282,243149,4,-21,1013,1
33617,211230,243104,4,-22,1041,1
33685,211280,243229,4,-23,1041,1
33621,211244,243183,3,-23,1023,1
33632,211280,243164,3,-18,1026,1
33562,211299,243142,1,-18,1026,1
33625,211343,243128,-4,-18,1018,1
33594,211280,243095,-4,-18,1032,1
33598,211225,243068,6,-18,1032,1
33611,211214,243025,5,-11,1032,1
33615,211177,243025,5,-11,1035,1
33591,211178,243057,8,-23,1035,1
33512,211118,243021,3,-23,1018,1
33511,211086,243049,0,-11,1023,1
33638,211058,243022,0,-18,1033,1
33573,211068,242914,2,-12,1033,1
33625,211123,242937,6,-12,1007,1
33545,211048,242928,6,-17,1037,1
33571,211058,242904,0,-19,1037,1
33600,211060,242928,6,-19,1029,1
33554,211030,243046,6,-18,1030,1
33573,211012,242958,10,-14,1030,1
33537,211104,242960,2,-14,1026,1
33527,211019,242936,2,-24,1033,1
33596,211059,242973,1,-20,1033,1
33482,211018,242998,3,-17,1027,1
33534,211145,242964,3,-17,1024,1
33524,211032,242988,0,-17,1038,1
33519,211002,242938,7,-15,1038,1
33535,211025,242941,-3,-15,1029,1
33530,211063,242995,-3,-21,1040,1
33568,211140,243097,6,-12,1040,1
33490,211131,243006,4,-12,1016,1
33552,211131,243094,4,-16,1026,1
33548,211224,243131,3,-21,1026,1
33538,211205,243086,-4,-21,1029,1
33547,211286,243223,-4,-19,1032,1
33588,211304,243182,6,-19,1024,1
33614,211322,243251,-3,-15,1024,1
33599,211329,243225,-3,-15,1032,1
33650,211298,243215,3,-18,1032,1
33709,211357,243234,-6,-23,1049,1
33700,211443,243273,-6,-23,1017,1
33645,211517,243314,-6,-12,1020,1
33650,211438,243266,0,-18,1020,1
33696,211465,243252,9,-18,1033,1
33747,211544,243393,9,-18,1030,1
33678,211416,243240,5,-14,1030,1
33684,211493,243331,3,-14,1023,1
33660,211472,243226,3,-12,1041,1
33621,211393,243296,0,-14,1041,1
33734,211475,243352,9,-14,1018,1
33633,211542,243391,9,-15,1035,1
33721,211494,243299,3,-20,1035,1
33649,211543,243333,3,-20,1024,1
33704,211495,243364,6,-23,1041,1
33749,211607,243401,6,-14,1057,1
33693,211513,243343,0,-12,1057,1
33704,211422,243275,3,-12,1047,1
33674,211419,243283,3,-14,1026,1
33650,211376,243266,-7,-21,1026,1
33672,211453,243439,4,-21,1026,1
33584,211384,243290,4,-24,1007,1
33576,211396,243246,-5,-26,1007,1
33633,211355,243209,1,-26,1046,1
33619,211289,243278,1,-15,1032,1
33604,211256,243280,0,-15,1032,1
33624,211342,243300,4,-15,1032,1
33625,211326,243232,4,-18,1041,1
33651,211262,243197,0,-19,1017,1
33657,211375,243303,0,-19,1017,1
33618,211348,243386,6,-19,1035,1
33555,211365,243286,6,-15,1026,1
33624,211285,243261,-6,-26,1026,1
33651,211425,243334,-4,-26,1024,1
33598,211320,243278,-4,-23,1033,1
33700,211405,243357,2,-15,1033,1
33636,211462,243325,0,-15,997,1
33613,211447,243359,0,-21,1020,1
33658,211438,243353,7,-18,1030,1
33723,211428,243375,0,-18,1030,1
33613,211470,243340,0,-15,1056,1
33645,211391,243296,3,-20,1023,1
33726,211449,243324,2,-20,1023,1
33639,211466,243400,-4,-17,1037,1
33644,211429,243340,-4,-19,1020,1
33690,211526,243444,-3,-18,1020,1
33600,211578,243418,14,-18,1029,1
33657,211486,243438,14,-16,1033,1
33729,211540,243352,2,-25,1033,1
33607,211521,243394,7,-25,1029,1
33707,211530,243425,7,-24,1044,1
33773,211603,243401,4,-16,1044,1
33758,211616,243449,3,-16,1024,1
33671,211527,243363,6,-17,1030,1
33693,211530,243452,6,-15,1030,1
33645,211486,243376,3,-19,1033,1
33686,211613,243481,3,-19,1037,1
33686,211571,243432,4,-15,1033,1
33643,211603,243397,0,-20,1033,1
33740,211645,243424,2,-20,1040,1
33787,211623,243489,2,-21,1037,1
33644,211640,243498,-2,-21,1037,1
33764,211663,243496,6,-21,1023,1
33747,211661,243477,6,-15,1052,1
33745,211633,243449,4,-17,1052,1
33750,211748,243590,8,-17,1024,1
33755,211620,243452,8,-18,1026,1
33759,211596,243467,1,-18,1014,1
33701,211592,243502,6,-18,1014,1
33706,211611,243416,6,-23,1023,1
33665,211525,243424,9,-15,1038,1
33670,211607,243455,0,-19,1038,1
33711,211452,243438,-4,-19,1029,1
33632,211448,243362,-4,-14,1024,1
33656,211451,243359,-3,-8,1024,1
33626,211446,243278,-2,-8,1013,1
33587,211456,243302,-2,-12,1033,1
33607,211330,243239,10,-22,1033,1
33639,211331,243273,-4,-22,1030,1
33602,211337,243211,-4,-15,1024,1
33635,211286,243284,5,-24,1024,1
33703,211287,243314,6,-14,1032,1
33617,211308,243229,5,-14,1041,1
33615,211233,243230,5,-14,1041,1
33562,211209,243223,0,-14,1027,1
33662,211387,243297,3,-15,1035,1
33632,211328,243273,3,-14,1035,1
33600,211313,243342,1,-18,1035,1
33599,211359,243316,3,-18,1004,1
33679,211375,243320,3,-15,1050,1
33657,211358,243373,-3,-18,1050,1
33649,211331,243424,3,-18,1017,1
33616,211354,243389,3,-18,1049,1
33644,211356,243343,0,-25,1049,1
33735,211364,243352,4,-19,1037,1
33688,211358,243379,4,-19,1011,1
33707,211404,243544,6,-17,1011,1
33655,211297,243360,0,-17,1027,1
33712,211245,243265,6,-23,1030,1
33699,211269,243263,6,-12,1030,1
33717,211199,243186,2,-12,1030,1
33704,211182,243222,6,-12,1026,1
33636,211012,243121,6,-17,1037,1
33691,210969,243166,6,-28,1037,1
33679,210905,243070,8,-28,1013,1
33601,210844,243000,8,-18,1053,1
33611,210880,242997,2,-20,1053,1
33625,210800,242928,-4,-20,1043,1
33670,210722,242943,-4,-20,1021,1
33641,210782,242898,3,-20,1027,1
33660,210809,242937,3,-20,1027,1
33659,210739,242924,3,-15,1023,1
33576,210673,242933,6,-18,1040,1
33626,210634,242830,3,-12,1040,1
33606,210620,242839,3,-12,1029,1
33580,210670,242905,3,-16,1027,1
33520,210667,242814,-3,-11,1027,1
33671,210538,242725,12,-11,1044,1
33586,210450,242662,12,-22,1027,1
33573,210448,242717,3,-15,1027,1
33548,210392,242653,7,-15,1021,1
33621,210399,242684,7,-17,1037,1
33590,210251,242654,0,-22,1037,1
33473,210236,242669,0,-19,1041,1
33535,210219,242572,4,-19,1024,1
33481,210179,242523,4,-15,1024,1
33486,210151,242513,-2,-15,1021,1
33461,210110,242431,0,-18,1047,1
33443,210024,242464,0,-23,1038,1
33404,209959,242389,12,-10,1038,1
33393,209920,242339,5,-10,1014,1
33414,209960,242417,5,-14,1035,1
33396,209993,242456,6,-19,1035,1
33506,209952,242380,5,-19,1027,1
33378,209928,242366,5,-21,1018,1
33355,209958,242363,7,-21,1018,1
33408,209900,242403,3,-18,1033,1
33413,210042,242382,3,-18,1027,1
33440,209959,242402,1,-13,1027,1
33376,209985,242364,1,-13,1005,1
33440,210016,242426,1,-22,1050,1
33460,209996,242433,3,-27,1014,1
33435,210104,242419,0,-18,1014,1
33461,210019,242410,2,-18,1016,1
33508,210076,242434,2,-12,1024,1
33477,210034,242419,1,-21,1024,1
33432,210095,242444,-3,-21,1053,1
33447,210124,242504,-3,-15,1013,1
33510,210169,242519,8,-20,1013,1
33443,210161,242552,0,-20,1018,1
33450,210189,242483,0,-18,1027,1
33433,210108,242468,3,-15,1027,1
33474,210279,242473,-3,-15,1026,1
33431,210210,242544,-3,-15,1024,1
33466,210200,242481,-6,-19,1027,1
33530,210178,242466,-3,-21,1027,1
33493,210267,242578,0,-21,1017,1
33436,210252,242489,0,-15,1035,1
33471,210216,242450,3,-24,1035,1
33448,210264,242501,1,-24,1027,1
33502,210253,242447,1,-17,1027,1
33563,210241,242545,0,-15,1027,1
33470,210224,242528,-2,-15,1033,1
33498,210167,242529,-2,-21,1023,1
33461,210207,242526,-9,-21,1007,1
33523,210298,242517,2,-21,1007,1
33483,210232,242613,2,-18,1008,1
33534,210291,242551,-3,-18,1008,1
33450,210268,242535,5,-21,1046,1
33451,210298,242493,3,-21,1027,1
33493,210289,242541,3,-15,1017,1
33498,210245,242529,-2,-12,1017,1
33510,210290,242614,-3,-12,1029,1
33546,210246,242434,-3,-21,1043,1
33500,210179,242549,2,-12,1043,1
33493,210127,242488,-4,-12,1027,1
33438,210084,242438,-4,-27,1016,1
33507,210096,242452,1,-13,1016,1
33474,210005,242456,2,-13,1027,1
33482,210090,242384,3,-22,1033,1
33421,210010,242408,3,-24,1033,1
33397,209947,242344,9,-24,1041,1
33379,210065,242409,9,-17,1038,1
33372,209960,242411,-5,-15,1041,1
33324,209946,242360,5,-15,1041,1
33341,209997,242266,6,-15,1035,1
33385,209964,242343,6,-9,1021,1
33403,210039,242347,5,-22,1021,1
33361,209978,242385,3,-22,1018,1
33358,209983,242367,3,-15,1029,1
33417,210020,242430,-8,-24,1029,1
33410,209958,242355,5,-24,1018,1
33378,210016,242426,5,-18,1023,1
33394,210050,242449,5,-27,1018,1
33431,210091,242379,1,-27,1018,1
33430,210020,242427,-6,-12,1023,1
33420,210074,242497,-6,-25,1030,1
33360,210129,242616,6,-21,1030,1
33444,210108,242520,9,-21,1018,1
33477,210094,242459,9,-18,1033,1
33367,210126,242502,3,-18,1033,1
33428,210110,242511,-4,-18,1047,1
33419,210187,242482,-4,-16,1029,1
33480,210152,242511,2,-17,1029,1
33522,210162,242518,3,-17,1033,1
33487,210193,242544,3,-17,1017,1
33415,210194,242532,1,-20,1017,1
33515,210242,242502,0,-20,1013,1
33420,210205,242529,2,-21,1021,1
33507,210321,242600,2,-15,1021,1
33479,210364,242629,4,-18,1033,1
33555,210322,242612,0,-18,1040,1
33494,210350,242526,0,-23,1013,1
33584,210439,242687,0,-13,1013,1
33572,210376,242659,3,-13,1011,1
33438,210314,242607,3,-18,1023,1
33555,210490,242711,2,-18,1023,1
33550,210435,242706,-2,-18,1014,1
33507,210527,242778,-2,-21,1029,1
33586,210456,242775,-6,-30,1029,1
33661,210563,242780,-6,-30,1011,1
33574,210596,242807,0,-21,1050,1
33548,210583,242821,0,-21,1050,1
33504,210586,242831,6,-14,1030,1
33516,210666,242868,6,-14,1029,1
33529,210614,242842,-3,-21,1033,1
33591,210671,242879,6,-17,1033,1
33558,210668,242865,-4,-17,1026,1
33589,210731,242938,-4,-27,1026,1
33486,210595,242853,6,-15,1026,1
33563,210624,242809,3,-15,1018,1
33527,210628,242906,3,-16,1038,1
33484,210608,242863,9,-21,1038,1
33539,210663,242889,4,-21,1037,1
33525,210528,242888,4,-18,1035,1
33515,210512,242856,1,-10,1035,1
33507,210566,242799,-3,-18,1020,1
33501,210545,242754,-3,-18,1044,1
33532,210636,242895,-5,-23,1044,1
33572,210554,242811,-6,-23,1033,1
33532,210583,242796,2,-18,1017,1
33472,210633,242802,2,-20,1043,1
33521,210670,242924,5,-16,1043,1
33499,210681,243007,2,-16,1035,1
33523,210689,243027,2,-12,1018,1
33545,210715,242910,-2,-20,1018,1
33539,210743,242980,-8,-20,1026,1
33512,210753,242994,-8,-19,1010,1
33546,210767,243112,-2,-18,1010,1
33596,210788,243081,0,-18,1024,1
33589,210801,243098,2,-15,1037,1
33658,210819,243099,2,-18,1037,1
33654,210878,243154,6,-18,1024,1
33601,210897,243167,6,-15,1041,1
33610,210905,243137,2,-17,1024,1
33608,210915,243074,6,-16,1024,1
33634,210861,243118,3,-16,1023,1
33653,210951,243113,3,-18,1030,1
33614,211055,243163,1,-21,1030,1
33685,210939,243208,6,-21,1029,1
33704,210988,243175,6,-23,1013,1
33602,211015,243274,1,-22,1013,1
33647,210978,243201,-3,-22,1026,1
33644,211121,243339,-3,-21,1035,1
33644,211015,243258,5,-24,1035,1
33662,211024,243218,8,-24,1038,1
33726,211120,243267,8,-15,1026,1
33735,211133,243321,0,-23,1018,1
33665,211095,243292,1,-20,1018,1
33640,211139,243250,6,-20,1037,1
33696,211144,243364,6,-22,1027,1
33717,211138,243347,-5,-22,1027,1
33726,211110,243252,8,-22,1040,1
33694,211152,243430,8,-18,1029,1
33806,211127,243369,3,-23,1029,1
33689,211177,243354,0,-23,1033,1
33752,211151,243314,0,-18,1023,1
33801,211168,243333,1,-23,1023,1
33769,211185,243379,1,-19,1032,1
33741,211190,243314,1,-19,1018,1
33771,211057,243285,2,-18,1018,1
33692,211030,243301,3,-18,1040,1
33688,211023,243268,4,-12,1023,1
33686,211063,243249,4,-18,1040,1
33645,210948,243283,3,-12,1040,1
33667,210877,243229,3,-12,1018,1
33608,211014,243223,3,-19,1049,1
33664,210921,243151,4,-22,1049,1
33677,210907,243192,-7,-22,1033,1
33685,210919,243233,-7,-16,1017,1
33670,210922,243257,1,-21,1017,1
33616,210809,243222,12,-21,1038,1
33611,210864,243263,12,-14,1023,1
33649,210948,243278,6,-15,1023,1
33650,211001,243165,3,-15,1059,1
33619,210913,243235,6,-17,1035,1
33657,210872,243275,6,-18,1030,1
33639,210858,243267,0,-12,1030,1
33616,210894,243285,-3,-12,1035,1
33753,210961,243370,-3,-28,1037,1
33719,211011,243362,6,-20,1037,1
33724,211054,243286,6,-20,1021,1
33689,211043,243345,6,-11,1035,1
33681,211005,243354,3,-17,1035,1
33681,211000,243309,-2,-17,1040,1
33674,211019,243319,-2,-18,1040,1
33688,211003,243240,1,-19,1038,1
33682,211042,243303,2,-19,1038,1
33649,211012,243296,3,-20,1032,1
33757,211150,243372,3,-18,1032,1
33737,211105,243322,3,-18,1033,1
33702,211128,243269,6,-13,1020,1
33754,211174,243407,6,-21,1033,1
33677,211065,243288,3,-16,1033,1
33695,211123,243345,1,-16,1044,1
33716,211127,243391,1,-30,1027,1
33775,211118,243475,4,-21,1027,1
33735,211124,243314,6,-21,1029,1
33788,211247,243505,6,-16,1033,1
33809,211173,243490,6,-17,1033,1
33690,211182,243414,3,-17,1038,1
33694,211116,243460,3,-18,1035,1
33694,211228,243450,8,-21,1035,1
33812,211261,243499,-3,-21,1035,1
33771,211289,243474,-3,-18,1057,1
33730,211284,243563,-3,-20,1020,1
33766,211307,243467,2,-24,1020,1
33774,211284,243581,-3,-24,1024,1
33745,211373,243560,-3,-13,1023,1
33761,211271,243649,2,-24,1023,1
33772,211279,243531,0,-24,1032,1
33733,211177,243489,0,-23,1032,1
33776,211338,243535,5,-15,1032,1
33759,211187,243432,6,-15,1054,1
33746,211260,243509,6,-19,1033,1
33628,211136,243372,6,-14,1033,1
33693,211121,243409,0,-14,1035,1
33644,211117,243407,0,-24,1029,1
33689,211071,243426,6,-12,1029,1
33744,211153,243409,6,-21,1020,1
33667,211037,243382,4,-21,1044,1
33743,210974,243366,4,-15,1035,1
33570,210990,243358,4,-21,1035,1
33669,211011,243398,5,-21,1024,1
33656,210967,243362,5,-22,1011,1
33770,210974,243443,-3,-14,1011,1
33652,210988,243355,2,-14,1021,1
33652,210989,243400,2,-19,1030,1
33660,210972,243416,8,-19,1030,1
33726,211023,243392,3,-19,1010,1
33772,211084,243414,3,-19,1035,1
33701,211081,243401,3,-22,1035,1
33682,211020,243351,0,-22,1026,1
33722,211073,243450,0,-21,1046,1
33699,211102,243560,0,-20,1035,1
33757,211123,243425,-5,-14,1035,1
33728,211059,243489,3,-14,1033,1
33738,211120,243496,3,-20,1018,1
33719,211196,243505,3,-15,1018,1
33684,211150,243506,1,-15,1011,1
33591,211173,243575,1,-16,1059,1
33679,211150,243500,3,-13,1059,1
33766,211104,243560,3,-13,1049,1
33725,211166,243592,3,-21,1040,1
33832,211224,243577,0,-18,1043,1
33706,211268,243554,6,-20,1043,1
33709,211204,243616,6,-20,1029,1
33698,211150,243472,5,-19,1029,1
33740,211128,243517,0,-24,1035,1
33745,211120,243567,0,-24,1038,1
33776,211298,243574,0,-21,1007,1
33785,211177,243473,6,-13,1007,1
33781,211199,243504,2,-13,1027,1
33709,211082,243467,2,-18,1054,1
33732,211174,243580,3,-18,1054,1
33733,211284,243613,3,-18,1027,1
33718,211170,243527,3,-16,1044,1
33746,211233,243569,8,-18,1038,1
33810,211290,243547,6,-18,1038,1
33736,211229,243576,6,-20,1018,1
33789,211356,243581,4,-25,1018,1
33785,211255,243584,-6,-25,1043,1
33721,211227,243503,5,-19,1021,1
33738,211302,243611,5,-12,1027,1
33775,211205,243511,0,-27,1027,1
33716,211253,243536,4,-27,1035,1
33664,211172,243615,4,-24,1038,1
33718,211086,243565,3,-17,1038,1
33728,211133,243528,4,-17,1032,1
33703,211136,243585,4,-14,1026,1
33729,211228,243461,0,-18,1026,1
33678,211082,243475,1,-21,1032,1
33685,211044,243501,1,-21,1030,1
33634,211049,243568,0,-24,1029,1
33700,211006,243520,3,-19,1029,1
33665,211018,243462,3,-19,1043,1
33677,211014,243453,6,-18,1029,1
33662,211025,243505,1,-14,1029,1
33668,210999,243452,4,-14,1011,1
33689,211122,243495,4,-15,1032,1
33736,211033,243594,7,-24,1032,1
33669,211160,243531,0,-24,1024,1
33762,211090,243523,0,-20,1030,1
33758,211188,243608,0,-9,1030,1
33675,211141,243568,-3,-9,1037,1
33699,211127,243580,-3,-9,1018,1
33694,211158,243593,-6,-18,1024,1
33625,211246,243654,-2,-18,1024,1
33707,211203,243647,-2,-17,1049,1
33658,211197,243560,3,-24,1049,1
33677,211316,243774,1,-25,1026,1
33687,211245,243750,-4,-25,1035,1
33738,211285,243737,-4,-15,1032,1
33682,211333,243845,6,-15,1032,1
33791,211298,243728,6,-15,1040,1
33778,211351,243763,6,-23,1046,1
33734,211409,243834,1,-22,1046,1
33788,211384,243784,1,-22,1030,1
33770,211473,243844,1,-29,1035,1
33800,211478,243926,-6,-19,1044,1
33795,211486,243891,2,-19,1044,1
33798,211446,243954,6,-23,1023,1
33814,211461,243944,6,-20,1035,1
33807,211466,243971,7,-20,1035,1
33837,211580,243961,7,-17,1035,1
33848,211551,244034,6,-16,1037,1
33810,211610,244014,7,-13,1037,1
33854,211629,244014,-2,-13,1026,1
33867,211663,243984,-2,-18,1050,1
33879,211627,244042,4,-18,1050,1
33903,211596,244046,-4,-18,1029,1
33904,211623,244054,-4,-21,1023,1
33842,211631,243960,0,-12,1023,1
33845,211611,243996,6,-20,1040,1
33912,211645,244038,6,-20,1024,1
33883,211703,244073,-6,-19,1035,1
33899,211602,244001,3,-19,1035,1
33859,211582,243988,2,-14,1024,1
33771,211650,244003,2,-15,1046,1
33853,211567,244070,3,-15,1046,1
33763,211529,243984,3,-15,1020,1
33718,211536,243922,3,-15,1017,1
33775,211500,243938,4,-20,1017,1
33780,211439,243904,-3,-20,1040,1
33729,211378,243845,-3,-26,1032,1
33828,211429,243913,3,-19,1032,1
33760,211387,243859,-6,-19,1032,1
33818,211334,243871,-2,-15,1020,1
33749,211323,243803,-2,-18,1020,1
33800,211279,243812,13,-18,1023,1
33788,211288,243766,13,-22,1016,1
33724,211313,243809,2,-11,1023,1
33795,211276,243777,0,-18,1023,1
33757,211340,243820,6,-18,1054,1
33732,211348,243917,6,-20,1040,1
33817,211297,243880,-3,-16,1040,1
33760,211253,243935,1,-16,1023,1
33752,211254,243854,1,-23,1011,1
33822,211229,243756,0,-20,1011,1
33808,211279,243870,2,-20,1023,1
33786,211245,243806,2,-14,1050,1
33763,211228,243837,6,-18,1050,1
33771,211323,243808,-2,-18,1033,1
33823,211377,243841,-2,-18,1043,1
33752,211308,243891,-4,-21,1041,1
33734,211330,243909,5,-15,1041,1
33721,211398,243935,-4,-15,1018,1
33843,211287,243843,-4,-21,1024,1
33755,211356,243931,5,-20,1024,1
33822,211451,243980,0,-20,1033,1
33859,211406,243987,0,-12,1033,1
33820,211543,244151,6,-20,1033,1
33853,211475,244011,-9,-20,1029,1
33900,211526,244052,-9,-21,1027,1
33790,211427,243993,9,-22,1027,1
33832,211430,243976,-6,-22,1037,1
33780,211463,243967,-6,-11,1035,1
33819,211518,244048,-3,-15,1035,1
33802,211512,243995,-3,-15,1037,1
33776,211585,244099,-3,-16,1024,1
33789,211565,244031,-3,-18,1029,0
12860,811318,651842,-2,-25,1029,0
12810,411840,424340,5,-25,1037,0
15297,320411,373273,5,-15,1033,0
13258,298407,360149,-2,-15,1033,0
13090,294547,358062,3,-15,1035,0
13542,292751,356716,3,-21,1023,0
15170,293682,358176,-4,-11,1021,0
13373,292386,356719,9,-11,1021,0
13157,292766,356887,9,-13,1018,0
13593,292426,356671,5,-17,1030,0
12969,291540,356999,4,-20,1030,0
13386,290875,355141,6,-20,1024,0
13249,290857,355370,6,-21,1032,0
13661,290430,355089,9,-22,1032,0
12565,289511,354243,2,-22,1040,0
14124,290741,353259,2,-11,1033,0
13101,289171,353549,6,-18,1033,0
13603,288917,353592,3,-18,1037,0
11990,288236,352763,3,-19,1046,0
13964,289458,354147,2,-19,1013,0
13195,287720,352856,6,-19,1013,0
13560,288022,353023,6,-17,1018,0
11783,287770,352565,7,-17,1018,0
14267,289168,353918,6,-19,1032,0
13219,287778,352665,-3,-19,1035,0
13062,288535,353582,-3,-21,1026,0
11856,288484,353155,0,-18,1026,0
14540,289821,354689,-7,-18,1030,0
13381,288669,353492,-7,-15,1038,0
13004,289179,353885,1,-15,1038,0
13466,289557,354227,1,-15,1020,0
14370,290494,355297,1,-18,1024,0
13348,289279,353972,0,-20,1024,0
12946,289836,354554,3,-20,1029,0
13471,289986,354735,3,-22,1040,0
12128,289859,354316,6,-18,1040,0
13407,290151,354589,4,-23,1029,0
13006,290786,354906,4,-23,1032,0
13703,290906,355448,0,-20,1046,0
12285,290696,355083,6,-22,1046,0
14556,291889,356546,5,-22,1038,0
13306,291239,355697,5,-19,1021,0
14001,291971,356406,2,-18,1021,0
12387,291724,356152,10,-18,1038,0
14675,292806,358179,10,-22,1052,0
13725,291952,357044,-3,-12,1052,0
13856,292860,357633,6,-12,1005,0
12779,292653,357155,6,-21,1018,0
14525,294563,359216,0,-19,1018,0
13472,293533,358034,3,-19,1020,0
13226,293557,357557,3,-21,1033,0
12721,293620,357434,1,-23,1033,0
14320,295508,359429,3,-23,1038,0
13603,294402,358278,-7,-24,1044,0
13059,294064,358069,-7,-19,1035,0
13746,294452,358491,2,-17,1035,0
14081,295801,359654,-3,-17,1026,0
13808,294845,358844,-3,-23,1035,0
13076,294622,358658,6,-23,1035,0
13842,294749,358977,4,-23,1047,0
11777,294298,358236,4,-14,1049,0
13874,294204,358355,0,-17,1049,0
13110,293668,357839,3,-17,1033,0
13759,293554,357910,1,-18,1018,0
11898,292593,356403,1,-14,1018,0
13723,293139,357553,4,-14,1041,0
13604,291675,356289,4,-19,1038,0
13763,291683,356143,7,-16,1030,0
12154,290149,354553,9,-18,1030,0
13533,291199,355936,1,-18,1016,0
13503,290541,355213,1,-20,1050,0
12868,290028,354782,6,-11,1050,0
12715,288648,353403,8,-11,1008,0
13600,289852,355153,8,-20,1029,0
13433,289463,354485,2,-18,1029,0
12695,289072,353990,-3,-18,1044,0
14765,288193,353123,-3,-19,1032,0
13497,289945,354965,10,-20,1030,0
13378,289671,354651,10,-19,1030,0
12711,289342,354208,10,-19,1033,0
14747,289564,354603,0,-20,1033,0
12620,290338,355333,8,-13,1029,0
13399,290049,354972,6,-13,1023,0
12741,289681,354618,6,-18,1026,0
14820,290071,355050,6,-22,1026,0
12341,289236,354001,7,-22,1026,0
13292,290412,355464,7,-16,1044,0
12826,290252,354995,-3,-20,1044,0
14694,290639,355599,10,-20,1040,0
12409,289655,354285,10,-14,1027,0
13475,291127,356103,3,-18,1027,0
13690,290974,355432,6,-14,1024,0
14950,291235,356157,6,-14,1026,0
12827,290218,355255,2,-18,1032,0
13783,291915,356973,4,-18,1032,0
13690,291655,356540,4,-18,1032,0
13104,291356,356903,6,-12,1026,0
12807,291310,356477,1,-12,1026,0
13574,292599,357678,3,-12,1027,0
13594,292311,357254,3,-19,1035,0
12910,292170,356759,1,-21,1035,0
14649,292736,355890,1,-21,1035,0
13433,293506,357583,1,-13,1043,0
13541,293136,357593,7,-19,1043,0
12878,292767,357051,6,-19,1033,0
14215,293146,357671,6,-30,1032,0
12558,291812,357732,1,-24,1032,0
13419,293386,357965,-3,-24,1040,0
12854,293127,357467,-3,-24,1046,0
14162,293500,358153,-4,-14,1030,0
12780,292043,356581,4,-21,1030,0
13187,293668,358151,1,-21,1024,0
12935,292995,357520,1,-22,1035,0
15069,293254,358023,2,-11,1035,0
13095,291318,356395,-2,-11,1007,0
13193,292141,357118,-2,-17,1021,0
13415,292140,356850,-2,-18,1021,0
15320,291168,356385,-4,-18,1047,0
13227,289668,354939,-4,-13,1035,0
13099,290205,355192,13,-16,1029,0
13552,289964,354823,3,-16,1029,0
12979,289265,354049,3,-16,1035,0
13241,288449,353674,0,-17,1029,0
13053,288766,353862,9,-17,1029,0
13319,288301,353491,6,-15,1026,0
12868,287547,352661,6,-18,1040,0
14769,288642,354000,6,-17,1040,0
13148,287612,352785,1,-17,1024,0
13559,287499,352887,1,-21,1029,0
12718,286866,352394,3,-17,1029,0
14005,288407,353866,10,-17,1030,0
13089,287237,352363,10,-12,1026,0
13503,287531,352960,10,-18,1026,0
11928,287255,352468,3,-18,1024,0
13824,288651,354168,4,-15,1026,0
13198,287266,352562,4,-20,1026,0
13056,287964,353155,1,-20,1026,0
11910,287525,352874,1,-17,1018,0
14033,288911,354431,8,-18,1052,0
13285,287658,352952,-3,-19,1052,0
13101,288119,353541,2,-19,1023,0
13611,288432,353712,2,-21,1023,0
14635,289324,354614,1,-19,1023,0
13706,288219,353427,-3,-19,1043,0
13288,288756,353975,-3,-24,1017,0
13791,289131,354295,0,-13,1017,0
12191,288746,354014,-4,-13,1033,0
13647,289022,354269,-4,-17,1018,0
13164,289551,354858,6,-15,1018,0
13606,289759,355040,0,-17,1032,0
12186,289448,354680,0,-17,1027,0
14451,291020,356027,0,-16,1027,0
13536,290321,355014,0,-14,1024,0
13575,290584,355319,1,-14,1029,0
12069,290077,354808,1,-22,1023,0
14239,291463,355799,3,-25,1023,0
13535,290306,354985,-6,-25,1024,0
12939,290834,355616,-6,-15,1016,0
12064,290541,355465,-5,-15,1016,0
14423,291377,357027,-8,-15,1032,0
13532,290629,355751,-8,-19,1038,0
13234,291044,355891,3,-24,1038,0
13847,291029,355807,4,-24,1007,0
14627,292523,357853,4,-19,1018,0
13599,291227,356460,4,-21,1018,0
13156,290921,355977,17,-21,1037,0
13831,291118,356204,-5,-15,1011,0
12853,291655,356676,-5,-20,1029,0
13489,289804,355055,2,-15,1029,0
13003,289132,354127,0,-15,1023,0
13571,288887,354061,0,-15,1044,0
12124,288098,353256,3,-15,1044,0
14069,289553,353110,-3,-15,1013,0
12838,287252,352417,-3,-17,1018,0
13609,286941,352414,6,-17,1018,0
11556,286254,351617,-5,-17,1029,0
13644,287386,352626,-5,-12,1035,0
13616,286198,351110,-3,-15,1033,0
13519,285636,351432,4,-15,1033,0
11394,285065,350144,4,-10,1026,0
13583,286088,351447,1,-17,1040,0
13507,285406,351060,0,-17,1040,0
12815,285350,351406,0,-23,1033,0
11859,284579,350028,-5,-15,1038,0
13459,285997,351671,4,-16,1038,0
13378,285651,351379,8,-16,1035,0
12802,285630,351221,8,-20,1030,0
13866,286071,350356,6,-16,1030,0
13477,286420,352303,-3,-16,1033,0
13332,286018,351875,-3,-24,1052,0
12748,286035,351684,3,-16,1052,0
14623,286236,351950,3,-16,1026,0
12779,285372,352515,3,-20,1030,0
13577,286690,352185,0,-16,1052,0
12906,286396,351948,0,-16,1052,0
15020,286681,352383,0,-24,1029,0
12953,285783,351316,0,-12,1027,0
13678,287684,353302,9,-18,1027,0
12938,287011,352434,-9,-18,1030,0
14732,287475,353098,-9,-10,1053,0
12444,286434,351978,4,-26,1053,0
13508,288326,353633,2,-26,1035,0
13329,287919,353227,2,-21,1046,0
14692,288063,353283,3,-20,1046,0
12357,287013,352033,7,-20,1014,0
13364,288700,353851,7,-19,1041,0
13333,288306,353453,5,-18,1041,0
12769,288009,353112,0,-18,1041,0
12393,287417,352573,5,-18,1038,0
13337,288985,354326,5,-18,1038,0
13429,288677,353834,6,-18,1035,0
12860,288373,353596,3,-23,1027,0
14646,289007,354106,3,-24,1018,0
13470,289593,354692,0,-21,1018,0
13516,289049,354446,3,-21,1046,0
12889,288947,354065,3,-19,1026,0
14557,289278,354423,4,-17,1026,0
12586,288582,353099,3,-17,1020,0
13420,288731,354001,3,-14,1037,0
12749,287958,352969,14,-20,1037,0
14319,287992,352966,4,-20,1029,0
12529,286245,351062,4,-9,1046,0
12959,287202,352085,2,-21,1046,0
12627,285607,350941,3,-18,1043,0
13763,285588,351044,3,-18,1021,0
12462,283791,348963,-3,-12,1027,0
12746,284741,350116,1,-23,1027,0
13300,284651,350118,-2,-23,1037,0
12647,283826,349620,-2,-18,1050,0
12658,282186,348110,-2,-14,1050,0
12819,283359,349061,4,-14,1005,0
13281,283347,348957,4,-17,1030,0
12599,282754,348537,-3,-15,1030,0
15037,281821,348045,6,-15,1023,0
12739,282913,348747,6,-21,1024,0
13233,283095,348878,1,-19,1024,0
12671,282574,348392,-2,-19,1037,0
15003,283718,349843,6,-16,1029,0
13112,283523,349270,6,-15,1035,0
13277,283403,349127,3,-23,1035,0
12666,283034,348664,-4,-23,1050,0
14753,284537,350356,-4,-23,1041,0
13305,283474,349168,3,-24,1041,0
13117,283907,349434,9,-24,1030,0
12975,283378,348957,9,-19,1041,0
14494,284836,350690,-3,-22,1041,0
13390,283583,349260,5,-22,1027,0
13215,284216,349907,5,-15,1024,0
13560,284017,349857,-9,-14,1035,0
13963,285582,351488,5,-14,1035,0
13275,284128,349692,5,-15,1029,0
13079,284975,350269,-3,-25,1032,0
13473,285162,350459,3,-25,1032,0
11664,285176,351470,7,-18,1026,0
13119,284998,349905,7,-22,1046,0
13021,285484,350526,9,-21,1046,0
13403,285541,350911,9,-21,1037,0
11801,285293,350412,9,-23,1018,0
14162,286531,350533,-3,-22,1018,0
13121,285989,351081,6,-22,1040,0
13503,286019,351268,6,-18,1038,0
12105,285819,350912,0,-21,1038,0
14404,287138,352478,6,-21,1040,0
13534,286149,351626,5,-18,1050,0
13569,286962,352011,5,-19,1050,0
12024,286498,351511,-6,-17,1038,0
14318,287903,353060,8,-17,1020,0
13535,286674,351762,8,-20,1050,0
12960,287277,352469,6,-22,1050,0
12012,287013,351819,0,-22,1021,0
14149,288124,352695,0,-14,1035,0
13458,286575,351442,-2,-13,1035,0
12872,286511,351376,0,-13,1030,0
13603,286513,351416,0,-21,1017,0
14260,286025,351733,8,-19,1017,0
13334,284791,350196,9,-19,1016,0
12877,284534,349835,9,-18,1020,0
13479,284373,349755,-2,-15,1020,0
12163,283758,349028,-3,-15,1023,0
13211,283404,349039,-3,-16,1044,0
12871,283003,348428,6,-19,1044,0
13502,283000,348498,6,-19,1043,0
12581,282261,347904,-3,-11,1014,0
14001,284050,349721,-3,-15,1030,0
12769,282219,347741,-4,-21,1030,0
13418,282328,347998,5,-21,1027,0
11856,282126,347586,5,-19,1032,0
13877,283863,349328,5,-21,1032,0
13390,282772,348478,3,-21,1044,0
13534,282985,348645,3,-18,1027,0
11592,282879,348352,4,-20,1027,0
13707,284324,349676,6,-20,1035,0
13720,283614,348976,6,-17,1030,0
