1935,2098,3927,-15,-16,-7,8260,-1.00,-1.00,5.88,5.62,1946,2107,3927,106,120,38,174,0,0
1939,2103,3930,-12,-12,-3,8275,-1.00,-1.00,5.88,5.62,1945,2107,3927,106,120,38,174,0,0
1942,2105,3926,-8,-7,0,8277,-1.00,-1.00,5.88,5.62,1945,2107,3927,106,120,38,174,0,0
1943,2106,3925,-5,-4,0,8278,-1.00,-1.00,5.88,5.62,1945,2107,3927,106,120,38,174,0,0
1945,2108,3921,-2,-1,-1,8280,-1.00,-1.00,5.88,5.62,1945,2107,3927,106,120,38,174,0,0
1946,2111,3918,-1,0,-4,8282,-1.00,-1.00,5.88,5.62,1945,2107,3926,106,120,38,174,0,0
1948,2114,3924,0,2,-4,8293,-1.00,-1.00,5.88,5.62,1945,2108,3926,106,120,38,174,0,0
1950,2119,3934,2,5,-2,8309,-1.00,-1.00,5.88,5.62,1945,2108,3927,106,120,38,174,0,0
1957,2123,3940,5,9,2,8325,-1.00,-1.00,5.88,5.62,1946,2108,3927,106,120,38,174,0,0
1965,2134,3950,9,14,10,8353,-1.00,-1.00,5.88,5.62,1946,2109,3928,106,120,38,174,0,0
1974,2139,3960,15,20,18,8367,-1.00,-1.00,5.88,5.62,1947,2110,3929,106,120,38,174,0,0
1983,2141,3969,22,24,26,8381,-1.00,-1.00,5.88,5.62,1949,2111,3930,106,120,38,174,0,0
1984,2144,3970,28,29,32,8392,-1.00,-1.00,5.88,5.62,1950,2112,3932,106,120,38,174,0,0
1985,2147,3971,32,31,36,8403,-1.00,-1.00,5.88,5.62,1951,2114,3933,106,120,38,174,0,0
1983,2152,3967,33,33,37,8412,-1.00,-1.00,5.88,5.62,1952,2115,3934,106,120,38,174,0,0
1984,2144,3968,32,32,35,8385,-1.00,-1.00,5.88,5.62,1953,2116,3935,92,103,38,174,0,0
1961,2128,3943,26,27,28,8333,-1.00,-1.00,5.04,4.88,1953,2116,3935,92,103,38,174,0,0
1946,2111,3922,15,18,15,8286,-1.00,-1.00,5.04,4.88,1953,2116,3935,92,103,38,174,0,0
1940,2102,3930,4,5,5,8273,-1.00,-1.00,5.04,4.88,1953,2116,3935,92,103,38,174,0,0
1934,2097,3926,-7,-6,-4,8258,-1.00,-1.00,5.04,4.88,1952,2115,3934,92,103,38,174,0,0
1935,2097,3929,-13,-13,-7,8261,-1.00,-1.00,5.04,4.88,1951,2114,3934,92,103,38,174,0,0
1935,2099,3930,-15,-16,-5,8264,-1.00,-1.00,5.04,4.88,1951,2114,3934,92,103,38,174,0,0
1939,2103,3932,-15,-15,-4,8274,-1.00,-1.00,5.04,4.88,1951,2114,3934,92,103,38,174,0,0
1942,2105,3925,-13,-12,-5,8278,-1.00,-1.00,5.04,4.88,1950,2113,3934,92,103,38,174,0,0
1946,2113,3924,-10,-8,-6,8291,-1.00,-1.00,5.04,4.88,1950,2113,3933,92,103,38,174,0,0
1947,2115,3932,-6,-4,-5,8297,-1.00,-1.00,5.04,4.88,1950,2113,3933,92,103,38,174,0,0
1948,2117,3934,-4,0,-4,8304,-1.00,-1.00,5.04,4.88,1950,2113,3933,92,103,38,174,0,0
1951,2120,3938,-2,3,-1,8313,-1.00,-1.00,5.04,4.88,1950,2114,3934,92,103,38,174,0,0
1953,2123,3941,0,5,2,8324,-1.00,-1.00,5.04,4.88,1950,2114,3934,92,103,38,174,0,0
1962,2134,3951,3,9,7,8337,-1.00,-1.00,5.04,4.88,1950,2115,3934,92,103,38,174,0,0
1968,2139,3958,8,14,12,8366,-1.00,-1.00,5.04,4.88,1951,2115,3935,92,103,38,174,0,0
1977,2141,3966,14,19,19,8380,-1.00,-1.00,5.04,4.88,1952,2116,3936,92,103,38,174,0,0
1982,2145,3971,20,24,26,8394,-1.00,-1.00,5.04,4.88,1953,2117,3937,92,103,38,174,0,0
1986,2150,3975,25,27,30,8407,-1.00,-1.00,5.04,4.88,1954,2118,3939,92,103,38,174,0,0
1990,2159,3980,30,31,35,8422,-1.00,-1.00,5.04,4.88,1955,2120,3940,92,103,38,174,0,0
1991,2163,3983,32,35,38,8446,-1.00,-1.00,5.04,4.88,1956,2121,3941,92,103,38,174,0,0
1991,2167,3982,33,39,39,8456,-1.00,-1.00,5.04,4.88,1958,2123,3943,92,103,38,174,0,0
1992,2170,3984,34,42,40,8462,-1.00,-1.00,5.04,4.88,1959,2124,3944,92,103,38,174,0,0
1986,2163,3972,31,42,37,8441,-1.00,-1.00,5.04,4.88,1960,2126,3945,81,103,40,174,0,0
1964,2133,3949,24,33,27,8400,-1.00,-1.00,4.78,4.08,1960,2126,3945,81,91,40,174,0,0
1951,2119,3934,13,20,15,8310,-1.00,-1.00,4.78,4.08,1959,2126,3945,81,91,40,174,0,0
1946,2113,3920,2,6,-1,8287,-1.00,-1.00,4.78,4.08,1959,2125,3944,81,91,40,174,0,0
1943,2110,3918,-8,-6,-14,8282,-1.00,-1.00,4.78,4.08,1959,2125,3943,81,91,40,174,0,0
1943,2108,3918,-13,-12,-21,8281,-1.00,-1.00,4.78,4.08,1958,2124,3942,81,91,40,174,0,0
1946,2113,3918,-14,-13,-24,8285,-1.00,-1.00,4.78,4.08,1958,2124,3942,81,91,40,174,0,0
1948,2117,3934,-13,-12,-20,8306,-1.00,-1.00,4.78,4.08,1957,2123,3941,81,91,40,174,0,0
1952,2121,3939,-10,-8,-14,8321,-1.00,-1.00,4.78,4.08,1957,2123,3941,81,91,40,174,0,0
1955,2125,3943,-7,-4,-7,8329,-1.00,-1.00,4.78,4.08,1957,2123,3941,81,91,40,174,0,0
1956,2125,3943,-4,-1,-1,8330,-1.00,-1.00,4.78,4.08,1957,2124,3941,81,91,40,174,0,0
1957,2125,3943,-2,0,1,8331,-1.00,-1.00,4.78,4.08,1957,2124,3941,81,91,40,174,0,0
1959,2129,3946,0,2,2,8340,-1.00,-1.00,4.78,4.08,1957,2124,3942,81,91,40,174,0,0
1963,2133,3951,1,4,4,8349,-1.00,-1.00,4.78,4.08,1957,2124,3942,81,91,40,174,0,0
1966,2137,3955,4,7,7,8362,-1.00,-1.00,4.78,4.08,1958,2124,3942,81,91,40,174,0,0
1972,2141,3962,7,10,11,8374,-1.00,-1.00,4.78,4.08,1958,2125,3943,81,91,40,174,0,0
1983,2143,3972,13,13,17,8388,-1.00,-1.00,4.78,4.08,1959,2126,3944,81,91,40,174,0,0
1989,2154,3977,18,18,23,8416,-1.00,-1.00,4.78,4.08,1960,2127,3945,81,91,40,174,0,0
1990,2158,3980,24,22,28,8430,-1.00,-1.00,4.78,4.08,1961,2128,3946,81,91,40,174,0,0
1990,2163,3981,27,27,32,8444,-1.00,-1.00,4.78,4.08,1962,2129,3947,81,91,40,174,0,0
1992,2168,3983,28,32,33,8455,-1.00,-1.00,4.78,4.08,1963,2130,3949,81,91,40,174,0,0
1992,2172,3984,28,35,34,8467,-1.00,-1.00,4.78,4.08,1964,2131,3950,81,91,40,174,0,0
1990,2172,3979,27,38,32,8466,-1.00,-1.00,4.78,4.08,1965,2133,3951,71,91,45,174,0,0
1984,2159,3968,25,35,28,8426,-1.00,-1.00,3.75,3.17,1965,2134,3951,71,81,45,174,0,0
1978,2143,3963,21,28,22,8376,-1.00,-1.00,3.75,3.17,1966,2134,3952,71,81,45,174,0,0
1958,2127,3942,12,16,11,8331,-1.00,-1.00,3.75,3.17,1965,2134,3951,71,81,45,174,0,0
1947,2117,3930,1,2,0,8301,-1.00,-1.00,3.75,3.17,1965,2133,3951,71,81,45,174,0,0
1943,2111,3918,-8,-8,-12,8284,-1.00,-1.00,3.75,3.17,1964,2132,3950,71,81,45,174,0,0
1944,2112,3919,-16,-16,-23,8284,-1.00,-1.00,3.75,3.17,1963,2132,3949,71,81,45,174,0,0
1946,2114,3925,-18,-18,-26,8289,-1.00,-1.00,3.75,3.17,1963,2131,3948,71,81,45,174,0,0
1946,2116,3932,-18,-18,-25,8301,-1.00,-1.00,3.75,3.17,1962,2131,3947,71,81,45,174,0,0
1951,2121,3940,-15,-15,-18,8318,-1.00,-1.00,3.75,3.17,1962,2130,3947,71,81,45,174,0,0
1957,2126,3945,-12,-11,-11,8332,-1.00,-1.00,3.75,3.17,1962,2130,3947,71,81,45,174,0,0
1956,2127,3946,-9,-7,-6,8336,-1.00,-1.00,3.75,3.17,1962,2130,3947,71,81,45,174,0,0
1957,2128,3946,-6,-4,-2,8338,-1.00,-1.00,3.75,3.17,1961,2130,3947,71,81,45,174,0,0
1959,2130,3948,-4,-2,0,8344,-1.00,-1.00,3.75,3.17,1961,2130,3947,71,81,45,174,0,0
1963,2134,3951,-2,0,0,8352,-1.00,-1.00,3.75,3.17,1961,2130,3947,71,81,45,174,0,0
1972,2141,3962,1,3,4,8375,-1.00,-1.00,3.75,3.17,1962,2131,3948,71,81,45,174,0,0
1978,2143,3967,6,6,9,8389,-1.00,-1.00,3.75,3.17,1962,2131,3948,71,81,45,174,0,0
1985,2147,3974,12,10,15,8402,-1.00,-1.00,3.75,3.17,1963,2132,3949,71,81,45,174,0,0
1989,2152,3978,18,14,21,8415,-1.00,-1.00,3.75,3.17,1964,2132,3950,71,81,45,174,0,0
1988,2157,3977,21,17,24,8426,-1.00,-1.00,3.75,3.17,1965,2133,3951,71,81,45,174,0,0
1992,2165,3984,24,22,27,8451,-1.00,-1.00,3.75,3.17,1966,2134,3952,71,81,45,174,0,0
1994,2170,3989,25,27,30,8464,-1.00,-1.00,3.75,3.17,1967,2135,3953,71,81,45,174,0,0
1997,2175,3994,26,32,33,8474,-1.00,-1.00,3.75,3.17,1968,2137,3955,71,81,45,174,0,0
1998,2178,3994,27,36,36,8480,-1.00,-1.00,3.75,3.17,1969,2138,3956,71,81,45,174,0,0
2000,2178,3999,28,38,38,8481,-1.00,-1.00,3.75,3.17,1970,2139,3957,71,81,45,130,0,0
1984,2150,3969,25,31,32,8403,-1.00,-1.00,3.75,3.17,1970,2140,3958,65,75,50,130,0,0
1964,2135,3950,16,21,21,8353,2.17,-0.08,2.77,2.61,1970,2140,3957,65,75,50,130,0,0
1950,2122,3936,4,6,6,8317,2.17,-0.08,2.77,2.61,1969,2139,3957,65,75,50,130,0,0
1945,2115,3928,-8,-8,-11,8297,2.17,-0.08,2.77,2.61,1968,2138,3956,65,75,50,130,0,0
1944,2112,3921,-18,-17,-22,8287,2.17,-0.08,2.77,2.61,1968,2137,3955,65,75,50,130,0,0
1943,2113,3925,-22,-22,-28,8290,2.17,-0.08,2.77,2.61,1967,2136,3954,65,75,50,130,0,0
1944,2116,3933,-23,-22,-27,8299,2.17,-0.08,2.77,2.61,1966,2136,3953,65,75,50,130,0,0
1949,2119,3939,-21,-21,-24,8314,2.17,-0.08,2.77,2.61,1965,2135,3952,65,75,50,130,0,0
1950,2123,3943,-19,-17,-17,8324,2.17,-0.08,2.77,2.61,1965,2135,3952,65,75,50,130,0,0
1953,2126,3944,-16,-14,-12,8329,2.17,-0.08,2.77,2.61,1965,2135,3952,65,75,50,130,0,0
1954,2126,3945,-13,-11,-9,8331,2.17,-0.08,2.77,2.61,1964,2134,3952,65,75,50,130,0,0
1955,2128,3946,-11,-8,-7,8336,2.17,-0.08,2.77,2.61,1964,2134,3951,65,75,50,130,0,0
1957,2130,3949,-9,-6,-5,8343,2.17,-0.08,2.77,2.61,1964,2134,3951,65,75,50,130,0,0
1961,2134,3951,-7,-4,-3,8354,2.17,-0.08,2.77,2.61,1964,2134,3951,65,75,50,130,0,0
1964,2138,3956,-4,-1,0,8365,2.17,-0.08,2.77,2.61,1964,2134,3952,65,75,50,130,0,0
1977,2145,3968,0,2,4,8390,2.17,-0.08,2.77,2.61,1964,2134,3952,65,75,50,130,0,0
1982,2149,3973,6,7,10,8403,2.17,-0.08,2.77,2.61,1965,2135,3953,65,75,50,130,0,0
1991,2153,3983,14,11,17,8419,2.17,-0.08,2.77,2.61,1965,2135,3954,65,75,50,130,0,0
1991,2158,3983,20,16,23,8429,2.17,-0.08,2.77,2.61,1966,2136,3955,65,75,50,130,0,0
1992,2162,3984,23,19,26,8441,2.17,-0.08,2.77,2.61,1967,2137,3956,65,75,50,130,0,0
1998,2170,3996,26,24,31,8468,2.17,-0.08,2.77,2.61,1968,2138,3957,65,75,50,130,0,0
2000,2175,4001,27,28,34,8474,2.17,-0.08,2.77,2.61,1969,2139,3959,65,75,50,130,0,0
1999,2180,3998,28,33,36,8479,2.17,-0.08,2.77,2.61,1970,2141,3960,65,75,50,130,0,0
1998,2183,3995,29,37,38,8486,2.17,-0.08,2.77,2.61,1971,2142,3961,65,75,50,130,0,0
1998,2181,3997,28,38,37,8484,2.17,-0.08,2.77,2.61,1972,2144,3962,62,75,54,113,0,0
1980,2148,3967,22,30,28,8395,2.17,-0.08,2.57,2.31,1972,2144,3962,62,71,54,113,0,0
1959,2132,3946,12,17,14,8345,2.17,-0.08,2.57,2.31,1972,2143,3962,62,71,54,113,0,0
1947,2120,3934,0,2,0,8310,2.17,-0.08,2.57,2.31,1971,2142,3961,62,71,54,113,0,0
1945,2115,3926,-13,-14,-18,8292,2.17,-0.08,2.57,2.31,1970,2142,3960,62,71,54,113,0,0
1942,2112,3919,-22,-22,-29,8284,2.17,-0.08,2.57,2.31,1969,2141,3958,62,71,54,113,0,0
1943,2115,3924,-25,-25,-33,8291,2.17,-0.08,2.57,2.31,1968,2140,3957,62,71,54,113,0,0
1944,2117,3932,-25,-25,-32,8301,2.17,-0.08,2.57,2.31,1968,2139,3956,62,71,54,113,0,0
1947,2121,3937,-24,-23,-28,8314,2.17,-0.08,2.57,2.31,1967,2138,3956,62,71,54,113,0,0
1950,2124,3940,-21,-19,-22,8323,2.17,-0.08,2.57,2.31,1966,2138,3955,62,71,54,113,0,0
1952,2125,3941,-18,-16,-18,8325,2.17,-0.08,2.57,2.31,1966,2137,3955,62,71,54,113,0,0
1951,2125,3941,-16,-13,-15,8325,2.17,-0.08,2.57,2.31,1965,2137,3954,62,71,54,113,0,0
1954,2127,3944,-13,-12,-13,8330,2.17,-0.08,2.57,2.31,1965,2137,3954,62,71,54,113,0,0
1956,2130,3945,-12,-10,-11,8336,2.17,-0.08,2.57,2.31,1965,2136,3954,62,71,54,113,0,0
1958,2133,3948,-10,-7,-9,8345,2.17,-0.08,2.57,2.31,1965,2136,3953,62,71,54,113,0,0
1962,2138,3952,-7,-4,-6,8356,2.17,-0.08,2.57,2.31,1964,2136,3953,62,71,54,113,0,0
1974,2144,3964,-2,0,-1,8381,2.17,-0.08,2.57,2.31,1965,2137,3954,62,71,54,113,0,0
1982,2147,3971,4,4,5,8396,2.17,-0.08,2.57,2.31,1965,2137,3954,62,71,54,113,0,0
1985,2152,3975,10,8,11,8408,2.17,-0.08,2.57,2.31,1966,2138,3955,62,71,54,113,0,0
1989,2157,3979,16,12,17,8421,2.17,-0.08,2.57,2.31,1967,2138,3956,62,71,54,113,0,0
1990,2161,3980,20,16,20,8433,2.17,-0.08,2.57,2.31,1968,2139,3957,62,71,54,113,0,0
1993,2169,3987,22,21,23,8458,2.17,-0.08,2.57,2.31,1968,2140,3958,62,71,54,113,0,0
1995,2174,3991,23,25,26,8467,2.17,-0.08,2.57,2.31,1969,2141,3959,62,71,54,113,0,0
1999,2177,3999,25,29,30,8478,2.17,-0.08,2.57,2.31,1970,2142,3960,62,71,54,113,0,0
1997,2180,3994,26,33,33,8482,2.17,-0.08,2.57,2.31,1971,2144,3961,62,71,54,113,0,0
1989,2174,3977,24,33,29,8466,2.17,-0.08,2.57,2.31,1972,2145,3962,59,71,57,113,0,0
1972,2141,3956,18,24,20,8367,2.17,-0.08,2.30,2.08,1972,2144,3962,59,68,57,113,0,0
1952,2124,3935,6,10,4,8321,2.17,-0.08,2.30,2.08,1971,2144,3961,59,68,57,113,0,0
1945,2114,3921,-6,-5,-13,8290,2.17,-0.08,2.30,2.08,1970,2143,3959,59,68,57,113,0,0
1942,2111,3917,-17,-20,-27,8282,2.17,-0.08,2.30,2.08,1969,2142,3958,59,68,57,113,0,0
1942,2112,3917,-24,-27,-36,8281,2.17,-0.08,2.30,2.08,1968,2141,3957,59,68,57,113,0,0
1944,2116,3926,-25,-28,-37,8294,2.17,-0.08,2.30,2.08,1968,2140,3956,59,68,57,113,0,0
1948,2122,3933,-24,-25,-33,8310,2.17,-0.08,2.30,2.08,1967,2139,3955,59,68,57,113,0,0
1953,2126,3939,-20,-20,-26,8326,2.17,-0.08,2.30,2.08,1966,2139,3954,59,68,57,99,0,0
1957,2130,3943,-16,-15,-19,8337,2.17,-0.08,2.30,2.08,1966,2139,3954,59,68,57,99,0,0
1958,2132,3944,-12,-11,-14,8343,2.17,-0.08,2.30,2.08,1966,2138,3954,59,68,57,99,0,0
1959,2133,3945,-9,-8,-11,8346,2.17,-0.08,2.30,2.08,1966,2138,3953,59,68,57,99,0,0
1961,2136,3947,-7,-5,-8,8351,2.17,-0.08,2.30,2.08,1965,2138,3953,59,68,57,99,0,0
1964,2138,3951,-5,-3,-6,8359,2.17,-0.08,2.30,2.08,1965,2138,3953,59,68,57,99,0,0
1968,2141,3956,-2,-1,-3,8370,2.17,-0.08,2.30,2.08,1966,2138,3953,59,68,57,99,0,0
1976,2144,3963,1,1,1,8381,2.17,-0.08,2.30,2.08,1966,2138,3953,59,68,57,99,0,0
1984,2153,3971,7,5,7,8394,2.17,-0.08,2.30,2.08,1966,2139,3954,59,68,57,99,0,0
1986,2157,3973,12,10,12,8421,2.17,-0.08,2.30,2.08,1967,2139,3955,59,68,57,99,0,0
1987,2163,3974,16,15,16,8434,2.17,-0.08,2.30,2.08,1968,2140,3955,59,68,57,99,0,0
1987,2168,3975,18,20,18,8446,2.17,-0.08,2.30,2.08,1968,2141,3956,59,68,57,99,0,0
1990,2172,3980,19,24,19,8459,2.17,-0.08,2.30,2.08,1969,2142,3957,59,68,57,99,0,0
1995,2180,3984,21,29,21,8468,2.17,-0.08,2.30,2.08,1970,2143,3958,59,68,57,99,0,0
1996,2183,3989,22,33,24,8488,2.17,-0.08,2.30,2.08,1971,2145,3959,59,68,57,99,0,0
1997,2188,3990,24,36,27,8496,2.17,-0.08,2.30,2.08,1972,2146,3960,59,68,57,99,0,0
1997,2189,3993,24,39,29,8497,2.17,-0.08,2.30,2.08,1973,2148,3961,59,68,57,99,0,0
1992,2180,3974,23,38,26,8475,2.17,-0.08,2.30,2.08,1973,2149,3961,56,68,59,103,0,0
1979,2146,3960,18,27,18,8425,2.17,-0.08,2.12,1.91,1973,2149,3961,56,68,59,103,0,0
1961,2136,3941,9,14,6,8344,2.17,-0.08,2.12,1.91,1973,2148,3961,56,68,59,103,0,0
1957,2129,3937,0,0,-7,8330,2.17,-0.08,2.12,1.91,1973,2148,3960,56,68,59,103,0,0
1954,2127,3934,-10,-13,-17,8325,2.17,-0.08,2.12,1.91,1972,2147,3959,56,68,59,103,99,0
1955,2128,3936,-15,-17,-22,8330,2.17,-0.08,2.12,1.91,1971,2146,3958,56,68,59,103,99,0
1962,2136,3944,-14,-16,-21,8337,2.17,-0.08,2.12,1.91,1971,2146,3958,56,68,59,103,99,0
1968,2142,3951,-11,-13,-16,8363,2.17,-0.08,2.12,1.91,1971,2146,3957,56,68,59,103,99,0
1979,2145,3962,-5,-8,-9,8374,2.17,-0.08,2.12,1.91,1971,2146,3958,56,68,59,103,99,0
1978,2146,3961,0,-3,-3,8378,2.17,-0.08,2.12,1.91,1971,2146,3958,56,68,59,103,99,0
1980,2146,3963,5,-1,1,8378,2.17,-0.08,2.12,1.91,1972,2146,3958,56,68,59,103,99,0
1981,2146,3965,8,0,4,8379,2.17,-0.08,2.12,1.91,1972,2146,3958,56,68,59,103,99,0
1982,2147,3965,8,0,5,8390,2.17,-0.08,2.12,1.91,1972,2146,3958,56,68,59,103,99,0
1982,2149,3964,9,1,6,8401,2.17,-0.08,2.12,1.91,1973,2146,3958,56,68,59,103,99,0
1981,2156,3961,9,3,5,8415,2.17,-0.08,2.12,1.91,1973,2146,3959,56,68,51,103,99,0
1981,2161,3962,8,7,4,8429,2.17,-0.08,2.46,2.20,1973,2147,3959,48,68,51,103,99,0
1983,2166,3966,8,11,4,8443,2.17,-0.08,2.46,2.20,1974,2147,3959,48,68,51,103,99,0
1988,2177,3971,9,18,6,8469,2.17,-0.08,2.46,2.20,1974,2148,3959,48,68,51,103,99,0
1994,2181,3978,12,23,10,8480,2.17,-0.08,2.46,2.20,1975,2149,3960,48,68,51,103,99,0
1996,2185,3983,15,28,14,8492,2.17,-0.08,2.46,2.20,1975,2151,3961,48,68,51,103,99,0
1997,2190,3988,18,33,19,8500,2.17,-0.08,2.46,2.20,1976,2152,3962,48,68,51,103,99,0
1996,2192,3985,20,35,22,8509,2.17,-0.08,2.46,2.20,1977,2153,3962,48,68,51,103,99,0
1994,2196,3986,19,38,23,8519,2.17,-0.08,2.46,2.20,1977,2155,3963,48,68,51,103,99,0
1997,2189,3981,19,37,22,8496,2.17,-0.08,2.46,2.20,1978,2156,3964,48,65,51,101,99,0
1983,2171,3957,15,32,14,8447,2.17,-0.08,2.46,2.20,1978,2156,3964,48,65,51,101,99,0
1977,2154,3954,10,21,6,8398,2.17,-0.08,2.46,2.20,1978,2156,3963,48,65,51,101,99,0
1977,2143,3954,5,8,-2,8362,2.17,-0.08,2.46,2.20,1978,2156,3963,48,65,51,101,99,0
1965,2135,3940,-2,-5,-11,8340,2.17,-0.08,2.46,2.20,1978,2155,3962,48,65,51,101,99,0
1965,2135,3941,-6,-13,-15,8342,2.17,-0.08,2.46,2.20,1977,2154,3961,48,65,51,101,99,0
1971,2138,3946,-8,-17,-16,8350,2.17,-0.08,2.46,2.20,1977,2154,3961,48,65,51,101,99,0
1974,2142,3952,-8,-16,-16,8360,2.17,-0.08,2.46,2.20,1977,2154,3961,48,65,51,101,99,0
1979,2147,3958,-4,-13,-11,8373,2.17,-0.08,2.46,2.20,1977,2153,3961,48,65,51,101,99,0
1978,2151,3957,-1,-9,-7,8388,2.17,-0.08,2.46,2.20,1977,2153,3960,48,65,51,101,99,0
1978,2151,3957,0,-5,-4,8387,2.17,-0.08,2.46,2.20,1977,2153,3960,48,65,51,101,99,0
1979,2151,3957,1,-3,-3,8387,2.17,-0.08,2.46,2.20,1977,2153,3960,48,65,51,101,99,0
1978,2151,3957,1,-2,-3,8389,2.17,-0.08,2.46,2.20,1977,2153,3960,48,65,51,101,99,0
1978,2153,3956,1,-1,-3,8394,2.17,-0.08,2.46,2.20,1977,2153,3960,48,65,51,101,99,0
1975,2160,3949,0,0,-5,8414,2.17,-0.08,2.46,2.20,1977,2153,3960,48,65,51,101,99,0
1976,2164,3952,0,3,-6,8426,2.17,-0.08,2.46,2.20,1977,2154,3959,48,65,51,101,99,0
1980,2168,3954,0,7,-6,8440,2.17,-0.08,2.46,2.20,1977,2154,3959,48,65,51,101,99,0
1985,2174,3959,2,12,-5,8454,2.17,-0.08,2.46,2.20,1977,2155,3959,48,65,51,101,99,0
1991,2180,3966,5,16,-1,8469,2.17,-0.08,2.46,2.20,1978,2156,3959,48,65,51,101,99,0
1997,2188,3976,10,22,4,8491,2.17,-0.08,2.46,2.20,1979,2157,3960,48,65,51,101,99,0
1997,2193,3981,14,27,10,8504,2.17,-0.08,2.46,2.20,1979,2158,3961,48,65,51,101,99,0
1996,2198,3981,16,32,15,8516,2.17,-0.08,2.46,2.20,1980,2159,3961,48,65,51,101,99,0
1997,2198,3981,17,35,18,8518,2.17,-0.08,2.46,2.20,1980,2161,3962,48,65,51,101,99,0
1997,2190,3971,16,35,17,8491,2.17,-0.08,2.46,2.20,1981,2161,3962,48,65,44,101,99,0
1970,2152,3940,9,24,6,8377,2.17,-0.08,2.71,2.18,1981,2161,3962,48,61,44,101,99,0
1966,2136,3934,2,8,-5,8332,2.17,-0.08,2.71,2.18,1980,2160,3961,48,61,44,101,99,0
1959,2128,3923,-7,-8,-19,8305,2.17,-0.08,2.71,2.18,1979,2159,3959,48,61,44,101,99,0
1956,2125,3917,-17,-24,-31,8292,2.17,-0.08,2.71,2.18,1979,2158,3958,48,61,44,101,99,0
1958,2125,3919,-19,-30,-35,8290,2.17,-0.08,2.71,2.18,1978,2157,3957,48,61,44,101,99,0
1957,2128,3919,-20,-31,-37,8301,2.17,-0.08,2.71,2.18,1977,2156,3955,48,61,44,101,99,0
1963,2132,3929,-19,-29,-35,8316,2.17,-0.08,2.71,2.18,1977,2155,3955,48,61,44,101,99,0
1967,2136,3935,-15,-25,-29,8329,2.17,-0.08,2.71,2.18,1976,2155,3954,48,61,44,101,99,0
1967,2139,3935,-13,-21,-24,8335,2.17,-0.08,2.71,2.18,1976,2154,3953,48,61,44,101,99,0
1968,2138,3936,-10,-18,-20,8336,2.17,-0.08,2.71,2.18,1976,2154,3953,48,61,44,101,99,0
1967,2139,3934,-8,-16,-18,8335,2.17,-0.08,2.71,2.18,1975,2153,3952,48,61,44,101,99,0
1967,2141,3933,-8,-14,-17,8344,2.17,-0.08,2.71,2.18,1975,2153,3951,48,61,44,101,99,0
1968,2145,3936,-7,-12,-17,8355,2.17,-0.08,2.71,2.18,1975,2152,3951,48,61,44,101,99,0
1968,2150,3937,-7,-8,-16,8367,2.17,-0.08,2.71,2.18,1975,2152,3950,48,61,44,101,99,0
1970,2154,3939,-6,-4,-14,8378,2.17,-0.08,2.71,2.18,1975,2152,3950,48,61,44,101,99,0
1973,2164,3940,-5,1,-12,8406,2.17,-0.08,2.71,2.18,1975,2153,3950,48,61,44,101,99,0
1979,2166,3944,-2,6,-10,8421,2.17,-0.08,2.71,2.18,1975,2153,3950,48,61,44,101,99,0
1983,2171,3947,1,10,-7,8433,2.17,-0.08,2.71,2.18,1975,2154,3949,48,61,44,101,99,0
1987,2177,3953,5,15,-3,8448,2.17,-0.08,2.71,2.18,1975,2155,3950,48,61,44,101,99,0
1991,2181,3957,9,19,0,8457,2.17,-0.08,2.71,2.18,1976,2155,3950,48,61,44,101,99,0
1986,2174,3948,11,20,1,8439,2.17,-0.08,2.71,2.18,1976,2156,3950,48,61,44,101,99,0
1970,2158,3933,7,17,-2,8385,2.17,-0.08,2.71,2.18,1976,2156,3949,44,59,43,101,99,0
1956,2135,3912,0,6,-11,8312,2.17,-0.08,2.51,2.04,1975,2155,3948,44,59,43,101,99,0
1957,2115,3918,-8,-9,-20,8278,2.17,-0.08,2.51,2.04,1975,2154,3947,44,59,43,101,99,0
1943,2110,3904,-18,-25,-30,8255,2.17,-0.08,2.51,2.04,1974,2153,3946,44,59,43,101,99,0
1940,2105,3901,-25,-37,-37,8242,2.17,-0.08,2.51,2.04,1973,2151,3944,44,59,43,101,99,0
1938,2105,3900,-28,-43,-39,8239,2.17,-0.08,2.51,2.04,1971,2150,3943,44,59,43,101,99,0
1938,2106,3900,-32,-44,-42,8242,2.17,-0.08,2.51,2.04,1970,2148,3941,44,59,43,101,99,0
1942,2110,3905,-31,-42,-40,8253,2.17,-0.08,2.51,2.04,1969,2147,3940,44,59,43,101,99,0
1946,2111,3908,-28,-39,-37,8260,2.17,-0.08,2.51,2.04,1969,2146,3939,44,59,43,101,99,0
1947,2111,3908,-25,-36,-34,8265,2.17,-0.08,2.51,2.04,1968,2144,3938,44,59,43,101,99,0
1945,2111,3906,-23,-34,-31,8264,2.17,-0.08,2.51,2.04,1967,2143,3937,44,59,43,101,99,0
1948,2112,3909,-21,-32,-29,8266,2.17,-0.08,2.51,2.04,1966,2142,3936,44,59,43,101,99,0
1953,2114,3915,-18,-30,-27,8274,2.17,-0.08,2.51,2.04,1966,2141,3935,44,59,43,101,99,0
1960,2118,3921,-14,-28,-23,8280,2.17,-0.08,2.51,2.04,1966,2141,3935,44,59,43,101,99,0
1955,2130,3910,-11,-22,-21,8288,2.17,-0.08,2.51,2.04,1965,2140,3934,44,59,43,101,99,0
1954,2136,3907,-10,-16,-21,8309,2.17,-0.08,2.51,2.04,1965,2140,3933,44,59,43,101,99,0
1957,2142,3915,-8,-8,-20,8331,2.17,-0.08,2.51,2.04,1965,2140,3932,44,59,43,101,99,0
1960,2147,3918,-8,-1,-20,8346,2.17,-0.08,2.51,2.04,1965,2140,3932,44,59,43,101,99,0
1964,2153,3922,-6,4,-16,8362,2.17,-0.08,2.51,2.04,1965,2141,3932,44,59,43,101,99,0
1972,2162,3931,-1,10,-10,8376,2.17,-0.08,2.51,2.04,1965,2142,3931,44,59,43,101,99,0
1973,2165,3932,2,15,-6,8392,2.17,-0.08,2.51,2.04,1965,2142,3932,44,59,43,101,99,0
1969,2159,3925,4,17,-4,8374,2.17,-0.08,2.51,2.04,1965,2143,3931,44,59,43,101,99,0
1957,2141,3906,2,14,-7,8318,2.17,-0.08,2.51,2.04,1965,2143,3930,42,59,42,101,99,0
1955,2116,3910,-1,2,-12,8267,2.17,-0.08,2.58,2.00,1965,2142,3930,42,59,42,101,99,0
1924,2090,3877,-13,-15,-25,8214,2.17,-0.08,2.58,2.00,1963,2140,3928,42,59,42,101,99,0
1921,2085,3874,-24,-32,-36,8177,2.17,-0.08,2.58,2.00,1962,2138,3926,42,59,42,101,99,0
1920,2085,3874,-32,-45,-43,8175,2.17,-0.08,2.58,2.00,1960,2137,3924,42,59,42,101,99,0
1921,2086,3875,-39,-51,-50,8178,2.17,-0.08,2.58,2.00,1959,2135,3923,42,59,42,101,99,0
1922,2087,3876,-38,-50,-48,8182,2.17,-0.08,2.58,2.00,1958,2133,3921,42,59,42,101,99,0
1930,2099,3886,-35,-45,-44,8196,2.17,-0.08,2.58,2.00,1957,2132,3920,42,59,42,101,99,0
1936,2105,3893,-30,-38,-38,8224,2.17,-0.08,2.58,2.00,1956,2131,3919,42,59,42,101,99,0
1938,2106,3894,-25,-32,-32,8227,2.17,-0.08,2.58,2.00,1956,2130,3918,42,59,42,101,99,0
1938,2106,3894,-20,-26,-27,8228,2.17,-0.08,2.58,2.00,1955,2130,3918,42,59,42,101,99,0
1940,2109,3897,-17,-23,-23,8232,2.17,-0.08,2.58,2.00,1955,2129,3917,42,59,42,101,99,0
1949,2112,3906,-13,-21,-19,8240,2.17,-0.08,2.58,2.00,1954,2128,3917,42,59,42,101,99,0
1956,2118,3915,-8,-17,-14,8276,2.17,-0.08,2.58,2.00,1954,2128,3916,42,59,42,101,99,0
1957,2126,3913,-4,-12,-8,8283,2.17,-0.08,2.58,2.00,1955,2128,3916,42,59,42,101,99,0
1952,2136,3903,0,-5,-7,8299,2.17,-0.08,2.58,2.00,1954,2128,3916,42,59,42,101,99,0
1956,2144,3909,0,2,-6,8330,2.17,-0.08,2.58,2.00,1955,2129,3916,42,59,42,101,99,0
1969,2159,3918,3,12,-5,8355,2.17,-0.08,2.58,2.00,1955,2130,3916,42,59,42,101,99,0
1973,2165,3930,7,21,-1,8391,2.17,-0.08,2.58,2.00,1956,2131,3916,42,59,42,101,99,0
1976,2168,3933,13,28,6,8402,2.17,-0.08,2.58,2.00,1956,2132,3917,42,59,42,101,99,0
1979,2170,3934,18,34,12,8411,2.17,-0.08,2.58,2.00,1957,2133,3917,42,59,42,101,99,0
1981,2171,3934,20,35,15,8416,2.17,-0.08,2.58,2.00,1958,2135,3918,42,59,42,101,99,0
1960,2148,3930,16,30,15,8394,2.17,-0.08,2.58,2.00,1958,2135,3918,46,66,42,101,99,0
1955,2122,3909,11,18,9,8276,2.17,-0.08,2.58,2.00,1958,2135,3918,46,66,47,101,99,0
1943,2107,3896,2,2,0,8229,2.17,-0.08,2.58,1.96,1957,2134,3917,46,66,47,101,99,0
1930,2098,3882,-10,-15,-13,8203,2.17,-0.08,2.58,1.96,1956,2133,3916,46,66,47,101,99,0
1928,2095,3880,-17,-27,-24,8197,2.17,-0.08,2.58,1.96,1955,2131,3915,46,66,47,101,99,0
1929,2097,3880,-23,-32,-31,8198,2.17,-0.08,2.58,1.96,1955,2130,3914,46,66,47,101,99,0
1932,2100,3887,-25,-33,-32,8214,2.17,-0.08,2.58,1.96,1954,2129,3913,46,66,47,101,99,0
1938,2105,3895,-22,-30,-28,8230,2.17,-0.08,2.58,1.96,1953,2128,3912,46,66,47,101,99,0
1941,2109,3899,-18,-26,-22,8241,2.17,-0.08,2.58,1.96,1953,2128,3912,46,66,47,101,99,0
1945,2110,3901,-14,-22,-16,8245,2.17,-0.08,2.58,1.96,1953,2127,3911,46,66,47,101,99,0
1943,2110,3903,-11,-19,-12,8243,2.17,-0.08,2.58,1.96,1952,2127,3911,46,66,47,101,99,0
1945,2111,3902,-9,-17,-10,8245,2.17,-0.08,2.58,1.96,1952,2126,3911,46,66,47,101,99,0
1944,2112,3901,-8,-15,-9,8250,2.17,-0.08,2.58,1.96,1952,2126,3911,46,66,47,101,99,0
1952,2113,3908,-6,-14,-7,8263,2.17,-0.08,2.58,1.96,1952,2125,3910,46,66,47,101,99,0
1958,2118,3917,-2,-12,-3,8279,2.17,-0.08,2.58,1.96,1952,2125,3911,46,66,47,101,99,0
1955,2130,3911,0,-7,-1,8283,2.17,-0.08,2.58,1.96,1952,2125,3911,46,66,47,101,99,0
1952,2135,3902,2,-1,-1,8300,2.17,-0.08,2.58,1.96,1952,2125,3910,46,66,47,101,99,0
1955,2141,3907,3,5,-1,8323,2.17,-0.08,2.58,1.96,1952,2126,3910,46,66,47,101,99,0
1958,2146,3914,3,12,-1,8340,2.17,-0.08,2.58,1.96,1952,2127,3910,46,66,47,101,99,0
1962,2152,3918,4,17,0,8356,2.17,-0.08,2.58,1.96,1953,2127,3911,46,66,47,101,99,0
1964,2153,3921,7,21,4,8366,2.17,-0.08,2.58,1.96,1953,2128,3911,46,66,47,101,99,0
1955,2137,3904,7,19,3,8307,2.17,-0.08,2.58,1.96,1953,2129,3911,46,63,45,101,99,0
1950,2113,3905,4,10,1,8255,2.17,-0.08,2.57,2.05,1953,2128,3911,43,63,45,101,99,0
1927,2094,3879,-3,-3,-8,8194,2.17,-0.08,2.57,2.05,1952,2127,3910,43,63,45,101,99,0
1915,2080,3867,-15,-21,-21,8161,2.17,-0.08,2.57,2.05,1951,2125,3908,43,63,45,101,99,0
1912,2077,3865,-25,-35,-30,8151,2.17,-0.08,2.57,2.05,1950,2124,3907,43,63,45,101,99,0
1912,2078,3864,-33,-42,-38,8152,2.17,-0.08,2.57,2.05,1948,2122,3905,43,63,45,101,99,0
1913,2079,3867,-36,-44,-40,8159,2.17,-0.08,2.57,2.05,1947,2121,3904,43,63,45,101,99,0
1917,2081,3869,-34,-42,-38,8167,2.17,-0.08,2.57,2.05,1946,2119,3903,43,63,45,101,99,0
1922,2089,3876,-30,-38,-34,8185,2.17,-0.08,2.57,2.05,1945,2118,3902,43,63,45,101,99,0
1927,2097,3881,-26,-32,-29,8198,2.17,-0.08,2.57,2.05,1945,2118,3901,43,63,45,101,99,0
1928,2098,3881,-21,-26,-25,8202,2.17,-0.08,2.57,2.05,1944,2117,3901,43,63,45,101,99,0
1926,2097,3880,-18,-22,-21,8201,2.17,-0.08,2.57,2.05,1944,2116,3900,43,63,45,101,99,0
1929,2099,3884,-16,-19,-18,8207,2.17,-0.08,2.57,2.05,1943,2116,3899,43,63,45,101,99,0
1932,2102,3889,-14,-17,-16,8218,2.17,-0.08,2.57,2.05,1943,2115,3899,43,63,45,101,99,0
1943,2111,3900,-10,-13,-11,8231,2.17,-0.08,2.57,2.05,1943,2115,3899,43,63,45,101,99,0
1951,2113,3908,-4,-9,-3,8263,2.17,-0.08,2.57,2.05,1943,2115,3899,43,63,45,101,99,0
1957,2121,3916,2,-3,4,8279,2.17,-0.08,2.57,2.05,1944,2115,3900,43,63,45,101,99,0
1957,2126,3914,8,2,10,8283,2.17,-0.08,2.57,2.05,1944,2116,3900,43,63,45,101,99,0
1953,2132,3907,10,7,11,8287,2.17,-0.08,2.57,2.05,1944,2116,3901,43,63,45,101,99,0
1955,2143,3906,11,14,10,8306,2.17,-0.08,2.57,2.05,1945,2117,3901,43,63,46,101,99,0
1956,2144,3910,10,19,8,8332,0.78,-0.08,2.52,1.87,1945,2118,3901,44,63,46,101,99,0
1954,2134,3906,9,20,6,8293,0.78,-0.08,2.52,1.87,1945,2119,3901,44,63,46,101,99,0
1947,2111,3901,8,15,4,8246,0.78,-0.08,2.52,1.87,1945,2118,3901,44,63,46,101,99,0
1920,2087,3870,0,1,-4,8175,0.78,-0.08,2.52,1.87,1945,2117,3900,44,63,46,101,99,0
1902,2064,3854,-13,-18,-17,8110,0.78,-0.08,2.52,1.87,1943,2116,3899,44,63,46,101,99,0
1900,2063,3854,-26,-35,-29,8108,0.78,-0.08,2.52,1.87,1942,2114,3897,44,63,46,101,99,0
1900,2063,3854,-37,-45,-40,8107,0.78,-0.08,2.52,1.87,1940,2112,3896,44,63,46,101,99,0
1901,2063,3855,-40,-49,-42,8110,0.78,-0.08,2.52,1.87,1939,2110,3894,44,63,46,101,99,0
1902,2064,3853,-39,-48,-41,8113,0.78,-0.08,2.52,1.87,1938,2109,3893,44,63,46,101,99,0
1912,2078,3864,-34,-42,-37,8149,0.78,-0.08,2.52,1.87,1937,2108,3892,44,63,46,101,99,0
1913,2081,3866,-30,-37,-33,8157,0.78,-0.08,2.52,1.87,1936,2107,3891,44,63,46,101,99,0
1914,2081,3868,-26,-31,-28,8159,0.78,-0.08,2.52,1.87,1935,2106,3890,44,63,46,101,99,0
1914,2080,3866,-22,-26,-24,8159,0.78,-0.08,2.52,1.87,1935,2105,3890,44,63,46,101,99,0
1914,2080,3866,-21,-25,-23,8161,0.78,-0.08,2.52,1.87,1934,2104,3889,44,63,46,101,99,0
1920,2089,3874,-18,-22,-20,8180,0.78,-0.08,2.52,1.87,1933,2104,3888,44,63,46,101,99,0
1925,2095,3879,-15,-18,-17,8195,0.78,-0.08,2.52,1.87,1933,2104,3888,44,63,46,101,99,0
1930,2100,3883,-11,-12,-12,8211,0.78,-0.08,2.52,1.87,1933,2103,3888,44,63,46,101,99,0
1938,2107,3892,-4,-6,-6,8228,0.78,-0.08,2.52,1.87,1933,2104,3888,44,63,46,101,99,0
1945,2111,3899,1,0,0,8243,0.78,-0.08,2.52,1.87,1934,2104,3888,44,63,46,101,99,0
1956,2120,3913,8,5,8,8278,0.78,-0.08,2.52,1.87,1934,2104,3889,44,63,46,101,99,0
1956,2125,3913,14,11,15,8284,0.78,-0.08,2.52,1.87,1935,2105,3890,44,63,46,101,99,0
1954,2131,3907,18,17,18,8286,0.78,-0.08,2.52,1.87,1936,2106,3890,44,63,46,101,99,0
1951,2135,3898,19,22,17,8293,0.78,-0.08,2.52,1.87,1936,2107,3891,44,63,50,101,99,0
1952,2134,3900,17,24,14,8291,0.78,-0.08,2.33,1.77,1937,2108,3891,48,63,50,101,99,0
1930,2097,3878,10,17,5,8195,0.78,-0.08,2.33,1.77,1937,2107,3891,48,66,50,101,99,0
1908,2074,3854,-1,3,-8,8136,0.78,-0.08,2.33,1.77,1936,2106,3889,48,66,50,101,99,0
1900,2063,3849,-13,-14,-19,8106,0.78,-0.08,2.33,1.77,1934,2105,3888,48,66,50,101,99,0
1896,2061,3844,-26,-31,-32,8096,0.78,-0.08,2.33,1.77,1933,2103,3887,48,66,50,101,99,0
1894,2061,3844,-34,-39,-39,8093,0.78,-0.08,2.33,1.77,1932,2102,3885,48,66,50,101,99,0
1897,2062,3848,-35,-41,-39,8099,0.78,-0.08,2.33,1.77,1931,2101,3884,48,66,50,101,99,0
1900,2063,3851,-34,-39,-38,8109,0.78,-0.08,2.33,1.77,1930,2099,3883,48,66,50,101,99,0
1903,2068,3853,-32,-36,-34,8125,0.78,-0.08,2.33,1.77,1929,2098,3882,48,66,50,101,99,0
1908,2075,3858,-27,-32,-30,8139,0.78,-0.08,2.33,1.77,1928,2098,3881,48,66,50,101,99,0
1910,2077,3860,-23,-27,-26,8144,0.78,-0.08,2.33,1.77,1927,2097,3880,48,66,50,101,99,0
1912,2080,3862,-19,-22,-22,8153,0.78,-0.08,2.33,1.77,1927,2096,3880,48,66,50,101,99,0
1913,2081,3864,-16,-18,-19,8158,0.78,-0.08,2.33,1.77,1926,2096,3879,48,66,50,101,99,0
1916,2082,3867,-13,-16,-16,8164,0.78,-0.08,2.33,1.77,1926,2095,3879,48,66,50,101,99,0
1920,2089,3872,-11,-12,-13,8181,0.78,-0.08,2.33,1.77,1926,2095,3879,48,66,50,101,99,0
1925,2096,3877,-7,-8,-8,8196,0.78,-0.08,2.33,1.77,1926,2095,3878,48,66,50,101,99,0
1939,2109,3892,-1,-1,-1,8233,0.78,-0.08,2.33,1.77,1926,2096,3879,48,66,50,101,99,0
1947,2112,3901,6,6,6,8251,0.78,-0.08,2.33,1.77,1927,2096,3880,48,66,50,101,99,0
1953,2116,3908,14,12,15,8270,0.78,-0.08,2.33,1.77,1928,2097,3881,48,66,50,101,99,0
1956,2122,3912,21,18,22,8283,0.78,-0.08,2.33,1.77,1929,2098,3882,48,66,50,101,99,0
1955,2127,3910,24,21,26,8285,0.78,-0.08,2.33,1.77,1930,2099,3883,48,66,50,101,99,0
1954,2140,3898,25,27,24,8311,0.78,-0.08,2.33,1.77,1930,2100,3883,48,66,53,101,99,0
1955,2144,3903,25,33,22,8325,0.78,-0.08,2.30,1.82,1931,2102,3884,48,66,53,101,99,0
1953,2140,3898,23,36,18,8306,0.78,-0.08,2.30,1.82,1932,2103,3884,51,66,53,101,99,0
1950,2120,3903,21,34,16,8270,0.78,-0.08,2.30,1.82,1933,2103,3885,51,69,53,101,99,0
1932,2098,3880,15,22,11,8201,0.78,-0.08,2.30,1.82,1933,2103,3885,51,69,53,101,99,0
1904,2070,3851,2,4,-1,8124,0.78,-0.08,2.30,1.82,1932,2102,3884,51,69,53,101,99,0
1901,2065,3849,-10,-14,-13,8114,0.78,-0.08,2.30,1.82,1931,2101,3882,51,69,53,101,99,0
1901,2063,3850,-22,-27,-25,8112,0.78,-0.08,2.30,1.82,1930,2100,3881,51,69,53,101,99,0
1902,2065,3850,-28,-34,-31,8115,0.78,-0.08,2.30,1.82,1929,2098,3880,51,69,53,101,99,0
1904,2068,3854,-27,-33,-29,8125,0.78,-0.08,2.30,1.82,1928,2097,3879,51,69,53,101,99,0
1912,2080,3863,-23,-29,-25,8157,0.78,-0.08,2.30,1.82,1927,2097,3879,51,69,53,101,99,0
1916,2081,3866,-19,-23,-20,8166,0.78,-0.08,2.30,1.82,1927,2096,3878,51,69,53,101,99,0
1917,2084,3868,-15,-18,-15,8170,0.78,-0.08,2.30,1.82,1927,2096,3878,51,69,53,101,99,0
1917,2085,3868,-11,-13,-12,8173,0.78,-0.08,2.30,1.82,1926,2096,3878,51,69,53,101,99,0
1919,2087,3870,-9,-11,-10,8177,0.78,-0.08,2.30,1.82,1926,2095,3878,51,69,53,101,99,0
1924,2095,3877,-7,-7,-7,8195,0.78,-0.08,2.30,1.82,1926,2095,3877,51,69,53,101,99,0
1930,2100,3882,-3,-3,-3,8208,0.78,-0.08,2.30,1.82,1926,2095,3878,51,69,53,101,99,0
1935,2106,3890,1,1,2,8226,0.78,-0.08,2.30,1.82,1926,2096,3878,51,69,53,101,99,0
1943,2110,3897,6,7,8,8242,0.78,-0.08,2.30,1.82,1927,2096,3879,51,69,53,101,99,0
1950,2114,3905,12,11,14,8262,0.78,-0.08,2.30,1.82,1928,2097,3880,51,69,53,101,99,0
1955,2127,3910,18,17,21,8285,0.78,-0.08,2.30,1.82,1929,2098,3881,51,69,53,101,99,0
1952,2133,3903,21,23,23,8289,0.78,-0.08,2.30,1.82,1929,2099,3881,51,69,53,101,99,0
1953,2139,3895,23,29,22,8303,0.78,-0.08,2.30,1.82,1930,2100,3882,51,69,54,101,99,0
1954,2143,3904,23,35,21,8325,0.78,-0.08,2.36,1.90,1931,2102,3882,51,69,54,101,99,0
1957,2148,3908,23,39,20,8341,0.78,-0.08,2.36,1.90,1932,2103,3883,51,69,54,101,99,0
1953,2142,3899,22,40,18,8318,0.78,-0.08,2.36,1.90,1933,2105,3884,51,69,54,101,99,0
1951,2120,3903,21,34,20,8272,0.78,-0.08,2.36,1.90,1933,2105,3885,51,70,54,99,99,0
1931,2100,3881,15,23,13,8208,0.78,-0.08,2.36,1.90,1933,2105,3884,51,70,54,99,99,0
1916,2084,3864,4,6,2,8166,0.78,-0.08,2.36,1.90,1933,2104,3884,51,70,54,99,99,0
1912,2079,3860,-5,-8,-7,8151,0.78,-0.08,2.36,1.90,1932,2103,3883,51,70,54,99,99,0
1910,2079,3860,-15,-18,-17,8151,0.78,-0.08,2.36,1.90,1931,2103,3882,51,70,54,99,99,0
1911,2080,3862,-19,-22,-21,8155,0.78,-0.08,2.36,1.90,1930,2102,3881,51,70,54,99,99,0
1914,2080,3864,-19,-22,-20,8163,0.78,-0.08,2.36,1.90,1930,2101,3881,51,70,54,99,99,0
1918,2088,3870,-17,-20,-17,8179,0.78,-0.08,2.36,1.90,1930,2101,3881,51,70,54,99,99,0
1923,2095,3875,-13,-15,-13,8196,0.78,-0.08,2.36,1.90,1929,2101,3880,51,70,54,99,99,0
1926,2099,3877,-9,-10,-9,8205,0.78,-0.08,2.36,1.90,1929,2100,3880,51,70,54,99,99,0
1925,2100,3878,-6,-5,-5,8206,0.78,-0.08,2.36,1.90,1929,2100,3880,51,70,54,99,99,0
1927,2100,3880,-3,-1,-2,8210,0.78,-0.08,2.36,1.90,1929,2100,3880,51,70,54,99,99,0
1931,2102,3884,-1,0,0,8217,0.78,-0.08,2.36,1.90,1929,2101,3880,51,70,54,99,99,0
1937,2109,3892,1,2,3,8233,0.78,-0.08,2.36,1.90,1929,2101,3881,51,70,54,99,99,0
1951,2114,3906,7,5,9,8245,0.78,-0.08,2.36,1.90,1930,2101,3882,51,70,54,99,99,0
1956,2121,3914,14,10,17,8281,0.78,-0.08,2.36,1.90,1931,2102,3883,51,70,54,99,99,0
1955,2127,3910,19,16,23,8285,0.78,-0.08,2.36,1.90,1932,2103,3884,51,70,54,99,99,0
1952,2134,3903,22,21,25,8289,0.78,-0.08,2.36,1.90,1932,2104,3884,51,70,54,99,99,0
1952,2140,3900,21,27,22,8311,0.78,-0.08,2.36,1.90,1933,2105,3885,48,70,52,99,99,0
1957,2150,3911,21,33,21,8330,0.78,-0.08,2.48,1.86,1934,2106,3886,48,70,52,99,99,0
1963,2155,3916,22,39,22,8362,0.78,-0.08,2.48,1.86,1935,2108,3887,48,70,52,99,99,0
1966,2159,3919,25,43,25,8372,0.78,-0.08,2.48,1.86,1936,2110,3888,48,70,52,99,99,0
1963,2155,3914,26,46,27,8360,0.78,-0.08,2.48,1.86,1937,2111,3888,48,70,52,99,99,0
1953,2137,3902,25,41,24,8304,0.78,-0.08,2.48,1.86,1937,2112,3889,43,69,52,99,99,0
1925,2096,3901,15,25,20,8254,0.78,-0.08,2.48,1.86,1937,2112,3889,43,69,52,99,99,0
1915,2082,3864,2,6,6,8165,0.78,-0.08,2.48,1.86,1936,2111,3889,43,69,52,99,99,0
1914,2081,3862,-9,-12,-6,8160,0.78,-0.08,2.48,1.86,1935,2110,3888,43,69,52,99,99,0
1913,2081,3863,-19,-25,-15,8160,0.78,-0.08,2.48,1.86,1935,2109,3887,43,69,52,99,99,0
1914,2080,3863,-21,-28,-24,8161,0.78,-0.08,2.48,1.86,1934,2108,3886,43,69,52,99,99,0
1919,2082,3866,-19,-27,-23,8166,0.78,-0.08,2.48,1.86,1933,2107,3885,43,69,52,99,99,0
1924,2097,3876,-16,-22,-18,8199,0.78,-0.08,2.48,1.86,1933,2106,3885,43,69,52,99,99,0
1927,2100,3880,-12,-17,-14,8209,0.78,-0.08,2.48,1.86,1933,2106,3885,43,69,52,99,99,0
1929,2102,3882,-8,-11,-9,8216,0.78,-0.08,2.48,1.86,1933,2106,3885,43,69,52,99,99,0
1931,2103,3884,-5,-5,-4,8217,0.78,-0.08,2.48,1.86,1933,2106,3885,43,69,52,99,99,0
1930,2104,3884,-3,-3,-2,8219,0.78,-0.08,2.48,1.86,1933,2106,3885,43,69,52,99,99,0
1938,2111,3893,-1,-1,0,8238,0.78,-0.08,2.48,1.86,1933,2106,3885,43,69,52,99,99,0
1944,2115,3899,2,2,5,8252,0.78,-0.08,2.48,1.86,1933,2106,3885,43,69,52,99,99,0
1952,2120,3908,7,6,10,8272,0.78,-0.08,2.48,1.86,1934,2107,3886,43,69,52,99,99,0
1956,2125,3913,13,11,17,8284,0.78,-0.08,2.48,1.86,1935,2108,3887,43,69,52,99,99,0
1954,2133,3908,17,16,20,8286,0.78,-0.08,2.48,1.86,1935,2108,3888,43,69,52,99,99,0
1953,2145,3906,18,22,21,8324,0.78,-0.08,2.48,1.86,1936,2110,3888,43,69,52,99,99,0
1956,2149,3912,19,28,21,8341,0.78,-0.08,2.48,1.86,1936,2111,3889,43,69,52,99,99,0
1959,2155,3913,19,35,21,8357,0.78,-0.08,2.48,1.86,1937,2112,3890,43,69,52,99,99,0
1964,2160,3918,21,40,22,8371,0.78,-0.08,2.48,1.86,1938,2114,3891,43,69,52,99,99,0
1969,2165,3924,24,44,26,8385,0.78,-0.08,2.48,1.86,1939,2116,3892,43,69,52,99,99,0
1970,2169,3925,27,47,28,8393,0.78,-0.08,2.48,1.86,1940,2117,3893,43,69,52,99,99,0
1958,2153,3908,25,45,26,8349,0.78,-0.08,2.48,1.86,1941,2119,3894,44,71,52,91,99,0
1953,2129,3905,22,36,22,8285,0.78,-0.08,2.51,1.70,1941,2119,3894,44,71,52,91,99,0
1936,2109,3887,13,21,12,8230,0.78,-0.08,2.51,1.70,1941,2119,3894,44,71,52,91,99,0
1923,2098,3872,1,3,0,8195,0.78,-0.08,2.51,1.70,1940,2118,3893,44,71,52,91,99,0
1916,2089,3867,-8,-12,-10,8177,0.78,-0.08,2.51,1.70,1940,2117,3892,44,71,52,91,99,0
1917,2089,3868,-17,-21,-19,8177,0.78,-0.08,2.51,1.70,1939,2116,3891,44,71,52,91,99,0
1918,2091,3870,-20,-24,-22,8182,0.78,-0.08,2.51,1.70,1938,2115,3891,44,71,52,91,99,0
1922,2097,3874,-20,-24,-21,8191,0.78,-0.08,2.51,1.70,1938,2115,3890,44,71,52,91,99,0
1927,2101,3879,-17,-20,-17,8208,0.78,-0.08,2.51,1.70,1937,2114,3890,44,71,52,91,99,0
1933,2109,3887,-12,-15,-12,8227,0.78,-0.08,2.51,1.70,1937,2114,3890,44,71,52,91,99,0
1935,2111,3889,-8,-9,-7,8230,0.78,-0.08,2.51,1.70,1937,2114,3890,44,71,52,91,99,0
1935,2110,3889,-4,-6,-4,8231,0.78,-0.08,2.51,1.70,1937,2114,3890,44,71,52,91,99,0
1937,2112,3892,-2,-3,0,8236,0.78,-0.08,2.51,1.70,1937,2114,3890,44,71,52,91,99,0
1945,2113,3898,1,-2,2,8247,0.78,-0.08,2.51,1.70,1937,2114,3890,44,71,52,91,99,0
1954,2122,3910,5,0,7,8279,0.78,-0.08,2.51,1.70,1938,2114,3891,44,71,52,91,99,0
1955,2129,3911,10,5,12,8284,0.78,-0.08,2.51,1.70,1938,2114,3891,44,71,52,91,99,0
1952,2135,3904,13,10,14,8288,0.78,-0.08,2.51,1.70,1939,2115,3892,44,71,52,91,99,0
1951,2142,3896,14,17,13,8309,0.78,-0.08,2.51,1.70,1939,2116,3892,44,71,48,91,99,0
1954,2148,3907,14,23,12,8334,0.78,-0.08,2.72,1.84,1940,2117,3892,44,71,48,91,99,0
1963,2160,3916,15,29,13,8367,0.78,-0.08,2.72,1.84,1941,2118,3893,44,71,48,91,99,0
1967,2165,3921,18,36,17,8383,0.78,-0.08,2.72,1.84,1941,2120,3894,44,71,48,91,99,0
1971,2170,3925,22,41,23,8395,0.78,-0.08,2.72,1.84,1942,2122,3895,44,71,48,91,99,0
1974,2174,3928,27,46,28,8409,0.78,-0.08,2.72,1.84,1943,2123,3896,44,71,48,91,99,0
1978,2176,3930,29,48,30,8419,0.78,-0.08,2.72,1.84,1945,2125,3897,44,71,48,91,99,0
1975,2174,3926,30,49,30,8407,0.78,-0.08,2.72,1.84,1946,2127,3898,44,71,48,90,99,0
1959,2154,3906,26,43,25,8346,0.78,-0.08,2.72,1.84,1946,2128,3899,45,71,48,90,99,0
1951,2127,3902,20,30,17,8282,0.78,-0.08,2.72,1.84,1946,2128,3899,45,71,48,90,99,0
1944,2112,3894,11,14,8,8236,0.78,-0.08,2.72,1.84,1946,2127,3898,45,71,48,90,99,0
1927,2102,3876,0,-3,-4,8208,0.78,-0.08,2.72,1.84,1946,2126,3898,45,71,48,90,99,0
1924,2100,3873,-9,-16,-11,8200,0.78,-0.08,2.72,1.84,1945,2125,3897,45,71,48,90,99,0
1925,2101,3875,-15,-22,-17,8204,0.78,-0.08,2.72,1.84,1944,2125,3896,45,71,48,90,99,0
1926,2102,3876,-19,-23,-21,8209,0.78,-0.08,2.72,1.84,1944,2124,3895,45,71,48,90,99,0
1935,2108,3887,-16,-21,-18,8226,0.78,-0.08,2.72,1.84,1943,2123,3895,45,71,48,90,99,0
1941,2113,3893,-11,-17,-12,8240,0.78,-0.08,2.72,1.84,1943,2123,3895,45,71,48,90,99,0
1949,2115,3900,-5,-13,-6,8255,0.78,-0.08,2.72,1.84,1943,2123,3895,45,71,48,90,99,0
1949,2115,3901,0,-10,0,8255,0.78,-0.08,2.72,1.84,1944,2123,3896,45,71,48,90,99,0
1948,2116,3899,3,-8,2,8259,0.78,-0.08,2.72,1.84,1944,2122,3896,45,71,48,90,99,0
1949,2119,3901,5,-6,4,8267,0.78,-0.08,2.72,1.84,1944,2122,3896,45,71,48,90,99,0
1953,2124,3906,5,-3,5,8280,0.78,-0.08,2.72,1.84,1944,2122,3896,45,71,48,90,99,0
1951,2135,3902,6,1,6,8289,0.78,-0.08,2.72,1.84,1944,2123,3896,45,71,48,90,99,0
1953,2144,3894,7,8,4,8299,0.78,-0.08,2.72,1.84,1945,2123,3896,45,71,42,90,99,0
1956,2150,3901,8,15,4,8324,0.78,-0.08,3.10,2.15,1945,2124,3896,45,71,42,90,99,0
1961,2157,3909,10,22,5,8344,0.78,-0.08,3.10,2.15,1946,2125,3897,45,71,42,90,99,0
1967,2163,3915,13,28,8,8361,0.78,-0.08,3.10,2.15,1946,2127,3897,45,71,42,90,99,0
1975,2173,3925,18,34,15,8377,0.78,-0.08,3.10,2.15,1947,2128,3898,45,71,42,90,99,0
1979,2176,3927,23,39,21,8405,0.78,-0.08,3.10,2.15,1948,2130,3899,45,71,42,90,99,0
1983,2180,3930,28,44,25,8419,0.78,-0.08,3.10,2.15,1950,2131,3900,45,71,42,90,99,0
1987,2185,3935,32,48,29,8432,0.78,-0.08,3.10,2.15,1951,2133,3902,45,71,42,90,99,0
1992,2190,3939,35,50,31,8445,0.78,-0.08,3.10,2.15,1952,2135,3903,45,71,42,90,99,0
1992,2191,3938,37,52,33,8458,0.78,-0.08,3.10,2.15,1953,2137,3904,45,71,42,89,99,0
1978,2176,3923,34,49,30,8396,0.78,-0.08,3.10,2.15,1954,2138,3905,48,72,40,89,99,0
1959,2151,3898,27,39,20,8319,0.78,-0.08,3.29,2.40,1954,2139,3904,48,72,40,89,99,0
1947,2129,3894,15,23,9,8274,0.78,-0.08,3.29,2.40,1954,2138,3904,48,72,40,89,99,0
1946,2117,3893,3,5,-2,8240,0.78,-0.08,3.29,2.40,1954,2138,3904,48,72,40,89,99,0
1946,2115,3893,-4,-10,-9,8232,0.78,-0.08,3.29,2.40,1954,2137,3903,48,72,40,89,99,0
1947,2115,3894,-7,-18,-10,8234,0.78,-0.08,3.29,2.40,1953,2136,3903,48,72,40,89,99,0
1947,2117,3893,-7,-20,-10,8240,0.78,-0.08,3.29,2.40,1953,2136,3903,48,72,40,89,99,0
1947,2119,3894,-6,-19,-9,8251,0.78,-0.08,3.29,2.40,1953,2135,3902,48,72,40,89,99,0
1947,2126,3894,-6,-16,-8,8268,0.78,-0.08,3.29,2.40,1953,2135,3902,48,72,40,89,99,0
1953,2133,3901,-4,-11,-6,8282,0.78,-0.08,3.29,2.40,1953,2135,3902,48,72,40,89,99,0
1952,2133,3904,-3,-7,-3,8287,0.78,-0.08,3.29,2.40,1953,2135,3902,48,72,40,89,99,0
1952,2134,3905,-2,-3,-1,8287,0.78,-0.08,3.29,2.40,1953,2135,3902,48,72,40,89,99,0
1952,2137,3905,0,0,1,8288,0.78,-0.08,3.29,2.40,1953,2135,3902,48,72,40,89,99,0
1951,2140,3902,-1,1,2,8289,0.78,-0.08,3.29,2.40,1953,2135,3902,48,72,40,89,99,0
1952,2144,3891,-1,3,-1,8295,0.78,-0.08,3.29,2.40,1953,2135,3902,48,72,40,89,99,0
1961,2156,3904,1,9,-1,8337,0.78,-0.08,3.29,2.40,1953,2136,3902,48,72,40,89,99,0
1966,2161,3911,4,14,0,8353,0.78,-0.08,3.29,2.40,1953,2137,3902,48,72,40,89,99,0
1970,2168,3916,9,20,3,8372,0.78,-0.08,3.29,2.40,1954,2138,3903,48,72,40,89,99,0
1975,2174,3923,14,27,11,8391,0.78,-0.08,3.29,2.40,1955,2139,3903,48,72,40,89,99,0
1981,2178,3925,18,31,15,8407,0.78,-0.08,3.29,2.40,1955,2140,3904,48,72,40,89,99,0
1989,2188,3934,23,37,20,8436,0.78,-0.08,3.29,2.40,1957,2142,3905,48,72,40,89,99,0
1993,2193,3939,28,42,25,8450,0.78,-0.08,3.29,2.40,1958,2143,3906,48,72,40,89,99,0
1998,2198,3944,33,46,29,8464,0.78,-0.08,3.29,2.40,1959,2145,3908,48,72,40,89,99,0
2000,2202,3947,36,51,34,8474,0.78,-0.08,3.29,2.40,1961,2147,3909,48,72,40,89,99,0
2000,2207,3950,37,54,36,8483,0.78,-0.08,3.29,2.40,1962,2149,3910,48,72,40,88,99,0
1997,2197,3938,37,53,35,8457,0.78,-0.08,3.29,2.40,1963,2151,3911,48,73,39,88,99,0
1977,2176,3916,31,45,27,8391,0.78,-0.08,3.40,2.45,1963,2152,3911,45,73,39,88,99,0
1958,2151,3892,20,31,13,8315,0.78,-0.08,3.40,2.45,1963,2152,3911,45,73,39,88,99,0
1947,2134,3891,6,13,-1,8284,0.78,-0.08,3.40,2.45,1963,2151,3910,45,73,39,88,99,0
1942,2128,3885,-6,-4,-14,8266,0.78,-0.08,3.40,2.45,1962,2150,3909,45,73,39,88,99,0
1942,2128,3885,-15,-15,-21,8269,0.78,-0.08,3.40,2.45,1961,2149,3908,45,73,39,88,99,0
1945,2131,3890,-17,-19,-21,8277,0.78,-0.08,3.40,2.45,1961,2149,3908,45,73,39,88,99,0
1946,2135,3892,-17,-18,-20,8287,0.78,-0.08,3.40,2.45,1960,2148,3907,45,73,39,88,99,0
1949,2140,3897,-15,-15,-16,8291,0.78,-0.08,3.40,2.45,1960,2148,3907,45,73,39,88,99,0
1953,2144,3886,-12,-10,-15,8297,0.78,-0.08,3.40,2.45,1960,2148,3906,45,73,39,88,99,0
1956,2148,3887,-9,-6,-16,8308,0.78,-0.08,3.40,2.45,1960,2148,3906,45,73,39,88,99,0
1957,2148,3886,-6,-3,-17,8306,0.78,-0.08,3.40,2.45,1960,2148,3905,45,73,39,88,99,0
1956,2149,3887,-4,0,-18,8308,0.78,-0.08,3.40,2.45,1959,2148,3904,45,73,39,88,99,0
1959,2152,3894,-2,1,-16,8321,0.78,-0.08,3.40,2.45,1959,2148,3904,45,73,39,88,99,0
1962,2156,3901,0,3,-12,8334,0.78,-0.08,3.40,2.45,1959,2148,3904,45,73,39,88,99,0
1970,2167,3911,2,7,-5,8366,0.78,-0.08,3.40,2.45,1960,2149,3904,45,73,39,88,99,0
1974,2173,3917,6,13,1,8382,0.78,-0.08,3.40,2.45,1960,2150,3905,45,73,39,88,99,0
1979,2178,3921,11,19,8,8400,0.78,-0.08,3.40,2.45,1961,2151,3905,45,73,39,88,99,0
1984,2182,3925,16,24,13,8416,0.78,-0.08,3.40,2.45,1962,2152,3906,45,73,39,88,99,0
1989,2187,3930,20,28,17,8432,0.78,-0.08,3.40,2.45,1963,2153,3907,45,73,39,88,99,0
1998,2200,3935,25,34,21,8448,0.78,-0.08,3.40,2.45,1964,2155,3908,45,73,39,88,99,0
2000,2204,3944,29,39,26,8473,0.78,-0.08,3.40,2.45,1965,2156,3909,45,73,39,88,99,0
2000,2208,3946,32,44,30,8483,0.78,-0.08,3.40,2.45,1966,2158,3910,45,73,39,88,99,0
2001,2212,3949,34,48,34,8493,0.78,-0.08,3.40,2.45,1967,2160,3911,45,73,39,88,99,0
2005,2216,3952,34,51,37,8505,0.78,-0.08,3.40,2.45,1969,2162,3913,45,73,39,88,99,0
2002,2213,3956,34,51,38,8514,0.78,-0.08,3.40,2.45,1970,2163,3914,45,73,39,87,99,0
1993,2193,3929,31,46,33,8439,0.78,-0.08,3.40,2.45,1970,2164,3915,47,72,43,87,99,0
1973,2169,3907,23,34,22,8367,0.86,-0.08,3.03,2.17,1971,2164,3914,47,72,43,87,99,0
1957,2150,3884,11,17,5,8307,0.86,-0.08,3.03,2.17,1970,2164,3913,47,72,43,87,99,0
1947,2142,3892,-2,0,-10,8293,0.86,-0.08,3.03,2.17,1969,2163,3913,47,72,43,87,99,0
1948,2140,3891,-13,-13,-19,8292,0.86,-0.08,3.03,2.17,1969,2163,3912,47,72,43,87,99,0
1948,2143,3893,-19,-19,-22,8294,0.86,-0.08,3.03,2.17,1968,2162,3911,47,72,43,87,99,0
1953,2146,3885,-19,-19,-21,8297,0.86,-0.08,3.03,2.17,1967,2161,3910,47,72,43,87,99,0
1959,2151,3888,-15,-16,-21,8313,0.86,-0.08,3.03,2.17,1967,2161,3910,47,72,43,87,99,0
1963,2157,3897,-11,-12,-19,8333,0.86,-0.08,3.03,2.17,1967,2161,3909,47,72,43,87,99,0
1967,2161,3900,-6,-7,-17,8344,0.86,-0.08,3.03,2.17,1967,2161,3909,47,72,43,87,99,0
1966,2160,3900,-3,-3,-13,8345,0.86,-0.08,3.03,2.17,1967,2161,3909,47,72,43,87,99,0
1967,2161,3900,-1,-1,-9,8346,0.86,-0.08,3.03,2.17,1967,2161,3908,47,72,43,87,99,0
1968,2162,3901,0,0,-8,8351,0.86,-0.08,3.03,2.17,1967,2161,3908,47,72,43,87,99,0
1969,2165,3905,0,1,-6,8360,0.86,-0.08,3.03,2.17,1967,2161,3908,47,72,43,87,99,0
1977,2170,3909,3,3,-4,8374,0.86,-0.08,3.03,2.17,1967,2161,3908,47,72,43,87,99,0
1982,2181,3919,6,8,0,8406,0.86,-0.08,3.03,2.17,1968,2162,3908,47,72,43,87,99,0
1987,2186,3924,11,13,6,8423,0.86,-0.08,3.03,2.17,1969,2163,3909,47,72,43,87,99,0
1992,2191,3928,16,19,11,8438,0.86,-0.08,3.03,2.17,1969,2164,3910,47,72,43,87,99,0
1998,2197,3934,20,25,17,8455,0.86,-0.08,3.03,2.17,1970,2165,3910,47,72,43,87,99,0
2001,2203,3938,24,29,21,8467,0.86,-0.08,3.03,2.17,1971,2166,3911,47,72,43,87,99,0
2001,2211,3944,27,34,25,8486,0.86,-0.08,3.03,2.17,1972,2168,3912,47,72,43,87,99,0
2005,2216,3948,29,39,29,8499,0.86,-0.08,3.03,2.17,1973,2169,3914,47,72,43,87,99,0
2009,2220,3952,31,44,32,8514,0.86,-0.08,3.03,2.17,1975,2171,3915,47,72,43,87,99,0
2012,2224,3957,32,47,36,8525,0.86,-0.08,3.03,2.17,1976,2173,3916,47,72,43,87,99,0
2010,2222,3952,33,48,36,8516,0.86,-0.08,3.03,2.17,1977,2174,3917,47,72,43,87,99,0
1985,2183,3915,27,39,27,8403,0.86,-0.08,3.03,2.17,1977,2175,3917,48,71,47,87,99,0
1967,2161,3892,16,23,12,8337,0.86,-0.08,2.72,2.02,1977,2174,3917,48,71,47,87,99,0
1955,2148,3881,2,4,-6,8299,0.86,-0.08,2.72,2.02,1976,2173,3915,48,71,47,87,99,0
1948,2145,3887,-12,-14,-22,8296,0.86,-0.08,2.72,2.02,1975,2172,3914,48,71,47,87,99,0
1954,2145,3886,-19,-22,-28,8297,0.86,-0.08,2.72,2.02,1975,2171,3913,48,71,47,87,99,0
1958,2150,3879,-21,-24,-30,8303,0.86,-0.08,2.72,2.02,1974,2171,3912,48,71,47,87,99,0
1962,2155,3884,-19,-22,-28,8317,0.86,-0.08,2.72,2.02,1974,2170,3911,48,71,47,87,99,0
1966,2160,3894,-14,-18,-26,8339,0.86,-0.08,2.72,2.02,1973,2170,3911,48,71,47,87,99,0
1969,2164,3899,-9,-13,-22,8350,0.86,-0.08,2.72,2.02,1973,2170,3910,48,71,47,87,99,0
1969,2165,3899,-6,-8,-16,8353,0.86,-0.08,2.72,2.02,1973,2169,3910,48,71,47,87,99,0
1969,2164,3897,-4,-6,-13,8349,0.86,-0.08,2.72,2.02,1973,2169,3910,48,71,47,87,99,0
1970,2165,3898,-3,-4,-11,8350,0.86,-0.08,2.72,2.02,1973,2169,3909,48,71,47,87,99,0
1971,2168,3900,-3,-3,-11,8359,0.86,-0.08,2.72,2.02,1973,2169,3909,48,71,47,87,99,0
1974,2172,3904,-2,-1,-9,8370,0.86,-0.08,2.72,2.02,1973,2169,3909,48,71,47,87,99,0
1978,2177,3908,0,1,-6,8383,0.86,-0.08,2.72,2.02,1973,2169,3909,48,71,47,87,99,0
1987,2186,3916,4,6,-2,8414,0.86,-0.08,2.72,2.02,1973,2170,3909,48,71,47,87,99,0
1991,2191,3921,9,11,3,8429,0.86,-0.08,2.72,2.02,1974,2171,3909,48,71,47,87,99,0
1996,2196,3926,14,17,8,8445,0.86,-0.08,2.72,2.02,1975,2172,3910,48,71,47,87,99,0
2002,2202,3931,19,22,13,8459,0.86,-0.08,2.72,2.02,1976,2173,3911,48,71,47,87,99,0
2002,2206,3935,22,26,18,8470,0.86,-0.08,2.72,2.02,1977,2174,3911,48,71,47,87,99,0
2003,2214,3941,24,31,22,8488,0.86,-0.08,2.72,2.02,1977,2175,3912,48,71,47,87,99,0
2006,2218,3943,26,35,25,8499,0.86,-0.08,2.72,2.02,1978,2176,3913,48,71,47,87,99,0
2004,2215,3939,26,37,27,8487,0.86,-0.08,2.72,2.02,1979,2178,3914,48,71,47,87,99,0
1998,2198,3923,24,34,23,8445,0.86,-0.08,2.72,2.02,1980,2178,3915,48,68,50,87,99,0
1977,2175,3902,17,24,12,8372,0.86,-0.08,2.44,1.90,1980,2178,3914,48,68,50,87,99,0
1952,2143,3879,3,5,-3,8290,0.86,-0.08,2.44,1.90,1979,2177,3913,48,68,50,87,99,0
1953,2141,3878,-9,-13,-18,8286,0.86,-0.08,2.44,1.90,1978,2176,3912,48,68,50,87,99,0
1953,2142,3879,-19,-26,-28,8287,0.86,-0.08,2.44,1.90,1977,2175,3911,48,68,50,87,99,0
1950,2145,3880,-25,-32,-32,8290,0.86,-0.08,2.44,1.90,1976,2174,3910,48,68,50,87,99,0
1952,2148,3881,-24,-30,-31,8298,0.86,-0.08,2.44,1.90,1975,2173,3909,48,68,50,87,99,0
1965,2159,3884,-20,-25,-28,8325,0.86,-0.08,2.44,1.90,1975,2172,3908,48,68,50,87,99,0
1967,2162,3889,-16,-19,-25,8335,0.86,-0.08,2.44,1.90,1975,2172,3907,48,68,50,87,99,0
1967,2162,3888,-12,-14,-22,8335,0.86,-0.08,2.44,1.90,1975,2172,3907,48,68,50,87,99,0
1967,2161,3886,-8,-10,-20,8331,0.86,-0.08,2.44,1.90,1974,2171,3906,48,68,50,87,99,0
1966,2161,3885,-7,-10,-19,8329,0.86,-0.08,2.44,1.90,1974,2171,3905,48,68,50,87,99,0
1970,2165,3891,-6,-9,-18,8334,0.86,-0.08,2.44,1.90,1974,2171,3905,48,68,50,87,99,0
1972,2169,3895,-5,-7,-15,8356,0.86,-0.08,2.44,1.90,1974,2171,3904,48,68,50,87,99,0
1976,2175,3899,-3,-3,-12,8370,0.86,-0.08,2.44,1.90,1974,2171,3904,48,68,50,87,99,0
1981,2180,3905,0,1,-6,8387,0.86,-0.08,2.44,1.90,1974,2171,3904,48,68,50,87,99,0
1986,2187,3910,4,6,-2,8405,0.86,-0.08,2.44,1.90,1975,2172,3905,48,68,50,87,99,0
1994,2189,3913,9,11,2,8419,0.86,-0.08,2.44,1.90,1975,2172,3905,48,68,50,87,99,0
2000,2200,3922,15,17,7,8449,0.86,-0.08,2.44,1.90,1976,2173,3905,48,68,50,87,99,0
2003,2205,3926,20,22,12,8460,0.86,-0.08,2.44,1.90,1977,2174,3906,48,68,50,87,99,0
2002,2208,3930,23,26,17,8468,0.86,-0.08,2.44,1.90,1978,2176,3907,48,68,50,87,99,0
2001,2212,3931,24,31,20,8476,0.86,-0.08,2.44,1.90,1978,2177,3908,48,68,50,87,99,0
2002,2207,3927,24,31,21,8466,0.86,-0.08,2.44,1.90,1979,2178,3908,48,68,50,87,99,0
1969,2165,3881,15,21,9,8334,0.86,-0.08,2.44,1.90,1979,2177,3907,48,67,50,87,99,0
1952,2144,3871,2,5,-4,8285,0.86,-0.08,2.40,1.90,1978,2176,3906,48,67,50,87,99,0
1946,2132,3862,-11,-14,-21,8256,0.86,-0.08,2.40,1.90,1977,2175,3905,48,67,50,87,99,0
1943,2129,3859,-25,-32,-37,8247,0.86,-0.08,2.40,1.90,1976,2173,3903,48,67,50,87,99,0
1943,2129,3860,-30,-40,-41,8249,0.86,-0.08,2.40,1.90,1975,2172,3902,48,67,50,87,99,0
1948,2134,3864,-30,-41,-41,8261,0.86,-0.08,2.40,1.90,1974,2170,3900,48,67,50,87,99,0
1952,2140,3869,-28,-38,-38,8278,0.86,-0.08,2.40,1.90,1973,2169,3899,48,67,50,87,99,0
1951,2147,3874,-25,-32,-33,8289,0.86,-0.08,2.40,1.90,1972,2169,3899,48,67,50,87,99,0
1954,2150,3877,-21,-26,-28,8301,0.86,-0.08,2.40,1.90,1972,2168,3898,48,67,50,87,99,0
1955,2151,3878,-19,-21,-23,8301,0.86,-0.08,2.40,1.90,1971,2168,3897,48,67,50,87,99,0
1952,2150,3875,-18,-18,-21,8297,0.86,-0.08,2.40,1.90,1971,2167,3896,48,67,50,87,99,0
1955,2151,3876,-17,-16,-20,8301,0.86,-0.08,2.40,1.90,1970,2166,3896,48,67,50,87,99,0
1960,2154,3873,-15,-15,-20,8304,0.86,-0.08,2.40,1.90,1970,2166,3895,48,67,50,87,99,0
1964,2159,3870,-12,-12,-21,8307,0.86,-0.08,2.40,1.90,1970,2166,3894,48,67,43,87,99,0
1967,2164,3879,-8,-9,-20,8327,0.86,-0.08,2.80,2.21,1969,2166,3894,48,67,43,87,99,0
1976,2174,3892,-3,-3,-15,8363,0.86,-0.08,2.80,2.21,1970,2166,3894,48,67,43,87,99,0
1980,2180,3898,2,3,-9,8378,0.86,-0.08,2.80,2.21,1970,2166,3894,48,67,43,87,99,0
1984,2187,3904,7,10,0,8394,0.86,-0.08,2.80,2.21,1970,2167,3894,48,67,43,87,99,0
1989,2190,3906,12,16,5,8406,0.86,-0.08,2.80,2.21,1971,2168,3895,48,67,43,87,99,0
1992,2191,3908,15,19,9,8419,0.86,-0.08,2.80,2.21,1972,2169,3895,48,67,43,87,99,0
2000,2201,3916,19,23,13,8443,0.86,-0.08,2.80,2.21,1973,2170,3896,48,67,43,87,99,0
1998,2199,3914,22,25,15,8436,0.86,-0.08,2.80,2.21,1974,2171,3896,48,67,43,87,99,0
1984,2185,3898,20,23,13,8388,0.86,-0.08,2.80,2.21,1974,2171,3896,49,67,43,87,99,0
1963,2160,3871,12,15,4,8309,0.86,-0.08,2.80,2.21,1974,2171,3895,49,67,43,87,99,0
1948,2135,3857,0,-1,-10,8252,0.86,-0.08,2.80,2.21,1973,2170,3894,49,67,43,87,99,0
1933,2121,3843,-16,-19,-27,8216,0.86,-0.08,2.80,2.21,1971,2168,3893,49,67,43,87,99,0
1932,2121,3841,-28,-34,-40,8203,0.86,-0.08,2.80,2.21,1970,2166,3891,49,67,43,87,99,0
1933,2122,3842,-34,-42,-46,8205,0.86,-0.08,2.80,2.21,1969,2165,3889,49,67,43,87,99,0
1934,2123,3843,-36,-44,-48,8209,0.86,-0.08,2.80,2.21,1968,2164,3888,49,67,43,87,99,0
1936,2127,3847,-34,-41,-45,8219,0.86,-0.08,2.80,2.21,1967,2162,3886,49,67,43,87,99,0
1945,2135,3853,-30,-36,-40,8236,0.86,-0.08,2.80,2.21,1966,2161,3885,49,67,43,87,99,0
1946,2136,3854,-26,-31,-36,8252,0.86,-0.08,2.80,2.21,1965,2161,3884,49,67,43,87,99,0
1945,2137,3854,-22,-27,-32,8250,0.86,-0.08,2.80,2.21,1964,2160,3883,49,67,43,87,99,0
1945,2136,3852,-19,-24,-30,8247,0.86,-0.08,2.80,2.21,1964,2159,3882,49,67,43,87,99,0
1945,2137,3853,-18,-23,-29,8249,0.86,-0.08,2.80,2.21,1963,2158,3881,49,67,43,87,99,0
1950,2142,3856,-17,-20,-27,8258,0.86,-0.08,2.80,2.21,1963,2158,3880,49,67,43,87,99,0
1955,2148,3865,-14,-17,-24,8285,0.86,-0.08,2.80,2.21,1963,2157,3880,49,67,43,87,99,0
1953,2153,3870,-12,-12,-19,8295,0.86,-0.08,2.80,2.21,1962,2157,3879,49,67,43,87,99,0
1961,2159,3868,-7,-6,-14,8306,0.86,-0.08,2.80,2.21,1962,2157,3879,49,67,43,87,99,0
1967,2164,3866,-3,-1,-12,8314,0.86,-0.08,2.80,2.21,1962,2158,3879,49,67,43,87,99,0
1973,2169,3875,1,3,-9,8333,0.86,-0.08,2.80,2.21,1963,2158,3879,49,67,43,87,99,0
1977,2178,3885,7,9,-5,8361,0.86,-0.08,2.80,2.21,1963,2159,3879,49,67,43,87,99,0
1980,2183,3890,11,15,0,8371,0.86,-0.08,2.80,2.21,1964,2159,3879,49,67,43,87,99,0
1982,2186,3893,14,20,6,8382,0.86,-0.08,2.80,2.21,1964,2160,3880,49,67,43,87,99,0
1981,2184,3890,16,23,10,8373,0.86,-0.08,2.80,2.21,1965,2161,3880,49,67,43,87,99,0
1968,2167,3870,13,19,6,8322,0.86,-0.08,2.80,2.21,1965,2161,3880,50,67,47,87,99,0
1931,2120,3834,1,3,-7,8191,0.86,-0.08,2.56,2.10,1964,2160,3878,50,67,47,87,99,0
1921,2104,3820,-13,-16,-25,8151,0.86,-0.08,2.56,2.10,1962,2158,3876,50,67,47,87,99,0
1917,2100,3817,-28,-36,-41,8140,0.86,-0.08,2.56,2.10,1961,2156,3874,50,67,47,87,99,0
1916,2100,3815,-40,-51,-53,8139,0.86,-0.08,2.56,2.10,1959,2154,3872,50,67,47,87,99,0
1916,2101,3816,-42,-53,-56,8139,0.86,-0.08,2.56,2.10,1958,2152,3870,50,67,47,87,99,0
1921,2103,3821,-41,-52,-54,8150,0.86,-0.08,2.56,2.10,1957,2151,3869,50,67,47,87,99,0
1925,2112,3826,-38,-47,-50,8169,0.86,-0.08,2.56,2.10,1956,2150,3867,50,67,47,87,99,0
1929,2117,3830,-33,-42,-44,8183,0.86,-0.08,2.56,2.10,1955,2148,3866,50,67,47,87,99,0
1930,2119,3832,-29,-36,-39,8188,0.86,-0.08,2.56,2.10,1954,2147,3865,50,67,47,87,99,0
1930,2118,3831,-26,-31,-35,8187,0.86,-0.08,2.56,2.10,1953,2146,3864,50,67,47,87,99,0
1932,2121,3833,-23,-28,-33,8192,0.86,-0.08,2.56,2.10,1952,2146,3863,50,67,47,87,99,0
1934,2125,3836,-21,-25,-30,8202,0.86,-0.08,2.56,2.10,1952,2145,3862,50,67,47,87,99,0
1937,2130,3840,-18,-21,-27,8216,0.86,-0.08,2.56,2.10,1951,2144,3861,50,67,47,87,99,0
1942,2133,3843,-15,-17,-23,8232,0.86,-0.08,2.56,2.10,1951,2144,3860,50,67,47,87,99,0
1947,2139,3848,-11,-12,-19,8250,0.86,-0.08,2.56,2.10,1951,2144,3860,50,67,47,87,99,0
1955,2152,3860,-5,-5,-12,8284,0.86,-0.08,2.56,2.10,1951,2144,3860,50,67,47,87,99,0
1956,2158,3866,-1,1,-5,8299,0.86,-0.08,2.56,2.10,1951,2145,3860,50,67,47,87,99,0
1964,2164,3864,4,8,0,8308,0.86,-0.08,2.56,2.10,1952,2145,3860,50,67,47,87,99,0
1968,2169,3861,9,15,2,8315,0.86,-0.08,2.56,2.10,1952,2146,3860,50,67,47,87,99,0
1972,2174,3871,13,20,5,8335,0.86,-0.08,2.56,2.10,1953,2147,3861,50,67,47,87,99,0
1977,2180,3879,17,25,8,8355,0.86,-0.08,2.56,2.10,1954,2148,3861,50,67,47,87,99,0
1968,2169,3864,18,25,8,8319,0.86,-0.08,2.56,2.10,1954,2149,3861,50,67,47,87,99,0
1951,2145,3848,13,18,4,8260,0.86,-0.08,2.56,2.10,1954,2149,3861,52,70,51,87,99,0
1931,2122,3827,3,5,-6,8188,0.86,-0.08,2.47,2.01,1953,2148,3860,52,70,51,87,99,0
1920,2104,3813,-10,-13,-22,8143,0.86,-0.08,2.47,2.01,1952,2146,3858,52,70,51,87,99,0
1915,2100,3806,-23,-29,-35,8131,0.86,-0.08,2.47,2.01,1951,2145,3857,52,70,51,87,99,0
1915,2101,3806,-31,-38,-44,8123,0.86,-0.08,2.47,2.01,1950,2143,3855,52,70,51,87,99,0
1915,2103,3806,-34,-42,-48,8126,0.86,-0.08,2.47,2.01,1949,2142,3853,52,70,51,87,99,0
1916,2104,3809,-34,-40,-47,8134,0.86,-0.08,2.47,2.01,1947,2141,3852,52,70,51,87,99,0
1920,2105,3813,-31,-38,-44,8143,0.86,-0.08,2.47,2.01,1947,2140,3851,52,70,51,87,99,0
1929,2117,3819,-27,-33,-39,8161,0.86,-0.08,2.47,2.01,1946,2139,3849,52,70,51,87,99,0
1929,2119,3823,-22,-28,-34,8177,0.86,-0.08,2.47,2.01,1945,2138,3849,52,70,51,87,99,0
1929,2120,3822,-19,-23,-30,8177,0.86,-0.08,2.47,2.01,1945,2137,3848,52,70,51,87,99,0
1931,2121,3825,-15,-18,-26,8181,0.86,-0.08,2.47,2.01,1944,2137,3847,52,70,51,87,99,0
1933,2123,3827,-14,-16,-23,8189,0.86,-0.08,2.47,2.01,1944,2136,3846,52,70,51,87,99,0
1940,2128,3831,-11,-13,-20,8202,0.86,-0.08,2.47,2.01,1944,2136,3846,52,70,51,87,99,0
1945,2138,3840,-6,-8,-15,8237,0.86,-0.08,2.47,2.01,1944,2136,3846,52,70,51,87,99,0
1950,2144,3846,-2,-3,-10,8254,0.86,-0.08,2.47,2.01,1944,2137,3846,52,70,51,87,99,0
1956,2152,3852,3,4,-3,8275,0.86,-0.08,2.47,2.01,1945,2137,3846,52,70,51,87,99,0
1956,2157,3856,7,10,2,8286,0.86,-0.08,2.47,2.01,1945,2138,3846,52,70,51,87,99,0
1961,2164,3863,11,16,8,8306,0.86,-0.08,2.47,2.01,1945,2139,3847,52,70,51,87,99,0
1972,2174,3857,16,23,10,8320,0.86,-0.08,2.47,2.01,1946,2140,3847,52,70,51,87,99,0
1975,2179,3867,20,29,13,8338,0.86,-0.08,2.47,2.01,1947,2141,3848,52,70,51,87,99,0
1980,2184,3875,25,34,17,8357,0.86,-0.08,2.47,2.01,1948,2142,3849,52,70,51,87,99,0
1982,2188,3879,29,39,21,8370,0.86,-0.08,2.47,2.01,1950,2144,3850,52,70,51,87,99,0
1984,2190,3878,31,42,25,8372,0.86,-0.08,2.47,2.01,1951,2146,3850,52,70,51,87,99,0
1954,2151,3846,25,33,19,8265,0.86,-0.08,2.47,2.01,1951,2146,3850,56,73,57,87,99,0
1936,2129,3826,13,19,7,8197,0.86,-0.08,2.30,1.94,1950,2145,3850,56,73,57,87,99,0
1926,2115,3813,0,1,-8,8159,0.86,-0.08,2.30,1.94,1949,2144,3848,56,73,57,87,99,0
1922,2107,3808,-15,-19,-25,8141,0.86,-0.08,2.30,1.94,1949,2143,3847,56,73,57,87,99,0
1921,2105,3807,-22,-29,-34,8138,0.86,-0.08,2.30,1.94,1948,2142,3846,56,73,57,87,99,0
1922,2108,3809,-25,-33,-37,8144,0.86,-0.08,2.30,1.94,1947,2141,3844,56,73,57,87,99,0
1925,2114,3812,-25,-33,-36,8155,0.86,-0.08,2.30,1.94,1946,2140,3843,56,73,57,87,99,0
1930,2121,3818,-22,-28,-32,8174,0.86,-0.08,2.30,1.94,1945,2139,3843,56,73,57,87,99,0
1934,2126,3824,-18,-22,-27,8191,0.86,-0.08,2.30,1.94,1945,2139,3842,56,73,57,87,99,0
1937,2131,3828,-13,-16,-21,8201,0.86,-0.08,2.30,1.94,1945,2138,3841,56,73,57,87,99,0
1938,2133,3829,-10,-10,-17,8206,0.86,-0.08,2.30,1.94,1945,2138,3841,56,73,57,87,99,0
1939,2133,3831,-7,-7,-13,8210,0.86,-0.08,2.30,1.94,1944,2138,3841,56,73,57,87,99,0
1942,2136,3832,-5,-4,-10,8220,0.86,-0.08,2.30,1.94,1944,2138,3840,56,73,57,87,99,0
1946,2139,3834,-3,-2,-9,8232,0.86,-0.08,2.30,1.94,1944,2138,3840,56,73,57,87,99,0
1951,2145,3841,0,0,-5,8251,0.86,-0.08,2.30,1.94,1945,2138,3840,56,73,57,87,99,0
1957,2159,3853,4,6,0,8285,0.86,-0.08,2.30,1.94,1945,2139,3841,56,73,57,87,99,0
1964,2167,3860,9,13,6,8306,0.86,-0.08,2.30,1.94,1946,2140,3841,56,73,57,87,99,0
1969,2172,3854,14,21,11,8313,0.86,-0.08,2.30,1.94,1946,2141,3842,56,73,57,87,99,0
1974,2178,3859,20,28,15,8329,0.86,-0.08,2.30,1.94,1947,2142,3842,56,73,57,87,99,0
1978,2183,3868,24,33,18,8348,0.86,-0.08,2.30,1.94,1948,2143,3843,56,73,57,87,99,0
1985,2194,3879,28,39,22,8364,0.86,-0.08,2.30,1.94,1950,2145,3844,56,73,57,87,99,0
1990,2200,3885,32,44,29,8393,0.86,-0.08,2.30,1.94,1951,2147,3846,56,73,57,87,99,0
1994,2204,3887,36,49,34,8406,0.86,-0.08,2.30,1.94,1952,2149,3847,56,73,57,87,99,0
1999,2206,3890,40,53,38,8422,0.86,-0.08,2.30,1.94,1954,2151,3849,56,73,57,87,99,0
2004,2210,3894,43,55,41,8433,0.86,-0.08,2.30,1.94,1956,2153,3850,56,73,57,87,99,0
1982,2189,3888,40,50,40,8420,0.86,-0.08,2.30,1.94,1957,2154,3851,59,77,62,87,99,0
1962,2163,3849,30,39,30,8288,0.86,-0.08,2.22,1.87,1957,2154,3851,59,77,62,87,99,0
1947,2142,3831,17,22,14,8231,0.86,-0.08,2.22,1.87,1956,2154,3851,59,77,62,87,99,0
1940,2135,3824,1,3,-2,8205,0.86,-0.08,2.22,1.87,1956,2153,3850,59,77,62,87,99,0
1937,2132,3822,-9,-10,-18,8197,0.86,-0.08,2.22,1.87,1955,2153,3849,59,77,62,87,99,0
1938,2135,3821,-15,-17,-25,8197,0.86,-0.08,2.22,1.87,1955,2152,3848,59,77,62,87,99,0
1940,2135,3826,-16,-18,-25,8207,0.86,-0.08,2.22,1.87,1954,2151,3847,59,77,62,87,99,0
1944,2138,3828,-14,-16,-23,8219,0.86,-0.08,2.22,1.87,1954,2151,3846,59,77,62,87,99,0
1948,2143,3832,-11,-13,-20,8236,0.86,-0.08,2.22,1.87,1954,2151,3846,59,77,62,87,99,0
1952,2149,3837,-8,-9,-15,8251,0.86,-0.08,2.22,1.87,1954,2151,3846,59,77,62,87,99,0
1955,2151,3839,-4,-5,-11,8256,0.86,-0.08,2.22,1.87,1954,2151,3845,59,77,62,87,99,0
1955,2154,3841,-1,-1,-8,8262,0.86,-0.08,2.22,1.87,1954,2151,3845,59,77,62,87,99,0
1957,2154,3842,0,1,-5,8266,0.86,-0.08,2.22,1.87,1954,2151,3845,59,77,62,87,99,0
1959,2158,3846,2,3,-3,8279,0.86,-0.08,2.22,1.87,1954,2151,3845,59,77,62,87,99,0
1959,2164,3851,3,6,0,8289,0.86,-0.08,2.22,1.87,1954,2151,3845,59,77,62,87,99,0
1966,2171,3857,6,10,3,8310,0.86,-0.08,2.22,1.87,1954,2152,3846,59,77,62,87,99,0
1977,2183,3861,11,17,8,8339,0.86,-0.08,2.22,1.87,1955,2153,3846,59,77,62,87,99,0
1983,2191,3870,16,24,13,8361,0.86,-0.08,2.22,1.87,1956,2154,3847,59,77,62,87,99,0
1988,2198,3877,23,32,19,8381,0.86,-0.08,2.22,1.87,1957,2156,3848,59,77,62,87,99,0
1994,2204,3883,29,39,25,8397,0.86,-0.08,2.22,1.87,1958,2157,3849,59,77,62,87,99,0
1997,2206,3885,32,43,30,8412,0.86,-0.08,2.22,1.87,1960,2159,3850,59,77,62,87,99,0
2006,2215,3893,37,47,34,8442,0.86,-0.08,2.22,1.87,1961,2161,3852,59,77,62,87,99,0
2005,2221,3897,40,51,38,8451,0.86,-0.08,2.22,1.87,1963,2163,3853,59,77,62,87,99,0
2005,2225,3899,41,54,41,8459,0.86,-0.08,2.22,1.87,1964,2165,3855,59,77,62,87,99,0
2009,2230,3905,42,58,44,8473,0.86,-0.08,2.22,1.87,1966,2167,3857,59,77,62,86,99,0
2013,2235,3908,43,61,46,8486,0.86,-0.08,2.22,1.87,1967,2169,3858,59,77,62,86,99,0
2001,2212,3885,40,57,42,8424,0.86,-0.08,2.22,1.87,1968,2171,3859,59,77,64,86,99,0
1981,2187,3858,33,46,30,8344,0.86,-0.08,2.14,1.81,1969,2171,3859,59,77,64,86,99,0
1962,2168,3848,21,30,16,8294,0.86,-0.08,2.14,1.81,1969,2171,3859,59,77,64,86,99,0
1960,2157,3839,7,10,-1,8269,0.86,-0.08,2.14,1.81,1968,2171,3858,59,77,64,86,99,0
1956,2154,3836,-3,-4,-13,8262,0.86,-0.08,2.14,1.81,1968,2170,3857,59,77,64,86,99,0
1958,2156,3838,-9,-11,-17,8264,0.86,-0.08,2.14,1.81,1967,2170,3857,59,77,64,86,99,0
1960,2157,3840,-9,-14,-18,8273,0.86,-0.08,2.14,1.81,1967,2169,3856,59,77,64,86,99,0
1959,2163,3845,-9,-12,-16,8282,0.86,-0.08,2.14,1.81,1967,2169,3856,59,77,64,86,99,0
1964,2169,3852,-6,-8,-12,8301,0.86,-0.08,2.14,1.81,1967,2169,3856,59,77,64,86,99,0
1969,2175,3854,-4,-3,-8,8313,0.86,-0.08,2.14,1.81,1967,2169,3856,59,77,64,86,99,0
1971,2177,3849,-1,1,-5,8316,0.86,-0.08,2.14,1.81,1967,2170,3855,59,77,64,86,99,0
1971,2178,3850,1,5,-4,8315,0.86,-0.08,2.14,1.81,1967,2170,3855,59,77,64,86,99,0
1974,2180,3848,4,7,-5,8318,0.86,-0.08,2.14,1.81,1967,2170,3855,59,77,64,86,99,0
1977,2183,3853,6,9,-5,8331,0.86,-0.08,2.14,1.81,1968,2171,3855,59,77,64,86,99,0
1982,2189,3862,8,12,-1,8351,0.86,-0.08,2.14,1.81,1968,2171,3855,59,77,64,86,99,0
1991,2203,3876,13,17,4,8390,0.86,-0.08,2.14,1.81,1969,2172,3856,59,77,64,86,99,0
1995,2208,3882,17,23,12,8407,0.86,-0.08,2.14,1.81,1970,2174,3857,59,77,64,86,99,0
2002,2210,3884,23,29,19,8426,0.86,-0.08,2.14,1.81,1971,2175,3858,59,77,64,86,99,0
2006,2218,3890,28,35,25,8442,0.86,-0.08,2.14,1.81,1972,2176,3859,59,77,64,86,99,0
2005,2224,3896,30,39,29,8453,0.86,-0.08,2.14,1.81,1973,2178,3860,59,77,64,86,99,0
2013,2234,3904,33,44,34,8482,0.86,-0.08,2.14,1.81,1975,2180,3861,59,77,64,86,99,0
2017,2239,3909,36,49,39,8496,0.86,-0.08,2.14,1.81,1976,2182,3863,59,77,64,86,99,0
2019,2243,3912,38,54,43,8507,0.86,-0.08,2.14,1.81,1977,2184,3865,59,77,64,86,99,0
2024,2249,3916,41,58,46,8522,0.86,-0.08,2.14,1.81,1979,2186,3866,59,77,64,86,99,0
2028,2254,3921,43,61,49,8536,0.86,-0.08,2.14,1.81,1981,2188,3868,59,77,64,86,99,0
2030,2256,3922,45,63,50,8544,0.86,-0.08,2.14,1.81,1982,2190,3870,59,77,64,86,99,0
2017,2240,3904,43,60,47,8492,0.86,-0.08,2.14,1.81,1983,2192,3871,57,77,61,86,99,0
2002,2215,3880,36,50,36,8422,0.76,-0.08,2.23,1.82,1984,2193,3871,57,77,61,86,99,0
1985,2194,3860,25,34,20,8359,0.76,-0.08,2.23,1.82,1984,2193,3871,57,77,61,86,99,0
1976,2182,3843,11,15,1,8320,0.76,-0.08,2.23,1.82,1984,2192,3870,57,77,61,86,99,0
1973,2178,3848,0,0,-12,8316,0.76,-0.08,2.23,1.82,1983,2192,3869,57,77,61,86,99,0
1974,2180,3847,-6,-8,-20,8317,0.76,-0.08,2.23,1.82,1983,2192,3869,57,77,61,86,99,0
1975,2181,3844,-8,-11,-23,8319,0.76,-0.08,2.23,1.82,1983,2191,3868,57,77,61,86,99,0
1978,2185,3846,-8,-10,-22,8328,0.76,-0.08,2.23,1.82,1983,2191,3867,57,77,61,86,99,0
1983,2192,3859,-5,-6,-18,8353,0.76,-0.08,2.23,1.82,1983,2191,3867,57,77,61,86,99,0
1988,2200,3868,-2,-1,-13,8377,0.76,-0.08,2.23,1.82,1983,2191,3867,57,77,61,86,99,0
1988,2200,3868,1,3,-6,8378,0.76,-0.08,2.23,1.82,1983,2192,3867,57,77,61,86,99,0
1988,2201,3868,3,6,-1,8378,0.76,-0.08,2.23,1.82,1983,2192,3867,57,77,61,86,99,0
1989,2202,3869,5,9,1,8380,0.76,-0.08,2.23,1.82,1983,2192,3867,57,77,61,86,99,0
1993,2207,3875,6,10,3,8394,0.76,-0.08,2.23,1.82,1984,2193,3867,57,77,61,86,99,0
2003,2213,3880,9,13,5,8405,0.76,-0.08,2.23,1.82,1984,2193,3868,57,77,61,86,99,0
2007,2218,3885,14,17,9,8439,0.76,-0.08,2.23,1.82,1985,2194,3868,57,77,61,86,99,0
2005,2225,3892,17,22,15,8452,0.76,-0.08,2.23,1.82,1986,2195,3869,57,77,61,86,99,0
2008,2232,3897,20,27,19,8468,0.76,-0.08,2.23,1.82,1987,2197,3870,57,77,61,86,99,0
2016,2239,3902,22,32,24,8488,0.76,-0.08,2.23,1.82,1987,2198,3871,57,77,61,86,99,0
2025,2245,3908,26,37,29,8505,0.76,-0.08,2.23,1.82,1989,2200,3872,57,77,61,86,99,0
2028,2255,3917,31,43,34,8534,0.76,-0.08,2.23,1.82,1990,2201,3874,57,77,61,86,99,0
2032,2259,3923,36,49,39,8549,0.76,-0.08,2.23,1.82,1991,2203,3875,57,77,61,86,99,0
2035,2264,3925,39,53,43,8560,0.76,-0.08,2.23,1.82,1993,2205,3877,57,77,61,86,99,0
2038,2267,3928,41,57,47,8572,0.76,-0.08,2.23,1.82,1994,2207,3879,57,77,61,86,99,0
2046,2273,3935,44,59,49,8589,0.76,-0.08,2.23,1.82,1996,2210,3881,57,77,61,85,99,0
2044,2275,3937,45,61,51,8592,0.76,-0.08,2.23,1.82,1998,2212,3883,57,77,61,85,99,0
2030,2258,3915,42,57,47,8538,0.76,-0.08,2.23,1.82,1999,2213,3884,56,76,64,85,99,0
2010,2232,3890,34,47,36,8463,0.76,-0.08,2.08,1.70,1999,2214,3884,56,76,64,85,99,0
2000,2212,3874,22,31,20,8410,0.76,-0.08,2.08,1.70,1999,2214,3883,56,76,64,85,99,0
1990,2201,3864,8,12,2,8379,0.76,-0.08,2.08,1.70,1999,2213,3883,56,76,64,85,99,0
1987,2199,3861,-2,-2,-10,8370,0.76,-0.08,2.08,1.70,1999,2213,3882,56,76,64,85,99,0
1988,2200,3863,-7,-10,-16,8375,0.76,-0.08,2.08,1.70,1998,2213,3881,56,76,64,85,99,0
1990,2203,3866,-9,-12,-18,8384,0.76,-0.08,2.08,1.70,1998,2212,3881,56,76,64,85,99,0
1995,2208,3870,-8,-10,-16,8397,0.76,-0.08,2.08,1.70,1998,2212,3881,56,76,64,85,99,0
2001,2213,3875,-4,-6,-12,8416,0.76,-0.08,2.08,1.70,1998,2212,3880,56,76,64,85,99,0
2007,2218,3879,0,-1,-8,8435,0.76,-0.08,2.08,1.70,1998,2212,3880,56,76,64,85,99,0
2007,2218,3881,4,2,-4,8434,0.76,-0.08,2.08,1.70,1998,2213,3880,56,76,64,85,99,0
2007,2217,3879,7,4,-1,8434,0.76,-0.08,2.08,1.70,1999,2213,3880,56,76,64,85,99,0
2007,2219,3880,8,5,0,8437,0.76,-0.08,2.08,1.70,1999,2213,3880,56,76,64,85,99,0
2006,2223,3883,8,6,0,8444,0.76,-0.08,2.08,1.70,1999,2213,3880,56,76,64,85,99,0
2008,2232,3892,7,9,3,8467,0.76,-0.08,2.08,1.70,2000,2214,3881,56,76,64,85,99,0
2014,2239,3897,9,14,7,8484,0.76,-0.08,2.08,1.70,2000,2215,3881,56,76,64,85,99,0
2020,2245,3903,12,20,12,8503,0.76,-0.08,2.08,1.70,2001,2216,3882,56,76,64,85,99,0
2024,2251,3908,16,26,18,8520,0.76,-0.08,2.08,1.70,2001,2217,3883,56,76,64,85,99,0
2029,2258,3914,20,31,23,8537,0.76,-0.08,2.08,1.70,2002,2218,3884,56,76,64,85,99,0
2037,2267,3924,25,37,28,8565,0.76,-0.08,2.08,1.70,2004,2220,3885,56,76,64,85,99,0
2040,2271,3928,29,42,33,8578,0.76,-0.08,2.08,1.70,2005,2222,3887,56,76,64,85,99,0
2043,2275,3932,33,47,38,8590,0.76,-0.08,2.08,1.70,2006,2223,3888,56,76,64,85,99,0
2047,2280,3940,36,50,43,8606,0.76,-0.08,2.08,1.70,2007,2225,3890,56,76,64,85,99,0
2050,2285,3946,38,53,47,8620,0.76,-0.08,2.08,1.70,2009,2227,3892,56,76,64,85,99,0
2051,2285,3942,39,55,49,8618,0.76,-0.08,2.08,1.70,2010,2229,3894,56,76,64,84,99,0
2035,2265,3916,36,51,43,8556,0.76,-0.08,2.08,1.70,2011,2230,3894,52,74,65,84,99,0
2015,2240,3892,27,39,30,8481,0.76,-0.08,1.99,1.55,2011,2231,3894,52,74,65,84,99,0
2005,2219,3874,15,22,12,8428,0.76,-0.08,1.99,1.55,2011,2230,3894,52,74,65,84,99,0
1997,2213,3869,2,4,-6,8402,0.76,-0.08,1.99,1.55,2011,2230,3893,52,74,65,84,99,0
1997,2212,3868,-7,-9,-17,8401,0.76,-0.08,1.99,1.55,2010,2229,3892,52,74,65,84,99,0
1998,2212,3869,-11,-15,-22,8406,0.76,-0.08,1.99,1.55,2010,2229,3891,52,74,65,84,99,0
2001,2216,3872,-11,-15,-22,8417,0.76,-0.08,1.99,1.55,2009,2228,3890,52,74,65,84,99,0
2005,2218,3875,-9,-14,-19,8430,0.76,-0.08,1.99,1.55,2009,2228,3890,52,74,65,84,99,0
2006,2223,3880,-6,-11,-16,8442,0.76,-0.08,1.99,1.55,2009,2228,3890,52,74,65,84,99,0
2006,2228,3883,-4,-6,-12,8451,0.76,-0.08,1.99,1.55,2009,2228,3889,52,74,65,84,99,0
2006,2226,3881,-3,-4,-9,8447,0.76,-0.08,1.99,1.55,2009,2228,3889,52,74,65,84,99,0
2006,2225,3881,-3,-2,-8,8445,0.76,-0.08,1.99,1.55,2009,2227,3889,52,74,65,84,99,0
2005,2226,3882,-3,-1,-7,8449,0.76,-0.08,1.99,1.55,2009,2227,3889,52,74,65,84,99,0
2006,2230,3885,-3,0,-6,8455,0.76,-0.08,1.99,1.55,2009,2227,3889,52,74,65,84,99,0
2015,2240,3893,-1,3,-3,8468,0.76,-0.08,1.99,1.55,2009,2228,3889,52,74,65,84,99,0
2020,2245,3898,2,7,0,8499,0.76,-0.08,1.99,1.55,2009,2228,3889,52,74,65,84,99,0
2022,2251,3903,6,13,5,8517,0.76,-0.08,1.99,1.55,2010,2229,3889,52,74,65,84,99,0
2028,2257,3909,11,19,11,8533,0.76,-0.08,1.99,1.55,2010,2230,3890,52,74,65,84,99,0
2032,2262,3914,15,24,16,8547,0.76,-0.08,1.99,1.55,2011,2231,3891,52,74,65,84,99,0
2040,2271,3918,19,29,20,8561,0.76,-0.08,1.99,1.55,2012,2233,3892,52,74,65,84,99,0
2043,2276,3928,24,34,25,8588,0.76,-0.08,1.99,1.55,2013,2234,3893,52,74,65,84,99,0
2047,2281,3933,28,39,30,8601,0.76,-0.08,1.99,1.55,2014,2236,3894,52,74,65,84,99,0
2051,2286,3940,31,43,36,8618,0.76,-0.08,1.99,1.55,2015,2237,3896,52,74,65,84,99,0
2051,2286,3940,33,45,40,8619,0.76,-0.08,1.99,1.55,2017,2239,3897,52,74,65,84,99,0
2023,2250,3921,27,38,37,8576,0.76,-0.08,1.99,1.55,2017,2239,3898,50,70,64,84,99,0
2007,2224,3874,16,23,21,8437,0.76,-0.08,1.90,1.51,2016,2239,3897,50,70,64,84,99,0
1996,2211,3862,2,4,2,8397,0.76,-0.08,1.90,1.51,2016,2238,3896,50,70,64,84,99,0
1990,2205,3856,-12,-15,-18,8378,0.76,-0.08,1.90,1.51,2015,2237,3895,50,70,64,84,99,0
1990,2203,3855,-19,-26,-33,8376,0.76,-0.08,1.90,1.51,2014,2236,3893,50,70,64,84,99,0
1993,2208,3856,-22,-29,-36,8381,0.76,-0.08,1.90,1.51,2013,2235,3892,50,70,64,84,99,0
1996,2211,3863,-21,-28,-35,8397,0.76,-0.08,1.90,1.51,2013,2234,3891,50,70,64,84,99,0
2001,2216,3868,-18,-25,-31,8415,0.76,-0.08,1.90,1.51,2012,2233,3891,50,70,64,84,99,0
2006,2219,3871,-13,-20,-26,8430,0.76,-0.08,1.90,1.51,2012,2233,3890,50,70,64,84,99,0
2007,2221,3873,-9,-16,-21,8436,0.76,-0.08,1.90,1.51,2012,2232,3889,50,70,64,84,99,0
2007,2220,3872,-6,-13,-18,8434,0.76,-0.08,1.90,1.51,2012,2232,3889,50,70,64,84,99,0
2007,2220,3872,-5,-12,-17,8433,0.76,-0.08,1.90,1.51,2012,2232,3888,50,70,64,84,99,0
2007,2222,3874,-4,-11,-15,8436,0.76,-0.08,1.90,1.51,2011,2231,3888,50,70,64,84,99,0
2006,2226,3878,-4,-9,-14,8444,0.76,-0.08,1.90,1.51,2011,2231,3887,50,70,64,84,99,0
2006,2232,3882,-4,-6,-11,8454,0.76,-0.08,1.90,1.51,2011,2231,3887,50,70,64,84,99,0
2012,2237,3886,-3,-1,-7,8472,0.76,-0.08,1.90,1.51,2011,2231,3887,50,70,64,84,99,0
2021,2248,3896,0,4,-1,8504,0.76,-0.08,1.90,1.51,2012,2232,3887,50,70,64,84,99,0
2026,2255,3902,4,11,4,8523,0.76,-0.08,1.90,1.51,2012,2233,3888,50,70,64,84,99,0
2030,2260,3907,10,17,10,8538,0.76,-0.08,1.90,1.51,2013,2234,3889,50,70,64,84,99,0
2033,2263,3911,15,23,15,8550,0.76,-0.08,1.90,1.51,2013,2235,3889,50,70,64,84,99,0
2038,2268,3916,18,27,20,8564,0.76,-0.08,1.90,1.51,2014,2236,3890,50,70,64,84,99,0
2044,2276,3923,22,31,24,8587,0.76,-0.08,1.90,1.51,2015,2237,3891,50,70,64,84,99,0
2046,2280,3927,25,35,28,8598,0.76,-0.08,1.90,1.51,2016,2238,3893,50,70,64,84,99,0
2046,2280,3925,28,38,30,8593,0.76,-0.08,1.90,1.51,2017,2240,3894,50,70,64,84,99,0
2033,2264,3906,25,36,27,8547,0.76,-0.08,1.90,1.51,2018,2241,3894,50,70,64,84,99,0
2012,2238,3881,17,25,16,8468,0.76,-0.08,1.90,1.51,2017,2240,3894,50,70,64,84,99,0
1987,2200,3847,2,5,-3,8362,0.76,-0.08,1.90,1.51,2016,2239,3892,50,70,64,84,99,0
1983,2195,3840,-12,-15,-24,8345,0.76,-0.08,1.90,1.51,2015,2238,3890,50,70,64,84,99,0
1982,2194,3834,-24,-31,-40,8337,0.76,-0.08,1.90,1.51,2014,2236,3888,50,70,64,84,99,0
1982,2194,3837,-31,-41,-49,8340,0.76,-0.08,1.90,1.51,2013,2235,3887,50,70,64,84,99,0
1983,2196,3841,-31,-41,-49,8347,0.76,-0.08,1.90,1.51,2012,2234,3885,50,70,64,84,99,0
1989,2203,3852,-28,-37,-45,8373,0.76,-0.08,1.90,1.51,2011,2232,3884,50,70,64,84,99,0
1993,2207,3856,-25,-33,-38,8387,0.76,-0.08,1.90,1.51,2011,2232,3883,50,70,64,84,99,0
1994,2211,3858,-21,-28,-31,8393,0.76,-0.08,1.90,1.51,2010,2231,3882,50,70,64,84,99,0
1994,2210,3857,-18,-23,-26,8391,0.76,-0.08,1.90,1.51,2010,2230,3881,50,70,64,84,99,0
1994,2209,3857,-16,-21,-24,8388,0.76,-0.08,1.90,1.51,2009,2230,3881,50,70,64,84,99,0
1996,2212,3859,-15,-19,-23,8396,0.76,-0.08,1.90,1.51,2009,2229,3880,50,70,64,84,99,0
1999,2216,3863,-13,-17,-21,8407,0.76,-0.08,1.90,1.51,2008,2229,3879,50,70,64,84,99,0
2005,2219,3867,-10,-15,-18,8424,0.76,-0.08,1.90,1.51,2008,2228,3879,50,70,64,84,99,0
2007,2222,3870,-6,-11,-14,8436,0.76,-0.08,1.90,1.51,2008,2228,3879,50,70,64,84,99,0
2006,2229,3876,-3,-6,-10,8447,0.76,-0.08,1.90,1.51,2008,2228,3879,50,70,64,84,99,0
2014,2241,3886,0,0,-4,8479,0.76,-0.08,1.90,1.51,2008,2228,3879,50,70,64,84,99,0
2019,2245,3890,3,6,1,8494,0.76,-0.08,1.90,1.51,2009,2229,3879,50,70,64,84,99,0
2022,2251,3893,6,12,7,8506,0.76,-0.08,1.90,1.51,2009,2230,3880,50,70,64,84,99,0
2025,2255,3898,11,18,12,8521,0.76,-0.08,1.90,1.51,2010,2231,3880,50,70,64,84,99,0
2028,2260,3901,14,22,15,8531,0.76,-0.08,1.90,1.51,2010,2232,3881,50,70,64,84,99,0
2034,2266,3904,17,26,18,8543,0.76,-0.08,1.90,1.51,2011,2233,3882,50,70,64,84,99,0
2033,2264,3904,19,28,20,8546,0.76,-0.08,1.90,1.51,2012,2234,3882,50,70,64,84,99,0
2020,2248,3887,17,26,17,8495,0.76,-0.08,1.90,1.51,2012,2234,3883,50,69,66,84,99,0
2004,2222,3863,11,16,7,8422,0.76,-0.08,1.82,1.46,2012,2234,3882,50,69,66,84,99,0
1986,2199,3836,-1,0,-9,8350,0.76,-0.08,1.82,1.46,2011,2233,3880,50,69,66,84,99,0
1971,2186,3833,-16,-19,-26,8322,0.76,-0.08,1.82,1.46,2010,2231,3879,50,69,66,84,99,0
1970,2180,3832,-27,-35,-38,8311,0.76,-0.08,1.82,1.46,2008,2229,3877,50,69,66,84,99,0
1971,2182,3833,-34,-43,-44,8316,0.76,-0.08,1.82,1.46,2007,2228,3876,50,69,66,84,99,0
1972,2185,3834,-36,-45,-43,8322,0.76,-0.08,1.82,1.46,2006,2226,3874,50,69,66,84,99,0
1976,2188,3831,-34,-43,-42,8325,0.76,-0.08,1.82,1.46,2005,2225,3873,50,69,66,84,99,0
1980,2193,3827,-30,-38,-42,8330,0.76,-0.08,1.82,1.46,2004,2224,3871,50,69,66,84,99,0
1985,2199,3840,-26,-33,-39,8355,0.76,-0.08,1.82,1.46,2003,2223,3870,50,69,66,84,99,0
1984,2198,3838,-22,-29,-36,8351,0.76,-0.08,1.82,1.46,2003,2222,3869,50,69,66,84,99,0
1984,2198,3836,-19,-25,-34,8347,0.76,-0.08,1.82,1.46,2002,2222,3868,50,69,66,84,99,0
1984,2198,3837,-18,-23,-30,8350,0.76,-0.08,1.82,1.46,2002,2221,3867,50,69,66,84,99,0
1986,2201,3842,-17,-22,-29,8360,0.76,-0.08,1.82,1.46,2001,2220,3866,50,69,66,84,99,0
1993,2210,3853,-14,-19,-24,8390,0.76,-0.08,1.82,1.46,2001,2220,3866,50,69,66,84,99,0
1999,2216,3859,-10,-14,-18,8405,0.76,-0.08,1.82,1.46,2001,2220,3866,50,69,66,84,99,0
2003,2221,3864,-5,-8,-11,8421,0.76,-0.08,1.82,1.46,2001,2220,3866,50,69,66,84,99,0
2007,2223,3866,0,-2,-5,8435,0.76,-0.08,1.82,1.46,2001,2220,3866,50,69,66,84,99,0
2006,2229,3870,2,2,-1,8446,0.76,-0.08,1.82,1.46,2001,2220,3866,50,69,66,84,99,0
2013,2240,3880,6,8,4,8474,0.76,-0.08,1.82,1.46,2002,2221,3866,50,69,66,84,99,0
2016,2245,3885,9,13,9,8486,0.76,-0.08,1.82,1.46,2002,2222,3867,50,69,66,84,99,0
2020,2249,3888,11,19,14,8499,0.76,-0.08,1.82,1.46,2003,2222,3868,50,69,66,84,99,0
2023,2252,3891,15,24,18,8509,0.76,-0.08,1.82,1.46,2003,2223,3868,50,69,66,84,99,0
2026,2256,3894,18,27,21,8519,0.76,-0.08,1.82,1.46,2004,2225,3869,50,69,66,84,99,0
2009,2232,3869,16,23,17,8450,0.76,-0.08,1.82,1.46,2004,2225,3869,51,70,65,84,99,0
1991,2207,3843,8,12,5,8373,0.76,-0.08,1.87,1.51,2004,2224,3868,51,70,65,84,99,0
1974,2185,3829,-3,-4,-9,8318,0.76,-0.08,1.87,1.51,2003,2223,3867,51,70,65,84,99,0
1962,2175,3819,-19,-23,-27,8285,0.76,-0.08,1.87,1.51,2001,2221,3865,51,70,65,84,99,0
1962,2174,3817,-29,-36,-39,8278,0.76,-0.08,1.87,1.51,2000,2220,3864,51,70,65,84,99,0
1961,2174,3818,-36,-43,-43,8281,0.76,-0.08,1.87,1.51,1999,2218,3862,51,70,65,84,99,0
1962,2175,3821,-37,-44,-44,8287,0.76,-0.08,1.87,1.51,1998,2217,3861,51,70,65,84,99,0
1968,2179,3826,-35,-42,-41,8302,0.76,-0.08,1.87,1.51,1997,2215,3860,51,70,65,84,99,0
1974,2186,3832,-31,-37,-36,8322,0.76,-0.08,1.87,1.51,1996,2214,3859,51,70,65,84,99,0
1977,2189,3828,-26,-32,-32,8326,0.76,-0.08,1.87,1.51,1995,2214,3858,51,70,65,84,99,0
1977,2190,3828,-21,-28,-30,8326,0.76,-0.08,1.87,1.51,1995,2213,3857,51,70,65,84,99,0
1976,2190,3829,-19,-24,-28,8326,0.76,-0.08,1.87,1.51,1994,2212,3856,51,70,65,84,99,0
1977,2191,3828,-17,-22,-28,8326,0.76,-0.08,1.87,1.51,1993,2211,3855,51,70,65,84,99,0
1979,2193,3825,-16,-20,-28,8328,0.76,-0.08,1.87,1.51,1993,2211,3854,51,70,65,84,99,0
1984,2198,3831,-14,-18,-26,8343,0.76,-0.08,1.87,1.51,1993,2210,3853,51,70,65,84,99,0
1992,2208,3848,-10,-13,-20,8362,0.76,-0.08,1.87,1.51,1993,2210,3853,51,70,65,84,99,0
1996,2213,3853,-5,-7,-14,8394,0.76,-0.08,1.87,1.51,1993,2210,3853,51,70,65,84,99,0
2002,2220,3858,0,0,-5,8412,0.76,-0.08,1.87,1.51,1993,2211,3853,51,70,65,84,99,0
2006,2223,3862,6,5,2,8426,0.76,-0.08,1.87,1.51,1993,2211,3853,51,70,65,84,99,0
2007,2226,3865,9,9,6,8437,0.76,-0.08,1.87,1.51,1994,2212,3854,51,70,65,84,99,0
2006,2230,3868,11,13,9,8446,0.76,-0.08,1.87,1.51,1994,2212,3854,51,70,65,84,99,0
2009,2239,3876,13,17,13,8466,0.76,-0.08,1.87,1.51,1995,2213,3855,51,70,65,84,99,0
2015,2243,3879,14,21,17,8480,0.76,-0.08,1.87,1.51,1995,2214,3856,51,70,65,84,99,0
2015,2244,3879,16,25,20,8482,0.76,-0.08,1.87,1.51,1996,2215,3857,51,70,65,84,99,0
2008,2232,3866,16,25,18,8446,0.76,-0.08,1.87,1.51,1997,2216,3857,51,70,65,84,99,0
1973,2209,3842,6,17,10,8379,0.76,-0.08,1.87,1.52,1996,2215,3856,52,70,65,84,99,0
1963,2172,3813,-6,0,-6,8276,0.76,-0.08,1.87,1.52,1995,2214,3855,52,70,65,84,99,0
1961,2166,3808,-19,-19,-23,8263,0.76,-0.08,1.87,1.52,1994,2212,3853,52,70,65,84,99,0
1961,2166,3808,-29,-34,-36,8262,0.76,-0.08,1.87,1.52,1992,2211,3852,52,70,65,84,99,0
1962,2168,3809,-31,-43,-43,8268,0.76,-0.08,1.87,1.52,1991,2209,3850,52,70,65,84,99,0
1963,2171,3811,-30,-42,-42,8273,0.76,-0.08,1.87,1.52,1990,2208,3849,52,70,65,84,99,0
1966,2178,3820,-27,-38,-37,8295,0.76,-0.08,1.87,1.52,1990,2207,3848,52,70,65,84,99,0
1971,2183,3826,-24,-32,-32,8311,0.76,-0.08,1.87,1.52,1989,2206,3847,52,70,65,84,99,0
1973,2185,3827,-21,-27,-26,8317,0.76,-0.08,1.87,1.52,1989,2206,3847,52,70,65,84,99,0
1972,2183,3826,-18,-23,-22,8313,0.76,-0.08,1.87,1.52,1988,2205,3846,52,70,65,84,99,0
1971,2182,3824,-16,-22,-20,8309,0.76,-0.08,1.87,1.52,1987,2204,3845,52,70,65,84,99,0
1973,2186,3829,-15,-20,-19,8321,0.76,-0.08,1.87,1.52,1987,2204,3845,52,70,65,84,99,0
1976,2190,3827,-14,-18,-18,8327,0.76,-0.08,1.87,1.52,1987,2203,3844,52,70,65,84,99,0
1981,2195,3822,-11,-15,-19,8332,0.76,-0.08,1.87,1.52,1986,2203,3844,52,70,55,84,99,0
1985,2200,3834,-7,-10,-16,8353,0.76,-0.08,2.22,1.83,1986,2203,3843,52,70,55,84,99,0
1989,2206,3841,-3,-5,-12,8371,0.76,-0.08,2.22,1.83,1986,2203,3843,52,70,55,84,99,0
2000,2218,3853,2,1,-5,8405,0.76,-0.08,2.22,1.83,1987,2203,3843,52,70,55,84,99,0
2005,2223,3858,8,8,3,8421,0.76,-0.08,2.22,1.83,1987,2204,3844,52,70,55,84,99,0
2007,2225,3860,13,14,9,8431,0.76,-0.08,2.22,1.83,1988,2205,3844,52,70,55,84,99,0
2007,2227,3861,17,19,14,8440,0.76,-0.08,2.22,1.83,1989,2205,3845,52,70,55,84,99,0
2006,2233,3866,18,22,16,8448,0.76,-0.08,2.22,1.83,1989,2206,3846,52,70,55,84,99,0
2008,2237,3868,18,24,18,8458,0.76,-0.08,2.22,1.83,1990,2207,3846,52,70,55,84,99,0
2005,2225,3855,17,24,16,8424,0.76,-0.08,2.22,1.83,1990,2208,3847,51,70,55,84,99,0
1985,2202,3828,11,17,8,8348,0.76,-0.08,2.22,1.83,1990,2208,3846,51,69,55,84,99,0
1965,2177,3814,1,2,-4,8287,0.76,-0.08,2.22,1.83,1989,2207,3845,51,69,55,84,99,0
1957,2164,3802,-11,-15,-20,8253,0.76,-0.08,2.22,1.83,1988,2205,3844,51,69,55,84,99,0
1954,2159,3797,-23,-30,-34,8238,0.76,-0.08,2.22,1.83,1987,2204,3842,51,69,55,84,99,0
1954,2159,3798,-30,-39,-40,8241,0.76,-0.08,2.22,1.83,1986,2202,3841,51,69,55,84,99,0
1956,2161,3800,-31,-42,-42,8247,0.76,-0.08,2.22,1.83,1985,2201,3839,51,69,55,84,99,0
1960,2166,3806,-29,-40,-39,8260,0.76,-0.08,2.22,1.83,1984,2200,3838,51,69,55,84,99,0
1963,2174,3810,-26,-35,-35,8276,0.76,-0.08,2.22,1.83,1984,2199,3837,51,69,55,84,99,0
1966,2179,3818,-22,-29,-29,8296,0.76,-0.08,2.22,1.83,1983,2198,3837,51,69,55,84,99,0
1966,2179,3818,-19,-24,-24,8295,0.76,-0.08,2.22,1.83,1982,2198,3836,51,69,55,84,99,0
1965,2179,3818,-17,-20,-20,8295,0.76,-0.08,2.22,1.83,1982,2197,3835,51,69,55,84,99,0
1966,2179,3819,-16,-18,-17,8297,0.76,-0.08,2.22,1.83,1981,2196,3835,51,69,55,84,99,0
1971,2183,3823,-14,-16,-15,8309,0.76,-0.08,2.22,1.83,1981,2196,3834,51,69,55,84,99,0
1979,2193,3822,-11,-12,-14,8324,0.76,-0.08,2.22,1.83,1981,2196,3834,51,69,55,84,99,0
1983,2199,3824,-6,-7,-12,8342,0.76,-0.08,2.22,1.83,1981,2196,3834,51,69,55,84,99,0
1988,2204,3836,0,-1,-7,8364,0.76,-0.08,2.22,1.83,1981,2196,3834,51,69,55,84,99,0
1992,2210,3842,4,5,-3,8383,0.76,-0.08,2.22,1.83,1982,2197,3834,51,69,55,84,99,0
1997,2216,3848,8,10,3,8399,0.76,-0.08,2.22,1.83,1982,2197,3834,51,69,55,84,99,0
2007,2221,3855,14,15,11,8416,0.76,-0.08,2.22,1.83,1983,2198,3835,51,69,55,84,99,0
2007,2227,3860,18,20,16,8439,0.76,-0.08,2.22,1.83,1984,2199,3836,51,69,55,84,99,0
2006,2231,3862,20,25,20,8447,0.76,-0.08,2.22,1.83,1985,2200,3837,51,69,55,84,99,0
2008,2237,3867,22,29,24,8459,0.76,-0.08,2.22,1.83,1985,2201,3838,51,69,55,84,99,0
2010,2239,3868,22,32,26,8466,0.76,-0.08,2.22,1.83,1986,2203,3839,51,69,55,84,99,0
2007,2231,3859,22,32,25,8444,0.76,-0.08,2.22,1.83,1987,2204,3840,51,69,58,84,99,0
1972,2186,3818,13,20,14,8310,0.76,-0.08,2.07,1.70,1986,2203,3839,51,70,58,84,99,0
1961,2168,3803,1,3,-2,8264,0.76,-0.08,2.07,1.70,1985,2202,3838,51,70,58,84,99,0
1954,2159,3795,-12,-16,-19,8240,0.76,-0.08,2.07,1.70,1984,2200,3836,51,70,58,84,99,0
1952,2156,3793,-24,-33,-34,8233,0.76,-0.08,2.07,1.70,1983,2199,3835,51,70,58,84,99,0
1952,2156,3793,-28,-39,-39,8233,0.76,-0.08,2.07,1.70,1982,2197,3833,51,70,58,84,99,0
1955,2160,3796,-29,-40,-39,8244,0.76,-0.08,2.07,1.70,1981,2196,3832,51,70,58,84,99,0
1959,2165,3801,-27,-37,-37,8257,0.76,-0.08,2.07,1.70,1981,2195,3831,51,70,58,84,99,0
1963,2173,3808,-23,-32,-32,8275,0.76,-0.08,2.07,1.70,1980,2194,3830,51,70,58,84,99,0
1960,2179,3811,-21,-25,-26,8280,0.76,-0.08,2.07,1.70,1979,2194,3830,51,70,58,84,99,0
1961,2180,3812,-19,-19,-22,8283,0.76,-0.08,2.07,1.70,1979,2193,3829,51,70,58,84,99,0
1962,2179,3813,-17,-15,-18,8283,0.76,-0.08,2.07,1.70,1978,2193,3829,51,70,58,84,99,0
1965,2180,3814,-16,-13,-16,8291,0.76,-0.08,2.07,1.70,1978,2193,3828,51,70,58,84,99,0
1968,2184,3820,-14,-12,-13,8300,0.76,-0.08,2.07,1.70,1978,2192,3828,51,70,58,84,99,0
1974,2190,3826,-10,-9,-10,8318,0.76,-0.08,2.07,1.70,1977,2192,3828,51,70,58,84,99,0
1979,2195,3824,-6,-5,-7,8328,0.76,-0.08,2.07,1.70,1977,2192,3828,51,70,58,84,99,0
1988,2207,3836,0,1,-1,8362,0.76,-0.08,2.07,1.70,1978,2193,3828,51,70,58,84,99,0
1993,2213,3842,6,8,4,8380,0.76,-0.08,2.07,1.70,1978,2193,3828,51,70,58,84,99,0
1998,2218,3847,11,15,9,8397,0.76,-0.08,2.07,1.70,1979,2194,3829,51,70,58,84,99,0
2003,2224,3854,16,21,16,8412,0.76,-0.08,2.07,1.70,1980,2195,3830,51,70,58,84,99,0
2008,2227,3857,21,26,20,8428,0.76,-0.08,2.07,1.70,1981,2196,3831,51,70,58,84,99,0
2007,2234,3862,23,30,24,8445,0.76,-0.08,2.07,1.70,1982,2198,3832,51,70,58,84,99,0
2007,2239,3866,25,34,28,8455,0.76,-0.08,2.07,1.70,1982,2199,3833,51,70,58,84,99,0
2009,2242,3868,25,37,30,8462,0.76,-0.08,2.07,1.70,1983,2200,3834,51,70,58,84,99,0
2008,2234,3860,25,37,30,8442,0.76,-0.08,2.07,1.70,1984,2202,3835,51,70,58,84,99,0
1994,2214,3837,21,31,23,8378,0.76,-0.08,2.07,1.70,1984,2202,3835,52,72,61,87,99,0
1962,2170,3803,9,13,7,8260,0.59,-0.08,2.06,1.65,1984,2201,3834,52,72,61,87,99,0
1954,2161,3794,-4,-6,-10,8236,0.59,-0.08,2.06,1.65,1983,2200,3833,52,72,61,87,99,0
1952,2158,3791,-17,-24,-27,8228,0.59,-0.08,2.06,1.65,1982,2198,3831,52,72,61,87,99,0
1952,2158,3792,-27,-37,-37,8229,0.59,-0.08,2.06,1.65,1981,2197,3830,52,72,61,87,99,0
1953,2160,3793,-28,-38,-38,8232,0.59,-0.08,2.06,1.65,1980,2196,3829,52,72,61,87,99,0
1960,2167,3801,-26,-35,-35,8255,0.59,-0.08,2.06,1.65,1979,2195,3828,52,72,61,87,99,0
1964,2173,3807,-22,-31,-30,8273,0.59,-0.08,2.06,1.65,1979,2194,3827,52,72,61,87,99,0
1962,2177,3811,-19,-25,-24,8278,0.59,-0.08,2.06,1.65,1978,2193,3826,52,72,61,87,99,0
1961,2181,3811,-16,-19,-19,8283,0.59,-0.08,2.06,1.65,1977,2193,3826,52,72,61,87,99,0
1961,2180,3812,-15,-15,-15,8283,0.59,-0.08,2.06,1.65,1977,2193,3825,52,72,61,87,99,0
1964,2181,3814,-15,-13,-13,8289,0.59,-0.08,2.06,1.65,1977,2192,3825,52,72,61,87,99,0
1967,2184,3819,-13,-11,-11,8302,0.59,-0.08,2.06,1.65,1976,2192,3825,52,72,61,87,99,0
1974,2191,3825,-10,-8,-7,8322,0.59,-0.08,2.06,1.65,1976,2192,3825,52,72,61,87,99,0
1980,2198,3821,-5,-3,-5,8330,0.59,-0.08,2.06,1.65,1976,2192,3825,52,72,61,87,99,0
1985,2203,3824,0,2,-2,8342,0.59,-0.08,2.06,1.65,1977,2192,3825,52,72,61,87,99,0
1995,2217,3842,7,10,3,8367,0.59,-0.08,2.06,1.65,1977,2193,3825,52,72,61,87,99,0
2000,2222,3850,13,17,9,8407,0.59,-0.08,2.06,1.65,1978,2194,3826,52,72,61,87,99,0
2006,2228,3855,18,24,17,8421,0.59,-0.08,2.06,1.65,1979,2195,3827,52,72,61,87,99,0
2008,2230,3856,23,29,24,8432,0.59,-0.08,2.06,1.65,1980,2196,3828,52,72,61,87,99,0
2006,2234,3859,25,32,27,8442,0.59,-0.08,2.06,1.65,1981,2198,3829,52,72,61,87,99,0
2011,2244,3863,27,37,29,8451,0.59,-0.08,2.06,1.65,1982,2199,3830,52,72,61,87,99,0
2014,2248,3871,28,40,32,8477,0.59,-0.08,2.06,1.65,1983,2201,3832,52,72,61,87,99,0
2019,2252,3875,30,44,36,8489,0.59,-0.08,2.06,1.65,1984,2203,3833,52,72,61,87,99,0
2016,2249,3871,31,46,37,8478,0.59,-0.08,2.06,1.65,1985,2204,3834,52,72,61,87,99,0
2005,2231,3852,29,41,33,8426,0.59,-0.08,2.06,1.65,1986,2205,3835,54,75,65,87,99,0
1967,2183,3824,16,24,21,8347,0.59,-0.08,2.01,1.60,1985,2204,3835,54,75,65,87,99,0
1964,2173,3803,3,5,3,8268,0.59,-0.08,2.01,1.60,1984,2203,3833,54,75,65,87,99,0
1961,2170,3799,-10,-14,-14,8259,0.59,-0.08,2.01,1.60,1984,2202,3832,54,75,65,87,99,0
1962,2172,3800,-20,-28,-26,8263,0.59,-0.08,2.01,1.60,1983,2201,3831,54,75,65,87,99,0
1963,2173,3801,-20,-29,-30,8267,0.59,-0.08,2.01,1.60,1982,2200,3830,54,75,65,87,99,0
1961,2180,3804,-20,-27,-29,8275,0.59,-0.08,2.01,1.60,1981,2200,3829,54,75,65,87,99,0
1967,2184,3814,-18,-22,-25,8298,0.59,-0.08,2.01,1.60,1981,2199,3829,54,75,65,87,99,0
1973,2189,3818,-15,-18,-20,8313,0.59,-0.08,2.01,1.60,1981,2199,3829,54,75,65,87,99,0
1974,2191,3821,-12,-13,-14,8319,0.59,-0.08,2.01,1.60,1981,2198,3828,54,75,65,87,99,0
1974,2191,3820,-8,-9,-10,8319,0.59,-0.08,2.01,1.60,1980,2198,3828,54,75,65,87,99,0
1975,2193,3820,-6,-7,-8,8318,0.59,-0.08,2.01,1.60,1980,2198,3828,54,75,65,87,99,0
1978,2196,3822,-5,-5,-7,8329,0.59,-0.08,2.01,1.60,1980,2198,3828,54,75,65,87,99,0
1981,2200,3817,-3,-3,-8,8332,0.59,-0.08,2.01,1.60,1980,2198,3827,54,75,54,87,99,0
1985,2205,3823,0,0,-7,8349,0.59,-0.08,2.42,1.93,1980,2198,3827,54,75,54,87,99,0
1990,2211,3834,3,4,-3,8370,0.59,-0.08,2.42,1.93,1981,2199,3827,54,75,54,87,99,0
2001,2218,3841,8,10,1,8391,0.59,-0.08,2.42,1.93,1981,2199,3828,54,75,54,87,99,0
2007,2229,3853,14,16,10,8426,0.59,-0.08,2.42,1.93,1982,2200,3829,54,75,54,87,99,0
2007,2231,3854,19,22,17,8436,0.59,-0.08,2.42,1.93,1983,2201,3829,54,75,54,87,99,0
2007,2237,3858,23,28,22,8445,0.59,-0.08,2.42,1.93,1984,2203,3830,54,75,54,87,99,0
2009,2241,3863,24,32,27,8457,0.59,-0.08,2.42,1.93,1985,2204,3831,54,75,54,87,99,0
2012,2246,3866,24,35,29,8468,0.59,-0.08,2.42,1.93,1985,2205,3833,54,75,54,87,99,0
2020,2254,3873,26,39,33,8492,0.59,-0.08,2.42,1.93,1987,2207,3834,54,75,54,87,99,0
2022,2258,3875,29,43,36,8500,0.59,-0.08,2.42,1.93,1988,2209,3835,54,75,54,87,99,0
2016,2250,3867,30,44,35,8479,0.59,-0.08,2.42,1.93,1989,2210,3836,54,75,50,86,99,0
2005,2230,3848,27,38,30,8422,0.59,-0.08,2.60,2.08,1989,2211,3837,53,75,50,86,99,0
1968,2205,3820,14,25,16,8346,0.59,-0.08,2.60,2.08,1989,2210,3836,53,75,50,86,99,0
1963,2179,3804,0,6,-1,8278,0.59,-0.08,2.60,2.08,1988,2209,3835,53,75,50,86,99,0
1963,2178,3803,-13,-11,-16,8277,0.59,-0.08,2.60,2.08,1987,2208,3834,53,75,50,86,99,0
1962,2180,3804,-23,-23,-26,8281,0.59,-0.08,2.60,2.08,1986,2207,3833,53,75,50,86,99,0
1963,2182,3806,-23,-28,-29,8286,0.59,-0.08,2.60,2.08,1985,2207,3832,53,75,50,86,99,0
1974,2186,3811,-20,-25,-26,8301,0.59,-0.08,2.60,2.08,1985,2206,3832,53,75,50,86,99,0
1979,2199,3817,-15,-19,-22,8332,0.59,-0.08,2.60,2.08,1985,2206,3831,53,75,50,86,99,0
1982,2202,3813,-10,-14,-19,8334,0.59,-0.08,2.60,2.08,1985,2206,3830,53,75,50,86,99,0
1982,2203,3813,-5,-8,-17,8334,0.59,-0.08,2.60,2.08,1985,2205,3830,53,75,50,86,99,0
1982,2202,3814,-3,-4,-15,8334,0.59,-0.08,2.60,2.08,1984,2205,3829,53,75,50,86,99,0
1982,2202,3813,-2,-3,-16,8334,0.59,-0.08,2.60,2.08,1984,2205,3829,53,75,50,86,99,0
1987,2207,3823,-1,-1,-13,8355,0.59,-0.08,2.60,2.08,1984,2205,3829,53,75,50,86,99,0
1991,2213,3831,1,0,-8,8373,0.59,-0.08,2.60,2.08,1985,2206,3829,53,75,50,86,99,0
1996,2219,3837,4,4,-3,8389,0.59,-0.08,2.60,2.08,1985,2206,3829,53,75,50,86,99,0
2001,2225,3843,8,10,4,8408,0.59,-0.08,2.60,2.08,1986,2207,3829,53,75,50,86,99,0
2007,2231,3850,13,15,11,8427,0.59,-0.08,2.60,2.08,1986,2207,3830,53,75,50,86,99,0
2008,2240,3857,17,21,17,8450,0.59,-0.08,2.60,2.08,1987,2209,3831,53,75,50,86,99,0
2011,2245,3863,20,27,22,8464,0.59,-0.08,2.60,2.08,1988,2210,3832,53,75,50,86,99,0
2015,2250,3867,22,32,27,8480,0.59,-0.08,2.60,2.08,1989,2211,3833,53,75,50,86,99,0
2020,2254,3870,25,36,31,8493,0.59,-0.08,2.60,2.08,1990,2212,3834,53,75,50,86,99,0
2024,2260,3874,28,40,34,8506,0.59,-0.08,2.60,2.08,1991,2214,3836,53,75,50,86,99,0
2029,2266,3880,31,44,37,8527,0.59,-0.08,2.60,2.08,1992,2216,3837,53,75,50,86,99,0
2026,2262,3873,33,45,38,8510,0.59,-0.08,2.60,2.08,1993,2217,3838,53,75,50,86,99,0
2009,2241,3852,29,41,32,8447,0.59,-0.08,2.60,2.08,1994,2218,3839,54,74,47,86,99,0
1993,2216,3827,21,29,19,8374,0.59,-0.08,2.73,2.21,1994,2218,3839,54,74,47,86,99,0
1977,2198,3813,7,11,2,8323,0.59,-0.08,2.73,2.21,1993,2217,3838,54,74,47,86,99,0
1965,2184,3804,-7,-7,-14,8288,0.59,-0.08,2.73,2.21,1992,2216,3837,54,74,47,86,99,0
1966,2185,3805,-17,-20,-25,8292,0.59,-0.08,2.73,2.21,1991,2215,3835,54,74,47,86,99,0
1971,2188,3807,-22,-26,-29,8302,0.59,-0.08,2.73,2.21,1991,2214,3835,54,74,47,86,99,0
1972,2191,3811,-22,-27,-28,8312,0.59,-0.08,2.73,2.21,1990,2214,3834,54,74,47,86,99,0
1977,2197,3816,-19,-23,-24,8328,0.59,-0.08,2.73,2.21,1990,2213,3833,54,74,47,86,99,0
1985,2206,3812,-14,-18,-22,8344,0.59,-0.08,2.73,2.21,1990,2213,3832,54,74,47,86,99,0
1986,2208,3816,-9,-12,-19,8349,0.59,-0.08,2.73,2.21,1989,2213,3832,54,74,47,86,99,0
1986,2208,3814,-6,-8,-17,8347,0.59,-0.08,2.73,2.21,1989,2212,3831,54,74,47,86,99,0
1986,2207,3813,-3,-5,-17,8347,0.59,-0.08,2.73,2.21,1989,2212,3831,54,74,47,86,99,0
1988,2209,3819,-2,-4,-15,8356,0.59,-0.08,2.73,2.21,1989,2212,3830,54,74,47,86,99,0
1995,2219,3831,0,-1,-11,8384,0.59,-0.08,2.73,2.21,1989,2212,3830,54,74,47,86,99,0
2000,2225,3838,3,2,-5,8401,0.59,-0.08,2.73,2.21,1990,2213,3831,54,74,47,86,99,0
2006,2231,3845,7,8,2,8420,0.59,-0.08,2.73,2.21,1990,2213,3831,54,74,47,86,99,0
2008,2235,3847,12,14,9,8434,0.59,-0.08,2.73,2.21,1991,2214,3832,54,74,47,86,99,0
2007,2239,3851,14,18,13,8445,0.59,-0.08,2.73,2.21,1991,2215,3832,54,74,47,86,99,0
2017,2251,3862,18,24,19,8478,0.59,-0.08,2.73,2.21,1992,2216,3833,54,74,47,86,99,0
2021,2256,3867,21,29,24,8493,0.59,-0.08,2.73,2.21,1993,2218,3834,54,74,47,86,99,0
2025,2260,3870,25,34,28,8505,0.59,-0.08,2.73,2.21,1994,2219,3836,54,74,47,86,99,0
2028,2265,3875,29,39,33,8517,0.59,-0.08,2.73,2.21,1995,2221,3837,54,74,47,86,99,0
2030,2270,3878,31,42,36,8529,0.59,-0.08,2.73,2.21,1997,2222,3838,54,74,47,86,99,0
2030,2269,3877,32,44,37,8528,0.59,-0.08,2.73,2.21,1998,2224,3840,54,74,47,86,99,0
2015,2251,3857,28,40,33,8470,0.59,-0.08,2.73,2.21,1998,2225,3840,54,73,51,86,99,0
2001,2226,3833,21,30,21,8398,0.59,-0.08,2.47,2.03,1998,2225,3840,54,73,51,86,99,0
1982,2203,3812,9,12,5,8334,0.59,-0.08,2.47,2.03,1998,2224,3839,54,73,51,86,99,0
1971,2191,3805,-5,-6,-12,8303,0.59,-0.08,2.47,2.03,1997,2223,3838,54,73,51,86,99,0
1966,2187,3801,-17,-21,-25,8292,0.59,-0.08,2.47,2.03,1996,2222,3837,54,73,51,86,99,0
1968,2188,3802,-24,-30,-32,8295,0.59,-0.08,2.47,2.03,1995,2220,3835,54,73,51,86,99,0
1971,2190,3804,-26,-32,-33,8303,0.59,-0.08,2.47,2.03,1994,2219,3834,54,73,51,86,99,0
1975,2194,3810,-24,-30,-30,8317,0.59,-0.08,2.47,2.03,1994,2219,3834,54,73,51,86,99,0
1979,2200,3815,-20,-26,-26,8332,0.59,-0.08,2.47,2.03,1993,2218,3833,54,73,51,86,99,0
1985,2206,3808,-16,-21,-24,8337,0.59,-0.08,2.47,2.03,1993,2218,3832,54,73,51,86,99,0
1983,2206,3808,-12,-16,-22,8336,0.59,-0.08,2.47,2.03,1992,2217,3831,54,73,51,86,99,0
1984,2206,3808,-9,-13,-22,8336,0.59,-0.08,2.47,2.03,1992,2217,3831,54,73,51,86,99,0
1984,2207,3808,-8,-11,-23,8337,0.59,-0.08,2.47,2.03,1992,2217,3830,54,73,51,86,99,0
1987,2209,3811,-7,-9,-21,8346,0.59,-0.08,2.47,2.03,1992,2216,3829,54,73,51,86,99,0
1995,2219,3828,-4,-6,-16,8366,0.59,-0.08,2.47,2.03,1992,2216,3829,54,73,51,86,99,0
2000,2225,3834,0,-1,-9,8401,0.59,-0.08,2.47,2.03,1992,2217,3829,54,73,51,86,99,0
2006,2232,3841,4,4,0,8420,0.59,-0.08,2.47,2.03,1993,2217,3830,54,73,51,86,99,0
2008,2236,3845,9,11,7,8433,0.59,-0.08,2.47,2.03,1993,2218,3830,54,73,51,86,99,0
2007,2239,3847,12,15,11,8444,0.59,-0.08,2.47,2.03,1994,2218,3831,54,73,51,86,99,0
2014,2246,3853,15,20,16,8458,0.59,-0.08,2.47,2.03,1994,2219,3831,54,73,51,86,99,0
2018,2256,3863,17,25,20,8487,0.59,-0.08,2.47,2.03,1995,2221,3833,54,73,51,86,99,0
2024,2260,3866,21,30,25,8498,0.59,-0.08,2.47,2.03,1996,2222,3834,54,73,51,86,99,0
2025,2263,3869,24,35,29,8509,0.59,-0.08,2.47,2.03,1997,2223,3835,54,73,51,86,99,0
2029,2266,3873,27,38,33,8520,0.59,-0.08,2.47,2.03,1998,2225,3836,54,73,51,86,99,0
2030,2269,3874,29,40,35,8524,0.59,-0.08,2.47,2.03,1999,2226,3837,54,73,51,86,99,0
2006,2235,3838,24,33,27,8423,0.59,-0.08,2.47,2.03,1999,2227,3837,54,73,47,86,99,0
1986,2209,3812,14,18,12,8346,0.59,-0.08,2.68,2.21,1999,2226,3837,54,73,47,86,99,0
1969,2190,3802,-1,0,-5,8298,0.59,-0.08,2.68,2.21,1998,2225,3835,54,73,47,86,99,0
1963,2183,3794,-17,-21,-24,8278,0.59,-0.08,2.68,2.21,1997,2223,3834,54,73,47,86,99,0
1964,2181,3792,-27,-33,-34,8275,0.59,-0.08,2.68,2.21,1996,2222,3833,54,73,47,86,99,0
1963,2182,3795,-31,-38,-37,8278,0.59,-0.08,2.68,2.21,1994,2221,3831,54,73,47,86,99,0
1963,2185,3797,-31,-38,-37,8284,0.59,-0.08,2.68,2.21,1993,2219,3830,54,73,47,86,99,0
1971,2191,3804,-28,-35,-33,8304,0.59,-0.08,2.68,2.21,1993,2218,3829,54,73,47,86,99,0
1976,2197,3810,-24,-30,-28,8321,0.59,-0.08,2.68,2.21,1992,2218,3829,54,73,47,85,99,0
1978,2200,3814,-20,-24,-22,8331,0.59,-0.08,2.68,2.21,1992,2217,3828,54,73,47,85,99,0
1979,2199,3814,-16,-20,-18,8329,0.59,-0.08,2.68,2.21,1991,2217,3828,54,73,47,85,99,0
1979,2200,3813,-13,-18,-15,8328,0.59,-0.08,2.68,2.21,1991,2216,3827,54,73,47,85,99,0
1979,2201,3814,-12,-16,-13,8331,0.59,-0.08,2.68,2.21,1990,2215,3827,54,73,47,85,99,0
1982,2204,3811,-10,-14,-14,8335,0.59,-0.08,2.68,2.21,1990,2215,3826,54,73,42,85,99,0
1985,2208,3808,-9,-12,-15,8339,0.59,-0.08,3.00,2.47,1990,2215,3826,54,73,42,85,99,0
1994,2219,3826,-5,-7,-11,8381,0.59,-0.08,3.00,2.47,1990,2215,3826,54,73,42,85,99,0
2000,2225,3833,0,-1,-6,8400,0.59,-0.08,3.00,2.47,1990,2215,3826,54,73,42,85,99,0
2005,2231,3838,5,5,0,8415,0.59,-0.08,3.00,2.47,1991,2216,3826,54,73,42,85,99,0
2008,2236,3844,11,12,9,8430,0.59,-0.08,3.00,2.47,1992,2217,3827,54,73,42,85,99,0
2007,2237,3844,13,16,13,8436,0.59,-0.08,3.00,2.47,1992,2217,3827,54,73,42,85,99,0
2010,2246,3852,15,20,17,8458,0.59,-0.08,3.00,2.47,1993,2218,3828,54,73,42,85,99,0
2013,2249,3855,17,24,21,8470,0.59,-0.08,3.00,2.47,1993,2219,3829,54,73,42,85,99,0
2017,2254,3858,18,28,23,8480,0.59,-0.08,3.00,2.47,1994,2220,3830,54,73,42,85,99,0
2013,2251,3854,19,30,25,8469,0.59,-0.08,3.00,2.47,1995,2221,3831,54,73,42,85,99,0
2006,2235,3836,18,26,20,8422,0.59,-0.08,3.00,2.47,1995,2222,3831,53,72,41,85,99,0
1966,2186,3793,6,10,4,8283,0.59,-0.08,3.03,2.48,1994,2221,3830,53,72,41,85,99,0
1961,2174,3784,-7,-9,-13,8254,0.59,-0.08,3.03,2.48,1993,2219,3828,53,72,41,85,99,0
1957,2170,3780,-21,-28,-30,8244,0.59,-0.08,3.03,2.48,1992,2217,3827,53,72,41,85,99,0
1958,2171,3781,-32,-43,-43,8245,0.59,-0.08,3.03,2.48,1991,2216,3825,53,72,41,85,99,0
1959,2173,3783,-32,-44,-44,8252,0.59,-0.08,3.03,2.48,1990,2215,3824,53,72,41,85,99,0
1964,2180,3789,-31,-41,-41,8272,0.59,-0.08,3.03,2.48,1989,2213,3823,53,72,41,85,99,0
1964,2185,3795,-28,-36,-36,8284,0.59,-0.08,3.03,2.48,1988,2212,3822,53,72,41,85,99,0
1968,2188,3798,-24,-31,-31,8294,0.59,-0.08,3.03,2.48,1987,2212,3821,53,72,41,85,99,0
1968,2189,3798,-21,-26,-26,8294,0.59,-0.08,3.03,2.48,1987,2211,3820,53,72,41,85,99,0
1966,2187,3797,-20,-24,-23,8290,0.59,-0.08,3.03,2.48,1986,2210,3819,53,72,41,85,99,0
1965,2187,3796,-19,-22,-22,8288,0.59,-0.08,3.03,2.48,1985,2209,3819,53,72,41,85,99,0
1968,2189,3798,-19,-21,-21,8295,0.59,-0.08,3.03,2.48,1985,2209,3818,53,72,41,85,99,0
1972,2193,3803,-17,-20,-19,8309,0.59,-0.08,3.03,2.48,1984,2208,3817,53,72,41,85,99,0
1976,2198,3809,-14,-16,-16,8326,0.59,-0.08,3.03,2.48,1984,2208,3817,53,72,41,85,99,0
1982,2204,3808,-9,-12,-12,8336,0.59,-0.08,3.03,2.48,1984,2208,3817,53,72,41,85,99,0
1991,2214,3818,-3,-5,-7,8367,0.59,-0.08,3.03,2.48,1984,2208,3817,53,72,41,85,99,0
1995,2220,3824,1,1,-2,8384,0.59,-0.08,3.03,2.48,1985,2208,3817,53,72,41,85,99,0
1999,2225,3829,7,7,2,8400,0.59,-0.08,3.03,2.48,1985,2209,3817,53,72,41,85,99,0
2004,2230,3834,12,13,9,8414,0.59,-0.08,3.03,2.48,1986,2209,3818,53,72,41,85,99,0
2008,2234,3839,16,18,13,8425,0.59,-0.08,3.03,2.48,1986,2210,3819,53,72,41,85,99,0
2008,2238,3842,18,22,17,8432,0.59,-0.08,3.03,2.48,1987,2211,3820,53,72,41,85,99,0
2002,2229,3830,18,22,17,8405,0.59,-0.08,3.03,2.48,1988,2212,3820,53,72,41,85,99,0
1982,2206,3805,13,15,9,8334,0.59,-0.08,3.03,2.48,1987,2212,3819,52,70,46,85,99,0
1962,2180,3784,1,1,-4,8265,0.59,-0.08,2.63,2.17,1987,2211,3818,52,70,46,85,99,0
1950,2162,3768,-12,-16,-21,8217,0.59,-0.08,2.63,2.17,1985,2209,3817,52,70,46,85,99,0
1943,2155,3765,-26,-34,-36,8196,0.59,-0.08,2.63,2.17,1984,2207,3815,52,70,46,85,99,0
1943,2156,3765,-35,-44,-45,8195,0.59,-0.08,2.63,2.17,1983,2205,3813,52,70,46,85,99,0
1945,2157,3766,-38,-48,-48,8200,0.59,-0.08,2.63,2.17,1981,2204,3812,52,70,46,85,99,0
1948,2158,3767,-37,-48,-46,8208,0.59,-0.08,2.63,2.17,1980,2202,3810,52,70,46,85,99,0
1952,2163,3771,-33,-44,-43,8224,0.59,-0.08,2.63,2.17,1979,2201,3809,52,70,46,85,99,0
1958,2171,3778,-29,-39,-39,8239,0.59,-0.08,2.63,2.17,1979,2200,3808,52,70,46,85,99,0
1958,2172,3780,-25,-34,-34,8247,0.59,-0.08,2.63,2.17,1978,2199,3807,52,70,46,85,99,0
1957,2171,3778,-22,-30,-30,8244,0.59,-0.08,2.63,2.17,1977,2198,3806,52,70,46,85,99,0
1957,2171,3778,-20,-27,-28,8243,0.59,-0.08,2.63,2.17,1976,2197,3805,52,70,46,85,99,0
1959,2172,3779,-19,-26,-26,8248,0.59,-0.08,2.63,2.17,1976,2196,3804,52,70,46,85,99,0
1965,2180,3783,-16,-23,-25,8260,0.59,-0.08,2.63,2.17,1976,2196,3803,52,70,46,85,99,0
1963,2185,3792,-14,-19,-20,8284,0.59,-0.08,2.63,2.17,1975,2196,3803,52,70,46,85,99,0
1971,2191,3798,-11,-13,-15,8302,0.59,-0.08,2.63,2.17,1975,2195,3803,52,70,46,85,99,0
1976,2197,3804,-6,-7,-8,8321,0.59,-0.08,2.63,2.17,1975,2195,3803,52,70,46,85,99,0
1981,2203,3809,-2,-1,-2,8336,0.59,-0.08,2.63,2.17,1975,2196,3803,52,70,46,85,99,0
1988,2207,3803,3,4,0,8340,0.59,-0.08,2.63,2.17,1976,2196,3803,52,70,46,85,99,0
1993,2217,3816,9,10,5,8372,0.59,-0.08,2.63,2.17,1976,2197,3803,52,70,46,85,99,0
1996,2222,3822,13,15,9,8385,0.59,-0.08,2.63,2.17,1977,2198,3804,52,70,46,85,99,0
1998,2224,3823,17,20,12,8392,0.59,-0.08,2.63,2.17,1978,2198,3805,52,70,46,85,99,0
1992,2217,3812,17,22,14,8367,0.59,-0.08,2.63,2.17,1978,2199,3805,52,70,46,85,99,0
1973,2195,3796,12,16,8,8306,0.59,-0.08,2.63,2.17,1978,2199,3805,53,70,50,85,99,0
1939,2150,3755,-2,-1,-8,8174,0.82,-0.08,2.42,2.04,1977,2197,3803,53,70,50,85,99,0
1932,2140,3745,-18,-22,-26,8149,0.82,-0.08,2.42,2.04,1975,2195,3801,53,70,50,85,99,0
1929,2134,3741,-32,-41,-42,8136,0.82,-0.08,2.42,2.04,1974,2193,3799,53,70,50,85,99,0
1929,2134,3741,-42,-54,-54,8137,0.82,-0.08,2.42,2.04,1972,2191,3797,53,70,50,85,99,0
1929,2135,3742,-43,-56,-55,8138,0.82,-0.08,2.42,2.04,1971,2190,3795,53,70,50,85,99,0
1934,2143,3749,-41,-54,-53,8157,0.82,-0.08,2.42,2.04,1969,2188,3794,53,70,50,85,99,0
1939,2148,3754,-37,-49,-48,8173,0.82,-0.08,2.42,2.04,1968,2187,3792,53,70,50,85,99,0
1942,2152,3758,-33,-43,-42,8182,0.82,-0.08,2.42,2.04,1968,2185,3791,53,70,50,85,99,0
1942,2153,3759,-28,-37,-36,8185,0.82,-0.08,2.42,2.04,1967,2184,3790,53,70,50,85,99,0
1942,2153,3758,-26,-33,-33,8183,0.82,-0.08,2.42,2.04,1966,2183,3789,53,70,50,85,99,0
1942,2153,3759,-24,-30,-31,8186,0.82,-0.08,2.42,2.04,1965,2182,3788,53,70,50,85,99,0
1944,2156,3762,-23,-29,-29,8195,0.82,-0.08,2.42,2.04,1964,2182,3787,53,70,50,85,99,0
1948,2159,3764,-20,-26,-27,8207,0.82,-0.08,2.42,2.04,1964,2181,3787,53,70,50,85,99,0
1952,2164,3768,-17,-23,-23,8223,0.82,-0.08,2.42,2.04,1963,2180,3786,53,70,50,85,99,0
1956,2170,3773,-13,-18,-19,8239,0.82,-0.08,2.42,2.04,1963,2180,3785,53,70,50,85,99,0
1964,2181,3784,-8,-11,-13,8272,0.82,-0.08,2.42,2.04,1963,2180,3785,53,70,50,85,99,0
1964,2186,3788,-4,-4,-7,8282,0.82,-0.08,2.42,2.04,1963,2180,3786,53,70,50,85,99,0
1969,2191,3792,0,2,-1,8296,0.82,-0.08,2.42,2.04,1963,2180,3786,53,70,50,85,99,0
1974,2195,3797,4,8,4,8310,0.82,-0.08,2.42,2.04,1964,2181,3786,53,70,50,85,99,0
1978,2199,3803,7,12,8,8324,0.82,-0.08,2.42,2.04,1964,2182,3787,53,70,50,85,99,0
1981,2204,3805,11,16,12,8335,0.82,-0.08,2.42,2.04,1965,2182,3787,53,70,50,85,99,0
1969,2190,3789,11,15,11,8291,0.82,-0.08,2.42,2.04,1965,2183,3787,53,71,54,85,99,0
1951,2165,3764,5,7,3,8217,0.82,-0.08,2.28,1.89,1964,2182,3787,53,71,54,85,99,0
1932,2140,3742,-6,-7,-11,8146,0.82,-0.08,2.28,1.89,1963,2181,3785,53,71,54,85,99,0
1921,2126,3728,-20,-26,-29,8104,0.82,-0.08,2.28,1.89,1962,2179,3783,53,71,54,85,99,0
1914,2117,3720,-32,-42,-45,8077,0.82,-0.08,2.28,1.89,1960,2177,3781,53,71,54,85,99,0
1913,2116,3718,-41,-53,-55,8076,0.82,-0.08,2.28,1.89,1959,2175,3779,53,71,54,85,99,0
1912,2116,3719,-44,-57,-58,8077,0.82,-0.08,2.28,1.89,1957,2173,3777,53,71,54,85,99,0
1915,2119,3721,-44,-57,-58,8084,0.82,-0.08,2.28,1.89,1956,2171,3775,53,71,54,85,99,0
1919,2125,3727,-42,-53,-54,8101,0.82,-0.08,2.28,1.89,1955,2169,3773,53,71,54,85,99,0
1925,2126,3734,-37,-48,-49,8118,0.82,-0.08,2.28,1.89,1954,2168,3772,53,71,54,85,99,0
1925,2126,3734,-33,-44,-43,8116,0.82,-0.08,2.28,1.89,1953,2166,3771,53,71,54,85,99,0
1925,2126,3734,-30,-41,-39,8115,0.82,-0.08,2.28,1.89,1952,2165,3770,53,71,54,85,99,0
1924,2127,3734,-27,-39,-36,8118,0.82,-0.08,2.28,1.89,1951,2164,3768,53,71,54,85,99,0
1926,2132,3737,-26,-36,-34,8127,0.82,-0.08,2.28,1.89,1950,2163,3767,53,71,54,85,99,0
1934,2144,3747,-23,-31,-30,8157,0.82,-0.08,2.28,1.89,1949,2162,3767,53,71,54,85,99,0
1938,2149,3753,-19,-24,-24,8171,0.82,-0.08,2.28,1.89,1949,2162,3766,53,71,54,85,99,0
1942,2154,3758,-14,-17,-17,8187,0.82,-0.08,2.28,1.89,1949,2161,3766,53,71,54,85,99,0
1947,2159,3762,-8,-10,-11,8204,0.82,-0.08,2.28,1.89,1949,2161,3766,53,71,54,85,99,0
1951,2163,3765,-4,-5,-6,8220,0.82,-0.08,2.28,1.89,1949,2161,3766,53,71,54,85,99,0
1959,2174,3775,0,1,-1,8249,0.82,-0.08,2.28,1.89,1949,2162,3766,53,71,54,85,99,0
1962,2178,3778,5,7,3,8262,0.82,-0.08,2.28,1.89,1950,2162,3767,53,71,54,85,99,0
1965,2180,3782,9,11,8,8272,0.82,-0.08,2.28,1.89,1950,2163,3767,53,71,54,85,99,0
1964,2185,3785,12,16,13,8278,0.82,-0.08,2.28,1.89,1951,2164,3768,53,71,54,85,99,0
1964,2187,3788,13,19,15,8287,0.82,-0.08,2.28,1.89,1951,2165,3768,53,71,54,85,99,0
1951,2166,3763,10,15,11,8277,0.82,-0.08,2.28,1.89,1951,2165,3768,54,72,59,85,99,0
1931,2139,3739,1,4,1,8142,0.82,-0.08,2.12,1.77,1950,2164,3767,54,72,59,85,99,0
1915,2119,3719,-10,-11,-15,8083,0.82,-0.08,2.12,1.77,1949,2162,3766,54,72,59,85,99,0
1906,2107,3712,-23,-30,-33,8054,0.82,-0.08,2.12,1.77,1948,2160,3764,54,72,59,85,99,0
1902,2102,3706,-34,-44,-45,8040,0.82,-0.08,2.12,1.77,1946,2158,3762,54,72,59,85,99,0
1902,2102,3705,-40,-51,-52,8037,0.82,-0.08,2.12,1.77,1945,2157,3760,54,72,59,85,99,0
1903,2102,3707,-42,-54,-53,8041,0.82,-0.08,2.12,1.77,1943,2155,3758,54,72,59,85,99,0
1906,2106,3712,-40,-52,-51,8053,0.82,-0.08,2.12,1.77,1942,2153,3757,54,72,59,85,99,0
1910,2112,3717,-37,-48,-47,8068,0.82,-0.08,2.12,1.77,1941,2152,3755,54,72,59,85,99,0
1913,2117,3720,-33,-43,-42,8078,0.82,-0.08,2.12,1.77,1940,2151,3754,54,72,59,85,99,0
1912,2116,3719,-30,-38,-37,8077,0.82,-0.08,2.12,1.77,1939,2149,3753,54,72,59,85,99,0
1911,2115,3718,-28,-35,-35,8076,0.82,-0.08,2.12,1.77,1938,2148,3752,54,72,59,85,99,0
1912,2116,3719,-26,-32,-33,8077,0.82,-0.08,2.12,1.77,1937,2147,3751,54,72,59,85,99,0
1914,2119,3722,-25,-31,-32,8089,0.82,-0.08,2.12,1.77,1937,2146,3750,54,72,59,85,99,0
1918,2124,3727,-23,-28,-29,8103,0.82,-0.08,2.12,1.77,1936,2146,3749,54,72,59,85,99,0
1926,2131,3737,-19,-23,-23,8129,0.82,-0.08,2.12,1.77,1936,2145,3749,54,72,59,85,99,0
1930,2140,3742,-14,-17,-17,8147,0.82,-0.08,2.12,1.77,1935,2145,3748,54,72,59,85,99,0
1935,2145,3748,-8,-10,-10,8163,0.82,-0.08,2.12,1.77,1935,2145,3748,54,72,59,85,99,0
1940,2150,3753,-2,-3,-3,8177,0.82,-0.08,2.12,1.77,1936,2145,3749,54,72,59,85,99,0
1942,2154,3757,1,2,1,8189,0.82,-0.08,2.12,1.77,1936,2145,3749,54,72,59,85,99,0
1947,2160,3762,5,7,6,8200,0.82,-0.08,2.12,1.77,1936,2146,3749,54,72,59,85,99,0
1950,2164,3765,8,11,10,8222,0.82,-0.08,2.12,1.77,1937,2146,3750,54,72,59,85,99,0
1951,2165,3765,11,14,12,8223,0.82,-0.08,2.12,1.77,1937,2147,3750,54,72,59,85,99,0
1942,2156,3755,10,14,12,8190,0.82,-0.08,2.12,1.77,1937,2147,3750,54,72,59,85,99,0
1925,2132,3731,5,7,4,8122,0.82,-0.08,2.12,1.77,1937,2147,3750,54,71,61,85,99,0
1892,2090,3695,-9,-10,-13,8052,0.82,-0.08,2.03,1.71,1935,2145,3748,54,71,61,85,99,0
1887,2083,3688,-24,-30,-31,7984,0.82,-0.08,2.03,1.71,1934,2143,3746,54,71,61,85,99,0
1886,2083,3686,-37,-47,-47,7981,0.82,-0.08,2.03,1.71,1932,2141,3744,54,71,61,85,99,0
1886,2083,3685,-45,-57,-56,7981,0.82,-0.08,2.03,1.71,1931,2139,3742,54,71,61,85,99,0
1887,2083,3688,-45,-57,-56,7985,0.82,-0.08,2.03,1.71,1929,2137,3740,54,71,61,85,99,0
1894,2091,3697,-41,-53,-52,7992,0.82,-0.08,2.03,1.71,1928,2136,3739,54,71,61,85,99,0
1898,2098,3703,-37,-47,-46,8029,0.82,-0.08,2.03,1.71,1927,2134,3738,54,71,61,85,99,0
1900,2100,3705,-32,-42,-40,8035,0.82,-0.08,2.03,1.71,1926,2133,3736,54,71,61,85,99,0
1900,2099,3705,-28,-36,-34,8034,0.82,-0.08,2.03,1.71,1925,2132,3735,54,71,61,85,99,0
1898,2098,3704,-26,-33,-31,8031,0.82,-0.08,2.03,1.71,1924,2131,3734,54,71,61,85,99,0
1901,2102,3707,-25,-31,-29,8033,0.82,-0.08,2.03,1.71,1924,2130,3734,54,71,61,85,99,0
1904,2106,3712,-23,-29,-27,8054,0.82,-0.08,2.03,1.71,1923,2129,3733,54,71,61,85,99,0
1909,2111,3716,-20,-25,-23,8068,0.82,-0.08,2.03,1.71,1922,2129,3732,54,71,61,85,99,0
1913,2117,3721,-16,-20,-18,8083,0.82,-0.08,2.03,1.71,1922,2128,3732,54,71,61,85,99,0
1917,2124,3726,-11,-14,-13,8100,0.82,-0.08,2.03,1.71,1922,2128,3732,54,71,61,85,99,0
1926,2133,3737,-5,-7,-7,8115,0.82,-0.08,2.03,1.71,1922,2128,3732,54,71,61,85,99,0
1930,2139,3742,0,0,0,8147,0.82,-0.08,2.03,1.71,1922,2129,3732,54,71,61,85,99,0
1934,2145,3746,4,6,5,8160,0.82,-0.08,2.03,1.71,1923,2129,3733,54,71,61,85,99,0
1936,2148,3751,9,12,11,8171,0.82,-0.08,2.03,1.71,1923,2130,3733,54,71,61,85,99,0
1941,2153,3755,12,16,15,8185,0.82,-0.08,2.03,1.71,1924,2130,3734,54,71,61,85,99,0
1939,2153,3753,14,19,17,8195,0.82,-0.08,2.03,1.71,1924,2131,3735,54,71,61,85,99,0
1926,2134,3733,11,16,13,8127,0.82,-0.08,2.03,1.71,1924,2131,3735,55,72,64,85,99,0
1904,2107,3708,3,6,2,8050,0.82,-0.08,1.97,1.67,1924,2131,3734,55,72,64,85,99,0
1888,2085,3689,-9,-10,-13,7987,0.82,-0.08,1.97,1.67,1923,2129,3732,55,72,64,85,99,0
1879,2078,3677,-23,-28,-31,7958,0.82,-0.08,1.97,1.67,1921,2127,3730,55,72,64,85,99,0
1875,2071,3674,-35,-42,-44,7945,0.82,-0.08,1.97,1.67,1920,2125,3728,55,72,64,85,99,0
1875,2071,3674,-41,-50,-50,7943,0.82,-0.08,1.97,1.67,1918,2124,3727,55,72,64,85,99,0
1876,2072,3675,-42,-51,-52,7945,0.82,-0.08,1.97,1.67,1917,2122,3725,55,72,64,85,99,0
1878,2076,3679,-41,-50,-50,7958,0.82,-0.08,1.97,1.67,1915,2120,3723,55,72,64,85,99,0
1884,2083,3685,-37,-45,-46,7976,0.82,-0.08,1.97,1.67,1914,2119,3722,55,72,64,85,99,0
1889,2083,3691,-33,-41,-40,7985,0.82,-0.08,1.97,1.67,1913,2118,3721,55,72,64,85,99,0
1889,2083,3691,-28,-37,-35,7989,0.82,-0.08,1.97,1.67,1913,2117,3720,55,72,64,85,99,0
1888,2084,3691,-25,-34,-31,7992,0.82,-0.08,1.97,1.67,1912,2116,3719,55,72,64,85,99,0
1890,2085,3693,-23,-32,-28,7998,0.82,-0.08,1.97,1.67,1911,2115,3718,55,72,64,85,99,0
1892,2090,3697,-21,-30,-25,8009,0.82,-0.08,1.97,1.67,1910,2114,3718,55,72,64,85,99,0
1901,2102,3707,-18,-24,-21,8025,0.82,-0.08,1.97,1.67,1910,2113,3717,55,72,64,85,99,0
1906,2109,3716,-13,-17,-14,8063,0.82,-0.08,1.97,1.67,1910,2113,3717,55,72,64,85,99,0
1911,2115,3718,-7,-9,-7,8078,0.82,-0.08,1.97,1.67,1910,2113,3717,55,72,64,85,99,0
1916,2122,3724,-1,-1,0,8095,0.82,-0.08,1.97,1.67,1910,2114,3717,55,72,64,85,99,0
1921,2127,3729,3,4,4,8112,0.82,-0.08,1.97,1.67,1911,2114,3718,55,72,64,85,99,0
1928,2137,3734,8,11,8,8124,0.82,-0.08,1.97,1.67,1911,2115,3718,55,72,64,85,99,0
1932,2142,3742,13,17,14,8153,0.82,-0.08,1.97,1.67,1912,2116,3719,55,72,64,85,99,0
1935,2146,3747,17,22,19,8165,0.82,-0.08,1.97,1.67,1913,2117,3720,55,72,64,85,99,0
1939,2151,3751,21,27,24,8178,0.82,-0.08,1.97,1.67,1914,2118,3721,55,72,64,85,99,0
1941,2155,3754,23,31,28,8185,0.82,-0.08,1.97,1.67,1914,2119,3722,55,72,64,85,99,0
1915,2121,3742,18,25,27,8156,0.82,-0.08,1.97,1.67,1914,2119,3723,58,75,68,85,99,0
1894,2093,3694,8,11,13,8009,0.82,-0.08,1.94,1.66,1914,2118,3722,58,75,68,85,99,0
1880,2079,3676,-6,-6,-5,7960,0.82,-0.08,1.94,1.66,1913,2117,3720,58,75,68,85,99,0
1873,2069,3670,-22,-26,-25,7934,0.82,-0.08,1.94,1.66,1911,2115,3719,58,75,68,85,99,0
1871,2066,3668,-32,-39,-42,7925,0.82,-0.08,1.94,1.66,1910,2114,3717,58,75,68,85,99,0
1870,2065,3667,-37,-44,-47,7922,0.82,-0.08,1.94,1.66,1909,2112,3715,58,75,68,85,99,0
1871,2067,3670,-38,-46,-47,7930,0.82,-0.08,1.94,1.66,1907,2111,3714,58,75,68,85,99,0
1875,2072,3675,-36,-44,-44,7946,0.82,-0.08,1.94,1.66,1906,2109,3713,58,75,68,85,99,0
1881,2080,3681,-32,-39,-40,7965,0.82,-0.08,1.94,1.66,1905,2108,3711,58,75,68,85,99,0
1884,2084,3686,-28,-33,-34,7977,0.82,-0.08,1.94,1.66,1905,2108,3711,58,75,68,85,99,0
1885,2083,3686,-23,-28,-29,7980,0.82,-0.08,1.94,1.66,1904,2107,3710,58,75,68,85,99,0
1885,2083,3688,-20,-24,-25,7982,0.82,-0.08,1.94,1.66,1903,2106,3709,58,75,68,85,99,0
1886,2083,3689,-18,-23,-22,7985,0.82,-0.08,1.94,1.66,1903,2105,3708,58,75,68,85,99,0
1889,2086,3693,-16,-22,-19,7997,0.82,-0.08,1.94,1.66,1902,2105,3708,58,75,68,85,99,0
1894,2093,3698,-14,-18,-16,8014,0.82,-0.08,1.94,1.66,1902,2104,3708,58,75,68,85,99,0
1904,2107,3704,-9,-12,-11,8033,0.82,-0.08,1.94,1.66,1902,2104,3707,58,75,68,85,99,0
1909,2113,3717,-3,-4,-4,8070,0.82,-0.08,1.94,1.66,1902,2105,3708,58,75,68,85,99,0
1913,2120,3722,2,3,2,8089,0.82,-0.08,1.94,1.66,1903,2105,3708,58,75,68,85,99,0
1918,2127,3728,8,11,9,8108,0.82,-0.08,1.94,1.66,1903,2106,3709,58,75,68,85,99,0
1922,2126,3733,12,16,16,8117,0.82,-0.08,1.94,1.66,1904,2106,3710,58,75,68,85,99,0
1928,2134,3737,16,20,20,8132,0.82,-0.08,1.94,1.66,1905,2107,3711,58,75,68,85,99,0
1931,2143,3743,20,25,24,8155,0.82,-0.08,1.94,1.66,1906,2109,3712,58,75,68,85,99,0
1934,2146,3747,23,29,28,8164,0.82,-0.08,1.94,1.66,1907,2110,3713,58,75,68,85,99,0
1936,2149,3749,25,33,31,8172,0.82,-0.08,1.94,1.66,1908,2111,3714,58,75,68,85,99,0
1935,2148,3747,26,36,33,8169,0.82,-0.08,1.94,1.66,1908,2112,3715,58,75,68,85,99,0
1902,2133,3730,19,32,28,8121,0.82,-0.08,1.94,1.66,1908,2113,3716,59,77,71,86,99,0
1882,2082,3680,6,16,11,7969,0.82,-0.08,1.91,1.62,1907,2112,3714,59,77,71,86,99,0
1870,2067,3668,-10,-4,-8,7929,0.82,-0.08,1.91,1.62,1906,2111,3713,59,77,71,86,99,0
1867,2060,3663,-26,-25,-28,7912,0.82,-0.08,1.91,1.62,1905,2109,3711,59,77,71,86,99,0
1866,2059,3663,-34,-42,-43,7910,0.82,-0.08,1.91,1.62,1904,2107,3710,59,77,71,86,99,0
1868,2060,3664,-36,-46,-46,7913,0.82,-0.08,1.91,1.62,1902,2106,3708,59,77,71,86,99,0
1870,2065,3669,-35,-45,-44,7929,0.82,-0.08,1.91,1.62,1901,2104,3707,59,77,71,86,99,0
1875,2072,3674,-32,-41,-40,7946,0.82,-0.08,1.91,1.62,1900,2103,3706,59,77,71,86,99,0
1879,2077,3678,-27,-35,-35,7960,0.82,-0.08,1.91,1.62,1900,2102,3705,59,77,71,86,99,0
1881,2082,3681,-23,-28,-30,7970,0.82,-0.08,1.91,1.62,1899,2102,3704,59,77,71,86,99,0
1880,2081,3681,-20,-24,-26,7967,0.82,-0.08,1.91,1.62,1898,2101,3703,59,77,71,86,99,0
1881,2083,3682,-18,-20,-23,7972,0.82,-0.08,1.91,1.62,1898,2100,3702,59,77,71,86,99,0
1884,2084,3685,-16,-18,-20,7978,0.82,-0.08,1.91,1.62,1897,2100,3702,59,77,71,86,99,0
1886,2083,3689,-14,-17,-17,7987,0.82,-0.08,1.91,1.62,1897,2099,3701,59,77,71,86,99,0
1891,2089,3694,-11,-14,-14,8005,0.82,-0.08,1.91,1.62,1897,2099,3701,59,77,71,86,99,0
1901,2096,3701,-6,-11,-9,8026,0.82,-0.08,1.91,1.62,1897,2099,3701,59,77,71,86,99,0
1906,2110,3713,-1,-4,-2,8064,0.82,-0.08,1.91,1.62,1897,2099,3702,59,77,71,86,99,0
1910,2116,3717,4,3,4,8078,0.82,-0.08,1.91,1.62,1898,2100,3702,59,77,71,86,99,0
1915,2122,3722,10,11,11,8093,0.82,-0.08,1.91,1.62,1898,2100,3703,59,77,71,86,99,0
1919,2127,3727,14,18,17,8107,0.82,-0.08,1.91,1.62,1899,2101,3704,59,77,71,86,99,0
1921,2127,3730,17,22,20,8115,0.82,-0.08,1.91,1.62,1900,2102,3704,59,77,71,86,99,0
1928,2139,3739,21,27,25,8142,0.82,-0.08,1.91,1.62,1901,2103,3706,59,77,71,86,99,0
1929,2141,3740,23,30,28,8149,0.82,-0.08,1.91,1.62,1902,2105,3707,59,77,71,86,99,0
1922,2130,3729,23,30,28,8117,0.82,-0.08,1.91,1.62,1902,2106,3708,59,77,71,86,99,0
1903,2108,3706,18,24,21,8047,0.82,-0.08,1.91,1.62,1902,2106,3707,59,76,71,86,99,0
1869,2083,3682,4,10,7,7970,0.82,-0.08,1.88,1.62,1901,2105,3707,59,76,71,86,99,0
1865,2058,3661,-11,-10,-12,7903,0.82,-0.08,1.88,1.62,1900,2103,3705,59,76,71,86,99,0
1862,2054,3659,-25,-28,-28,7895,0.82,-0.08,1.88,1.62,1899,2102,3704,59,76,71,86,99,0
1862,2055,3660,-34,-40,-39,7895,0.82,-0.08,1.88,1.62,1897,2100,3702,59,76,71,86,99,0
1863,2055,3660,-35,-45,-43,7897,0.82,-0.08,1.88,1.62,1896,2099,3701,59,76,71,86,99,0
1868,2057,3663,-33,-44,-41,7905,0.82,-0.08,1.88,1.62,1895,2097,3699,59,76,71,86,99,0
1872,2070,3673,-29,-38,-36,7939,0.82,-0.08,1.88,1.62,1895,2096,3699,59,76,71,86,99,0
1876,2074,3676,-25,-33,-31,7950,0.82,-0.08,1.88,1.62,1894,2096,3698,59,76,71,86,99,0
1876,2076,3677,-21,-26,-26,7953,0.82,-0.08,1.88,1.62,1893,2095,3697,59,76,71,86,99,0
1876,2074,3677,-18,-21,-21,7953,0.82,-0.08,1.88,1.62,1893,2094,3696,59,76,71,86,99,0
1877,2075,3677,-16,-20,-20,7953,0.82,-0.08,1.88,1.62,1892,2094,3696,59,76,71,86,99,0
1881,2083,3684,-15,-17,-17,7972,0.82,-0.08,1.88,1.62,1892,2093,3695,59,76,71,82,99,0
1884,2083,3688,-12,-14,-14,7983,0.82,-0.08,1.88,1.62,1892,2093,3695,59,76,71,82,99,0
1889,2086,3694,-9,-11,-9,7999,0.82,-0.08,1.88,1.62,1892,2093,3695,59,76,71,82,99,0
1894,2096,3701,-5,-6,-3,8021,0.82,-0.08,1.88,1.62,1892,2093,3695,59,76,71,82,99,0
1899,2103,3707,0,-1,2,8043,0.82,-0.08,1.88,1.62,1892,2093,3696,59,76,71,82,99,0
1909,2117,3719,5,7,9,8077,0.82,-0.08,1.88,1.62,1892,2094,3696,59,76,71,82,99,0
1914,2123,3723,11,16,16,8094,0.82,-0.08,1.88,1.62,1893,2095,3697,59,76,71,82,99,0
1918,2127,3729,17,23,22,8110,0.82,-0.08,1.88,1.62,1894,2096,3698,59,76,71,82,99,0
1922,2126,3731,22,27,27,8117,0.82,-0.08,1.88,1.62,1895,2097,3700,59,76,71,82,99,0
1924,2135,3735,25,31,30,8132,0.82,-0.08,1.88,1.62,1896,2098,3701,59,76,71,82,99,0
1931,2144,3742,28,35,34,8155,0.82,-0.08,1.88,1.62,1897,2100,3702,59,76,71,82,99,0
1924,2134,3732,28,35,33,8128,0.82,-0.08,1.88,1.62,1898,2101,3703,59,76,73,82,99,0
1905,2111,3708,23,31,27,8057,0.82,-0.08,1.83,1.58,1898,2101,3703,60,77,73,82,99,0
1883,2084,3682,13,17,13,7975,0.82,-0.08,1.83,1.58,1898,2101,3703,60,77,73,85,99,0
1868,2064,3664,-2,-2,-6,7920,0.82,-0.08,1.83,1.58,1897,2099,3701,60,77,73,85,99,0
1860,2051,3656,-18,-22,-24,7887,0.82,-0.08,1.83,1.58,1895,2098,3700,60,77,73,85,99,0
1860,2052,3656,-28,-35,-36,7888,0.82,-0.08,1.83,1.58,1894,2096,3698,60,77,73,85,99,0
1860,2053,3658,-32,-42,-40,7891,0.82,-0.08,1.83,1.58,1893,2095,3697,60,77,73,85,99,0
1862,2055,3660,-33,-42,-40,7899,0.82,-0.08,1.83,1.58,1892,2093,3696,60,77,73,85,99,0
1866,2061,3666,-30,-38,-36,7915,0.82,-0.08,1.83,1.58,1891,2092,3695,60,77,73,85,99,0
1875,2074,3676,-26,-32,-30,7949,0.82,-0.08,1.83,1.58,1891,2092,3694,60,77,73,85,99,0
1876,2076,3676,-21,-25,-25,7954,0.82,-0.08,1.83,1.58,1890,2091,3693,60,77,73,85,99,0
1876,2075,3676,-17,-20,-20,7952,0.82,-0.08,1.83,1.58,1890,2091,3693,60,77,73,85,99,0
1876,2076,3677,-14,-15,-16,7953,0.82,-0.08,1.83,1.58,1889,2090,3692,60,77,73,85,99,0
1878,2079,3678,-13,-14,-15,7961,0.82,-0.08,1.83,1.58,1889,2090,3692,60,77,73,85,99,0
1885,2083,3688,-10,-12,-12,7984,0.82,-0.08,1.83,1.58,1889,2090,3692,60,77,73,85,99,0
1889,2089,3693,-7,-8,-8,8002,0.82,-0.08,1.83,1.58,1889,2090,3692,60,77,73,85,99,0
1895,2098,3699,-2,-2,-2,8025,0.82,-0.08,1.83,1.58,1889,2090,3692,60,77,73,85,99,0
1901,2104,3708,3,3,4,8046,0.82,-0.08,1.83,1.58,1889,2090,3693,60,77,73,85,99,0
1906,2111,3715,8,10,11,8066,0.82,-0.08,1.83,1.58,1890,2091,3693,60,77,73,85,99,0
1916,2124,3724,14,18,18,8099,0.82,-0.08,1.83,1.58,1891,2092,3694,60,77,73,85,99,0
1919,2127,3728,20,25,25,8112,0.82,-0.08,1.83,1.58,1892,2093,3695,60,77,73,85,99,0
1922,2128,3732,24,30,30,8122,0.82,-0.08,1.83,1.58,1893,2094,3697,60,77,73,85,99,0
1926,2135,3735,28,34,33,8136,0.82,-0.08,1.83,1.58,1894,2096,3698,60,77,73,85,99,0
1930,2142,3740,30,38,36,8151,0.82,-0.08,1.83,1.58,1895,2097,3699,60,77,73,85,99,0
1935,2148,3747,33,41,39,8169,0.82,-0.08,1.83,1.58,1896,2099,3701,60,77,73,85,99,0
1927,2139,3736,34,43,39,8141,0.82,-0.08,1.83,1.58,1897,2100,3702,60,77,73,85,99,0
1909,2117,3712,28,37,32,8071,0.82,-0.08,1.83,1.58,1898,2101,3702,62,79,74,85,99,0
1887,2088,3687,17,22,18,7990,0.82,-0.08,1.88,1.63,1897,2101,3702,62,79,74,85,99,0
1874,2073,3671,2,3,0,7941,0.82,-0.08,1.88,1.63,1897,2100,3701,62,79,74,85,99,0
1867,2062,3664,-12,-15,-17,7916,0.82,-0.08,1.88,1.63,1896,2098,3700,62,79,74,85,99,0
1867,2062,3665,-22,-27,-28,7918,0.82,-0.08,1.88,1.63,1895,2097,3699,62,79,74,85,99,0
1868,2065,3668,-26,-32,-32,7924,0.82,-0.08,1.88,1.63,1894,2096,3698,62,79,74,85,99,0
1871,2069,3671,-26,-32,-31,7933,0.82,-0.08,1.88,1.63,1893,2095,3697,62,79,74,85,99,0
1875,2076,3676,-23,-27,-27,7951,0.82,-0.08,1.88,1.63,1892,2095,3696,62,79,74,85,99,0
1884,2084,3686,-18,-21,-21,7979,0.82,-0.08,1.88,1.63,1892,2094,3696,62,79,74,85,99,0
1884,2083,3687,-13,-16,-16,7981,0.82,-0.08,1.88,1.63,1892,2094,3695,62,79,74,85,99,0
1884,2083,3686,-10,-12,-11,7980,0.82,-0.08,1.88,1.63,1892,2093,3695,62,79,74,85,99,0
1884,2083,3687,-7,-10,-8,7981,0.82,-0.08,1.88,1.63,1891,2093,3695,62,79,74,85,99,0
1885,2083,3687,-7,-10,-8,7986,0.82,-0.08,1.88,1.63,1891,2093,3694,62,79,74,85,99,0
1894,2096,3699,-4,-6,-5,8019,0.82,-0.08,1.88,1.63,1891,2093,3695,62,79,74,85,99,0
1899,2102,3705,0,-2,0,8038,0.82,-0.08,1.88,1.63,1892,2093,3695,62,79,74,85,99,0
1904,2109,3711,4,4,5,8058,0.82,-0.08,1.88,1.63,1892,2094,3695,62,79,74,85,99,0
1908,2116,3715,9,12,12,8074,0.82,-0.08,1.88,1.63,1893,2094,3696,62,79,74,85,99,0
1914,2123,3721,13,18,17,8092,0.82,-0.08,1.88,1.63,1893,2095,3697,62,79,74,85,99,0
1922,2130,3732,19,24,23,8120,0.82,-0.08,1.88,1.63,1894,2097,3698,62,79,74,85,99,0
1925,2137,3738,23,30,29,8138,0.82,-0.08,1.88,1.63,1895,2098,3699,62,79,74,85,99,0
1929,2142,3741,28,35,34,8152,0.82,-0.08,1.88,1.63,1896,2099,3701,62,79,74,85,99,0
1933,2147,3746,31,40,39,8166,0.82,-0.08,1.88,1.63,1898,2101,3702,62,79,74,85,99,0
1936,2152,3751,33,44,42,8177,0.82,-0.08,1.88,1.63,1899,2103,3704,62,79,74,85,99,0
1941,2159,3756,36,48,45,8195,0.82,-0.08,1.88,1.63,1900,2105,3706,62,79,74,86,99,0
1932,2147,3741,36,47,43,8160,0.82,-0.08,1.88,1.63,1901,2106,3707,62,80,75,86,99,0
1912,2122,3716,29,40,35,8085,0.59,-0.08,1.88,1.61,1902,2106,3707,62,80,75,86,99,0
