2961,3977,5234,1240,1667,2191,10240,-1.00,-1.00,0.00,0.00,1774,2380,3144,675,0,0,0,0,0
2955,3967,5220,1202,1616,2119,10240,-1.00,-1.00,0.00,0.00,1813,2432,3213,675,0,0,0,0,0
2931,3928,5192,1157,1555,2041,10240,-1.00,-1.00,0.00,0.00,1851,2482,3279,675,0,0,0,0,0
2910,3890,5159,1108,1484,1956,10240,-1.00,-1.00,0.00,0.00,1886,2529,3342,675,0,0,0,0,0
2890,3856,5131,1054,1406,1866,10240,-1.00,-1.00,0.00,0.00,1919,2573,3401,675,0,0,0,0,0
2880,3841,5124,1001,1328,1781,10240,-1.00,-1.00,0.00,0.00,1951,2616,3459,675,0,0,0,0,0
2877,3839,5123,954,1262,1705,10240,-1.00,-1.00,0.00,0.00,1982,2657,3514,675,0,0,0,0,0
2881,3843,5125,916,1209,1640,10240,-1.00,-1.00,0.00,0.00,2012,2696,3568,675,0,0,0,0,0
2884,3848,5132,884,1167,1585,10240,-1.00,-1.00,0.00,0.00,2041,2734,3620,675,0,0,0,0,0
2886,3852,5133,855,1130,1535,10240,-1.00,-1.00,0.00,0.00,2070,2772,3670,675,0,0,0,0,0
2889,3855,5134,830,1097,1486,10240,-1.00,-1.00,0.00,0.00,2097,2808,3719,675,0,0,0,0,0
2890,3857,5134,804,1063,1439,10240,-1.00,-1.00,0.00,0.00,2123,2843,3766,675,0,0,0,0,0
2892,3861,5137,779,1031,1392,10240,-1.00,-1.00,0.00,0.00,2149,2877,3812,675,0,0,0,0,0
2895,3867,5143,755,1000,1348,10240,-1.00,-1.00,0.00,0.00,2174,2910,3857,675,0,0,0,0,0
2902,3878,5151,733,972,1307,10240,-1.00,-1.00,0.00,0.00,2198,2942,3900,675,0,0,0,0,0
2908,3888,5160,713,947,1270,10240,-1.00,-1.00,0.00,0.00,2222,2974,3942,675,0,0,0,0,0
2921,3911,5177,696,928,1237,10240,-1.00,-1.00,0.00,0.00,2245,3005,3983,675,0,0,0,0,0
2923,3917,5186,680,909,1206,10240,-1.00,-1.00,0.00,0.00,2268,3035,4023,675,0,0,0,0,0
2932,3930,5194,664,891,1176,10240,-1.00,-1.00,0.00,0.00,2290,3065,4062,675,0,0,0,0,0
2936,3938,5197,649,874,1146,10240,-1.00,-1.00,0.00,0.00,2311,3094,4100,675,0,0,0,0,0
2926,3923,5181,629,848,1109,10240,-1.00,-1.00,0.00,0.00,2332,3122,4136,675,0,0,0,0,0
2883,3847,5123,598,802,1057,10240,-1.00,-1.00,0.00,0.00,2350,3146,4169,675,0,0,0,0,0
2865,3819,5123,562,749,1004,10240,-1.00,-1.00,0.00,0.00,2367,3168,4201,675,0,0,0,0,0
2855,3803,5123,524,691,953,10240,-1.00,-1.00,0.00,0.00,2384,3189,4231,675,0,0,0,0,0
2852,3798,5123,488,638,907,10240,-1.00,-1.00,0.00,0.00,2399,3210,4261,675,0,0,0,0,0
2852,3800,5123,465,606,877,10240,-1.00,-1.00,0.00,0.00,2414,3229,4290,675,0,0,0,0,0
2864,3817,5123,449,585,848,10240,-1.00,-1.00,0.00,0.00,2429,3249,4317,675,0,0,0,0,0
2868,3825,5123,437,571,820,10240,-1.00,-1.00,0.00,0.00,2444,3268,4344,675,0,0,0,0,0
2870,3829,5123,427,559,792,10240,-1.00,-1.00,0.00,0.00,2458,3287,4370,675,0,0,0,0,0
2871,3831,5123,417,548,766,10240,-1.00,-1.00,0.00,0.00,2472,3305,4395,675,0,0,0,0,0
2874,3835,5123,406,534,740,10240,-1.00,-1.00,0.00,0.00,2485,3323,4420,675,0,0,0,0,0
2880,3843,5123,395,520,716,10240,-1.00,-1.00,0.00,0.00,2498,3340,4443,675,0,0,0,0,0
2884,3849,5123,385,508,692,10240,-1.00,-1.00,0.00,0.00,2511,3357,4466,675,0,0,0,0,0
2891,3862,5123,377,498,668,10240,-1.00,-1.00,0.00,0.00,2524,3374,4488,675,0,0,0,0,0
2898,3875,5134,371,491,649,10240,-1.00,-1.00,0.00,0.00,2536,3391,4509,675,0,0,0,0,0
2906,3889,5148,364,486,633,10240,-1.00,-1.00,0.00,0.00,2549,3407,4531,675,0,0,0,0,0
2920,3913,5167,361,485,623,10240,-1.00,-1.00,0.00,0.00,2561,3424,4552,675,0,0,0,0,0
2919,3910,5160,356,481,611,10240,-1.00,-1.00,0.00,0.00,2573,3440,4572,675,0,0,0,0,0
2903,3882,5130,345,467,589,10240,-1.00,-1.00,0.00,0.00,2584,3455,4591,675,0,0,0,0,0
2879,3842,5123,327,440,564,10240,-1.00,-1.00,0.00,0.00,2594,3468,4608,675,0,0,0,0,0
2855,3808,5123,300,400,535,10240,-1.00,-1.00,0.00,0.00,2603,3479,4625,675,0,0,0,0,0
2837,3781,5123,270,355,508,10240,-1.00,-1.00,0.00,0.00,2610,3489,4642,675,0,0,0,0,0
2838,3781,5123,246,319,489,10240,-1.00,-1.00,0.00,0.00,2618,3499,4658,675,0,0,0,0,0
2842,3790,5123,229,296,473,10240,-1.00,-1.00,0.00,0.00,2625,3509,4674,675,0,0,0,0,0
2850,3800,5123,220,284,457,10240,-1.00,-1.00,0.00,0.00,2633,3518,4689,675,0,0,0,0,0
2856,3810,5123,217,281,442,10240,-1.00,-1.00,0.00,0.00,2640,3528,4703,675,0,0,0,0,0
2861,3816,5123,215,280,427,10240,-1.00,-1.00,0.00,0.00,2648,3538,4717,675,0,0,0,0,0
2864,3822,5123,213,279,413,10240,-1.00,-1.00,0.00,0.00,2655,3547,4731,675,0,0,0,0,0
2866,3827,5123,210,276,399,10240,-1.00,-1.00,0.00,0.00,2662,3557,4744,675,0,0,0,0,0
2870,3835,5123,206,273,386,10240,-1.00,-1.00,0.00,0.00,2669,3566,4756,675,0,0,0,0,0
2877,3842,5123,203,270,373,10240,-1.00,-1.00,0.00,0.00,2676,3575,4769,675,0,0,0,0,0
2883,3847,5123,201,267,360,10240,-1.00,-1.00,0.00,0.00,2683,3584,4780,675,0,0,0,0,0
2897,3875,5123,202,270,348,10240,-1.00,-1.00,0.00,0.00,2690,3594,4792,675,0,0,0,0,0
2904,3889,5134,203,274,339,10240,-1.00,-1.00,0.00,0.00,2697,3604,4803,675,0,0,0,0,0
2915,3904,5148,206,279,334,10240,-1.00,-1.00,0.00,0.00,2704,3614,4815,675,0,0,0,0,0
2918,3909,5147,208,285,329,10240,-1.00,-1.00,0.00,0.00,2711,3623,4826,675,0,0,0,0,0
2901,3883,5125,202,278,318,10240,-1.00,-1.00,0.00,0.00,2718,3632,4836,675,0,0,0,0,0
2851,3805,5123,182,248,305,10240,-1.00,-1.00,0.00,0.00,2722,3638,4845,675,0,0,0,0,0
2833,3778,5123,156,209,289,10240,-1.00,-1.00,0.00,0.00,2726,3643,4855,675,0,0,0,0,0
2824,3767,5122,128,168,273,10240,-1.00,-1.00,0.00,0.00,2729,3647,4863,675,0,0,0,0,0
2823,3765,5122,105,134,263,10240,-1.00,-1.00,0.00,0.00,2732,3651,4872,675,0,0,0,0,0
2827,3770,5123,96,121,255,10240,-1.00,-1.00,0.00,0.00,2735,3655,4880,675,0,0,0,0,0
2837,3784,5123,94,118,246,10240,-1.00,-1.00,0.00,0.00,2739,3659,4889,675,0,0,0,0,0
2842,3792,5123,95,120,238,10240,-1.00,-1.00,0.00,0.00,2742,3663,4896,675,0,0,0,0,0
2845,3796,5123,97,124,230,10240,-1.00,-1.00,0.00,0.00,2746,3668,4904,675,0,0,0,0,0
2846,3799,5123,98,127,223,10240,-1.00,-1.00,0.00,0.00,2749,3672,4911,675,0,0,0,0,0
2848,3803,5123,98,127,215,10240,-1.00,-1.00,0.00,0.00,2752,3676,4918,675,0,0,0,0,0
2859,3818,5123,98,129,208,10240,-1.00,-1.00,0.00,0.00,2756,3681,4925,675,0,0,0,0,0
2865,3830,5123,100,133,201,10240,-1.00,-1.00,0.00,0.00,2760,3686,4932,675,0,0,0,0,0
2873,3841,5123,103,139,194,10240,-1.00,-1.00,0.00,0.00,2763,3691,4938,675,0,0,0,0,0
2880,3844,5123,107,144,188,10240,-1.00,-1.00,0.00,0.00,2767,3696,4944,675,0,0,0,0,0
2886,3857,5123,110,149,182,10240,-1.00,-1.00,0.00,0.00,2771,3702,4950,675,0,0,0,0,0
2903,3887,5123,116,158,176,10240,-1.00,-1.00,0.00,0.00,2776,3708,4956,675,0,0,0,0,0
2906,3892,5124,120,165,170,10240,-1.00,-1.00,0.00,0.00,2780,3714,4962,675,0,0,0,0,0
2892,3869,5123,119,165,164,10240,-1.00,-1.00,0.00,0.00,2784,3719,4967,513,0,0,0,0,0
2868,3834,5123,110,154,159,10240,-1.00,-1.00,0.00,0.00,2786,3723,4972,513,11,0,0,0,0
2839,3791,5122,91,126,153,10240,-1.00,-1.00,0.00,0.00,2788,3725,4977,513,11,0,0,0,0
2803,3737,5099,63,84,142,10240,-1.00,-1.00,0.00,0.00,2789,3726,4981,513,11,0,0,0,0
2799,3731,5082,39,48,127,10240,-1.00,-1.00,0.00,0.00,2789,3726,4985,513,11,0,0,0,0
2801,3734,5085,21,22,114,10240,-1.00,-1.00,0.00,0.00,2789,3726,4988,513,11,0,0,0,0
2810,3747,5096,14,11,104,10240,-1.00,-1.00,0.00,0.00,2790,3727,4991,513,11,0,0,0,0
2817,3759,5105,17,16,102,10240,-1.00,-1.00,0.00,0.00,2791,3728,4995,513,11,0,0,0,0
2823,3767,5112,22,24,106,10240,-1.00,-1.00,0.00,0.00,2792,3729,4999,513,11,0,0,0,0
2827,3775,5121,27,33,111,10240,-1.00,-1.00,0.00,0.00,2793,3731,5003,513,11,0,0,0,0
2829,3779,5122,31,40,114,10240,-1.00,-1.00,0.00,0.00,2794,3732,5007,513,11,0,0,0,0
2834,3785,5123,34,45,114,10240,-1.00,-1.00,0.00,0.00,2796,3734,5011,513,11,0,0,0,0
2839,3792,5123,37,49,113,10240,-1.00,-1.00,0.00,0.00,2797,3736,5015,513,11,0,0,0,0
2846,3803,5123,40,54,110,10240,-1.00,-1.00,0.00,0.00,2799,3738,5018,513,11,0,0,0,0
2863,3831,5123,47,65,106,10240,-1.00,-1.00,0.00,0.00,2801,3741,5022,513,11,0,0,0,0
2872,3841,5123,55,76,103,10240,-1.00,-1.00,0.00,0.00,2803,3745,5025,513,11,0,0,0,0
2879,3844,5123,62,86,99,10240,-1.00,-1.00,0.00,0.00,2806,3748,5029,513,11,0,0,0,0
2886,3859,5123,70,97,96,10240,-1.00,-1.00,0.00,0.00,2809,3752,5032,513,11,0,0,0,0
2892,3870,5123,75,103,92,10240,-1.00,-1.00,0.00,0.00,2811,3756,5035,513,11,0,0,0,0
2866,3834,5123,71,98,89,10240,-1.00,-1.00,0.00,0.00,2813,3758,5038,400,32,0,0,0,0
2835,3787,5117,58,81,85,10240,-1.00,-1.00,0.00,0.00,2814,3759,5040,400,32,0,0,0,0
2807,3743,5083,37,50,72,10240,-1.00,-1.00,0.00,0.00,2814,3759,5042,400,32,0,0,0,0
2799,3725,5067,13,13,56,10240,-1.00,-1.00,0.00,0.00,2813,3758,5043,400,32,0,0,0,0
2795,3720,5061,-4,-14,40,10240,-1.00,-1.00,0.00,0.00,2813,3756,5043,400,32,0,0,0,0
2798,3726,5070,-13,-28,27,10240,-1.00,-1.00,0.00,0.00,2812,3755,5044,400,32,0,0,0,0
2801,3736,5081,-14,-29,26,10240,-1.00,-1.00,0.00,0.00,2812,3755,5045,400,32,0,0,0,0
2809,3748,5087,-11,-22,30,10240,-1.00,-1.00,0.00,0.00,2812,3754,5047,400,32,0,0,0,0
2813,3754,5095,-6,-13,37,10240,-1.00,-1.00,0.00,0.00,2812,3754,5048,400,32,0,0,0,0
2816,3759,5097,-2,-5,42,10240,-1.00,-1.00,0.00,0.00,2812,3755,5050,400,32,0,0,0,0
2823,3770,5100,3,3,45,10240,-1.00,-1.00,0.00,0.00,2812,3755,5052,400,32,0,0,0,0
2828,3780,5120,7,10,52,10240,-1.00,-1.00,0.00,0.00,2813,3756,5054,400,32,0,0,0,0
2834,3789,5123,12,18,57,10240,-1.00,-1.00,0.00,0.00,2813,3757,5056,400,32,0,0,0,0
2842,3801,5123,18,28,61,10240,-1.00,-1.00,0.00,0.00,2814,3759,5058,400,32,0,0,0,0
2852,3815,5123,25,38,65,10240,-1.00,-1.00,0.00,0.00,2816,3760,5061,400,32,0,0,0,0
2860,3829,5123,32,48,63,10240,-1.00,-1.00,0.00,0.00,2817,3763,5063,400,32,9,0,0,0
2878,3844,5123,41,60,61,10240,-1.00,-1.00,4.78,79.88,2819,3765,5065,400,32,9,0,0,0
2882,3853,5123,49,71,59,10240,-1.00,-1.00,4.78,79.88,2821,3768,5067,400,32,9,0,0,0
2878,3845,5123,54,76,57,10240,-1.00,-1.00,4.78,79.88,2823,3771,5068,400,32,9,0,0,0
2857,3828,5123,52,73,55,10240,-1.00,-1.00,4.78,79.88,2824,3773,5070,317,50,9,0,0,0
2830,3781,5110,38,55,50,10240,-1.00,-1.00,4.78,79.88,2824,3773,5072,317,50,9,0,0,0
2796,3727,5069,16,23,36,10240,-1.00,-1.00,4.78,79.88,2824,3772,5071,317,50,9,0,0,0
2797,3726,5067,-3,-6,21,10240,-1.00,-1.00,4.78,79.88,2823,3770,5071,317,50,9,0,0,0
2796,3728,5070,-18,-30,7,10240,-1.00,-1.00,4.78,79.88,2822,3769,5071,317,50,9,0,0,0
2799,3735,5079,-25,-40,0,10240,-1.00,-1.00,4.78,79.88,2821,3767,5072,317,50,9,0,0,0
2808,3750,5088,-21,-33,4,10240,-1.00,-1.00,4.78,79.88,2821,3767,5072,317,50,9,0,0,0
2818,3766,5102,-15,-22,12,10240,-1.00,-1.00,4.78,79.88,2820,3767,5073,317,50,9,0,0,0
2819,3767,5102,-9,-12,20,10240,-1.00,-1.00,4.78,79.88,2820,3767,5074,317,50,9,0,0,0
2822,3772,5107,-3,-3,26,10240,-1.00,-1.00,4.78,79.88,2820,3767,5075,317,50,9,0,0,0
2827,3779,5116,1,4,32,10240,-1.00,-1.00,4.78,79.88,2821,3767,5077,317,50,9,0,0,0
2832,3787,5123,4,9,36,10240,-1.00,-1.00,4.78,79.88,2821,3768,5078,317,50,9,0,0,0
2847,3812,5123,11,19,39,10240,-1.00,-1.00,4.78,79.88,2822,3770,5080,317,50,9,0,0,0
2855,3824,5123,18,31,42,10240,-1.00,-1.00,4.78,79.88,2823,3771,5081,317,50,9,0,0,0
2864,3838,5123,27,44,42,10240,-1.00,-1.00,4.78,79.88,2824,3774,5082,317,50,9,0,0,0
2872,3843,5123,35,56,41,10240,-1.00,-1.00,4.78,79.88,2826,3776,5084,317,50,18,0,0,0
2879,3846,5123,42,63,40,10240,-1.00,-1.00,3.74,31.68,2828,3778,5085,317,50,18,0,0,0
2868,3841,5123,44,65,38,10240,-1.00,-1.00,3.74,31.68,2829,3780,5086,317,50,18,0,0,0
2845,3811,5123,37,56,37,10240,-1.00,-1.00,3.74,31.68,2830,3781,5088,255,64,18,0,0,0
2822,3773,5103,24,37,31,10240,-1.00,-1.00,3.74,31.68,2829,3781,5088,255,64,18,0,0,0
2808,3750,5084,6,13,20,10240,-1.00,-1.00,3.74,31.68,2829,3780,5088,255,64,18,0,0,0
2802,3742,5079,-9,-11,9,10240,-1.00,-1.00,3.74,31.68,2828,3779,5088,255,64,18,0,0,0
2809,3754,5092,-18,-24,1,10240,-1.00,-1.00,3.74,31.68,2827,3778,5088,255,64,18,174,0,0
2817,3765,5104,-18,-26,1,10240,-1.00,-1.00,3.74,31.68,2827,3778,5088,255,64,18,174,0,0
2823,3775,5112,-14,-19,8,10240,-1.00,-1.00,3.74,31.68,2827,3777,5089,255,64,18,174,0,0
2826,3782,5119,-8,-8,18,10240,-1.00,-1.00,3.74,31.68,2827,3778,5090,255,64,18,174,0,0
2828,3785,5122,-3,-1,24,10240,-1.00,-1.00,3.74,31.68,2827,3778,5091,255,64,18,174,0,0
2832,3790,5123,0,5,28,10240,-1.00,-1.00,3.74,31.68,2827,3778,5092,255,64,18,174,0,0
2836,3795,5123,3,9,30,10240,-1.00,-1.00,3.74,31.68,2827,3779,5093,255,64,18,174,0,0
2843,3806,5123,7,15,30,10240,-1.00,-1.00,3.74,31.68,2828,3780,5094,255,64,18,174,0,0
2849,3817,5123,12,22,29,10240,-1.00,-1.00,3.74,31.68,2828,3781,5095,255,64,20,174,0,0
2856,3829,5123,18,31,28,10240,-1.00,-1.00,4.31,22.97,2829,3783,5096,255,64,20,174,0,0
2871,3843,5123,25,41,27,10240,-1.00,-1.00,4.31,22.97,2831,3785,5097,255,64,20,174,0,0
2879,3848,5123,33,50,26,10240,-1.00,-1.00,4.31,22.97,2832,3787,5098,255,64,20,174,0,0
2882,3860,5123,40,59,25,10240,-1.00,-1.00,4.31,22.97,2834,3789,5099,255,64,20,174,0,0
2877,3848,5123,44,61,24,10240,-1.00,-1.00,4.31,22.97,2835,3791,5100,255,64,20,174,0,0
2856,3830,5123,39,56,23,10240,-1.00,-1.00,4.31,22.97,2836,3792,5100,207,69,20,174,0,0
2809,3754,5085,21,32,13,10240,-1.00,-1.00,4.31,22.97,2835,3791,5100,207,69,20,174,0,0
2798,3736,5075,0,1,1,10240,-1.00,-1.00,4.31,22.97,2834,3789,5099,207,69,20,174,0,0
2796,3731,5074,-19,-27,-10,10240,-1.00,-1.00,4.31,22.97,2833,3787,5098,207,69,20,174,0,0
2798,3736,5076,-33,-49,-21,10240,-1.00,-1.00,4.31,22.97,2832,3786,5097,207,69,20,174,0,0
2801,3744,5082,-34,-49,-21,10240,-1.00,-1.00,4.31,22.97,2830,3784,5097,207,69,20,174,0,0
2812,3762,5098,-29,-41,-14,10240,-1.00,-1.00,4.31,22.97,2830,3783,5097,207,69,20,174,0,0
2815,3766,5100,-23,-32,-8,10240,-1.00,-1.00,4.31,22.97,2829,3783,5097,207,69,20,174,0,0
2816,3767,5099,-18,-23,-2,10240,-1.00,-1.00,4.31,22.97,2829,3782,5097,207,69,20,174,0,0
2818,3769,5101,-14,-16,2,10240,-1.00,-1.00,4.31,22.97,2829,3782,5097,207,69,20,174,0,0
2820,3774,5106,-11,-13,4,10240,-1.00,-1.00,4.31,22.97,2828,3782,5098,207,69,20,174,0,0
2831,3792,5122,-7,-6,9,10240,-1.00,-1.00,4.31,22.97,2828,3782,5098,207,69,20,174,0,0
2838,3802,5123,-1,2,15,10240,-1.00,-1.00,4.31,22.97,2829,3783,5099,207,69,20,174,0,0
2845,3814,5123,5,12,19,10240,-1.00,-1.00,4.31,22.97,2829,3784,5100,207,69,20,174,0,0
2854,3825,5123,13,24,23,10240,-1.00,-1.00,4.31,22.97,2830,3785,5101,207,69,20,174,0,0
2861,3838,5123,19,35,22,10240,-1.00,-1.00,4.31,22.97,2831,3787,5102,207,69,26,174,0,0
2868,3843,5123,26,43,21,10240,-1.00,-1.00,3.58,14.35,2832,3789,5102,207,69,26,174,0,0
2850,3824,5123,26,44,21,10240,-1.00,-1.00,3.58,14.35,2833,3790,5103,207,69,26,174,0,0
2820,3775,5094,17,31,13,10240,-1.00,-1.00,3.58,14.35,2833,3789,5103,170,75,26,174,0,0
2796,3731,5059,1,4,-2,10240,-1.00,-1.00,3.58,14.35,2831,3787,5101,170,75,26,174,0,0
2782,3701,5042,-19,-30,-22,10240,-1.00,-1.00,3.58,14.35,2830,3785,5099,170,75,26,174,0,0
2772,3687,5035,-38,-62,-42,10240,-1.00,-1.00,3.58,14.35,2828,3781,5097,170,75,26,174,0,0
2774,3690,5038,-47,-80,-54,10240,-1.00,-1.00,3.58,14.35,2826,3778,5095,170,75,26,174,0,0
2777,3697,5042,-50,-86,-56,10240,-1.00,-1.00,3.58,14.35,2824,3776,5093,170,75,26,174,0,0
2782,3706,5047,-49,-82,-53,10240,-1.00,-1.00,3.58,14.35,2823,3773,5092,170,75,26,174,0,0
2786,3712,5052,-44,-73,-47,10240,-1.00,-1.00,3.58,14.35,2822,3771,5090,170,75,26,174,0,0
2788,3715,5052,-39,-64,-42,10240,-1.00,-1.00,3.58,14.35,2821,3769,5089,170,75,26,174,0,0
2790,3717,5054,-34,-57,-38,10240,-1.00,-1.00,3.58,14.35,2819,3768,5088,170,75,26,174,0,0
2793,3724,5057,-31,-51,-34,10240,-1.00,-1.00,3.58,14.35,2819,3766,5087,170,75,26,174,0,0
2794,3729,5063,-28,-45,-31,10240,-1.00,-1.00,3.58,14.35,2818,3765,5086,170,75,26,174,0,0
2797,3739,5070,-24,-38,-25,10240,-1.00,-1.00,3.58,14.35,2817,3764,5086,170,75,26,174,0,0
2814,3766,5093,-18,-25,-15,10240,-1.00,-1.00,3.58,14.35,2817,3764,5086,170,75,26,174,0,0
2822,3780,5105,-10,-11,-3,10240,-1.00,-1.00,3.58,14.35,2817,3765,5087,170,75,26,174,0,0
2830,3793,5119,-1,4,10,10240,-1.00,-1.00,3.58,14.35,2818,3766,5088,170,75,26,174,0,0
2837,3804,5123,8,20,22,10240,-1.00,-1.00,3.58,14.35,2818,3767,5089,170,75,26,174,0,0
2831,3797,5115,12,27,27,10240,-1.00,-1.00,3.58,14.35,2819,3768,5090,170,75,26,174,0,0
2783,3706,5036,2,8,9,10240,-1.00,-1.00,3.58,14.35,2817,3766,5088,143,85,41,174,0,0
2752,3658,5005,-16,-24,-18,10240,-1.00,-1.00,2.80,6.30,2815,3762,5085,143,85,41,174,0,0
2736,3628,4989,-40,-66,-50,10240,-1.00,-1.00,2.80,6.30,2813,3758,5082,143,85,41,174,0,0
2728,3613,4980,-64,-108,-80,10240,-1.00,-1.00,2.80,6.30,2810,3753,5078,143,85,41,174,0,0
2725,3609,4978,-76,-128,-92,10240,-1.00,-1.00,2.80,6.30,2807,3748,5075,143,85,41,174,0,0
2731,3620,4986,-78,-133,-93,10240,-1.00,-1.00,2.80,6.30,2804,3744,5072,143,85,41,174,0,0
2735,3627,4990,-76,-129,-90,10240,-1.00,-1.00,2.80,6.30,2802,3740,5069,143,85,41,174,0,0
2737,3633,4994,-71,-119,-83,10240,-1.00,-1.00,2.80,6.30,2800,3736,5067,143,85,41,174,0,0
2739,3635,4994,-65,-109,-77,10240,-1.00,-1.00,2.80,6.30,2798,3733,5064,143,85,41,174,0,0
2740,3637,4995,-61,-101,-72,10240,-1.00,-1.00,2.80,6.30,2796,3730,5062,143,85,41,174,0,0
2745,3646,5001,-56,-93,-67,10240,-1.00,-1.00,2.80,6.30,2794,3727,5060,143,85,41,174,0,0
2748,3655,5005,-52,-85,-62,10240,-1.00,-1.00,2.80,6.30,2793,3725,5058,143,85,41,174,0,0
2757,3666,5014,-46,-75,-55,10240,-1.00,-1.00,2.80,6.30,2792,3723,5057,143,85,41,174,0,0
2764,3678,5022,-39,-62,-47,10240,-1.00,-1.00,2.80,6.30,2791,3721,5056,143,85,41,174,0,0
2773,3692,5032,-31,-49,-38,10240,-1.00,-1.00,2.80,6.30,2790,3720,5055,143,85,41,174,0,0
2789,3719,5049,-20,-32,-26,10240,-1.00,-1.00,2.80,6.30,2790,3720,5055,143,85,41,174,0,0
2793,3727,5058,-10,-16,-15,10240,-1.00,-1.00,2.80,6.30,2790,3720,5055,143,85,41,174,0,0
2794,3731,5058,-2,-3,-5,10240,-1.00,-1.00,2.80,6.30,2790,3721,5055,143,85,41,174,0,0
2783,3709,5035,0,1,-4,10240,-1.00,-1.00,2.80,6.30,2790,3720,5054,143,85,41,174,0,0
2750,3657,4998,-9,-13,-16,10240,-1.00,-1.00,2.80,6.30,2789,3718,5052,127,97,53,174,0,0
2691,3556,4936,-34,-54,-45,10240,-1.00,-1.00,2.49,4.34,2785,3713,5048,127,97,53,174,0,0
2679,3545,4929,-60,-97,-75,10240,-1.00,-1.00,2.49,4.34,2782,3707,5045,127,97,53,174,0,0
2673,3540,4927,-85,-135,-99,10240,-1.00,-1.00,2.49,4.34,2778,3702,5041,127,97,53,174,0,0
2674,3541,4929,-100,-159,-112,10240,-1.00,-1.00,2.49,4.34,2775,3696,5037,127,97,53,174,0,0
2680,3544,4930,-100,-156,-110,10240,-1.00,-1.00,2.49,4.34,2772,3691,5033,127,97,53,174,0,0
2685,3548,4933,-95,-150,-105,10240,-1.00,-1.00,2.49,4.34,2769,3686,5030,127,97,53,174,0,0
2689,3556,4937,-88,-141,-99,10240,-1.00,-1.00,2.49,4.34,2766,3682,5027,127,97,53,174,0,0
2691,3558,4938,-81,-132,-94,10240,-1.00,-1.00,2.49,4.34,2764,3678,5024,127,97,53,174,0,0
2693,3563,4942,-75,-123,-88,10240,-1.00,-1.00,2.49,4.34,2761,3674,5021,127,97,53,174,0,0
2698,3570,4947,-69,-114,-81,10240,-1.00,-1.00,2.49,4.34,2759,3671,5019,127,97,53,174,0,0
2713,3594,4963,-61,-101,-72,10240,-1.00,-1.00,2.49,4.34,2758,3668,5017,127,97,53,174,0,0
2720,3607,4971,-52,-86,-62,10240,-1.00,-1.00,2.49,4.34,2756,3666,5015,127,97,53,174,0,0
2729,3621,4981,-42,-69,-50,10240,-1.00,-1.00,2.49,4.34,2755,3665,5014,127,97,53,174,0,0
2739,3637,4992,-30,-51,-38,10240,-1.00,-1.00,2.49,4.34,2755,3664,5013,127,97,53,174,0,0
2746,3653,5001,-21,-35,-27,10240,-1.00,-1.00,2.49,4.34,2755,3663,5013,127,97,53,174,0,0
2764,3680,5021,-10,-16,-14,10240,-1.00,-1.00,2.49,4.34,2755,3664,5013,127,97,53,174,0,0
2769,3687,5023,0,0,-4,10240,-1.00,-1.00,2.49,4.34,2755,3665,5014,127,97,53,174,0,0
2755,3668,5003,3,7,-1,10240,-1.00,-1.00,2.49,4.34,2755,3665,5013,127,97,53,174,0,0
2728,3623,4974,0,0,-7,10240,-1.00,-1.00,2.49,4.34,2754,3663,5012,121,114,67,174,0,0
2697,3570,4940,-17,-26,-27,10240,-1.00,-1.00,2.33,3.29,2753,3660,5010,121,114,67,174,0,0
2667,3526,4915,-41,-64,-52,10240,-1.00,-1.00,2.33,3.29,2750,3656,5006,121,114,67,174,0,0
2667,3522,4915,-61,-97,-71,10240,-1.00,-1.00,2.33,3.29,2747,3651,5003,121,114,67,174,0,0
2666,3524,4916,-74,-118,-83,10240,-1.00,-1.00,2.33,3.29,2744,3647,5000,121,114,67,174,0,0
2665,3531,4920,-79,-123,-85,10240,-1.00,-1.00,2.33,3.29,2742,3643,4998,121,114,67,174,0,0
2681,3544,4928,-73,-115,-79,10240,-1.00,-1.00,2.33,3.29,2740,3640,4995,121,114,67,174,0,0
2682,3545,4930,-67,-105,-73,10240,-1.00,-1.00,2.33,3.29,2738,3637,4993,121,114,67,174,0,0
2683,3549,4930,-61,-96,-67,10240,-1.00,-1.00,2.33,3.29,2736,3634,4991,121,114,67,174,0,0
2687,3554,4935,-53,-87,-61,10240,-1.00,-1.00,2.33,3.29,2734,3631,4989,121,114,67,174,0,0
2692,3564,4942,-49,-79,-56,10240,-1.00,-1.00,2.33,3.29,2733,3629,4988,121,114,67,174,0,0
2707,3575,4951,-41,-69,-49,10240,-1.00,-1.00,2.33,3.29,2732,3627,4987,121,114,67,174,0,0
2716,3604,4970,-32,-54,-38,10240,-1.00,-1.00,2.33,3.29,2731,3626,4986,121,114,67,174,0,0
2725,3618,4979,-21,-36,-26,10240,-1.00,-1.00,2.33,3.29,2731,3626,4986,121,114,67,174,0,0
2734,3634,4990,-10,-18,-13,10240,-1.00,-1.00,2.33,3.29,2731,3626,4986,121,114,67,174,0,0
2743,3648,5000,-1,0,-1,10240,-1.00,-1.00,2.33,3.29,2732,3627,4986,121,114,67,174,0,0
2760,3676,5006,8,17,7,10240,-1.00,-1.00,2.33,3.29,2733,3629,4987,121,114,67,174,0,0
2768,3688,5026,18,33,18,10240,-1.00,-1.00,2.33,3.29,2734,3631,4988,121,114,67,174,0,0
2768,3689,5024,26,45,26,10240,-1.00,-1.00,2.33,3.29,2735,3633,4989,121,114,67,174,0,0
2753,3667,5004,28,48,26,10240,-1.00,-1.00,2.33,3.29,2735,3634,4990,121,114,67,174,0,0
2728,3623,4976,19,34,18,10240,-1.00,-1.00,2.33,3.29,2735,3633,4990,117,129,78,174,0,0
2686,3554,4934,-1,0,-4,10240,-1.00,-1.00,2.27,2.74,2734,3631,4988,117,129,78,174,0,0
2682,3545,4930,-21,-34,-27,10240,-1.00,-1.00,2.27,2.74,2732,3628,4986,117,129,78,174,0,0
2682,3545,4930,-38,-62,-44,10240,-1.00,-1.00,2.27,2.74,2730,3625,4984,117,129,78,174,0,0
2681,3547,4932,-48,-78,-53,10240,-1.00,-1.00,2.27,2.74,2729,3622,4982,117,129,78,174,0,0
2687,3558,4940,-46,-75,-50,10240,-1.00,-1.00,2.27,2.74,2727,3620,4981,117,129,78,174,0,0
2698,3576,4952,-41,-65,-43,10240,-1.00,-1.00,2.27,2.74,2726,3619,4980,117,129,78,174,0,0
2700,3580,4954,-35,-54,-36,10240,-1.00,-1.00,2.27,2.74,2725,3618,4979,117,129,78,174,0,0
2701,3583,4956,-29,-44,-29,10240,-1.00,-1.00,2.27,2.74,2725,3616,4978,117,129,78,174,0,0
2703,3587,4957,-24,-35,-23,10240,-1.00,-1.00,2.27,2.74,2724,3615,4977,117,129,78,174,0,0
2708,3595,4963,-21,-29,-20,10240,-1.00,-1.00,2.27,2.74,2723,3615,4977,117,129,78,174,0,0
2722,3618,4979,-15,-19,-13,10240,-1.00,-1.00,2.27,2.74,2723,3615,4977,117,129,78,174,0,0
2731,3631,4987,-7,-7,-5,10240,-1.00,-1.00,2.27,2.74,2723,3615,4977,117,129,78,174,0,0
2738,3643,4996,1,6,4,10240,-1.00,-1.00,2.27,2.74,2724,3616,4978,117,129,78,174,0,0
2745,3657,5002,10,21,13,10240,-1.00,-1.00,2.27,2.74,2725,3618,4979,117,129,78,174,0,0
2753,3669,5012,17,33,20,10240,-1.00,-1.00,2.27,2.74,2726,3619,4980,117,129,78,174,0,0
2772,3697,5029,26,47,30,10240,-1.00,-1.00,2.27,2.74,2727,3622,4982,117,129,78,174,0,0
2778,3709,5035,35,62,38,10240,-1.00,-1.00,2.27,2.74,2729,3625,4983,117,129,78,174,0,0
2776,3704,5030,41,71,44,10240,-1.00,-1.00,2.27,2.74,2730,3628,4985,117,129,78,174,0,0
2757,3677,5006,41,70,41,10240,-1.00,-1.00,2.27,2.74,2731,3629,4986,117,134,83,174,0,0
2733,3635,4982,30,53,28,10240,-1.00,-1.00,2.22,2.57,2731,3629,4985,110,134,83,174,0,0
2700,3580,4951,11,20,7,10240,-1.00,-1.00,2.22,2.57,2730,3628,4984,110,134,83,174,0,0
2696,3575,4948,-8,-11,-12,10240,-1.00,-1.00,2.22,2.57,2729,3626,4983,110,134,83,174,0,0
2697,3576,4950,-23,-35,-25,10240,-1.00,-1.00,2.22,2.57,2728,3624,4982,110,134,83,174,0,0
2700,3582,4955,-30,-47,-31,10240,-1.00,-1.00,2.22,2.57,2727,3623,4981,110,134,83,174,0,0
2705,3591,4960,-28,-42,-28,10240,-1.00,-1.00,2.22,2.57,2726,3622,4980,110,134,83,174,0,0
2713,3603,4966,-23,-34,-23,10240,-1.00,-1.00,2.22,2.57,2726,3621,4980,110,134,83,174,0,0
2713,3605,4967,-18,-26,-18,10240,-1.00,-1.00,2.22,2.57,2726,3621,4979,110,134,83,174,0,0
2714,3605,4967,-14,-20,-14,10240,-1.00,-1.00,2.22,2.57,2725,3620,4979,110,134,83,174,0,0
2716,3609,4969,-11,-15,-12,10240,-1.00,-1.00,2.22,2.57,2725,3620,4979,110,134,83,174,0,0
2721,3616,4974,-9,-11,-9,10240,-1.00,-1.00,2.22,2.57,2725,3620,4979,110,134,83,174,0,0
2734,3637,4987,-3,-3,-4,10240,-1.00,-1.00,2.22,2.57,2725,3620,4979,110,134,83,174,0,0
2740,3648,4995,2,7,2,10240,-1.00,-1.00,2.22,2.57,2726,3621,4979,110,134,83,174,0,0
2747,3660,5000,10,19,9,10240,-1.00,-1.00,2.22,2.57,2726,3622,4980,110,134,83,174,0,0
2753,3673,5008,17,32,17,10240,-1.00,-1.00,2.22,2.57,2727,3624,4981,110,134,83,174,0,0
2771,3685,5017,25,43,24,10240,-1.00,-1.00,2.22,2.57,2729,3626,4982,110,134,83,174,0,0
2777,3706,5030,34,55,32,10240,-1.00,-1.00,2.22,2.57,2730,3629,4984,110,134,83,174,0,0
2770,3698,5019,38,63,35,10240,-1.00,-1.00,2.22,2.57,2732,3631,4985,110,134,83,174,0,0
2750,3665,4997,36,59,31,10240,-1.00,-1.00,2.22,2.57,2732,3632,4985,100,128,79,174,0,0
2727,3626,4973,24,42,20,10240,110.92,1.09,2.22,2.31,2732,3632,4985,100,128,79,174,0,0
2697,3577,4945,4,10,-1,10240,110.92,1.09,2.22,2.31,2731,3630,4984,100,128,79,174,0,0
2694,3573,4943,-14,-20,-19,10240,110.92,1.09,2.22,2.31,2730,3628,4982,100,128,79,174,0,0
2695,3575,4945,-27,-41,-31,10240,110.92,1.09,2.22,2.31,2728,3627,4981,100,128,79,174,0,0
2700,3583,4951,-32,-50,-35,10240,110.92,1.09,2.22,2.31,2728,3625,4980,100,128,79,174,0,0
2706,3593,4955,-29,-45,-32,10240,110.92,1.09,2.22,2.31,2727,3624,4979,100,128,79,174,0,0
2712,3602,4961,-24,-36,-26,10240,110.92,1.09,2.22,2.31,2726,3623,4979,100,128,79,174,0,0
2714,3604,4962,-18,-28,-21,10240,110.92,1.09,2.22,2.31,2726,3623,4978,100,128,79,174,0,0
2714,3605,4962,-14,-22,-18,10240,110.92,1.09,2.22,2.31,2725,3622,4978,100,128,79,174,0,0
2716,3609,4964,-11,-17,-15,10240,110.92,1.09,2.22,2.31,2725,3622,4977,100,128,79,174,0,0
2721,3616,4969,-9,-13,-13,10240,110.92,1.09,2.22,2.31,2725,3621,4977,100,128,79,174,0,0
2734,3638,4984,-3,-4,-7,10240,110.92,1.09,2.22,2.31,2725,3622,4977,100,128,79,174,0,0
2741,3649,4990,2,6,0,10240,110.92,1.09,2.22,2.31,2726,3623,4977,100,128,79,174,0,0
2748,3663,4998,10,19,8,10240,110.92,1.09,2.22,2.31,2727,3624,4978,100,128,79,174,0,0
2755,3675,5004,18,32,16,10240,110.92,1.09,2.22,2.31,2728,3626,4979,100,128,79,174,0,0
2763,3687,5012,24,43,22,10240,110.92,1.09,2.22,2.31,2729,3628,4980,100,128,79,174,0,0
2772,3699,5017,31,54,28,10240,110.92,1.09,2.22,2.31,2730,3630,4981,100,128,79,174,0,0
2757,3676,5000,32,55,27,10240,110.92,1.09,2.22,2.31,2731,3632,4982,100,128,75,174,0,0
2734,3636,4973,26,44,19,10240,110.92,1.09,2.34,2.43,2731,3632,4982,91,122,75,174,0,0
2709,3598,4951,12,21,3,10240,110.92,1.09,2.34,2.43,2730,3631,4981,91,122,75,174,0,0
2686,3571,4935,-8,-10,-16,10240,110.92,1.09,2.34,2.43,2729,3629,4979,91,122,75,174,0,0
2686,3562,4929,-25,-38,-32,10240,110.92,1.09,2.34,2.43,2728,3627,4977,91,122,75,174,0,0
2689,3565,4931,-35,-54,-41,10240,110.92,1.09,2.34,2.43,2726,3625,4976,91,122,75,174,0,0
2695,3575,4938,-38,-57,-43,10240,110.92,1.09,2.34,2.43,2725,3623,4975,91,122,75,174,0,0
2700,3584,4944,-33,-52,-40,10240,110.92,1.09,2.34,2.43,2724,3622,4974,91,122,75,174,0,0
2705,3592,4948,-27,-43,-34,10240,110.92,1.09,2.34,2.43,2724,3621,4973,91,122,75,174,0,0
2705,3594,4950,-22,-35,-28,10240,110.92,1.09,2.34,2.43,2723,3620,4972,91,122,75,174,0,0
2707,3597,4952,-19,-28,-24,10240,110.92,1.09,2.34,2.43,2723,3619,4971,91,122,75,174,0,0
2711,3603,4956,-16,-23,-20,10240,110.92,1.09,2.34,2.43,2722,3618,4971,91,122,75,174,0,0
2718,3613,4962,-12,-17,-16,10240,110.92,1.09,2.34,2.43,2722,3618,4971,91,122,75,174,0,0
2732,3636,4977,-5,-6,-9,10240,110.92,1.09,2.34,2.43,2722,3619,4971,91,122,75,174,0,0
2739,3649,4984,2,6,-1,10240,110.92,1.09,2.34,2.43,2723,3620,4971,91,122,75,174,0,0
2746,3660,4994,11,20,8,10240,110.92,1.09,2.34,2.43,2724,3621,4972,91,122,75,174,0,0
2752,3672,4999,18,33,16,10240,110.92,1.09,2.34,2.43,2725,3623,4973,91,122,75,174,0,0
2762,3685,5006,25,44,23,10240,110.92,1.09,2.34,2.43,2726,3625,4974,91,122,75,174,0,0
2774,3704,5018,33,56,30,10240,110.92,1.09,2.34,2.43,2727,3628,4975,91,122,75,174,0,0
2762,3687,5002,35,60,31,10240,110.92,1.09,2.34,2.43,2729,3630,4976,91,122,75,174,0,0
2740,3650,4977,31,53,25,10240,110.92,1.09,2.34,2.43,2729,3630,4976,86,121,74,174,0,0
2714,3607,4950,19,32,11,10240,110.92,1.09,2.24,2.12,2728,3629,4975,86,121,74,174,0,0
2695,3576,4932,0,0,-10,10240,110.92,1.09,2.24,2.12,2727,3628,4974,86,121,74,174,0,0
2681,3556,4922,-20,-30,-29,10240,110.92,1.09,2.24,2.12,2726,3625,4972,86,121,74,174,0,0
2683,3557,4922,-33,-52,-41,10240,110.92,1.09,2.24,2.12,2724,3623,4971,86,121,74,174,0,0
2687,3563,4928,-38,-61,-45,10240,110.92,1.09,2.24,2.12,2723,3621,4969,86,121,74,174,0,0
2692,3573,4935,-38,-59,-43,10240,110.92,1.09,2.24,2.12,2722,3619,4968,86,121,74,174,0,0
2696,3580,4940,-33,-52,-37,10240,110.92,1.09,2.24,2.12,2721,3618,4967,86,121,74,174,0,0
2699,3585,4941,-28,-43,-31,10240,110.92,1.09,2.24,2.12,2721,3617,4966,86,121,74,174,0,0
2700,3587,4942,-24,-36,-27,10240,110.92,1.09,2.24,2.12,2720,3616,4965,86,121,74,174,0,0
2704,3593,4946,-20,-30,-23,10240,110.92,1.09,2.24,2.12,2719,3615,4965,86,121,74,174,0,0
2709,3603,4953,-16,-23,-19,10240,110.92,1.09,2.24,2.12,2719,3615,4964,86,121,74,174,0,0
2722,3624,4958,-10,-13,-14,10240,110.92,1.09,2.24,2.12,2719,3615,4964,86,121,74,174,0,0
2730,3636,4974,-2,-1,-6,10240,110.92,1.09,2.24,2.12,2719,3616,4965,86,121,74,174,0,0
2737,3649,4981,5,12,2,10240,110.92,1.09,2.24,2.12,2720,3617,4965,86,121,74,174,0,0
2745,3661,4989,13,26,10,10240,110.92,1.09,2.24,2.12,2721,3618,4966,86,121,74,174,0,0
2751,3673,4997,20,37,19,10240,110.92,1.09,2.24,2.12,2722,3620,4967,86,121,74,174,0,0
2766,3696,5009,28,50,27,10240,110.92,1.09,2.24,2.12,2723,3623,4968,86,121,74,174,0,0
2762,3690,5003,33,58,32,10240,110.92,1.09,2.24,2.12,2725,3625,4969,86,121,74,174,0,0
2744,3661,4982,32,56,29,10240,110.92,1.09,2.24,2.12,2725,3626,4970,82,120,75,174,0,0
2719,3619,4955,23,41,18,10240,110.92,1.09,2.19,1.99,2725,3626,4969,82,120,75,174,0,0
2694,3578,4929,5,11,-1,10240,110.92,1.09,2.19,1.99,2724,3624,4968,82,120,75,174,0,0
2676,3554,4916,-15,-21,-22,10240,110.92,1.09,2.19,1.99,2722,3622,4966,82,120,75,174,0,0
2675,3554,4916,-32,-46,-38,10240,110.92,1.09,2.19,1.99,2721,3620,4965,82,120,75,174,0,0
2677,3554,4916,-41,-61,-46,10240,110.92,1.09,2.19,1.99,2719,3618,4963,82,120,75,174,0,0
2679,3556,4918,-43,-64,-47,10240,110.92,1.09,2.19,1.99,2718,3616,4962,82,120,75,174,0,0
2685,3564,4925,-39,-60,-43,10240,110.92,1.09,2.19,1.99,2717,3614,4960,82,120,75,174,0,0
2691,3573,4930,-34,-53,-38,10240,110.92,1.09,2.19,1.99,2716,3612,4959,82,120,75,174,0,0
2691,3574,4929,-30,-46,-34,10240,110.92,1.09,2.19,1.99,2715,3611,4958,82,120,75,174,0,0
2693,3578,4932,-25,-39,-29,10240,110.92,1.09,2.19,1.99,2715,3610,4957,82,120,75,174,98,0
2697,3585,4938,-22,-33,-25,10240,110.92,1.09,2.19,1.99,2714,3609,4957,82,120,75,174,98,0
2703,3595,4943,-18,-26,-21,10240,110.92,1.09,2.19,1.99,2714,3609,4956,82,120,75,174,98,0
2718,3618,4959,-11,-15,-13,10240,110.92,1.09,2.19,1.99,2714,3609,4956,82,120,75,174,98,0
2725,3630,4966,-3,-2,-5,10240,110.92,1.09,2.19,1.99,2714,3610,4957,82,120,75,174,98,0
2732,3643,4974,5,11,4,10240,110.92,1.09,2.19,1.99,2715,3611,4957,82,120,75,174,98,0
2739,3654,4981,14,25,13,10240,110.92,1.09,2.19,1.99,2715,3612,4958,82,120,75,174,98,0
2753,3669,4990,22,37,20,10240,110.92,1.09,2.19,1.99,2717,3614,4959,82,120,75,174,98,0
2758,3688,4999,29,50,27,10240,110.92,1.09,2.19,1.99,2718,3617,4961,82,120,75,174,98,0
2752,3678,4990,33,56,30,10240,110.92,1.09,2.19,1.99,2719,3619,4962,82,120,75,174,98,0
2733,3643,4966,30,52,25,10240,110.92,1.09,2.19,1.99,2720,3619,4962,81,120,76,174,98,0
2706,3601,4940,18,34,12,10240,110.92,1.09,2.16,1.94,2719,3619,4961,81,120,76,174,98,0
2676,3557,4918,-2,1,-7,10240,110.92,1.09,2.16,1.94,2718,3617,4959,81,120,76,174,98,0
2670,3556,4913,-22,-28,-25,10240,110.92,1.09,2.16,1.94,2716,3615,4958,81,120,76,174,98,0
2672,3556,4912,-36,-48,-37,10240,110.92,1.09,2.16,1.94,2715,3613,4956,81,120,76,174,98,0
2677,3556,4913,-41,-57,-43,10240,110.92,1.09,2.16,1.94,2713,3611,4955,81,120,76,174,98,0
2679,3557,4914,-39,-55,-42,10240,110.92,1.09,2.16,1.94,2712,3609,4954,81,120,76,174,98,0
2688,3572,4925,-34,-50,-38,10240,110.92,1.09,2.16,1.94,2712,3608,4953,81,120,76,174,98,0
2689,3574,4926,-28,-44,-34,10240,110.92,1.09,2.16,1.94,2711,3607,4952,81,120,76,174,98,0
2692,3577,4926,-24,-37,-29,10240,110.92,1.09,2.16,1.94,2710,3606,4951,81,120,76,174,98,0
2695,3583,4931,-19,-30,-24,10240,110.92,1.09,2.16,1.94,2710,3605,4950,81,120,76,174,98,0
2700,3592,4938,-16,-24,-20,10240,110.92,1.09,2.16,1.94,2709,3605,4950,81,120,76,174,98,0
2714,3614,4953,-9,-13,-13,10240,110.92,1.09,2.16,1.94,2709,3605,4950,81,120,76,174,98,0
2723,3628,4960,-1,-1,-4,10240,110.92,1.09,2.16,1.94,2710,3606,4950,81,120,76,174,98,0
2729,3639,4969,6,12,4,10240,110.92,1.09,2.16,1.94,2711,3607,4951,81,120,76,174,98,0
2737,3651,4976,15,26,13,10240,110.92,1.09,2.16,1.94,2711,3608,4952,81,120,76,174,98,0
2745,3665,4985,22,38,21,10240,110.92,1.09,2.16,1.94,2713,3610,4953,81,120,76,174,98,0
2757,3688,4998,29,51,29,10240,110.92,1.09,2.16,1.94,2714,3613,4954,81,120,76,174,98,0
2762,3695,5001,36,63,36,10240,110.92,1.09,2.16,1.94,2716,3615,4956,81,120,76,174,98,0
2756,3680,4991,40,68,38,10240,110.92,1.09,2.16,1.94,2717,3618,4957,81,120,76,174,98,0
2737,3650,4969,36,62,33,10240,110.92,1.09,2.16,1.94,2718,3619,4957,81,121,77,174,98,0
2715,3617,4949,25,42,20,10240,110.92,1.09,2.15,1.92,2718,3619,4957,81,121,77,174,98,0
2696,3584,4933,8,14,3,10240,110.92,1.09,2.15,1.92,2717,3617,4956,81,121,77,174,98,0
2696,3585,4935,-6,-8,-10,10240,110.92,1.09,2.15,1.92,2716,3616,4956,81,121,77,174,98,0
2698,3589,4939,-15,-23,-17,10240,110.92,1.09,2.15,1.92,2716,3615,4955,81,121,77,174,98,0
2703,3598,4946,-17,-26,-17,10240,110.92,1.09,2.15,1.92,2715,3615,4955,81,121,77,174,98,0
2709,3607,4951,-14,-20,-12,10240,110.92,1.09,2.15,1.92,2715,3615,4955,81,121,77,174,98,0
2716,3619,4956,-8,-11,-7,10240,110.92,1.09,2.15,1.92,2715,3615,4955,81,121,77,174,98,0
2716,3620,4957,-4,-4,-2,10240,110.92,1.09,2.15,1.92,2715,3615,4955,81,121,77,174,98,0
2719,3624,4960,0,2,1,10240,110.92,1.09,2.15,1.92,2715,3615,4955,81,121,77,174,98,0
2724,3631,4963,3,8,4,10240,110.92,1.09,2.15,1.92,2715,3616,4955,81,121,77,174,98,0
2728,3637,4967,6,12,6,10240,110.92,1.09,2.15,1.92,2716,3616,4956,81,121,77,174,98,0
2740,3657,4981,12,21,12,10240,110.92,1.09,2.15,1.92,2717,3618,4956,81,121,77,174,98,0
2747,3670,4988,18,31,18,10240,110.92,1.09,2.15,1.92,2718,3620,4958,81,121,77,174,98,0
2754,3680,4995,24,42,25,10240,110.92,1.09,2.15,1.92,2719,3622,4959,81,121,77,174,98,0
2761,3693,5002,32,54,33,10240,110.92,1.09,2.15,1.92,2720,3624,4960,81,121,77,174,98,0
2769,3705,5010,38,63,39,10240,110.92,1.09,2.15,1.92,2722,3627,4962,81,121,77,174,98,0
2773,3712,5011,43,72,43,10240,110.92,1.09,2.15,1.92,2724,3629,4963,81,121,77,174,98,0
2758,3687,4992,42,71,41,10240,110.92,1.09,2.15,1.92,2725,3631,4964,76,116,73,174,98,0
2739,3657,4974,35,60,33,10240,110.92,1.09,2.17,1.90,2725,3632,4965,76,116,73,174,98,0
2725,3632,4962,24,41,20,10240,110.92,1.09,2.17,1.90,2725,3632,4965,76,116,73,174,98,0
2715,3620,4957,9,17,6,10240,110.92,1.09,2.17,1.90,2725,3632,4964,76,116,73,174,98,0
2720,3625,4962,0,1,0,10240,110.92,1.09,2.17,1.90,2725,3632,4964,76,116,73,174,98,0
2725,3633,4967,-3,-4,-2,10240,110.92,1.09,2.17,1.90,2725,3632,4964,76,116,73,174,98,0
2731,3642,4974,-2,-2,0,10240,110.92,1.09,2.17,1.90,2725,3632,4965,76,116,73,174,98,0
2735,3650,4978,2,5,5,10240,110.92,1.09,2.17,1.90,2725,3633,4965,76,116,73,174,98,0
2738,3655,4980,7,12,9,10240,110.92,1.09,2.17,1.90,2726,3633,4966,76,116,73,174,98,0
2741,3660,4984,10,18,13,10240,110.92,1.09,2.17,1.90,2726,3634,4966,76,116,73,174,98,0
2744,3664,4986,13,23,16,10240,110.92,1.09,2.17,1.90,2727,3635,4967,76,116,73,174,98,0
2750,3672,4991,16,28,18,10240,110.92,1.09,2.17,1.90,2727,3636,4968,76,116,73,174,98,0
2753,3679,4995,20,33,21,10240,110.92,1.09,2.17,1.90,2728,3638,4969,76,116,73,174,98,0
2766,3700,5001,25,41,24,10240,110.92,1.09,2.17,1.90,2730,3640,4970,76,116,73,174,98,0
2774,3712,5016,31,51,31,10240,110.92,1.09,2.17,1.90,2731,3642,4971,76,116,73,174,98,0
2783,3725,5024,38,62,38,10240,110.92,1.09,2.17,1.90,2733,3645,4973,76,116,73,174,98,0
2786,3731,5030,45,73,45,10240,110.92,1.09,2.17,1.90,2735,3648,4975,76,116,73,174,98,0
2788,3739,5033,49,80,51,10240,110.92,1.09,2.17,1.90,2736,3651,4977,76,116,73,174,98,0
2777,3717,5012,48,78,49,10240,110.92,1.09,2.17,1.90,2738,3653,4978,70,108,68,174,98,0
2755,3682,4991,39,65,39,10240,110.92,1.09,2.16,1.87,2738,3654,4978,70,108,68,174,98,0
2738,3655,4976,27,45,25,10240,110.92,1.09,2.16,1.87,2738,3654,4978,70,108,68,174,98,0
2732,3642,4970,12,20,9,10240,110.92,1.09,2.16,1.87,2738,3654,4978,70,108,68,174,98,0
2728,3638,4969,0,0,-1,10240,110.92,1.09,2.16,1.87,2738,3653,4978,70,108,68,174,98,0
2735,3649,4977,-4,-7,-5,10240,110.92,1.09,2.16,1.87,2738,3653,4978,70,108,68,174,98,0
2739,3656,4981,-4,-7,-3,10240,110.92,1.09,2.16,1.87,2738,3653,4978,70,108,68,174,98,0
2743,3664,4985,-1,-1,0,10240,110.92,1.09,2.16,1.87,2738,3654,4978,70,108,68,174,98,0
2747,3670,4988,3,6,4,10240,110.92,1.09,2.16,1.87,2738,3654,4978,70,108,68,174,98,0
2749,3672,4989,6,11,7,10240,110.92,1.09,2.16,1.87,2739,3655,4979,70,108,68,174,98,0
2754,3680,4994,9,16,10,10240,110.92,1.09,2.16,1.87,2739,3656,4979,70,108,68,174,98,0
2755,3685,4995,12,21,12,10240,110.92,1.09,2.16,1.87,2740,3657,4980,70,108,68,174,98,0
2760,3695,5001,15,26,15,10240,110.92,1.09,2.16,1.87,2740,3658,4981,70,108,68,174,98,0
2767,3705,5007,19,33,19,10240,110.92,1.09,2.16,1.87,2741,3659,4981,70,108,68,174,98,0
2777,3717,5016,24,41,23,10240,110.92,1.09,2.16,1.87,2742,3661,4983,70,108,68,174,98,0
2785,3734,5027,30,52,30,10240,110.92,1.09,2.16,1.87,2744,3664,4984,70,108,68,174,98,0
2791,3746,5035,37,63,37,10240,110.92,1.09,2.16,1.87,2745,3666,4986,70,108,68,174,98,0
2795,3757,5038,42,73,43,10240,110.92,1.09,2.16,1.87,2747,3670,4988,70,108,68,174,98,0
2794,3753,5034,45,79,46,10240,110.92,1.09,2.16,1.87,2749,3672,4989,70,108,68,174,98,0
2784,3731,5016,43,76,42,10240,110.92,1.09,2.16,1.87,2750,3674,4990,64,102,63,174,98,0
2746,3669,4979,30,55,27,10240,110.92,1.09,2.20,1.84,2750,3674,4990,64,102,63,174,98,0
2736,3652,4970,15,28,10,10240,110.92,1.09,2.20,1.84,2749,3673,4989,64,102,63,174,98,0
2733,3645,4969,0,1,-5,10240,110.92,1.09,2.20,1.84,2749,3672,4988,64,102,63,174,98,0
2734,3647,4970,-11,-19,-16,10240,110.92,1.09,2.20,1.84,2748,3672,4988,64,102,63,174,98,0
2736,3652,4973,-13,-23,-17,10240,110.92,1.09,2.20,1.84,2748,3671,4987,64,102,63,174,98,0
2744,3664,4981,-11,-19,-14,10240,110.92,1.09,2.20,1.84,2748,3671,4987,64,102,63,174,98,0
2748,3671,4983,-7,-12,-10,10240,110.92,1.09,2.20,1.84,2748,3671,4987,64,102,63,174,98,0
2748,3672,4983,-4,-6,-7,10240,110.92,1.09,2.20,1.84,2748,3671,4987,64,102,63,174,98,0
2750,3673,4984,0,-1,-4,10240,110.92,1.09,2.20,1.84,2748,3671,4987,64,102,63,174,98,0
2752,3676,4986,1,2,-3,10240,110.92,1.09,2.20,1.84,2748,3671,4987,64,102,63,174,98,0
2758,3689,4994,4,6,0,10240,110.92,1.09,2.20,1.84,2748,3672,4987,64,102,63,174,98,0
2764,3699,4999,7,12,3,10240,110.92,1.09,2.20,1.84,2749,3672,4987,64,102,63,174,98,0
2773,3711,5007,13,21,9,10240,110.92,1.09,2.20,1.84,2749,3674,4988,64,102,63,174,98,0
2780,3720,5012,19,31,15,10240,110.92,1.09,2.20,1.84,2750,3675,4989,64,102,63,174,98,0
2786,3730,5018,25,40,20,10240,110.92,1.09,2.20,1.84,2752,3677,4990,64,102,63,174,98,0
2793,3746,5031,32,50,27,10240,110.92,1.09,2.20,1.84,2753,3679,4991,64,102,63,174,98,0
2794,3750,5030,36,58,32,10240,110.92,1.09,2.20,1.84,2754,3682,4992,64,102,63,174,98,0
2788,3733,5016,36,59,32,10240,110.92,1.09,2.20,1.84,2756,3683,4993,64,102,63,174,98,0
2767,3701,4992,30,50,25,10240,110.92,1.09,2.20,1.84,2756,3684,4993,61,97,60,174,98,0
2728,3663,4970,14,28,9,10240,110.92,1.09,2.19,1.84,2755,3683,4992,61,97,60,174,98,0
2720,3624,4950,-4,-2,-10,10240,110.92,1.09,2.19,1.84,2754,3681,4991,61,97,60,174,98,0
2717,3619,4949,-21,-30,-26,10240,110.92,1.09,2.19,1.84,2753,3679,4989,61,97,60,174,98,0
2717,3619,4950,-32,-48,-35,10240,110.92,1.09,2.19,1.84,2751,3677,4988,61,97,60,174,98,0
2721,3626,4953,-33,-56,-38,10240,110.92,1.09,2.19,1.84,2750,3676,4987,61,97,60,174,98,0
2727,3636,4957,-30,-51,-35,10240,110.92,1.09,2.19,1.84,2750,3674,4986,61,97,60,174,98,0
2728,3637,4959,-26,-45,-31,10240,110.92,1.09,2.19,1.84,2749,3673,4985,61,97,60,174,98,0
2729,3638,4958,-23,-39,-28,10240,110.92,1.09,2.19,1.84,2748,3672,4984,61,97,60,174,98,0
2728,3638,4958,-20,-35,-26,10240,110.92,1.09,2.19,1.84,2748,3671,4983,61,97,60,174,98,0
2731,3642,4960,-19,-32,-25,10240,110.92,1.09,2.19,1.84,2747,3670,4983,61,97,60,174,98,0
2741,3658,4969,-15,-26,-21,10240,110.92,1.09,2.19,1.84,2747,3669,4982,61,97,60,174,98,0
2748,3668,4976,-10,-18,-16,10240,110.92,1.09,2.19,1.84,2747,3669,4982,61,97,60,174,98,0
2753,3677,4982,-3,-8,-10,10240,110.92,1.09,2.19,1.84,2747,3670,4982,61,97,60,174,98,0
2759,3686,4988,3,2,-3,10240,110.92,1.09,2.19,1.84,2747,3670,4982,61,97,60,174,98,0
2764,3697,4992,8,12,2,10240,110.92,1.09,2.19,1.84,2748,3671,4982,61,97,60,174,98,0
2781,3719,5006,16,23,9,10240,110.92,1.09,2.19,1.84,2749,3673,4983,61,97,60,174,98,0
2786,3728,5010,24,35,16,10240,110.92,1.09,2.19,1.84,2750,3675,4984,61,97,60,174,98,0
2785,3726,5006,29,43,20,10240,110.92,1.09,2.19,1.84,2751,3676,4985,61,97,60,174,98,0
2766,3699,4986,29,42,17,10240,110.92,1.09,2.19,1.84,2752,3677,4985,61,98,59,174,98,0
2741,3658,4960,18,26,6,10240,0.68,-0.08,2.25,1.87,2752,3676,4984,61,98,59,174,98,0
2704,3597,4928,-2,-5,-14,10240,0.68,-0.08,2.25,1.87,2750,3674,4982,61,98,59,174,98,0
2698,3584,4920,-23,-40,-34,10240,0.68,-0.08,2.25,1.87,2748,3671,4980,61,98,59,174,98,0
2695,3581,4919,-39,-67,-49,10240,0.68,-0.08,2.25,1.87,2746,3668,4978,61,98,59,174,98,0
2695,3583,4921,-49,-83,-57,10240,0.68,-0.08,2.25,1.87,2745,3665,4976,61,98,59,174,98,0
2698,3589,4925,-49,-82,-56,10240,0.68,-0.08,2.25,1.87,2743,3662,4975,61,98,59,174,98,0
2706,3600,4930,-45,-75,-51,10240,0.68,-0.08,2.25,1.87,2742,3660,4973,61,98,59,174,98,0
2705,3600,4930,-41,-68,-47,10240,0.68,-0.08,2.25,1.87,2741,3658,4972,61,98,59,174,98,0
2705,3600,4929,-38,-61,-44,10240,0.68,-0.08,2.25,1.87,2740,3656,4970,61,98,59,174,98,0
2706,3602,4931,-34,-56,-41,10240,0.68,-0.08,2.25,1.87,2738,3655,4969,61,98,59,174,98,0
2711,3608,4935,-32,-53,-38,10240,0.68,-0.08,2.25,1.87,2738,3653,4968,61,98,59,174,98,0
2721,3625,4944,-27,-45,-33,10240,0.68,-0.08,2.25,1.87,2737,3652,4967,61,98,59,174,98,0
2728,3635,4950,-21,-35,-27,10240,0.68,-0.08,2.25,1.87,2737,3651,4966,61,98,59,174,98,0
2734,3645,4957,-13,-23,-20,10240,0.68,-0.08,2.25,1.87,2737,3651,4966,61,98,59,174,98,0
2739,3657,4965,-6,-10,-12,10240,0.68,-0.08,2.25,1.87,2737,3651,4966,61,98,59,174,98,0
2747,3669,4971,0,0,-5,10240,0.68,-0.08,2.25,1.87,2737,3652,4966,61,98,59,174,98,0
2761,3689,4985,8,13,3,10240,0.68,-0.08,2.25,1.87,2738,3653,4967,61,98,59,174,98,0
2761,3690,4983,14,23,9,10240,0.68,-0.08,2.25,1.87,2739,3655,4967,61,98,59,174,98,0
2747,3670,4965,15,25,9,10240,0.68,-0.08,2.25,1.87,2739,3655,4967,61,98,59,174,98,0
2725,3632,4942,10,16,2,10240,0.68,-0.08,2.25,1.87,2738,3654,4966,62,100,61,174,98,0
2703,3598,4922,-4,-6,-13,10240,0.68,-0.08,2.23,1.84,2737,3652,4965,62,100,61,174,98,0
2677,3564,4900,-24,-36,-33,10240,0.68,-0.08,2.23,1.84,2735,3649,4963,62,100,61,174,98,0
2676,3565,4901,-40,-60,-47,10240,0.68,-0.08,2.23,1.84,2733,3647,4961,62,100,61,174,98,0
2683,3569,4904,-49,-74,-55,10240,0.68,-0.08,2.23,1.84,2732,3644,4959,62,100,61,174,98,0
2691,3576,4911,-50,-77,-56,10240,0.68,-0.08,2.23,1.84,2730,3642,4957,62,100,61,174,98,0
2696,3586,4917,-44,-69,-50,10240,0.68,-0.08,2.23,1.84,2729,3640,4956,62,100,61,174,98,0
2700,3594,4923,-37,-59,-43,10240,0.68,-0.08,2.23,1.84,2728,3638,4955,62,100,61,174,98,0
2701,3594,4923,-31,-51,-37,10240,0.68,-0.08,2.23,1.84,2727,3637,4954,62,100,61,174,98,0
2702,3598,4925,-27,-44,-32,10240,0.68,-0.08,2.23,1.84,2726,3636,4953,62,100,61,174,98,0
2705,3604,4929,-24,-39,-28,10240,0.68,-0.08,2.23,1.84,2726,3635,4952,62,100,61,174,98,0
2712,3612,4933,-21,-33,-25,10240,0.68,-0.08,2.23,1.84,2725,3634,4951,62,100,61,174,98,0
2727,3637,4948,-14,-22,-18,10240,0.68,-0.08,2.23,1.84,2725,3634,4951,62,100,61,174,98,0
2733,3648,4955,-6,-9,-10,10240,0.68,-0.08,2.23,1.84,2725,3634,4951,62,100,61,174,98,0
2739,3658,4961,2,4,-2,10240,0.68,-0.08,2.23,1.84,2726,3635,4952,62,100,61,174,98,0
2746,3670,4968,10,18,6,10240,0.68,-0.08,2.23,1.84,2727,3636,4952,62,100,61,174,98,0
2754,3682,4976,16,28,13,10240,0.68,-0.08,2.23,1.84,2728,3638,4953,62,100,61,174,98,0
2756,3687,4977,21,37,17,10240,0.68,-0.08,2.23,1.84,2728,3640,4954,62,100,61,174,98,0
2742,3662,4958,21,36,16,10240,0.68,-0.08,2.23,1.84,2729,3640,4954,62,104,64,174,98,0
2721,3628,4937,14,25,8,10240,0.68,-0.08,2.21,1.76,2729,3640,4953,64,104,64,174,98,0
2702,3597,4919,1,4,-5,10240,0.68,-0.08,2.21,1.76,2728,3638,4952,64,104,64,174,98,0
2692,3581,4909,-14,-21,-21,10240,0.68,-0.08,2.21,1.76,2727,3637,4951,64,104,64,174,98,0
2691,3581,4911,-25,-40,-32,10240,0.68,-0.08,2.21,1.76,2725,3635,4950,64,104,64,174,98,0
2695,3588,4916,-31,-49,-36,10240,0.68,-0.08,2.21,1.76,2724,3633,4948,64,104,64,174,98,0
2700,3597,4922,-30,-47,-34,10240,0.68,-0.08,2.21,1.76,2724,3632,4948,64,104,64,174,98,0
2705,3605,4926,-26,-40,-29,10240,0.68,-0.08,2.21,1.76,2723,3631,4947,64,104,64,174,98,0
2709,3610,4928,-21,-31,-24,10240,0.68,-0.08,2.21,1.76,2722,3630,4946,64,104,64,174,98,0
2711,3615,4931,-16,-24,-20,10240,0.68,-0.08,2.21,1.76,2722,3630,4946,64,104,64,174,98,0
2715,3621,4934,-12,-17,-16,10240,0.68,-0.08,2.21,1.76,2722,3629,4945,64,104,64,174,98,0
2719,3628,4938,-8,-11,-12,10240,0.68,-0.08,2.21,1.76,2722,3629,4945,64,104,64,174,98,0
2727,3639,4945,-4,-3,-8,10240,0.68,-0.08,2.21,1.76,2722,3630,4945,64,104,64,174,98,0
2733,3648,4952,1,4,-2,10240,0.68,-0.08,2.21,1.76,2722,3630,4945,64,104,64,174,98,0
2746,3672,4966,9,16,5,10240,0.68,-0.08,2.21,1.76,2723,3632,4946,64,104,64,174,98,0
2754,3684,4973,17,29,13,10240,0.68,-0.08,2.21,1.76,2724,3634,4947,64,104,64,174,98,0
2763,3695,4981,25,41,21,10240,0.68,-0.08,2.21,1.76,2725,3636,4948,64,104,64,174,98,0
2768,3706,4986,33,54,29,10240,0.68,-0.08,2.21,1.76,2727,3638,4949,64,104,64,174,98,0
2774,3718,4993,38,63,34,10240,0.68,-0.08,2.21,1.76,2728,3641,4951,64,104,64,174,98,0
2766,3703,4980,40,66,35,10240,0.68,-0.08,2.21,1.76,2730,3643,4952,64,104,64,174,98,0
2746,3670,4957,34,57,28,10240,0.68,-0.08,2.21,1.76,2730,3644,4952,66,106,66,174,98,0
2727,3638,4936,23,39,15,10240,0.68,-0.08,2.18,1.81,2730,3643,4951,66,106,66,174,98,0
2711,3614,4926,7,13,-1,10240,0.68,-0.08,2.18,1.81,2729,3642,4950,66,106,66,174,98,0
2706,3606,4922,-7,-10,-15,10240,0.68,-0.08,2.18,1.81,2729,3641,4950,66,106,66,174,98,0
2707,3609,4923,-16,-24,-23,10240,0.68,-0.08,2.18,1.81,2728,3640,4949,66,106,66,174,98,0
2712,3615,4928,-19,-29,-24,10240,0.68,-0.08,2.18,1.81,2727,3639,4948,66,106,66,174,98,0
2716,3623,4932,-17,-26,-22,10240,0.68,-0.08,2.18,1.81,2727,3639,4947,66,106,66,174,98,0
2721,3629,4934,-13,-20,-18,10240,0.68,-0.08,2.18,1.81,2727,3638,4947,66,106,66,174,98,0
2722,3632,4935,-9,-13,-15,10240,0.68,-0.08,2.18,1.81,2727,3638,4947,66,106,66,174,98,0
2726,3637,4938,-5,-8,-12,10240,0.68,-0.08,2.18,1.81,2727,3638,4946,66,106,66,174,98,0
2729,3643,4941,-2,-2,-9,10240,0.68,-0.08,2.18,1.81,2727,3638,4946,66,106,66,174,98,0
2733,3649,4947,0,2,-6,10240,0.68,-0.08,2.18,1.81,2727,3639,4946,66,106,66,174,98,0
2739,3661,4953,4,9,-1,10240,0.68,-0.08,2.18,1.81,2727,3639,4946,66,106,66,174,98,0
2746,3671,4960,9,17,4,10240,0.68,-0.08,2.18,1.81,2728,3640,4947,66,106,66,174,98,0
2760,3693,4975,16,28,12,10240,0.68,-0.08,2.18,1.81,2729,3642,4948,66,106,66,174,98,0
2768,3705,4981,24,41,19,10240,0.68,-0.08,2.18,1.81,2730,3644,4949,66,106,66,174,98,0
2772,3717,4985,31,53,26,10240,0.68,-0.08,2.18,1.81,2732,3647,4950,66,106,66,174,98,0
2780,3729,4993,39,65,33,10240,0.68,-0.08,2.18,1.81,2733,3650,4952,66,106,66,174,98,0
2782,3733,4994,43,72,37,10240,0.68,-0.08,2.18,1.81,2735,3652,4953,66,106,66,174,98,0
2753,3683,4960,37,65,31,10240,0.68,-0.08,2.18,1.81,2736,3653,4953,65,105,65,174,98,0
2732,3647,4937,27,46,18,10240,0.68,-0.08,2.19,1.81,2735,3653,4953,65,105,65,174,98,0
2714,3621,4922,10,18,0,10240,0.68,-0.08,2.19,1.81,2735,3652,4952,65,105,65,174,98,0
2706,3608,4916,-8,-12,-18,10240,0.68,-0.08,2.19,1.81,2734,3651,4950,65,105,65,174,98,0
2704,3604,4915,-20,-31,-28,10240,0.68,-0.08,2.19,1.81,2733,3649,4949,65,105,65,174,98,0
2709,3613,4919,-25,-38,-31,10240,0.68,-0.08,2.19,1.81,2732,3648,4948,65,105,65,174,98,0
2713,3618,4922,-24,-38,-30,10240,0.68,-0.08,2.19,1.81,2731,3647,4947,65,105,65,174,98,0
2716,3624,4926,-21,-32,-27,10240,0.68,-0.08,2.19,1.81,2731,3646,4947,65,105,65,174,98,0
2718,3626,4926,-17,-26,-23,10240,0.68,-0.08,2.19,1.81,2730,3645,4946,65,105,65,174,98,0
2720,3630,4926,-13,-21,-21,10240,0.68,-0.08,2.19,1.81,2730,3645,4945,65,105,65,174,98,0
2724,3636,4932,-10,-16,-18,10240,0.68,-0.08,2.19,1.81,2730,3645,4945,65,105,65,174,98,0
2729,3644,4937,-7,-11,-15,10240,0.68,-0.08,2.19,1.81,2730,3645,4945,65,105,65,174,98,0
2734,3654,4942,-3,-4,-10,10240,0.68,-0.08,2.19,1.81,2730,3645,4944,65,105,65,174,98,0
2740,3664,4948,1,4,-5,10240,0.68,-0.08,2.19,1.81,2730,3645,4945,65,105,65,174,98,0
2746,3675,4955,7,14,0,10240,0.68,-0.08,2.19,1.81,2731,3646,4945,65,105,65,174,98,0
2762,3697,4972,14,26,9,10240,0.68,-0.08,2.19,1.81,2732,3648,4946,65,105,65,174,98,0
2770,3710,4978,23,39,17,10240,0.68,-0.08,2.19,1.81,2733,3650,4947,65,105,65,174,98,0
2775,3719,4982,30,51,25,10240,0.68,-0.08,2.19,1.81,2735,3653,4948,65,105,65,174,98,0
2773,3716,4977,36,59,29,10240,0.68,-0.08,2.19,1.81,2736,3655,4949,65,105,65,174,98,0
2755,3688,4957,33,54,25,10240,0.68,-0.08,2.19,1.81,2736,3656,4949,64,103,63,174,98,0
2709,3611,4911,17,29,8,10240,0.68,-0.08,2.21,1.84,2736,3654,4948,64,103,63,174,98,0
2694,3585,4894,-2,-4,-13,10240,0.68,-0.08,2.21,1.84,2734,3652,4946,64,103,63,174,98,0
2686,3575,4885,-23,-38,-35,10240,0.68,-0.08,2.21,1.84,2733,3649,4944,64,103,63,174,98,0
2686,3574,4887,-39,-64,-50,10240,0.68,-0.08,2.21,1.84,2731,3647,4942,64,103,63,174,98,0
2687,3576,4887,-43,-70,-54,10240,0.68,-0.08,2.21,1.84,2730,3645,4940,64,103,63,174,98,0
2697,3591,4901,-41,-67,-51,10240,0.68,-0.08,2.21,1.84,2728,3643,4939,64,103,63,174,98,0
2699,3596,4902,-36,-59,-45,10240,0.68,-0.08,2.21,1.84,2727,3641,4938,64,103,63,174,98,0
2700,3598,4902,-32,-52,-40,10240,0.68,-0.08,2.21,1.84,2727,3640,4937,64,103,63,174,98,0
2701,3598,4903,-27,-44,-35,10240,0.68,-0.08,2.21,1.84,2726,3638,4936,64,103,63,174,98,0
2702,3603,4906,-25,-40,-33,10240,0.68,-0.08,2.21,1.84,2725,3637,4935,64,103,63,174,98,0
2712,3617,4915,-21,-33,-29,10240,0.68,-0.08,2.21,1.84,2724,3636,4934,64,103,63,174,98,0
2719,3628,4922,-16,-25,-23,10240,0.68,-0.08,2.21,1.84,2724,3636,4934,64,103,63,174,98,0
2725,3639,4929,-9,-14,-16,10240,0.68,-0.08,2.21,1.84,2724,3636,4933,64,103,63,174,98,0
2733,3652,4937,-2,-2,-8,10240,0.68,-0.08,2.21,1.84,2725,3637,4934,64,103,63,174,98,0
2740,3662,4943,4,8,-1,10240,0.68,-0.08,2.21,1.84,2725,3638,4934,64,103,63,174,98,0
2753,3684,4956,12,21,7,10240,0.68,-0.08,2.21,1.84,2726,3639,4935,64,103,63,174,98,0
2750,3682,4952,18,31,12,10240,0.68,-0.08,2.21,1.84,2727,3641,4935,64,103,63,174,98,0
2736,3659,4934,18,32,11,10240,0.68,-0.08,2.21,1.84,2727,3641,4935,64,103,64,174,98,0
2711,3617,4906,10,20,2,10240,0.68,-0.08,2.18,1.81,2727,3640,4934,63,103,64,174,98,0
2686,3577,4881,-5,-6,-15,10240,0.68,-0.08,2.18,1.81,2725,3638,4932,63,103,64,174,98,0
2668,3546,4873,-25,-38,-34,10240,0.68,-0.08,2.18,1.81,2723,3635,4930,63,103,64,174,98,0
2666,3543,4872,-41,-65,-48,10240,0.68,-0.08,2.18,1.81,2721,3632,4928,63,103,64,174,98,0
2668,3546,4873,-50,-80,-54,10240,0.68,-0.08,2.18,1.81,2720,3629,4927,63,103,64,174,98,0
2673,3553,4880,-51,-83,-53,10240,0.68,-0.08,2.18,1.81,2718,3627,4925,63,103,64,174,98,0
2676,3561,4884,-48,-77,-48,10240,0.68,-0.08,2.18,1.81,2717,3625,4924,63,103,64,174,98,0
2679,3565,4886,-43,-69,-43,10240,0.68,-0.08,2.18,1.81,2715,3623,4922,63,103,64,174,98,0
2679,3566,4888,-39,-62,-38,10240,0.68,-0.08,2.18,1.81,2714,3621,4921,63,103,64,174,98,0
2678,3568,4890,-36,-57,-34,10240,0.68,-0.08,2.18,1.81,2713,3619,4920,63,103,64,174,98,0
2680,3570,4888,-34,-52,-32,10240,0.68,-0.08,2.18,1.81,2712,3617,4919,63,103,64,174,98,0
2682,3575,4885,-32,-48,-31,10240,0.68,-0.08,2.18,1.81,2711,3616,4918,63,103,64,174,98,0
2696,3595,4900,-27,-39,-27,10240,0.68,-0.08,2.18,1.81,2710,3615,4917,63,103,64,174,98,0
2705,3609,4908,-20,-28,-22,10240,0.68,-0.08,2.18,1.81,2710,3615,4917,63,103,64,174,98,0
2713,3622,4916,-11,-15,-15,10240,0.68,-0.08,2.18,1.81,2710,3615,4917,63,103,64,174,98,0
2721,3634,4925,-1,0,-4,10240,0.68,-0.08,2.18,1.81,2711,3616,4917,63,103,64,174,98,0
2726,3641,4928,5,10,2,10240,0.68,-0.08,2.18,1.81,2711,3617,4918,63,103,64,174,98,0
2694,3591,4890,2,6,-2,10240,0.68,-0.08,2.18,1.81,2711,3616,4917,61,100,62,174,98,0
2674,3560,4880,-6,-9,-11,10240,0.68,-0.08,2.19,1.78,2709,3614,4916,61,100,62,174,98,0
2657,3529,4862,-22,-34,-26,10240,0.68,-0.08,2.19,1.78,2708,3611,4914,61,100,62,174,98,0
2647,3514,4855,-40,-63,-43,10240,0.68,-0.08,2.19,1.78,2706,3608,4912,61,100,62,174,98,0
2645,3512,4854,-51,-80,-50,10240,0.68,-0.08,2.19,1.78,2704,3605,4910,61,100,62,174,98,0
2652,3522,4862,-54,-87,-52,10240,0.68,-0.08,2.19,1.78,2702,3602,4908,61,100,62,174,98,0
2658,3531,4868,-52,-84,-49,10240,0.68,-0.08,2.19,1.78,2700,3600,4907,61,100,62,174,98,0
2663,3540,4873,-46,-75,-43,10240,0.68,-0.08,2.19,1.78,2699,3598,4906,61,100,62,174,98,0
2664,3543,4875,-40,-65,-37,10240,0.68,-0.08,2.19,1.78,2698,3596,4905,61,100,62,174,98,0
2667,3546,4878,-35,-57,-32,10240,0.68,-0.08,2.19,1.78,2697,3594,4904,61,100,62,174,98,0
2673,3559,4887,-30,-48,-26,10240,0.68,-0.08,2.19,1.78,2696,3593,4903,61,100,62,174,98,0
2676,3566,4894,-26,-40,-20,10240,0.68,-0.08,2.19,1.78,2696,3592,4903,61,100,62,174,98,0
2680,3572,4888,-22,-31,-16,10240,0.68,-0.08,2.19,1.78,2695,3591,4903,61,100,62,174,98,0
2685,3577,4889,-17,-23,-13,10240,0.68,-0.08,2.19,1.78,2695,3591,4902,61,100,62,174,98,0
2693,3592,4901,-11,-14,-9,10240,0.68,-0.08,2.19,1.78,2695,3591,4902,61,100,62,174,98,0
2711,3620,4921,-2,-1,-2,10240,0.68,-0.08,2.19,1.78,2695,3592,4903,61,100,62,174,98,0
2717,3631,4927,6,13,7,10240,0.68,-0.08,2.19,1.78,2696,3593,4903,61,100,62,174,98,0
2719,3634,4927,14,26,16,10240,0.68,-0.08,2.19,1.78,2697,3595,4904,61,100,62,174,98,0
2706,3613,4910,17,30,17,10240,0.68,-0.08,2.19,1.78,2697,3595,4904,61,100,62,174,98,0
2685,3578,4887,10,19,9,10240,0.68,-0.08,2.19,1.78,2697,3595,4904,64,105,64,174,98,0
2650,3521,4865,-6,-7,-6,10240,0.68,-0.08,2.24,1.82,2695,3592,4903,64,105,64,174,98,0
2644,3511,4860,-24,-37,-22,10240,0.68,-0.08,2.24,1.82,2693,3589,4901,64,105,64,174,98,0
2643,3511,4860,-38,-60,-34,10240,0.68,-0.08,2.24,1.82,2692,3587,4900,64,105,64,174,98,0
2645,3514,4863,-47,-73,-38,10240,0.68,-0.08,2.24,1.82,2690,3584,4899,64,105,64,174,98,0
2650,3521,4868,-45,-71,-36,10240,0.68,-0.08,2.24,1.82,2689,3582,4898,64,105,64,174,98,0
2659,3537,4878,-40,-62,-31,10240,0.68,-0.08,2.24,1.82,2688,3581,4897,64,105,64,174,98,0
2660,3540,4880,-35,-53,-25,10240,0.68,-0.08,2.24,1.82,2687,3579,4896,64,105,64,174,98,0
2661,3543,4880,-30,-44,-20,10240,0.68,-0.08,2.24,1.82,2686,3578,4896,64,105,64,174,98,0
2666,3549,4885,-25,-36,-15,10240,0.68,-0.08,2.24,1.82,2685,3577,4895,64,105,64,174,98,0
2674,3560,4895,-20,-29,-10,10240,0.68,-0.08,2.24,1.82,2685,3577,4895,64,105,64,174,98,0
2677,3569,4894,-15,-21,-6,10240,0.68,-0.08,2.24,1.82,2685,3576,4895,64,105,64,174,98,0
2682,3576,4892,-10,-13,-3,10240,0.68,-0.08,2.24,1.82,2685,3576,4895,64,105,64,174,98,0
2690,3591,4905,-4,-2,1,10240,0.68,-0.08,2.24,1.82,2685,3577,4896,64,105,64,174,98,0
2701,3607,4915,2,9,6,10240,0.68,-0.08,2.24,1.82,2685,3578,4896,64,105,64,174,98,0
2707,3619,4923,9,20,12,10240,0.68,-0.08,2.24,1.82,2686,3579,4897,64,105,64,174,98,0
2717,3635,4931,18,34,21,10240,0.68,-0.08,2.24,1.82,2687,3581,4898,64,105,64,174,98,0
2707,3617,4917,21,39,24,10240,0.68,-0.08,2.24,1.82,2688,3582,4899,64,105,64,174,98,0
2685,3582,4892,16,32,17,10240,0.68,-0.08,2.24,1.82,2688,3582,4899,65,106,63,174,98,0
2672,3560,4890,7,16,9,10240,0.68,-0.08,2.30,1.88,2687,3582,4898,65,106,63,174,98,0
2651,3536,4877,-8,-7,-4,10240,0.68,-0.08,2.30,1.88,2686,3580,4898,65,106,63,174,98,0
2650,3526,4875,-22,-29,-14,10240,0.68,-0.08,2.30,1.88,2685,3578,4897,65,106,63,174,98,0
2651,3529,4877,-29,-41,-17,10240,0.68,-0.08,2.30,1.88,2683,3577,4896,65,106,63,174,98,0
2656,3536,4882,-32,-45,-19,10240,0.68,-0.08,2.30,1.88,2683,3575,4896,65,106,63,174,98,0
2663,3545,4887,-28,-42,-15,10240,0.68,-0.08,2.30,1.88,2682,3574,4895,65,106,63,174,98,0
2672,3554,4892,-22,-34,-11,10240,0.68,-0.08,2.30,1.88,2682,3574,4895,65,106,63,174,98,0
2674,3563,4899,-15,-24,-5,10240,0.68,-0.08,2.30,1.88,2681,3573,4895,65,106,63,174,98,0
2674,3564,4900,-10,-17,0,10240,0.68,-0.08,2.30,1.88,2681,3573,4896,65,106,63,174,98,0
2677,3568,4895,-7,-11,1,10240,0.68,-0.08,2.30,1.88,2681,3573,4896,65,106,63,174,98,0
2678,3570,4892,-5,-6,1,10240,0.68,-0.08,2.30,1.88,2681,3573,4895,65,106,63,174,98,0
2681,3577,4894,-3,-3,0,10240,0.68,-0.08,2.30,1.88,2681,3573,4895,65,106,63,174,98,0
2698,3604,4915,2,6,3,10240,0.68,-0.08,2.30,1.88,2681,3574,4896,65,106,63,174,98,0
2705,3616,4922,9,18,10,10240,0.68,-0.08,2.30,1.88,2682,3575,4897,65,106,63,174,98,0
2712,3628,4930,17,31,18,10240,0.68,-0.08,2.30,1.88,2683,3577,4898,65,106,63,174,98,0
2720,3640,4936,26,45,28,10240,0.68,-0.08,2.30,1.88,2684,3579,4899,65,106,63,174,98,0
2727,3651,4943,32,55,34,10240,0.68,-0.08,2.30,1.88,2686,3582,4901,65,106,63,174,98,0
2718,3636,4928,34,58,34,10240,0.68,-0.08,2.30,1.88,2687,3583,4902,65,106,63,174,98,0
2696,3602,4906,29,50,27,10240,0.68,-0.08,2.30,1.88,2687,3584,4902,65,106,56,174,98,0
2680,3573,4888,18,32,14,10240,0.70,-0.08,2.59,2.12,2687,3584,4901,65,106,56,174,98,0
2674,3565,4897,5,10,3,10240,0.70,-0.08,2.59,2.12,2687,3583,4901,65,106,56,174,98,0
2673,3562,4897,-6,-7,-4,10240,0.70,-0.08,2.59,2.12,2686,3582,4901,65,106,56,174,98,0
2674,3564,4899,-11,-16,-5,10240,0.70,-0.08,2.59,2.12,2686,3582,4901,65,106,56,174,98,0
2674,3565,4899,-12,-18,-3,10240,0.70,-0.08,2.59,2.12,2685,3581,4901,65,106,56,174,98,0
2678,3570,4892,-10,-16,-4,10240,0.70,-0.08,2.59,2.12,2685,3581,4901,65,106,56,174,98,0
2678,3570,4893,-9,-13,-5,10240,0.70,-0.08,2.59,2.12,2685,3580,4900,65,106,56,174,98,0
2681,3572,4889,-7,-11,-7,10240,0.70,-0.08,2.59,2.12,2685,3580,4900,65,106,56,174,98,0
2681,3575,4889,-5,-8,-9,10240,0.70,-0.08,2.59,2.12,2685,3580,4900,65,106,56,174,98,0
2682,3581,4896,-4,-5,-8,10240,0.70,-0.08,2.59,2.12,2684,3580,4900,65,106,56,174,98,0
2689,3592,4905,-1,0,-5,10240,0.70,-0.08,2.59,2.12,2685,3580,4900,65,106,56,174,98,0
2695,3601,4912,2,7,0,10240,0.70,-0.08,2.59,2.12,2685,3581,4900,65,106,56,174,98,0
2702,3612,4919,7,15,7,10240,0.70,-0.08,2.59,2.12,2686,3582,4901,65,106,56,174,98,0
2716,3635,4932,14,28,16,10240,0.70,-0.08,2.59,2.12,2687,3584,4902,65,106,56,174,98,0
2723,3646,4939,22,40,24,10240,0.70,-0.08,2.59,2.12,2688,3586,4903,65,106,56,174,98,0
2730,3655,4945,30,52,31,10240,0.70,-0.08,2.59,2.12,2689,3588,4904,65,106,56,174,98,0
2733,3662,4946,36,62,36,10240,0.70,-0.08,2.59,2.12,2691,3591,4906,65,106,56,174,98,0
2730,3656,4940,39,65,37,10240,0.70,-0.08,2.59,2.12,2692,3593,4907,65,106,56,174,98,0
2693,3596,4900,30,51,26,10240,0.70,-0.08,2.59,2.12,2692,3593,4907,61,100,54,174,98,0
2680,3573,4888,17,29,12,10240,0.70,-0.08,2.53,2.06,2692,3592,4906,61,100,54,174,98,0
2678,3570,4892,3,6,-1,10240,0.70,-0.08,2.53,2.06,2691,3592,4906,61,100,54,174,98,0
2676,3568,4894,-9,-15,-12,10240,0.70,-0.08,2.53,2.06,2691,3591,4905,61,100,54,174,98,0
2677,3569,4893,-13,-21,-13,10240,0.70,-0.08,2.53,2.06,2690,3590,4905,61,100,54,174,98,0
2680,3572,4890,-12,-20,-12,10240,0.70,-0.08,2.53,2.06,2690,3589,4904,61,100,54,174,98,0
2681,3576,4887,-11,-18,-13,10240,0.70,-0.08,2.53,2.06,2689,3589,4904,61,100,54,174,98,0
2681,3578,4887,-9,-15,-14,10240,0.70,-0.08,2.53,2.06,2689,3589,4903,61,100,54,174,98,0
2681,3578,4890,-8,-12,-15,10240,0.70,-0.08,2.53,2.06,2689,3588,4903,61,100,54,174,98,0
2683,3579,4889,-7,-10,-14,10240,0.70,-0.08,2.53,2.06,2689,3588,4902,61,100,54,174,98,0
2688,3591,4902,-5,-6,-10,10240,0.70,-0.08,2.53,2.06,2689,3588,4902,61,100,54,174,98,0
2695,3600,4908,-2,-1,-5,10240,0.70,-0.08,2.53,2.06,2689,3588,4902,61,100,54,174,98,0
2701,3610,4914,2,6,1,10240,0.70,-0.08,2.53,2.06,2689,3589,4903,61,100,54,174,98,0
2707,3621,4920,8,16,8,10240,0.70,-0.08,2.53,2.06,2690,3590,4903,61,100,54,174,98,0
2714,3631,4926,14,25,14,10240,0.70,-0.08,2.53,2.06,2691,3592,4904,61,100,54,174,98,0
2726,3652,4938,21,37,20,10240,0.70,-0.08,2.53,2.06,2692,3594,4905,61,100,54,174,98,0
2729,3657,4939,27,47,26,10240,0.70,-0.08,2.53,2.06,2693,3596,4906,61,100,54,174,98,0
2722,3644,4928,30,51,27,10240,0.70,-0.08,2.53,2.06,2694,3597,4907,61,100,54,174,98,0
2701,3610,4905,26,44,21,10240,0.70,-0.08,2.53,2.06,2694,3598,4907,57,93,51,174,98,0
2683,3577,4884,15,25,7,10240,0.70,-0.08,2.49,2.04,2694,3597,4906,57,93,51,174,98,0
2657,3539,4874,-3,-4,-8,10240,0.70,-0.08,2.49,2.04,2693,3595,4905,57,93,51,174,98,0
2653,3534,4872,-19,-30,-21,10240,0.70,-0.08,2.49,2.04,2691,3593,4904,57,93,51,174,98,0
2654,3535,4873,-30,-47,-28,10240,0.70,-0.08,2.49,2.04,2690,3591,4903,57,93,51,174,98,0
2658,3540,4876,-35,-55,-29,10240,0.70,-0.08,2.49,2.04,2689,3589,4902,57,93,51,174,98,0
2664,3551,4882,-32,-50,-27,10240,0.70,-0.08,2.49,2.04,2688,3588,4902,57,93,51,174,98,0
2666,3556,4885,-28,-43,-23,10240,0.70,-0.08,2.49,2.04,2688,3587,4901,57,93,51,174,98,0
2666,3554,4883,-24,-37,-19,10240,0.70,-0.08,2.49,2.04,2687,3586,4900,57,93,51,174,98,0
2664,3553,4883,-22,-33,-17,10240,0.70,-0.08,2.49,2.04,2686,3585,4900,57,93,51,174,98,0
2668,3557,4884,-20,-30,-16,10240,0.70,-0.08,2.49,2.04,2685,3584,4899,57,93,51,174,98,0
2673,3564,4892,-18,-27,-14,10240,0.70,-0.08,2.49,2.04,2685,3583,4899,57,93,51,174,98,0
2682,3575,4885,-13,-21,-13,10240,0.70,-0.08,2.49,2.04,2685,3583,4899,57,93,51,174,98,0
2683,3580,4887,-8,-14,-11,10240,0.70,-0.08,2.49,2.04,2685,3583,4898,57,93,51,174,98,0
2688,3591,4896,-3,-5,-8,10240,0.70,-0.08,2.49,2.04,2685,3583,4898,57,93,51,174,98,0
2695,3603,4905,2,4,-5,10240,0.70,-0.08,2.49,2.04,2685,3584,4898,57,93,51,174,98,0
2702,3612,4912,6,12,1,10240,0.70,-0.08,2.49,2.04,2686,3585,4899,57,93,51,174,98,0
2700,3610,4904,10,19,5,10240,0.70,-0.08,2.49,2.04,2686,3586,4899,57,93,51,174,98,0
2682,3578,4881,9,15,2,10240,0.70,-0.08,2.49,2.04,2686,3585,4898,54,88,46,174,98,0
2655,3534,4862,-1,-1,-8,10240,0.70,-0.08,2.61,2.14,2685,3584,4897,54,88,46,174,98,0
2630,3494,4843,-18,-30,-24,10240,0.70,-0.08,2.61,2.14,2683,3581,4895,54,88,46,174,98,0
2615,3472,4830,-38,-62,-41,10240,0.70,-0.08,2.61,2.14,2681,3577,4893,54,88,46,174,98,0
2608,3455,4825,-55,-90,-54,10240,0.70,-0.08,2.61,2.14,2679,3573,4891,54,88,46,174,98,0
2607,3456,4824,-64,-105,-61,10240,0.70,-0.08,2.61,2.14,2676,3569,4889,54,88,46,174,98,0
2610,3460,4826,-67,-110,-63,10240,0.70,-0.08,2.61,2.14,2674,3565,4887,54,88,46,174,98,0
2612,3464,4827,-66,-108,-62,10240,0.70,-0.08,2.61,2.14,2672,3562,4885,54,88,46,174,98,0
2612,3467,4826,-62,-102,-60,10240,0.70,-0.08,2.61,2.14,2670,3559,4883,54,88,46,174,98,0
2612,3466,4826,-59,-96,-57,10240,0.70,-0.08,2.61,2.14,2668,3556,4881,54,88,46,174,98,0
2613,3469,4826,-56,-91,-55,10240,0.70,-0.08,2.61,2.14,2666,3553,4879,54,88,46,174,98,0
2617,3477,4831,-53,-84,-52,10240,0.70,-0.08,2.61,2.14,2665,3550,4877,54,88,46,174,98,0
2623,3485,4837,-49,-77,-48,10240,0.70,-0.08,2.61,2.14,2663,3548,4876,54,88,46,174,98,0
2629,3497,4844,-43,-67,-42,10240,0.70,-0.08,2.61,2.14,2662,3547,4875,54,88,46,174,98,0
2644,3521,4857,-34,-52,-33,10240,0.70,-0.08,2.61,2.14,2661,3546,4874,54,88,46,174,98,0
2653,3535,4866,-24,-37,-23,10240,0.70,-0.08,2.61,2.14,2661,3545,4874,54,88,46,174,98,0
2660,3549,4875,-14,-20,-13,10240,0.70,-0.08,2.61,2.14,2661,3545,4874,54,88,46,174,98,0
2670,3563,4883,-4,-3,-3,10240,0.70,-0.08,2.61,2.14,2661,3546,4874,54,88,46,174,98,0
2675,3570,4886,3,8,3,10240,0.70,-0.08,2.61,2.14,2662,3547,4875,54,88,46,174,98,0
2639,3512,4846,0,2,-1,10240,0.70,-0.08,2.61,2.14,2661,3546,4874,58,96,51,174,98,0
2610,3463,4820,-12,-18,-15,10240,0.70,-0.08,2.59,2.08,2659,3543,4872,58,96,51,174,98,0
2590,3421,4802,-31,-52,-34,10240,0.70,-0.08,2.59,2.08,2657,3539,4870,58,96,51,174,98,0
2570,3416,4792,-55,-87,-55,10240,0.70,-0.08,2.59,2.08,2654,3535,4867,58,96,51,174,98,0
2563,3416,4790,-72,-108,-67,10240,0.70,-0.08,2.59,2.08,2651,3531,4865,58,96,51,174,98,0
2563,3416,4791,-81,-115,-72,10240,0.70,-0.08,2.59,2.08,2648,3527,4862,58,96,51,174,98,0
2573,3416,4796,-82,-113,-71,10240,0.70,-0.08,2.59,2.08,2646,3523,4860,58,96,51,174,98,0
2582,3416,4800,-77,-109,-67,10240,0.70,-0.08,2.59,2.08,2644,3520,4858,58,96,51,174,98,0
2585,3416,4802,-69,-105,-61,10240,0.70,-0.08,2.59,2.08,2642,3516,4856,58,96,51,174,98,0
2588,3416,4802,-61,-102,-57,10240,0.70,-0.08,2.59,2.08,2640,3513,4854,58,96,51,174,98,0
2593,3429,4809,-54,-95,-52,10240,0.70,-0.08,2.59,2.08,2638,3510,4853,58,96,51,174,98,0
2597,3442,4814,-48,-86,-46,10240,0.70,-0.08,2.59,2.08,2637,3508,4851,58,96,51,174,98,0
2605,3457,4822,-42,-73,-40,10240,0.70,-0.08,2.59,2.08,2636,3506,4850,58,96,51,174,98,0
2612,3472,4827,-34,-57,-33,10240,0.70,-0.08,2.59,2.08,2635,3505,4850,58,96,51,174,98,0
2619,3485,4836,-27,-41,-25,10240,0.70,-0.08,2.59,2.08,2635,3504,4849,58,96,51,174,98,0
2637,3514,4851,-17,-23,-15,10240,0.70,-0.08,2.59,2.08,2635,3505,4849,58,96,51,174,98,0
2645,3528,4860,-6,-5,-6,10240,0.70,-0.08,2.59,2.08,2635,3505,4850,58,96,51,174,98,0
2655,3545,4871,3,12,5,10240,0.70,-0.08,2.59,2.08,2636,3507,4850,58,96,51,174,98,0
2666,3559,4879,15,30,15,10240,0.70,-0.08,2.59,2.08,2637,3508,4851,58,96,51,174,98,0
2663,3556,4875,21,39,20,10240,0.70,-0.08,2.59,2.08,2637,3510,4852,58,96,51,174,98,0
2619,3484,4830,14,27,12,10240,0.70,-0.08,2.59,2.08,2637,3509,4851,69,110,62,174,98,0
2598,3443,4810,0,2,-2,10240,0.70,-0.08,2.45,2.05,2636,3507,4850,69,110,62,174,98,0
2586,3417,4801,-19,-32,-21,10240,0.70,-0.08,2.45,2.05,2634,3504,4848,69,110,62,174,98,0
2580,3416,4799,-39,-65,-39,10240,0.70,-0.08,2.45,2.05,2632,3501,4847,69,110,62,174,98,0
2578,3416,4799,-47,-79,-45,10240,0.70,-0.08,2.45,2.05,2630,3498,4845,69,110,62,174,98,0
2589,3421,4806,-48,-82,-44,10240,0.70,-0.08,2.45,2.05,2629,3496,4844,69,110,62,174,98,0
2593,3435,4810,-44,-75,-41,10240,0.70,-0.08,2.45,2.05,2628,3494,4843,69,110,62,174,98,0
2597,3443,4813,-39,-66,-36,10240,0.70,-0.08,2.45,2.05,2627,3492,4842,69,110,62,174,98,0
2598,3448,4815,-33,-56,-31,10240,0.70,-0.08,2.45,2.05,2626,3490,4841,69,110,62,174,98,0
2600,3450,4816,-29,-47,-28,10240,0.70,-0.08,2.45,2.05,2625,3489,4840,69,110,62,174,98,0
2610,3467,4825,-24,-37,-23,10240,0.70,-0.08,2.45,2.05,2624,3488,4840,69,110,62,174,98,0
2614,3478,4830,-19,-28,-18,10240,0.70,-0.08,2.45,2.05,2624,3488,4839,69,110,62,174,98,0
2623,3491,4839,-12,-16,-12,10240,0.70,-0.08,2.45,2.05,2624,3488,4839,69,110,62,174,98,0
2632,3506,4848,-4,-2,-3,10240,0.70,-0.08,2.45,2.05,2624,3489,4839,69,110,62,174,98,0
2639,3517,4853,2,9,3,10240,0.70,-0.08,2.45,2.05,2625,3490,4840,69,110,62,174,98,0
2658,3548,4873,13,25,13,10240,0.70,-0.08,2.45,2.05,2626,3492,4841,69,110,62,174,98,0
2667,3563,4882,23,42,23,10240,0.70,-0.08,2.45,2.05,2627,3494,4842,69,110,62,174,98,0
2677,3572,4886,33,56,31,10240,0.70,-0.08,2.45,2.05,2629,3497,4844,69,110,62,174,98,0
2678,3574,4884,41,68,38,10240,0.70,-0.08,2.45,2.05,2631,3499,4845,69,110,62,174,98,0
2663,3558,4872,41,69,36,10240,0.70,-0.08,2.45,2.05,2632,3501,4846,69,110,67,174,98,0
2618,3483,4828,28,47,22,10240,0.70,-0.08,2.27,1.90,2631,3501,4846,74,120,67,174,98,0
2607,3461,4821,10,19,5,10240,0.70,-0.08,2.27,1.90,2630,3499,4845,74,120,67,174,98,0
2603,3455,4818,-7,-10,-10,10240,0.70,-0.08,2.27,1.90,2629,3498,4844,74,120,67,174,98,0
2603,3456,4819,-22,-34,-23,10240,0.70,-0.08,2.27,1.90,2629,3496,4843,74,120,67,174,98,0
2607,3463,4823,-24,-38,-23,10240,0.70,-0.08,2.27,1.90,2628,3495,4842,74,120,67,174,98,0
2615,3480,4830,-21,-32,-20,10240,0.70,-0.08,2.27,1.90,2627,3495,4842,74,120,67,174,98,0
2620,3487,4834,-16,-23,-15,10240,0.70,-0.08,2.27,1.90,2627,3494,4842,74,120,67,174,98,0
2621,3490,4835,-11,-14,-11,10240,0.70,-0.08,2.27,1.90,2627,3494,4841,74,120,67,174,98,0
2623,3491,4834,-7,-7,-8,10240,0.70,-0.08,2.27,1.90,2627,3494,4841,74,120,67,174,98,0
2626,3497,4839,-4,-2,-5,10240,0.70,-0.08,2.27,1.90,2627,3494,4841,74,120,67,174,98,0
2636,3514,4849,0,3,-1,10240,0.70,-0.08,2.27,1.90,2627,3495,4841,74,120,67,174,98,0
2645,3527,4856,5,12,3,10240,0.70,-0.08,2.27,1.90,2628,3496,4842,74,120,67,174,98,0
2652,3541,4865,12,24,10,10240,0.70,-0.08,2.27,1.90,2628,3498,4843,74,120,67,174,98,0
2662,3555,4874,20,37,18,10240,0.70,-0.08,2.27,1.90,2630,3499,4844,74,120,67,174,98,0
2672,3570,4884,28,49,26,10240,0.70,-0.08,2.27,1.90,2631,3502,4845,74,120,67,174,98,0
2683,3580,4882,36,60,31,10240,0.70,-0.08,2.27,1.90,2633,3504,4846,74,120,67,174,98,0
2683,3587,4881,43,70,34,10240,0.70,-0.08,2.27,1.90,2634,3507,4847,74,120,67,174,98,0
2682,3578,4879,46,73,35,10240,0.70,-0.08,2.27,1.90,2636,3510,4848,74,120,67,174,98,0
2660,3552,4865,42,66,29,10240,0.70,-0.08,2.27,1.90,2637,3511,4849,73,118,65,174,98,0
2637,3514,4843,29,48,18,10240,0.70,-0.08,2.51,2.07,2637,3511,4849,73,118,65,174,98,0
2614,3478,4824,11,20,4,10240,0.70,-0.08,2.51,2.07,2636,3510,4848,73,118,65,174,98,0
2613,3475,4824,-5,-5,-9,10240,0.70,-0.08,2.51,2.07,2635,3509,4847,73,118,65,174,98,0
2615,3479,4825,-16,-23,-18,10240,0.70,-0.08,2.51,2.07,2635,3508,4846,73,118,65,174,98,0
2617,3484,4829,-20,-29,-21,10240,0.70,-0.08,2.51,2.07,2634,3507,4846,73,118,65,174,98,0
2624,3494,4835,-17,-24,-18,10240,0.70,-0.08,2.51,2.07,2634,3507,4846,73,118,65,174,98,0
2632,3506,4841,-12,-16,-13,10240,0.70,-0.08,2.51,2.07,2634,3507,4845,73,118,65,174,98,0
2632,3509,4841,-7,-8,-9,10240,0.70,-0.08,2.51,2.07,2634,3507,4845,73,118,65,174,98,0
2635,3513,4844,-3,-1,-5,10240,0.70,-0.08,2.51,2.07,2634,3507,4845,73,118,65,174,98,0
2639,3518,4847,0,4,-1,10240,0.70,-0.08,2.51,2.07,2634,3507,4845,73,118,65,174,98,0
2646,3529,4854,4,10,1,10240,0.70,-0.08,2.51,2.07,2634,3508,4846,73,118,65,174,98,0
2662,3555,4870,11,21,8,10240,0.70,-0.08,2.51,2.07,2635,3509,4846,73,118,65,174,98,0
2670,3568,4880,19,33,16,10240,0.70,-0.08,2.51,2.07,2636,3511,4847,73,118,65,174,98,0
2679,3576,4881,28,46,24,10240,0.70,-0.08,2.51,2.07,2638,3514,4849,73,118,65,174,98,0
2685,3580,4879,37,57,29,10240,0.70,-0.08,2.51,2.07,2639,3516,4850,73,118,65,174,98,0
2684,3595,4886,41,65,32,10240,0.70,-0.08,2.51,2.07,2641,3518,4851,73,118,65,174,98,0
2688,3598,4884,44,70,32,10240,0.70,-0.08,2.51,2.07,2642,3521,4852,73,118,65,174,98,0
2678,3576,4876,42,67,29,10240,0.70,-0.08,2.51,2.07,2644,3523,4853,71,113,62,174,98,0
2650,3537,4851,32,55,22,10240,0.70,-0.08,2.51,2.10,2644,3523,4853,71,113,62,174,98,0
2629,3501,4833,18,30,8,10240,0.70,-0.08,2.51,2.10,2643,3523,4852,71,113,62,174,98,0
2616,3482,4822,0,1,-6,10240,0.70,-0.08,2.51,2.10,2642,3521,4851,71,113,62,174,98,0
2613,3475,4820,-15,-23,-20,10240,0.70,-0.08,2.51,2.10,2641,3520,4850,71,113,62,174,98,0
2614,3478,4822,-23,-36,-26,10240,0.70,-0.08,2.51,2.10,2640,3518,4849,71,113,62,174,98,0
2617,3485,4824,-25,-39,-27,10240,0.70,-0.08,2.51,2.10,2640,3517,4848,71,113,62,174,98,0
2622,3491,4828,-23,-35,-25,10240,0.70,-0.08,2.51,2.10,2639,3516,4848,71,113,62,174,98,0
2625,3497,4832,-20,-29,-21,10240,0.70,-0.08,2.51,2.10,2639,3516,4847,71,113,62,174,98,0
2630,3503,4835,-15,-22,-17,10240,0.70,-0.08,2.51,2.10,2638,3515,4847,71,113,62,174,98,0
2631,3507,4837,-11,-16,-14,10240,0.70,-0.08,2.51,2.10,2638,3515,4846,71,113,62,174,98,0
2638,3516,4842,-7,-9,-10,10240,0.70,-0.08,2.51,2.10,2638,3515,4846,71,113,62,174,98,0
2644,3527,4848,-2,-1,-5,10240,0.70,-0.08,2.51,2.10,2638,3515,4846,71,113,62,174,98,0
2650,3538,4855,2,6,0,10240,0.70,-0.08,2.51,2.10,2639,3516,4846,71,113,62,174,98,0
2669,3567,4874,11,21,8,10240,0.70,-0.08,2.51,2.10,2640,3518,4847,71,113,62,174,98,0
2676,3577,4880,20,35,17,10240,0.70,-0.08,2.51,2.10,2641,3520,4849,71,113,62,174,98,0
2684,3580,4877,29,46,23,10240,0.70,-0.08,2.51,2.10,2642,3522,4849,71,113,62,174,98,0
2685,3590,4880,36,57,29,10240,0.70,-0.08,2.51,2.10,2644,3524,4850,71,113,62,174,98,0
2690,3607,4890,40,65,31,10240,0.70,-0.08,2.51,2.10,2645,3527,4852,71,113,62,174,98,0
2689,3600,4881,42,68,31,10240,0.70,-0.08,2.51,2.10,2647,3529,4853,71,113,62,174,98,0
2674,3573,4869,38,64,28,10240,0.70,-0.08,2.51,2.10,2648,3531,4853,70,112,61,174,98,0
2643,3526,4842,27,47,17,10240,0.70,-0.08,2.52,2.10,2647,3531,4853,70,112,61,174,98,0
2622,3489,4823,9,17,1,10240,0.70,-0.08,2.52,2.10,2647,3529,4852,70,112,61,174,98,0
2611,3471,4815,-9,-14,-15,10240,0.70,-0.08,2.52,2.10,2645,3527,4851,70,112,61,174,98,0
2606,3460,4811,-25,-41,-28,10240,0.70,-0.08,2.52,2.10,2644,3525,4849,70,112,61,174,98,0
2607,3464,4811,-33,-55,-35,10240,0.70,-0.08,2.52,2.10,2643,3523,4848,70,112,61,174,98,0
2612,3471,4816,-34,-57,-35,10240,0.70,-0.08,2.52,2.10,2642,3521,4847,70,112,61,174,98,0
2614,3477,4816,-32,-54,-34,10240,0.70,-0.08,2.52,2.10,2641,3520,4846,70,112,61,174,98,0
2617,3481,4818,-29,-47,-31,10240,0.70,-0.08,2.52,2.10,2640,3519,4845,70,112,61,174,98,0
2616,3484,4818,-25,-41,-28,10240,0.70,-0.08,2.52,2.10,2639,3517,4844,70,112,61,174,98,0
2619,3488,4821,-23,-35,-26,10240,0.70,-0.08,2.52,2.10,2639,3516,4843,70,112,61,174,98,0
2625,3496,4828,-19,-29,-22,10240,0.70,-0.08,2.52,2.10,2638,3516,4843,70,112,61,174,98,0
2633,3508,4835,-15,-22,-17,10240,0.70,-0.08,2.52,2.10,2638,3516,4843,70,112,61,174,98,0
2639,3520,4841,-9,-13,-11,10240,0.70,-0.08,2.52,2.10,2638,3516,4843,70,112,61,174,98,0
2657,3546,4857,0,1,-2,10240,0.70,-0.08,2.52,2.10,2639,3517,4843,70,112,61,174,98,0
2665,3560,4866,9,16,6,10240,0.70,-0.08,2.52,2.10,2640,3518,4844,70,112,61,174,98,0
2672,3573,4877,18,32,16,10240,0.70,-0.08,2.52,2.10,2641,3520,4845,70,112,61,174,98,0
2681,3579,4878,28,45,25,10240,0.70,-0.08,2.52,2.10,2642,3522,4846,70,112,61,174,98,0
2686,3582,4876,34,52,28,10240,0.70,-0.08,2.52,2.10,2643,3524,4847,70,112,61,174,98,0
2680,3579,4874,37,55,29,10240,0.70,-0.08,2.52,2.10,2645,3526,4848,70,112,61,174,98,0
2655,3543,4849,31,46,22,10240,0.70,-0.08,2.52,2.10,2645,3526,4848,70,112,61,174,98,0
2625,3493,4822,17,24,7,10240,0.79,-0.08,2.52,2.10,2644,3525,4847,70,112,61,174,98,0
2605,3459,4805,-3,-6,-9,10240,0.79,-0.08,2.52,2.10,2643,3523,4846,70,112,61,174,98,0
2597,3442,4798,-23,-39,-27,10240,0.79,-0.08,2.52,2.10,2642,3520,4844,70,112,61,174,98,0
2595,3440,4798,-36,-63,-39,10240,0.79,-0.08,2.52,2.10,2640,3518,4843,70,112,61,174,98,0
2598,3447,4802,-42,-72,-42,10240,0.79,-0.08,2.52,2.10,2639,3515,4841,70,112,61,174,98,0
2603,3457,4806,-41,-70,-41,10240,0.79,-0.08,2.52,2.10,2637,3513,4840,70,112,61,174,98,0
2606,3463,4809,-37,-62,-37,10240,0.79,-0.08,2.52,2.10,2636,3512,4839,70,112,61,174,98,0
2608,3466,4811,-33,-54,-32,10240,0.79,-0.08,2.52,2.10,2635,3510,4838,70,112,61,174,98,0
2610,3468,4812,-29,-47,-29,10240,0.79,-0.08,2.52,2.10,2635,3509,4837,70,112,61,174,98,0
2613,3474,4814,-25,-42,-26,10240,0.79,-0.08,2.52,2.10,2634,3508,4836,70,112,61,174,98,0
2617,3482,4820,-22,-36,-22,10240,0.79,-0.08,2.52,2.10,2633,3507,4836,70,112,61,174,98,0
2623,3493,4827,-18,-28,-18,10240,0.79,-0.08,2.52,2.10,2633,3506,4836,70,112,61,174,98,0
2640,3506,4835,-10,-18,-12,10240,0.79,-0.08,2.52,2.10,2633,3506,4836,70,112,61,174,98,0
2647,3532,4849,-1,-3,-3,10240,0.79,-0.08,2.52,2.10,2634,3507,4836,70,112,61,174,98,0
2656,3545,4857,8,12,5,10240,0.79,-0.08,2.52,2.10,2634,3508,4837,70,112,61,174,98,0
2665,3561,4867,18,28,15,10240,0.79,-0.08,2.52,2.10,2635,3510,4838,70,112,61,174,98,0
2672,3573,4877,25,43,25,10240,0.79,-0.08,2.52,2.10,2637,3512,4839,70,112,61,174,98,0
2658,3573,4875,27,52,30,10240,0.79,-0.08,2.52,2.10,2637,3514,4840,70,112,61,174,98,0
2629,3502,4826,19,39,22,10240,0.79,-0.08,2.52,2.10,2637,3514,4840,70,115,64,174,98,0
2602,3453,4802,3,12,5,10240,0.79,-0.08,2.47,2.01,2636,3512,4838,70,115,64,174,98,0
2587,3418,4787,-17,-25,-16,10240,0.79,-0.08,2.47,2.01,2634,3509,4837,70,115,64,174,98,0
2576,3416,4782,-36,-63,-38,10240,0.79,-0.08,2.47,2.01,2632,3506,4835,70,115,64,174,98,0
2582,3416,4782,-46,-81,-47,10240,0.79,-0.08,2.47,2.01,2631,3503,4833,70,115,64,174,98,0
2590,3423,4791,-47,-86,-48,10240,0.79,-0.08,2.47,2.01,2629,3500,4832,70,115,64,174,98,0
2594,3439,4797,-44,-78,-44,10240,0.79,-0.08,2.47,2.01,2628,3498,4831,70,115,64,174,98,0
2598,3446,4800,-37,-68,-39,10240,0.79,-0.08,2.47,2.01,2627,3496,4830,70,115,64,174,98,0
2599,3448,4800,-32,-58,-33,10240,0.79,-0.08,2.47,2.01,2626,3495,4829,70,115,64,174,98,0
2602,3452,4801,-28,-49,-30,10240,0.79,-0.08,2.47,2.01,2625,3493,4828,70,115,64,174,98,0
2605,3460,4808,-24,-42,-26,10240,0.79,-0.08,2.47,2.01,2625,3492,4827,70,115,64,174,98,0
2612,3471,4814,-20,-35,-22,10240,0.79,-0.08,2.47,2.01,2624,3491,4827,70,115,64,174,98,0
2616,3484,4820,-15,-25,-16,10240,0.79,-0.08,2.47,2.01,2624,3491,4826,70,115,64,174,98,0
2626,3498,4830,-9,-13,-8,10240,0.79,-0.08,2.47,2.01,2624,3491,4826,70,115,64,174,98,0
2644,3526,4839,0,3,0,10240,0.79,-0.08,2.47,2.01,2625,3492,4827,70,115,64,174,98,0
2652,3540,4856,9,20,9,10240,0.79,-0.08,2.47,2.01,2626,3494,4828,70,115,64,174,98,0
2662,3555,4866,20,36,20,10240,0.79,-0.08,2.47,2.01,2627,3496,4829,70,115,64,174,98,0
2663,3556,4864,28,49,27,10240,0.79,-0.08,2.47,2.01,2628,3498,4830,70,115,64,174,98,0
2646,3529,4843,28,48,27,10240,0.79,-0.08,2.47,2.01,2629,3499,4831,70,120,64,174,98,0
2586,3478,4813,11,31,16,10240,0.79,-0.08,2.47,2.01,2627,3498,4830,71,120,67,174,98,0
2563,3416,4771,-12,-3,-7,10240,0.79,-0.08,2.47,1.95,2625,3496,4828,71,120,67,174,98,0
2562,3416,4765,-36,-36,-30,10240,0.79,-0.08,2.47,1.95,2623,3493,4826,71,120,67,174,98,0
2562,3416,4765,-55,-62,-48,10240,0.79,-0.08,2.47,1.95,2621,3490,4824,71,120,67,174,98,0
2562,3416,4767,-59,-75,-58,10240,0.79,-0.08,2.47,1.95,2619,3488,4822,71,120,67,174,98,0
2565,3416,4772,-57,-73,-55,10240,0.79,-0.08,2.47,1.95,2617,3486,4820,71,120,67,174,98,0
2575,3416,4781,-52,-70,-50,10240,0.79,-0.08,2.47,1.95,2616,3483,4819,71,120,67,174,98,0
2579,3416,4783,-46,-68,-44,10240,0.79,-0.08,2.47,1.95,2615,3481,4818,71,120,67,174,98,0
2581,3416,4783,-40,-66,-38,10240,0.79,-0.08,2.47,1.95,2613,3479,4817,71,120,67,174,98,0
2586,3416,4787,-34,-64,-34,10240,0.79,-0.08,2.47,1.95,2613,3477,4816,71,120,67,174,98,0
2596,3442,4791,-27,-55,-30,10240,0.79,-0.08,2.47,1.95,2612,3476,4815,71,120,67,174,98,0
2603,3457,4807,-21,-44,-23,10240,0.79,-0.08,2.47,1.95,2612,3475,4815,71,120,67,174,98,0
2611,3473,4815,-13,-28,-15,10240,0.79,-0.08,2.47,1.95,2612,3475,4815,71,120,67,174,98,0
2618,3487,4822,-5,-10,-6,10240,0.79,-0.08,2.47,1.95,2612,3475,4815,71,120,67,174,98,0
2629,3502,4832,3,4,4,10240,0.79,-0.08,2.47,1.95,2612,3476,4815,71,120,67,174,98,0
2648,3532,4842,14,22,12,10240,0.79,-0.08,2.47,1.95,2614,3478,4816,71,120,67,174,98,0
2653,3543,4858,23,38,22,10240,0.79,-0.08,2.47,1.95,2615,3480,4818,71,120,67,174,98,0
2647,3533,4847,30,48,27,10240,0.79,-0.08,2.47,1.95,2616,3482,4819,71,120,67,174,98,0
2620,3489,4818,26,43,23,10240,0.79,-0.08,2.47,1.95,2616,3482,4819,76,121,71,174,98,0
2585,3428,4785,10,17,8,10240,0.79,-0.08,2.36,1.97,2615,3480,4818,76,121,71,174,98,0
2563,3401,4750,-11,-17,-17,10240,0.79,-0.08,2.36,1.97,2613,3478,4815,76,121,71,174,98,0
2563,3391,4746,-31,-51,-41,10240,0.79,-0.08,2.36,1.97,2612,3475,4813,76,121,71,174,98,0
2563,3392,4747,-44,-73,-57,10240,0.79,-0.08,2.36,1.97,2610,3472,4811,76,121,71,174,98,0
2563,3402,4751,-47,-77,-63,10240,0.79,-0.08,2.36,1.97,2608,3470,4809,76,121,71,174,98,0
2562,3415,4757,-46,-71,-59,10240,0.79,-0.08,2.36,1.97,2607,3468,4807,76,121,71,174,98,0
2563,3416,4766,-44,-62,-53,10240,0.79,-0.08,2.36,1.97,2605,3466,4806,76,121,71,174,98,0
2562,3416,4766,-43,-55,-46,10240,0.79,-0.08,2.36,1.97,2604,3465,4804,76,121,71,174,98,0
2562,3416,4768,-42,-49,-40,10240,0.79,-0.08,2.36,1.97,2603,3463,4803,76,121,71,174,98,0
2563,3416,4772,-40,-47,-35,10240,0.79,-0.08,2.36,1.97,2601,3461,4802,76,121,71,174,98,0
2569,3416,4777,-38,-46,-31,10240,0.79,-0.08,2.36,1.97,2600,3460,4801,76,121,71,174,98,0
2593,3437,4796,-29,-39,-23,10240,0.79,-0.08,2.36,1.97,2600,3459,4801,76,121,71,174,98,0
2601,3455,4805,-18,-28,-13,10240,0.79,-0.08,2.36,1.97,2600,3459,4801,76,121,71,174,98,0
2611,3472,4815,-6,-14,-3,10240,0.79,-0.08,2.36,1.97,2600,3459,4802,76,121,71,174,98,0
2618,3487,4821,5,3,7,10240,0.79,-0.08,2.36,1.97,2601,3460,4802,76,121,71,174,98,0
2629,3505,4833,14,19,16,10240,0.79,-0.08,2.36,1.97,2602,3462,4803,76,121,71,174,98,0
2647,3534,4850,24,38,26,10240,0.79,-0.08,2.36,1.97,2603,3464,4805,76,121,71,174,98,0
2644,3531,4845,31,51,33,10240,0.79,-0.08,2.36,1.97,2605,3466,4806,76,121,71,174,98,0
2622,3492,4819,31,50,31,10240,0.79,-0.08,2.36,1.97,2605,3467,4807,76,122,78,174,98,0
2587,3430,4784,20,31,18,10240,0.79,-0.08,2.17,1.80,2605,3466,4806,76,122,78,174,98,0
2563,3416,4759,0,1,-4,10240,0.79,-0.08,2.17,1.80,2603,3464,4804,76,122,78,174,98,0
2563,3385,4741,-20,-34,-29,10240,0.79,-0.08,2.17,1.80,2602,3462,4802,76,122,78,174,98,0
2563,3386,4741,-33,-58,-46,10240,0.79,-0.08,2.17,1.80,2601,3459,4800,76,122,78,174,98,0
2563,3394,4744,-38,-65,-54,10240,0.79,-0.08,2.17,1.80,2599,3457,4798,76,122,78,174,98,0
2563,3411,4751,-37,-64,-55,10240,0.79,-0.08,2.17,1.80,2598,3456,4797,76,122,78,174,98,0
2563,3416,4759,-35,-54,-49,10240,0.79,-0.08,2.17,1.80,2597,3454,4796,76,122,78,174,98,0
2563,3416,4764,-34,-45,-41,10240,0.79,-0.08,2.17,1.80,2596,3453,4794,76,122,78,174,98,0
2563,3416,4765,-33,-39,-35,10240,0.79,-0.08,2.17,1.80,2595,3452,4794,76,122,78,174,98,0
2562,3416,4767,-32,-36,-30,10240,0.79,-0.08,2.17,1.80,2594,3451,4793,76,122,78,174,98,0
2565,3416,4774,-31,-35,-25,10240,0.79,-0.08,2.17,1.80,2593,3449,4792,76,122,78,174,98,0
2582,3416,4783,-25,-34,-20,10240,0.79,-0.08,2.17,1.80,2592,3448,4792,76,122,78,174,98,0
2599,3454,4801,-16,-23,-11,10240,0.79,-0.08,2.17,1.80,2593,3448,4792,76,122,78,174,98,0
2609,3473,4811,-4,-8,0,10240,0.79,-0.08,2.17,1.80,2593,3449,4793,76,122,78,174,98,0
2617,3488,4819,8,8,11,10240,0.79,-0.08,2.17,1.80,2594,3451,4793,76,122,78,174,98,0
2629,3507,4831,19,30,22,10240,0.79,-0.08,2.17,1.80,2595,3452,4795,76,122,78,174,98,0
2637,3522,4841,28,45,31,10240,0.79,-0.08,2.17,1.80,2597,3455,4796,76,122,78,174,98,0
2651,3542,4853,37,60,40,10240,0.79,-0.08,2.17,1.80,2598,3458,4798,76,122,78,174,98,0
2637,3520,4836,41,66,43,10240,0.79,-0.08,2.17,1.80,2600,3460,4799,76,122,78,174,98,0
2606,3467,4803,34,54,35,10240,0.79,-0.08,2.17,1.80,2600,3460,4800,77,125,83,174,98,0
2571,3418,4771,17,27,16,10240,0.79,-0.08,2.09,1.71,2599,3459,4799,77,125,83,174,98,0
2562,3416,4753,-5,-3,-8,10240,0.79,-0.08,2.09,1.71,2598,3457,4797,77,125,83,174,98,0
2563,3408,4746,-22,-30,-29,10240,0.79,-0.08,2.09,1.71,2596,3456,4795,77,125,83,174,98,0
2563,3415,4751,-32,-42,-41,10240,0.79,-0.08,2.09,1.71,2595,3454,4794,77,125,83,0,0,0
2563,3416,4757,-33,-41,-43,10240,0.79,-0.08,2.09,1.71,2594,3453,4793,77,125,83,0,0,0
2562,3416,4761,-31,-40,-39,10240,0.79,-0.08,2.09,1.71,2593,3452,4792,77,125,83,0,0,0
2563,3416,4766,-30,-36,-33,10240,0.79,-0.08,2.09,1.71,2592,3450,4791,77,125,83,0,0,0
2563,3416,4769,-29,-35,-28,10240,0.79,-0.08,2.09,1.71,2591,3449,4790,77,125,83,0,0,0
2566,3416,4772,-28,-33,-23,10240,0.79,-0.08,2.09,1.71,2590,3448,4789,77,125,83,0,0,0
2576,3416,4777,-23,-32,-18,10240,0.79,-0.08,2.09,1.71,2590,3447,4789,77,125,83,0,0,0
2585,3426,4784,-17,-29,-13,10240,0.79,-0.08,2.09,1.71,2590,3446,4789,77,125,83,0,0,0
2592,3444,4793,-10,-21,-7,10240,0.79,-0.08,2.09,1.71,2590,3446,4789,77,125,83,0,0,0
2611,3479,4813,0,-5,2,10240,0.79,-0.08,2.09,1.71,2591,3448,4790,77,125,83,0,0,0
2621,3496,4822,11,14,13,10240,0.79,-0.08,2.09,1.71,2592,3449,4791,77,125,83,0,0,0
2631,3512,4833,22,34,24,10240,0.79,-0.08,2.09,1.71,2593,3451,4792,77,125,83,0,0,0
2639,3527,4842,33,53,35,10240,0.79,-0.08,2.09,1.71,2594,3454,4794,77,125,83,0,0,0
2646,3537,4847,40,65,42,10240,0.79,-0.08,2.09,1.71,2596,3457,4796,77,125,83,0,0,0
2614,3482,4839,37,59,45,10240,0.79,-0.08,2.09,1.71,2597,3457,4797,76,120,83,0,0,0
2579,3425,4776,23,36,30,10240,0.79,-0.08,2.09,1.71,2596,3456,4796,76,120,84,0,0,0
2563,3416,4755,4,8,8,10240,0.79,-0.08,1.98,1.67,2595,3455,4795,76,120,84,0,0,0
2562,3410,4745,-16,-22,-16,10240,0.79,-0.08,1.98,1.67,2594,3453,4793,76,120,84,0,0,0
2563,3406,4744,-27,-39,-39,10240,0.79,-0.08,1.98,1.67,2593,3452,4792,76,120,84,0,0,0
2562,3415,4748,-31,-41,-44,10240,0.79,-0.08,1.98,1.67,2592,3451,4790,76,120,84,0,0,0
2563,3416,4761,-30,-39,-41,10240,0.79,-0.08,1.98,1.67,2591,3449,4789,76,120,84,0,0,0
2562,3416,4767,-29,-36,-35,10240,0.79,-0.08,1.98,1.67,2590,3448,4789,76,120,84,0,0,0
2563,3416,4769,-28,-33,-27,10240,0.79,-0.08,1.98,1.67,2589,3447,4788,76,120,84,0,0,0
2566,3416,4770,-26,-31,-21,10240,0.79,-0.08,1.98,1.67,2588,3446,4787,76,120,84,0,0,0
2570,3416,4773,-23,-30,-18,10240,0.79,-0.08,1.98,1.67,2588,3445,4787,76,120,84,0,0,0
2585,3427,4784,-17,-27,-13,10240,0.79,-0.08,1.98,1.67,2588,3445,4787,76,120,84,0,0,0
2592,3445,4792,-9,-19,-7,10240,0.79,-0.08,1.98,1.67,2588,3445,4787,76,120,84,0,0,0
2599,3462,4801,-1,-7,0,10240,0.79,-0.08,1.98,1.67,2588,3445,4787,76,120,84,0,0,0
2610,3478,4811,8,7,9,10240,0.79,-0.08,1.98,1.67,2589,3446,4788,76,120,84,0,0,0
2620,3495,4819,16,24,18,10240,0.79,-0.08,1.98,1.67,2590,3448,4789,76,120,84,0,0,0
2639,3527,4842,27,43,29,10240,0.79,-0.08,1.98,1.67,2591,3451,4791,76,120,84,0,0,0
2641,3532,4843,36,58,38,10240,0.79,-0.08,1.98,1.67,2593,3453,4793,76,120,84,0,0,0
2626,3505,4822,39,63,39,10240,0.79,-0.08,1.98,1.67,2594,3455,4794,76,120,84,0,0,0
2594,3446,4789,32,49,31,10240,0.79,-0.08,1.98,1.67,2594,3455,4794,74,116,84,0,0,0
2563,3416,4756,12,20,9,10240,0.79,-0.08,1.92,1.63,2593,3453,4792,74,116,84,0,0,0
2562,3376,4730,-7,-17,-18,10240,0.79,-0.08,1.92,1.63,2592,3451,4790,74,116,84,0,0,0
2561,3375,4729,-22,-48,-40,10240,0.79,-0.08,1.92,1.63,2591,3448,4788,74,116,84,0,0,0
2563,3383,4734,-29,-62,-51,10240,0.79,-0.08,1.92,1.63,2590,3446,4786,74,116,84,0,0,0
2563,3401,4742,-28,-63,-53,10240,0.79,-0.08,1.92,1.63,2589,3445,4785,74,116,84,0,0,0
2562,3415,4749,-27,-52,-47,10240,0.79,-0.08,1.92,1.63,2588,3444,4784,74,116,84,0,0,0
2563,3416,4755,-26,-40,-39,10240,0.79,-0.08,1.92,1.63,2588,3443,4783,74,116,84,0,0,0
2563,3416,4756,-25,-31,-33,10240,0.79,-0.08,1.92,1.63,2587,3442,4782,74,116,84,0,0,0
2563,3416,4758,-24,-26,-28,10240,0.79,-0.08,1.92,1.63,2586,3441,4781,74,116,84,0,0,0
2563,3416,4761,-23,-25,-24,10240,0.79,-0.08,1.92,1.63,2585,3440,4780,74,116,84,0,0,0
2562,3416,4768,-22,-24,-20,10240,0.79,-0.08,1.92,1.63,2584,3439,4780,74,116,84,0,0,0
2586,3434,4787,-16,-19,-11,10240,0.79,-0.08,1.92,1.63,2584,3439,4780,74,116,84,0,0,0
2595,3454,4797,-8,-9,-2,10240,0.79,-0.08,1.92,1.63,2585,3440,4781,74,116,84,0,0,0
2605,3472,4807,2,4,9,10240,0.79,-0.08,1.92,1.63,2586,3441,4782,74,116,84,0,0,0
2615,3488,4816,15,21,20,10240,0.79,-0.08,1.92,1.63,2586,3442,4783,74,116,84,0,0,0
2623,3501,4823,23,37,28,10240,0.79,-0.08,1.92,1.63,2588,3444,4784,74,116,84,0,0,0
2593,3448,4790,22,34,25,10240,0.79,-0.08,1.92,1.63,2588,3444,4784,69,112,83,0,0,0
2563,3414,4752,11,19,11,10240,0.79,-0.08,1.87,1.54,2587,3443,4783,69,112,83,0,0,0
2552,3366,4723,-4,-10,-11,10240,0.79,-0.08,1.87,1.54,2586,3441,4781,69,112,83,0,0,0
2527,3333,4706,-27,-51,-39,10240,0.79,-0.08,1.87,1.54,2584,3437,4779,69,112,83,0,0,0
2519,3322,4700,-44,-79,-59,10240,0.79,-0.08,1.87,1.54,2582,3433,4776,69,112,83,0,0,0
2526,3333,4708,-52,-96,-68,10240,0.79,-0.08,1.87,1.54,2580,3430,4774,69,112,83,0,0,0
2534,3346,4715,-54,-98,-68,10240,0.79,-0.08,1.87,1.54,2578,3427,4772,69,112,83,0,0,0
2546,3360,4722,-48,-88,-61,10240,0.79,-0.08,1.87,1.54,2577,3425,4770,69,112,83,0,0,0
2555,3368,4726,-37,-74,-53,10240,0.79,-0.08,1.87,1.54,2577,3423,4769,69,112,83,0,0,0
2560,3375,4729,-28,-62,-46,10240,0.79,-0.08,1.87,1.54,2576,3422,4767,69,112,83,0,0,0
2563,3385,4731,-20,-50,-41,10240,0.79,-0.08,1.87,1.54,2576,3420,4766,69,112,83,0,0,0
2563,3398,4741,-15,-39,-35,10240,0.79,-0.08,1.87,1.54,2575,3420,4765,69,112,83,0,0,0
2563,3414,4748,-13,-27,-28,10240,0.79,-0.08,1.87,1.54,2575,3419,4765,69,112,83,0,0,0
2562,3416,4756,-12,-16,-21,10240,0.79,-0.08,1.87,1.54,2574,3419,4764,69,112,83,0,0,0
2562,3416,4764,-12,-8,-12,10240,0.79,-0.08,1.87,1.54,2574,3419,4764,69,112,83,0,0,0
2582,3416,4774,-7,-3,-4,10240,0.79,-0.08,1.87,1.54,2574,3419,4765,69,112,83,0,0,0
2592,3447,4796,0,4,7,10240,0.79,-0.08,1.87,1.54,2575,3420,4766,69,112,83,0,0,0
2599,3463,4804,9,15,19,10240,0.79,-0.08,1.87,1.54,2576,3421,4767,69,112,83,0,0,0
2601,3465,4803,18,27,27,10240,0.79,-0.08,1.87,1.54,2576,3423,4768,69,112,83,0,0,0
2580,3429,4778,17,29,27,10240,0.79,-0.08,1.87,1.54,2577,3423,4769,70,112,83,0,0,0
2562,3405,4744,9,18,14,10240,0.79,-0.08,1.87,1.54,2576,3423,4768,70,116,86,0,0,0
2502,3298,4684,-14,-22,-15,10240,0.79,-0.08,1.88,1.51,2574,3418,4765,70,116,86,0,0,0
2491,3279,4671,-40,-66,-46,10240,0.79,-0.08,1.88,1.51,2571,3414,4762,70,116,86,0,0,0
2490,3276,4670,-61,-101,-71,10240,0.79,-0.08,1.88,1.51,2568,3409,4759,70,116,86,0,0,0
2493,3283,4675,-75,-127,-85,10240,0.79,-0.08,1.88,1.51,2566,3405,4756,70,116,86,0,0,0
2499,3295,4683,-73,-124,-83,10240,0.79,-0.08,1.88,1.51,2563,3401,4754,70,116,86,0,0,0
2515,3319,4699,-65,-110,-73,10240,0.79,-0.08,1.88,1.51,2562,3399,4752,70,116,86,0,0,0
2519,3324,4702,-56,-95,-63,10240,0.79,-0.08,1.88,1.51,2560,3396,4750,70,116,86,0,0,0
2519,3326,4703,-48,-81,-54,10240,0.79,-0.08,1.88,1.51,2559,3394,4749,70,116,86,0,0,0
2522,3331,4706,-41,-70,-47,10240,0.79,-0.08,1.88,1.51,2558,3392,4747,70,116,86,0,0,0
2529,3339,4711,-36,-63,-42,10240,0.79,-0.08,1.88,1.51,2557,3390,4746,70,116,86,0,0,0
2556,3374,4730,-26,-48,-34,10240,0.79,-0.08,1.88,1.51,2557,3389,4745,70,116,86,0,0,0
2562,3396,4741,-15,-30,-23,10240,0.79,-0.08,1.88,1.51,2557,3390,4745,70,116,86,0,0,0
2563,3416,4751,-4,-8,-12,10240,0.79,-0.08,1.88,1.51,2557,3390,4745,70,116,86,0,0,0
2562,3416,4759,3,10,0,10240,0.79,-0.08,1.88,1.51,2557,3391,4746,70,116,86,0,0,0
2563,3416,4767,5,20,8,10240,0.79,-0.08,1.88,1.51,2557,3392,4747,70,116,86,0,0,0
2584,3435,4787,10,29,19,10240,0.79,-0.08,1.88,1.51,2558,3394,4748,70,116,86,0,0,0
2586,3442,4790,16,34,28,10240,0.79,-0.08,1.88,1.51,2559,3395,4749,70,116,86,0,0,0
2570,3418,4770,17,33,30,10240,0.79,-0.08,1.88,1.51,2560,3396,4750,70,127,86,0,0,0
2562,3404,4742,16,29,23,10240,0.79,-0.08,1.88,1.51,2560,3396,4750,75,127,93,0,0,0
2529,3340,4710,2,5,3,10240,0.64,-0.08,1.91,1.50,2559,3394,4748,75,127,93,0,0,0
2493,3288,4681,-20,-31,-22,10240,0.64,-0.08,1.91,1.50,2556,3391,4746,75,127,93,0,0,0
2493,3286,4681,-38,-62,-43,10240,0.64,-0.08,1.91,1.50,2554,3387,4744,75,127,93,0,0,0
2494,3289,4682,-53,-88,-56,10240,0.64,-0.08,1.91,1.50,2552,3384,4742,75,127,93,0,0,0
2500,3298,4688,-58,-95,-60,10240,0.64,-0.08,1.91,1.50,2551,3381,4740,75,127,93,0,0,0
2507,3311,4697,-53,-86,-54,10240,0.64,-0.08,1.91,1.50,2549,3379,4739,75,127,93,0,0,0
2516,3326,4706,-45,-74,-46,10240,0.64,-0.08,1.91,1.50,2548,3377,4738,75,127,93,0,0,0
2517,3327,4707,-38,-62,-39,10240,0.64,-0.08,1.91,1.50,2547,3375,4737,75,127,93,0,0,0
2520,3330,4709,-32,-52,-32,10240,0.64,-0.08,1.91,1.50,2546,3374,4736,75,127,93,0,0,0
2525,3337,4714,-27,-44,-27,10240,0.64,-0.08,1.91,1.50,2545,3373,4735,75,127,93,0,0,0
2534,3350,4722,-21,-37,-22,10240,0.64,-0.08,1.91,1.50,2545,3372,4734,75,127,93,0,0,0
2562,3390,4743,-10,-21,-13,10240,0.64,-0.08,1.91,1.50,2546,3372,4735,75,127,93,0,0,0
2563,3411,4751,0,0,-2,10240,0.64,-0.08,1.91,1.50,2546,3374,4735,75,127,93,0,0,0
2562,3416,4760,9,18,9,10240,0.64,-0.08,1.91,1.50,2547,3375,4736,75,127,93,0,0,0
2563,3416,4767,16,33,19,10240,0.64,-0.08,1.91,1.50,2547,3377,4737,75,127,93,0,0,0
2564,3416,4776,16,38,27,10240,0.64,-0.08,1.91,1.50,2548,3378,4738,75,127,93,0,0,0
2572,3418,4779,17,39,32,10240,0.64,-0.08,1.91,1.50,2549,3379,4740,75,127,93,0,0,0
2562,3416,4761,17,38,31,10240,0.64,-0.08,1.91,1.50,2549,3380,4741,75,129,93,0,0,0
2557,3386,4738,15,29,23,10240,0.64,-0.08,1.95,1.50,2549,3381,4740,75,129,93,0,0,0
2524,3337,4716,4,9,8,10240,0.64,-0.08,1.95,1.50,2549,3379,4740,75,129,93,0,0,0
2509,3316,4707,-10,-15,-9,10240,0.64,-0.08,1.95,1.50,2547,3377,4739,75,129,93,0,0,0
2505,3310,4704,-24,-40,-22,10240,0.64,-0.08,1.95,1.50,2546,3375,4737,75,129,93,0,0,0
2508,3314,4708,-35,-56,-29,10240,0.64,-0.08,1.95,1.50,2545,3373,4736,75,129,93,0,0,0
2514,3324,4714,-36,-58,-28,10240,0.64,-0.08,1.95,1.50,2543,3371,4736,75,129,93,0,0,0
2521,3334,4720,-32,-51,-24,10240,0.64,-0.08,1.95,1.50,2543,3370,4735,75,129,93,0,0,0
2525,3341,4723,-26,-42,-19,10240,0.64,-0.08,1.95,1.50,2542,3369,4735,75,129,93,0,0,0
2531,3345,4724,-19,-33,-14,10240,0.64,-0.08,1.95,1.50,2542,3368,4734,75,129,93,0,0,0
2534,3351,4730,-14,-26,-10,10240,0.64,-0.08,1.95,1.50,2542,3368,4734,75,129,93,0,0,0
2542,3363,4737,-9,-18,-5,10240,0.64,-0.08,1.95,1.50,2542,3367,4734,75,129,93,0,0,0
2558,3382,4746,0,-7,0,10240,0.64,-0.08,1.95,1.50,2542,3368,4735,75,129,93,0,0,0
2563,3404,4756,7,7,7,10240,0.64,-0.08,1.95,1.50,2543,3369,4735,75,129,93,0,0,0
2563,3416,4764,14,22,15,10240,0.64,-0.08,1.95,1.50,2543,3371,4736,75,129,93,0,0,0
2563,3416,4776,18,34,24,10240,0.64,-0.08,1.95,1.50,2544,3372,4738,75,129,93,0,0,0
2563,3416,4781,19,41,32,10240,0.64,-0.08,1.95,1.50,2545,3374,4739,75,129,93,0,0,0
2575,3423,4791,21,44,39,10240,0.64,-0.08,1.95,1.50,2546,3375,4741,75,129,93,0,0,0
2583,3441,4799,25,49,46,10240,0.64,-0.08,1.95,1.50,2547,3377,4743,75,129,93,0,0,0
2586,3446,4800,30,55,50,10240,0.64,-0.08,1.95,1.50,2548,3380,4745,75,129,93,0,0,0
2562,3416,4764,29,53,45,10240,0.64,-0.08,1.95,1.50,2549,3381,4745,73,125,89,0,0,0
2557,3384,4746,23,42,32,10240,0.64,-0.08,1.97,1.53,2549,3381,4745,73,125,89,0,0,0
2532,3351,4734,10,18,16,10240,0.64,-0.08,1.97,1.53,2548,3380,4745,73,125,89,0,0,0
2525,3342,4730,-4,-7,-1,10240,0.64,-0.08,1.97,1.53,2548,3379,4745,73,125,89,0,0,0
2523,3339,4729,-13,-25,-10,10240,0.64,-0.08,1.97,1.53,2547,3377,4744,73,125,89,0,0,0
2529,3348,4735,-20,-33,-12,10240,0.64,-0.08,1.97,1.53,2546,3376,4744,73,125,89,0,0,0
2535,3356,4739,-18,-30,-11,10240,0.64,-0.08,1.97,1.53,2546,3376,4744,73,125,89,0,0,0
2541,3363,4744,-14,-24,-7,10240,0.64,-0.08,1.97,1.53,2546,3375,4744,73,125,89,0,0,0
2544,3368,4744,-8,-16,-3,10240,0.64,-0.08,1.97,1.53,2546,3375,4744,73,125,89,0,0,0
2545,3369,4745,-4,-11,-1,10240,0.64,-0.08,1.97,1.53,2546,3375,4744,73,125,89,0,0,0
2559,3385,4754,1,-3,2,10240,0.64,-0.08,1.97,1.53,2546,3375,4744,73,125,89,0,0,0
2563,3401,4759,6,5,6,10240,0.64,-0.08,1.97,1.53,2547,3376,4744,73,125,89,0,0,0
2563,3415,4767,11,16,12,10240,0.64,-0.08,1.97,1.53,2547,3377,4745,73,125,89,0,0,0
2562,3416,4770,14,27,17,10240,0.64,-0.08,1.97,1.53,2548,3379,4746,73,125,89,0,0,0
2562,3416,4776,15,34,22,10240,0.64,-0.08,1.97,1.53,2548,3380,4747,73,125,89,0,0,0
2565,3416,4786,15,36,28,10240,0.64,-0.08,1.97,1.53,2549,3381,4748,73,125,89,0,0,0
2576,3427,4796,17,38,34,10240,0.64,-0.08,1.97,1.53,2550,3383,4750,73,125,89,0,0,0
2583,3444,4804,22,43,41,10240,0.64,-0.08,1.97,1.53,2551,3385,4752,73,125,89,0,0,0
2589,3455,4807,27,51,47,10240,0.64,-0.08,1.97,1.53,2552,3387,4754,73,125,89,0,0,0
2583,3445,4798,31,56,48,10240,0.64,-0.08,1.97,1.53,2553,3389,4755,73,125,89,0,0,0
2562,3415,4779,27,52,42,10240,0.64,-0.08,1.97,1.53,2553,3390,4756,67,116,82,0,0,0
2557,3382,4749,20,35,28,10240,0.64,-0.08,1.98,1.52,2553,3390,4756,67,116,82,0,0,0
2539,3362,4741,7,11,11,10240,0.64,-0.08,1.98,1.52,2553,3389,4755,67,116,82,0,0,0
2535,3357,4739,-4,-10,-3,10240,0.64,-0.08,1.98,1.52,2552,3388,4755,67,116,82,0,0,0
2535,3357,4739,-11,-24,-13,10240,0.64,-0.08,1.98,1.52,2552,3387,4754,67,116,82,0,0,0
2545,3361,4742,-13,-28,-14,10240,0.64,-0.08,1.98,1.52,2552,3386,4754,67,116,82,0,0,0
2555,3381,4752,-9,-22,-11,10240,0.64,-0.08,1.98,1.52,2552,3386,4754,67,116,82,0,0,0
2560,3388,4755,-3,-14,-7,10240,0.64,-0.08,1.98,1.52,2552,3386,4754,67,116,82,0,0,0
2562,3392,4754,3,-5,-3,10240,0.64,-0.08,1.98,1.52,2552,3386,4754,67,116,82,0,0,0
2563,3394,4755,7,2,0,10240,0.64,-0.08,1.98,1.52,2553,3386,4754,67,116,82,0,0,0
2563,3400,4758,9,7,1,10240,0.64,-0.08,1.98,1.52,2553,3387,4754,67,116,82,0,0,0
2562,3416,4766,9,13,4,10240,0.64,-0.08,1.98,1.52,2553,3388,4754,67,116,82,0,0,0
2563,3416,4770,9,19,8,10240,0.64,-0.08,1.98,1.52,2554,3388,4755,67,116,82,0,0,0
2563,3416,4774,9,24,12,10240,0.64,-0.08,1.98,1.52,2554,3389,4755,67,116,82,0,0,0
2562,3416,4779,8,27,17,10240,0.64,-0.08,1.98,1.52,2554,3390,4756,56,116,82,0,0,0
2567,3417,4784,9,26,21,10240,0.64,-0.08,1.98,1.52,2555,3391,4757,56,101,82,0,0,0
2584,3446,4801,14,33,27,10240,0.64,-0.08,1.98,1.52,2556,3393,4759,56,101,82,0,0,0
2592,3460,4807,20,42,34,10240,0.64,-0.08,1.98,1.52,2557,3395,4760,56,101,82,0,0,0
2597,3471,4810,28,54,41,10240,0.64,-0.08,1.98,1.52,2558,3398,4762,56,101,82,0,0,0
2597,3472,4808,35,65,45,10240,0.64,-0.08,1.98,1.52,2559,3400,4763,56,101,82,0,0,0
2584,3447,4792,34,63,42,10240,0.64,-0.08,1.98,1.52,2560,3402,4764,51,92,76,0,0,0
2563,3414,4756,26,50,28,10240,0.64,-0.08,1.70,1.25,2560,3402,4764,51,92,76,0,0,0
2559,3387,4745,16,28,11,10240,0.64,-0.08,1.70,1.25,2560,3402,4763,51,92,76,0,0,0
2546,3370,4739,3,2,-5,10240,0.64,-0.08,1.70,1.25,2560,3401,4763,51,92,76,0,0,0
2540,3365,4736,-7,-17,-19,10240,0.64,-0.08,1.70,1.25,2559,3399,4762,51,92,76,0,0,0
2540,3364,4737,-13,-28,-23,10240,0.64,-0.08,1.70,1.25,2558,3398,4761,51,92,76,0,0,0
2552,3378,4744,-14,-29,-22,10240,0.64,-0.08,1.70,1.25,2558,3398,4760,51,92,76,0,0,0
2559,3386,4746,-10,-24,-20,10240,0.64,-0.08,1.70,1.25,2558,3397,4760,51,92,76,0,0,0
2561,3390,4747,-5,-18,-16,10240,0.64,-0.08,1.70,1.25,2558,3397,4759,51,92,76,0,0,0
2562,3391,4747,0,-11,-13,10240,0.64,-0.08,1.70,1.25,2559,3397,4759,51,92,76,0,0,0
2563,3395,4748,2,-6,-12,10240,0.64,-0.08,1.70,1.25,2559,3397,4759,51,92,76,0,0,0
2563,3415,4750,3,0,-10,10240,0.64,-0.08,1.70,1.25,2559,3397,4758,51,92,76,0,0,0
2563,3416,4760,3,7,-7,10240,0.64,-0.08,1.70,1.25,2559,3398,4758,51,92,76,0,0,0
2563,3416,4764,4,12,-3,10240,0.64,-0.08,1.70,1.25,2559,3399,4759,51,92,76,0,0,0
2562,3416,4767,3,17,1,10240,0.64,-0.08,1.70,1.25,2559,3399,4759,51,92,76,0,0,0
2563,3416,4773,3,17,7,10240,0.64,-0.08,1.70,1.25,2559,3400,4759,51,92,76,0,0,0
2570,3418,4779,5,17,11,10240,0.64,-0.08,1.70,1.25,2560,3400,4760,51,92,76,0,0,0
2584,3448,4792,10,24,18,10240,0.64,-0.08,1.70,1.25,2560,3402,4761,51,92,76,0,0,0
2592,3462,4797,17,34,24,10240,0.64,-0.08,1.70,1.25,2562,3404,4762,51,92,76,0,0,0
2598,3473,4803,24,47,31,10240,0.64,-0.08,1.70,1.25,2563,3406,4764,51,92,76,0,0,0
2604,3482,4807,32,61,36,10240,0.64,-0.08,1.70,1.25,2564,3409,4765,51,92,76,0,0,0
2599,3473,4799,34,65,37,10240,0.64,-0.08,1.70,1.25,2565,3411,4766,51,92,76,0,0,0
2562,3416,4754,26,51,25,10240,0.64,-0.08,1.70,1.25,2565,3411,4766,47,92,72,0,0,0
2563,3404,4740,17,33,9,10240,0.64,-0.08,1.79,1.21,2565,3411,4765,47,92,72,0,0,0
2547,3371,4730,2,5,-9,10240,0.64,-0.08,1.79,1.21,2565,3409,4764,47,92,72,0,0,0
2538,3359,4725,-12,-22,-27,10240,0.64,-0.08,1.79,1.21,2564,3408,4762,47,92,72,0,0,0
2534,3354,4723,-18,-36,-33,10240,0.64,-0.08,1.79,1.21,2563,3406,4761,47,92,72,0,0,0
2536,3357,4724,-24,-46,-36,10240,0.64,-0.08,1.79,1.21,2562,3404,4760,47,92,72,0,0,0
2539,3362,4726,-25,-47,-36,10240,0.64,-0.08,1.79,1.21,2561,3403,4759,47,92,72,0,0,0
2541,3364,4728,-24,-44,-34,10240,0.64,-0.08,1.79,1.21,2560,3402,4758,47,92,72,0,0,0
2541,3365,4726,-21,-40,-32,10240,0.64,-0.08,1.79,1.21,2560,3400,4757,47,92,72,0,0,0
2540,3363,4725,-19,-37,-31,10240,0.64,-0.08,1.79,1.21,2559,3399,4756,47,92,72,0,0,0
2548,3372,4729,-17,-33,-29,10240,0.64,-0.08,1.79,1.21,2559,3398,4755,47,92,72,0,0,0
2559,3386,4735,-12,-27,-26,10240,0.64,-0.08,1.79,1.21,2559,3398,4754,47,92,72,0,0,0
2563,3401,4741,-6,-17,-22,10240,0.64,-0.08,1.79,1.21,2559,3398,4754,47,92,72,0,0,0
2563,3416,4746,0,-4,-16,10240,0.64,-0.08,1.79,1.21,2559,3399,4753,47,92,72,0,0,0
2562,3416,4750,2,6,-10,10240,0.64,-0.08,1.79,1.21,2559,3399,4753,47,92,72,0,0,0
2563,3416,4755,3,13,-5,10240,0.64,-0.08,1.79,1.21,2559,3400,4753,47,92,72,0,0,0
2563,3416,4765,3,16,0,10240,0.64,-0.08,1.79,1.21,2559,3400,4754,47,92,72,0,0,0
2570,3419,4772,5,16,7,10240,0.64,-0.08,1.79,1.21,2560,3401,4754,47,92,72,0,0,0
2576,3434,4778,8,20,13,10240,0.64,-0.08,1.79,1.21,2560,3402,4755,47,92,72,0,0,0
2578,3436,4778,11,24,18,10240,0.64,-0.08,1.79,1.21,2561,3403,4756,47,92,72,0,0,0
2566,3417,4760,12,24,16,10240,0.64,-0.08,1.79,1.21,2561,3404,4756,47,92,68,0,0,0
2545,3367,4718,5,10,3,10240,0.64,-0.08,1.89,1.28,2560,3402,4755,44,87,68,0,0,0
2520,3334,4704,-8,-13,-15,10240,0.64,-0.08,1.89,1.28,2559,3400,4753,44,87,68,0,0,0
2511,3321,4698,-23,-41,-33,10240,0.64,-0.08,1.89,1.28,2557,3397,4751,44,87,68,0,0,0
2508,3315,4695,-37,-64,-48,10240,0.64,-0.08,1.89,1.28,2556,3395,4749,44,87,68,0,0,0
2507,3314,4694,-45,-75,-52,10240,0.64,-0.08,1.89,1.28,2554,3392,4748,44,87,68,0,0,0
2512,3323,4700,-45,-75,-51,10240,0.64,-0.08,1.89,1.28,2553,3390,4746,44,87,68,0,0,0
2515,3328,4701,-43,-71,-49,10240,0.64,-0.08,1.89,1.28,2552,3388,4744,44,87,68,0,0,0
2515,3327,4701,-40,-66,-46,10240,0.64,-0.08,1.89,1.28,2550,3386,4743,44,87,68,0,0,0
2514,3326,4700,-37,-61,-43,10240,0.64,-0.08,1.89,1.28,2549,3384,4742,44,87,68,0,0,0
2515,3326,4700,-35,-58,-41,10240,0.64,-0.08,1.89,1.28,2548,3382,4740,44,87,68,0,0,0
2523,3340,4707,-31,-53,-39,10240,0.64,-0.08,1.89,1.28,2547,3380,4739,44,87,68,0,0,0
2532,3351,4711,-26,-45,-35,10240,0.64,-0.08,1.89,1.28,2547,3379,4738,44,87,68,0,0,0
2541,3363,4719,-19,-35,-29,10240,0.64,-0.08,1.89,1.28,2546,3379,4737,44,87,68,0,0,0
2555,3381,4726,-9,-20,-22,10240,0.64,-0.08,1.89,1.28,2547,3379,4737,44,87,68,0,0,0
2563,3402,4736,1,-5,-14,10240,0.64,-0.08,1.89,1.28,2547,3380,4737,44,87,68,0,0,0
2562,3416,4746,8,10,-5,10240,0.64,-0.08,1.89,1.28,2548,3381,4737,44,87,68,0,0,0
2562,3416,4751,13,23,2,10240,0.64,-0.08,1.89,1.28,2548,3382,4738,44,87,68,0,0,0
2563,3416,4753,14,31,9,10240,0.64,-0.08,1.89,1.28,2549,3383,4738,44,87,68,0,0,0
2563,3416,4748,14,33,11,10240,0.64,-0.08,1.89,1.28,2549,3384,4739,44,87,68,0,0,0
2563,3408,4732,13,30,7,10240,0.64,-0.08,1.89,1.28,2550,3385,4738,48,92,67,0,0,0
2504,3310,4682,0,3,-9,10240,0.64,-0.08,1.92,1.33,2548,3383,4737,48,92,67,0,0,0
2490,3287,4670,-18,-27,-29,10240,0.64,-0.08,1.92,1.33,2546,3379,4734,48,92,67,0,0,0
2485,3277,4665,-36,-60,-48,10240,0.64,-0.08,1.92,1.33,2544,3376,4732,48,92,67,0,0,0
2484,3275,4665,-54,-90,-62,10240,0.64,-0.08,1.92,1.33,2542,3373,4730,48,92,67,0,0,0
2484,3275,4665,-57,-95,-64,10240,0.64,-0.08,1.92,1.33,2540,3369,4728,48,92,67,0,0,0
2491,3290,4668,-55,-92,-63,10240,0.64,-0.08,1.92,1.33,2539,3367,4726,48,92,67,0,0,0
2494,3293,4674,-51,-85,-59,10240,0.64,-0.08,1.92,1.33,2537,3364,4724,48,92,67,0,0,0
2494,3294,4672,-47,-77,-55,10240,0.64,-0.08,1.92,1.33,2536,3362,4722,48,92,67,0,0,0
2494,3294,4673,-43,-70,-51,10240,0.64,-0.08,1.92,1.33,2534,3360,4721,48,92,67,0,0,0
2496,3297,4675,-40,-66,-48,10240,0.64,-0.08,1.92,1.33,2533,3357,4719,48,92,67,0,0,0
2499,3304,4679,-38,-61,-45,10240,0.64,-0.08,1.92,1.33,2532,3356,4718,48,92,67,0,0,0
2516,3327,4693,-31,-51,-38,10240,0.64,-0.08,1.92,1.33,2531,3355,4717,48,92,67,0,0,0
2525,3340,4701,-22,-38,-30,10240,0.64,-0.08,1.92,1.33,2531,3354,4716,48,92,67,0,0,0
2535,3356,4709,-12,-23,-21,10240,0.64,-0.08,1.92,1.33,2531,3354,4716,48,92,67,0,0,0
2548,3371,4716,0,-6,-11,10240,0.64,-0.08,1.92,1.33,2532,3355,4716,48,92,67,0,0,0
2562,3392,4724,10,10,-3,10240,0.64,-0.08,1.92,1.33,2533,3356,4716,48,92,67,0,0,0
2562,3416,4737,19,28,5,10240,0.64,-0.08,1.92,1.33,2534,3358,4717,48,92,67,0,0,0
2563,3416,4741,25,41,12,10240,0.64,-0.08,1.92,1.33,2535,3360,4718,48,92,67,0,0,0
2563,3416,4734,28,51,16,10240,0.64,-0.08,1.92,1.33,2536,3362,4718,48,92,67,0,0,0
2554,3384,4713,25,47,13,10240,0.64,-0.08,1.92,1.33,2536,3363,4718,57,106,70,0,0,0
2514,3325,4683,12,23,0,10240,0.64,-0.08,2.12,1.51,2536,3361,4717,57,106,70,0,0,0
2473,3261,4651,-9,-14,-21,10240,0.64,-0.08,2.12,1.51,2533,3358,4715,57,106,70,0,0,0
2464,3249,4642,-32,-54,-43,10240,0.64,-0.08,2.12,1.51,2531,3354,4712,57,106,70,0,0,0
2462,3244,4638,-54,-86,-60,10240,0.64,-0.08,2.12,1.51,2529,3351,4710,57,106,70,0,0,0
2464,3246,4640,-64,-102,-68,10240,0.64,-0.08,2.12,1.51,2527,3347,4708,57,106,70,0,0,0
2466,3252,4643,-64,-101,-68,10240,0.64,-0.08,2.12,1.51,2525,3344,4705,57,106,70,0,0,0
2475,3267,4652,-59,-93,-63,10240,0.64,-0.08,2.12,1.51,2523,3342,4704,57,106,70,0,0,0
2476,3268,4652,-53,-84,-58,10240,0.64,-0.08,2.12,1.51,2521,3339,4702,57,106,70,0,0,0
2476,3269,4652,-49,-76,-53,10240,0.64,-0.08,2.12,1.51,2520,3337,4700,57,106,70,0,0,0
2479,3269,4653,-44,-69,-49,10240,0.64,-0.08,2.12,1.51,2519,3334,4699,57,106,70,0,0,0
2484,3277,4655,-40,-65,-46,10240,0.64,-0.08,2.12,1.51,2517,3333,4697,57,106,70,0,0,0
2500,3304,4670,-33,-54,-40,10240,0.64,-0.08,2.12,1.51,2517,3332,4696,57,106,70,0,0,0
2509,3319,4679,-24,-40,-32,10240,0.64,-0.08,2.12,1.51,2517,3331,4696,57,106,70,0,0,0
2520,3335,4689,-13,-23,-23,10240,0.64,-0.08,2.12,1.51,2517,3331,4696,57,106,70,0,0,0
2532,3351,4698,-1,-4,-12,10240,0.64,-0.08,2.12,1.51,2517,3332,4696,57,106,70,0,0,0
2542,3368,4706,8,11,-3,10240,0.64,-0.08,2.12,1.51,2518,3333,4696,57,106,70,0,0,0
2562,3412,4725,21,33,8,10240,0.64,-0.08,2.12,1.51,2519,3336,4697,57,106,70,0,0,0
2563,3416,4732,31,52,18,10240,0.64,-0.08,2.12,1.51,2521,3338,4698,57,106,70,0,0,0
2562,3416,4731,37,66,26,10240,0.64,-0.08,2.12,1.51,2522,3341,4699,57,106,70,0,0,0
2561,3402,4715,40,72,27,10240,0.64,-0.08,2.12,1.51,2524,3343,4700,57,106,70,0,0,0
2523,3338,4682,29,51,16,10240,0.64,-0.08,2.12,1.51,2524,3343,4699,69,123,76,0,0,0
2467,3253,4633,5,10,-8,10240,0.64,-0.08,2.27,1.69,2522,3340,4697,69,123,76,0,0,0
2458,3237,4623,-20,-33,-34,10240,0.64,-0.08,2.27,1.69,2520,3336,4694,69,123,76,0,0,0
2453,3231,4619,-45,-73,-56,10240,0.64,-0.08,2.27,1.69,2517,3333,4692,69,123,76,0,0,0
2453,3231,4619,-60,-96,-69,10240,0.64,-0.08,2.27,1.69,2515,3330,4690,69,123,76,0,0,0
2458,3239,4623,-60,-97,-69,10240,0.64,-0.08,2.27,1.69,2513,3327,4687,69,123,76,0,0,0
2468,3257,4629,-56,-89,-66,10240,0.64,-0.08,2.27,1.69,2512,3324,4685,69,123,76,0,0,0
2473,3265,4640,-49,-77,-58,10240,0.64,-0.08,2.27,1.69,2510,3322,4684,69,123,76,0,0,0
2474,3267,4640,-42,-66,-51,10240,0.64,-0.08,2.27,1.69,2509,3320,4682,69,123,76,0,0,0
2476,3271,4644,-37,-56,-44,10240,0.64,-0.08,2.27,1.69,2508,3319,4681,69,123,76,0,0,0
2481,3276,4647,-32,-49,-39,10240,0.64,-0.08,2.27,1.69,2507,3317,4680,69,123,76,0,0,0
2496,3282,4651,-26,-44,-35,10240,0.64,-0.08,2.27,1.69,2507,3316,4679,69,123,76,0,0,0
2506,3315,4668,-17,-31,-27,10240,0.64,-0.08,2.27,1.69,2507,3316,4679,69,123,76,0,0,0
2517,3332,4679,-7,-15,-18,10240,0.64,-0.08,2.27,1.69,2507,3317,4679,69,123,76,0,0,0
2531,3350,4689,5,3,-7,10240,0.64,-0.08,2.27,1.69,2508,3318,4679,69,123,76,0,0,0
2543,3369,4699,16,24,4,10240,0.64,-0.08,2.27,1.69,2509,3319,4680,69,123,76,0,0,0
2561,3393,4711,29,42,14,10240,0.64,-0.08,2.27,1.69,2511,3322,4681,69,123,76,0,0,0
2563,3416,4727,39,61,26,10240,0.64,-0.08,2.27,1.69,2513,3325,4682,69,123,76,0,0,0
2563,3416,4733,45,75,35,10240,0.64,-0.08,2.27,1.69,2514,3328,4684,69,123,76,0,0,0
2562,3416,4738,48,83,44,10240,0.64,-0.08,2.27,1.69,2516,3331,4686,69,123,76,0,0,0
2562,3416,4731,47,86,47,10240,0.64,-0.08,2.27,1.69,2517,3334,4687,79,123,76,0,0,0
2559,3402,4707,45,80,41,10240,0.64,-0.08,2.27,1.69,2519,3336,4688,79,138,86,0,0,0
2486,3283,4645,24,45,18,10240,0.59,-0.08,2.25,1.71,2518,3334,4686,79,138,86,0,0,0
2468,3256,4627,1,5,-8,10240,0.59,-0.08,2.25,1.71,2516,3332,4684,79,138,86,0,0,0
2463,3246,4619,-22,-36,-35,10240,0.59,-0.08,2.25,1.71,2514,3329,4682,79,138,86,0,0,0
2461,3243,4618,-45,-73,-55,10240,0.59,-0.08,2.25,1.71,2513,3326,4680,79,138,86,0,0,0
2462,3246,4620,-50,-79,-60,10240,0.59,-0.08,2.25,1.71,2511,3323,4678,79,138,86,0,0,0
2473,3264,4633,-47,-75,-56,10240,0.59,-0.08,2.25,1.71,2510,3321,4677,79,138,86,0,0,0
2476,3272,4637,-42,-66,-50,10240,0.59,-0.08,2.25,1.71,2508,3320,4675,79,138,86,0,0,0
2480,3279,4643,-36,-55,-42,10240,0.59,-0.08,2.25,1.71,2507,3318,4674,79,138,86,0,0,0
2482,3280,4643,-30,-45,-35,10240,0.59,-0.08,2.25,1.71,2507,3317,4673,79,138,86,0,0,0
2486,3282,4645,-26,-39,-31,10240,0.59,-0.08,2.25,1.71,2506,3316,4672,79,138,86,0,0,0
2499,3305,4657,-19,-30,-25,10240,0.59,-0.08,2.25,1.71,2506,3316,4672,79,138,86,0,0,0
2509,3320,4667,-12,-19,-19,10240,0.59,-0.08,2.25,1.71,2506,3316,4672,79,138,86,0,0,0
2521,3337,4677,-2,-5,-10,10240,0.59,-0.08,2.25,1.71,2506,3316,4672,79,138,86,0,0,0
2534,3357,4687,9,13,0,10240,0.59,-0.08,2.25,1.71,2507,3318,4672,79,138,86,0,0,0
2549,3378,4699,21,30,10,10240,0.59,-0.08,2.25,1.71,2509,3320,4673,79,138,86,0,0,0
2563,3416,4719,33,52,22,10240,0.59,-0.08,2.25,1.71,2510,3323,4675,79,138,86,0,0,0
2563,3416,4727,42,70,34,10240,0.59,-0.08,2.25,1.71,2512,3326,4676,79,138,86,0,0,0
2562,3416,4733,48,82,44,10240,0.59,-0.08,2.25,1.71,2514,3329,4678,79,138,86,0,0,0
2564,3416,4741,50,88,52,10240,0.59,-0.08,2.25,1.71,2516,3332,4680,79,138,86,0,0,0
2563,3416,4737,48,85,55,10240,0.59,-0.08,2.25,1.71,2517,3335,4682,84,145,86,0,0,0
2539,3361,4682,40,69,42,10240,0.59,-0.08,2.25,1.71,2518,3336,4682,84,145,93,0,0,0
2499,3301,4649,24,39,21,10240,0.59,-0.08,2.19,1.68,2517,3335,4681,84,145,93,0,0,0
2480,3276,4636,3,3,-5,10240,0.59,-0.08,2.19,1.68,2516,3333,4680,84,145,93,101,0,0
2473,3265,4628,-18,-32,-31,10240,0.59,-0.08,2.19,1.68,2515,3330,4678,84,145,93,101,0,0
2472,3262,4627,-34,-55,-43,10240,0.59,-0.08,2.19,1.68,2513,3328,4676,84,145,93,101,0,0
2480,3278,4638,-37,-59,-45,10240,0.59,-0.08,2.19,1.68,2512,3326,4675,84,145,93,101,0,0
2486,3284,4642,-35,-55,-42,10240,0.59,-0.08,2.19,1.68,2511,3325,4674,84,145,93,101,0,0
2492,3292,4645,-29,-46,-36,10240,0.59,-0.08,2.19,1.68,2511,3324,4673,84,145,93,101,0,0
2494,3296,4648,-23,-37,-30,10240,0.59,-0.08,2.19,1.68,2510,3323,4672,84,145,93,101,0,0
2496,3300,4650,-18,-30,-26,10240,0.59,-0.08,2.19,1.68,2509,3322,4671,84,145,93,101,0,0
2506,3314,4659,-12,-22,-21,10240,0.59,-0.08,2.19,1.68,2509,3322,4671,84,145,93,101,0,0
2513,3326,4665,-7,-13,-15,10240,0.59,-0.08,2.19,1.68,2510,3322,4671,84,145,93,101,0,0
2524,3342,4676,0,-1,-8,10240,0.59,-0.08,2.19,1.68,2510,3323,4671,84,145,93,101,0,0
2536,3361,4686,9,13,0,10240,0.59,-0.08,2.19,1.68,2511,3324,4672,84,145,93,101,0,0
2554,3381,4697,21,28,9,10240,0.59,-0.08,2.19,1.68,2512,3326,4672,84,145,93,101,0,0
2563,3416,4717,32,49,21,10240,0.59,-0.08,2.19,1.68,2514,3329,4674,84,145,93,101,0,0
2563,3416,4725,40,65,32,10240,0.59,-0.08,2.19,1.68,2516,3332,4676,84,145,93,101,0,0
2562,3416,4731,45,76,42,10240,0.59,-0.08,2.19,1.68,2517,3335,4677,84,145,93,101,0,0
2562,3416,4732,46,82,49,10240,0.59,-0.08,2.19,1.68,2519,3337,4679,84,145,93,101,0,0
2562,3416,4716,44,80,48,10240,0.59,-0.08,2.19,1.68,2520,3340,4680,84,144,94,101,0,0
2508,3316,4654,29,53,29,10240,0.59,-0.08,2.15,1.66,2520,3339,4680,84,144,94,101,0,0
2486,3287,4639,10,20,6,10240,0.59,-0.08,2.15,1.66,2519,3337,4678,84,144,94,101,0,0
2478,3275,4632,-10,-14,-18,10240,0.59,-0.08,2.15,1.66,2517,3335,4677,84,144,94,101,0,0
2480,3276,4632,-30,-47,-38,10240,0.59,-0.08,2.15,1.66,2516,3333,4675,84,144,94,101,0,0
2482,3283,4639,-35,-54,-40,10240,0.59,-0.08,2.15,1.66,2515,3332,4674,84,144,94,101,0,0
2500,3307,4652,-30,-47,-36,10240,0.59,-0.08,2.15,1.66,2514,3331,4673,84,144,94,101,0,0
2507,3317,4657,-22,-35,-28,10240,0.59,-0.08,2.15,1.66,2514,3330,4673,84,144,94,101,0,0
2511,3322,4660,-14,-23,-21,10240,0.59,-0.08,2.15,1.66,2514,3330,4672,84,144,94,101,0,0
2511,3324,4660,-6,-12,-15,10240,0.59,-0.08,2.15,1.66,2514,3330,4672,84,144,94,101,0,0
2513,3325,4661,-3,-8,-12,10240,0.59,-0.08,2.15,1.66,2514,3330,4672,84,144,94,87,0,0
2527,3345,4674,1,-1,-8,10240,0.59,-0.08,2.15,1.66,2514,3330,4672,84,144,94,87,0,0
2537,3362,4683,7,8,-2,10240,0.59,-0.08,2.15,1.66,2515,3331,4672,84,144,94,87,0,0
2553,3383,4694,17,22,5,10240,0.59,-0.08,2.15,1.66,2516,3333,4673,84,144,94,87,0,0
2563,3408,4705,29,42,16,10240,0.59,-0.08,2.15,1.66,2518,3336,4674,84,144,94,87,0,0
2563,3416,4713,37,57,25,10240,0.59,-0.08,2.15,1.66,2519,3338,4675,84,144,94,87,0,0
2562,3416,4729,41,68,35,10240,0.59,-0.08,2.15,1.66,2521,3341,4677,84,144,94,87,0,0
2563,3416,4732,42,74,43,10240,0.59,-0.08,2.15,1.66,2522,3343,4679,84,144,94,87,0,0
2563,3416,4720,41,74,45,10240,0.59,-0.08,2.15,1.66,2524,3346,4680,82,144,94,87,0,0
2558,3396,4695,38,66,39,10240,0.59,-0.08,2.15,1.66,2525,3347,4681,82,140,91,87,0,0
2515,3326,4659,26,42,21,10240,0.59,-0.08,2.15,1.67,2524,3347,4680,82,140,91,87,0,0
2479,3274,4629,4,7,-4,10240,0.59,-0.08,2.15,1.67,2523,3344,4678,82,140,91,87,0,0
2477,3271,4627,-16,-28,-26,10240,0.59,-0.08,2.15,1.67,2521,3342,4676,82,140,91,87,0,0
2481,3277,4631,-34,-56,-40,10240,0.59,-0.08,2.15,1.67,2520,3340,4675,82,140,91,87,0,0
2487,3288,4638,-39,-63,-44,10240,0.59,-0.08,2.15,1.67,2519,3338,4674,82,140,91,87,0,0
2496,3299,4644,-34,-55,-39,10240,0.59,-0.08,2.15,1.67,2518,3337,4673,82,140,91,87,0,0
2509,3317,4657,-25,-42,-31,10240,0.59,-0.08,2.15,1.67,2518,3336,4672,82,140,91,87,0,0
2509,3320,4657,-18,-30,-23,10240,0.59,-0.08,2.15,1.67,2518,3335,4672,82,140,91,87,0,0
2510,3321,4657,-11,-21,-18,10240,0.59,-0.08,2.15,1.67,2517,3335,4671,82,140,91,87,0,0
2515,3328,4661,-6,-13,-13,10240,0.59,-0.08,2.15,1.67,2517,3335,4671,82,140,91,87,0,0
2521,3338,4666,-3,-8,-11,10240,0.59,-0.08,2.15,1.67,2517,3335,4671,82,140,91,87,0,0
2546,3373,4688,5,4,-3,10240,0.59,-0.08,2.15,1.67,2518,3336,4671,82,140,91,87,0,0
2562,3399,4699,18,23,7,10240,0.59,-0.08,2.15,1.67,2520,3338,4672,82,140,91,87,0,0
2563,3415,4708,29,43,18,10240,0.59,-0.08,2.15,1.67,2521,3341,4673,82,140,91,87,0,0
2563,3416,4716,38,61,30,10240,0.59,-0.08,2.15,1.67,2523,3343,4675,82,140,91,87,0,0
2563,3416,4724,40,69,37,10240,0.59,-0.08,2.15,1.67,2524,3346,4676,82,140,91,87,0,0
2562,3416,4720,39,71,41,10240,0.59,-0.08,2.15,1.67,2525,3348,4678,81,140,91,87,0,0
2558,3399,4694,37,65,36,10240,0.59,-0.08,2.15,1.67,2526,3350,4678,81,138,90,87,100,0
2513,3323,4654,23,40,20,10240,0.59,-0.08,2.14,1.67,2526,3349,4678,81,138,90,87,100,0
2481,3277,4627,3,5,-3,10240,0.59,-0.08,2.14,1.67,2524,3346,4676,81,138,90,87,100,0
2466,3252,4610,-20,-34,-30,10240,0.59,-0.08,2.14,1.67,2522,3343,4674,81,138,90,87,100,0
2463,3247,4606,-42,-69,-50,10240,0.59,-0.08,2.14,1.67,2520,3340,4671,81,138,90,87,100,0
2467,3254,4613,-52,-84,-58,10240,0.59,-0.08,2.14,1.67,2519,3337,4670,81,138,90,87,100,0
2473,3266,4621,-52,-84,-58,10240,0.59,-0.08,2.14,1.67,2517,3335,4668,81,138,90,87,100,0
2479,3278,4629,-47,-75,-51,10240,0.59,-0.08,2.14,1.67,2516,3333,4667,81,138,90,87,100,0
2484,3288,4636,-41,-62,-43,10240,0.59,-0.08,2.14,1.67,2515,3331,4666,81,138,90,87,100,0
2488,3291,4638,-34,-51,-35,10240,0.59,-0.08,2.14,1.67,2514,3330,4665,81,138,90,87,100,0
2491,3292,4637,-29,-43,-30,10240,0.59,-0.08,2.14,1.67,2513,3329,4664,81,138,90,87,100,0
2497,3302,4644,-23,-36,-25,10240,0.59,-0.08,2.14,1.67,2513,3328,4663,81,138,90,87,100,0
2506,3317,4655,-17,-28,-20,10240,0.59,-0.08,2.14,1.67,2512,3328,4663,81,138,90,87,100,0
2516,3332,4662,-10,-17,-13,10240,0.59,-0.08,2.14,1.67,2513,3328,4663,81,138,90,87,100,0
2541,3367,4683,2,1,-2,10240,0.59,-0.08,2.14,1.67,2513,3329,4663,81,138,90,87,100,0
2560,3394,4697,17,23,10,10240,0.59,-0.08,2.14,1.67,2515,3331,4665,81,138,90,87,100,0
2563,3415,4705,30,46,22,10240,0.59,-0.08,2.14,1.67,2517,3334,4666,81,138,90,87,100,0
2563,3416,4713,41,65,34,10240,0.59,-0.08,2.14,1.67,2518,3337,4667,81,138,90,87,100,0
2563,3416,4711,44,75,39,10240,0.59,-0.08,2.14,1.67,2520,3339,4669,81,138,90,87,100,0
2510,3321,4650,31,54,27,10240,0.59,-0.08,2.14,1.67,2519,3339,4668,85,144,92,87,100,0
2472,3263,4615,8,16,4,10240,0.59,-0.08,2.19,1.71,2518,3336,4666,85,144,92,87,100,0
2449,3226,4591,-19,-30,-25,10240,0.59,-0.08,2.19,1.71,2515,3333,4664,85,144,92,87,100,0
2439,3212,4580,-48,-78,-55,10240,0.59,-0.08,2.19,1.71,2513,3329,4661,85,144,92,87,100,0
2438,3211,4579,-64,-102,-71,10240,0.59,-0.08,2.19,1.71,2510,3325,4658,85,144,92,87,100,0
2446,3225,4589,-68,-108,-75,10240,0.59,-0.08,2.19,1.71,2508,3321,4656,85,144,92,87,100,0
2455,3239,4598,-65,-101,-70,10240,0.59,-0.08,2.19,1.71,2507,3319,4654,85,144,92,87,100,0
2462,3250,4607,-57,-89,-62,10240,0.59,-0.08,2.19,1.71,2505,3316,4653,85,144,92,87,100,0
2465,3256,4612,-49,-75,-52,10240,0.59,-0.08,2.19,1.71,2504,3314,4651,85,144,92,87,100,0
2467,3259,4614,-42,-64,-44,10240,0.59,-0.08,2.19,1.71,2502,3312,4650,85,144,92,87,100,0
2475,3273,4624,-36,-53,-36,10240,0.59,-0.08,2.19,1.71,2502,3311,4649,85,144,92,87,100,0
2483,3285,4633,-29,-43,-29,10240,0.59,-0.08,2.19,1.71,2501,3310,4649,85,144,92,87,100,0
2492,3294,4638,-22,-33,-21,10240,0.59,-0.08,2.19,1.71,2501,3310,4648,85,144,92,87,100,0
2502,3311,4650,-13,-19,-12,10240,0.59,-0.08,2.19,1.71,2501,3310,4648,85,144,92,87,100,0
2514,3330,4660,-3,-5,-3,10240,0.59,-0.08,2.19,1.71,2501,3310,4649,85,144,92,87,100,0
2540,3367,4682,10,15,8,10240,0.59,-0.08,2.19,1.71,2502,3312,4650,85,144,92,87,100,0
2558,3393,4695,26,38,22,10240,0.59,-0.08,2.19,1.71,2504,3315,4651,85,144,92,87,100,0
2562,3414,4703,40,62,34,10240,0.59,-0.08,2.19,1.71,2506,3318,4653,85,144,92,87,100,0
2563,3416,4708,50,80,44,10240,0.59,-0.08,2.19,1.71,2508,3322,4655,85,144,92,87,100,0
2562,3409,4697,54,88,47,10240,0.59,-0.08,2.19,1.71,2510,3324,4656,85,144,92,87,100,0
2480,3278,4623,33,57,28,10240,0.59,-0.08,2.19,1.71,2509,3323,4655,94,157,99,87,100,0
2450,3228,4589,5,10,0,10240,0.59,-0.08,2.22,1.76,2507,3320,4653,94,157,99,87,100,0
2433,3204,4573,-26,-41,-33,10240,0.59,-0.08,2.22,1.76,2504,3316,4650,94,157,99,87,100,0
2428,3196,4568,-57,-91,-63,10240,0.59,-0.08,2.22,1.76,2502,3312,4648,94,157,99,87,100,0
2430,3198,4568,-68,-107,-74,10240,0.59,-0.08,2.22,1.76,2500,3308,4645,94,157,99,87,100,0
2441,3219,4584,-68,-106,-73,10240,0.59,-0.08,2.22,1.76,2498,3305,4643,94,157,99,87,100,0
2448,3230,4592,-62,-96,-66,10240,0.59,-0.08,2.22,1.76,2496,3303,4641,94,157,99,87,100,0
2454,3240,4597,-54,-82,-57,10240,0.59,-0.08,2.22,1.76,2495,3301,4640,94,157,99,87,100,0
2458,3245,4601,-45,-68,-47,10240,0.59,-0.08,2.22,1.76,2493,3299,4638,94,157,99,87,100,0
2461,3250,4605,-38,-58,-40,10240,0.59,-0.08,2.22,1.76,2492,3297,4637,94,157,99,87,100,0
2471,3265,4617,-32,-48,-33,10240,0.59,-0.08,2.22,1.76,2492,3296,4637,94,157,99,87,100,0
2478,3279,4626,-25,-37,-24,10240,0.59,-0.08,2.22,1.76,2491,3295,4636,94,157,99,87,100,0
2487,3293,4636,-17,-24,-15,10240,0.59,-0.08,2.22,1.76,2491,3295,4636,94,157,99,87,100,0
2498,3306,4644,-7,-9,-5,10240,0.59,-0.08,2.22,1.76,2491,3296,4637,94,157,99,87,100,0
2510,3326,4657,2,5,4,10240,0.59,-0.08,2.22,1.76,2492,3297,4637,94,157,99,87,100,0
2537,3364,4679,16,25,16,10240,0.59,-0.08,2.22,1.76,2493,3299,4639,94,157,99,87,100,0
2553,3387,4690,31,47,29,10240,0.59,-0.08,2.22,1.76,2495,3302,4640,94,157,99,87,100,0
2563,3413,4701,46,71,42,10240,0.59,-0.08,2.22,1.76,2498,3306,4642,94,157,99,87,100,0
2562,3416,4701,57,91,51,10240,0.59,-0.08,2.22,1.76,2500,3309,4644,94,157,99,87,100,0
2549,3381,4682,58,92,50,10240,0.59,-0.08,2.22,1.76,2501,3312,4646,94,157,106,87,100,0
2465,3256,4604,35,57,28,10240,0.59,-0.08,2.08,1.65,2500,3310,4644,102,167,106,87,100,0
2441,3216,4578,4,7,-2,10240,0.59,-0.08,2.08,1.65,2498,3307,4642,102,167,106,87,100,0
2429,3199,4565,-27,-45,-35,10240,0.59,-0.08,2.08,1.65,2496,3303,4639,102,167,106,87,100,0
2428,3196,4564,-56,-88,-62,10240,0.59,-0.08,2.08,1.65,2494,3299,4637,102,167,106,87,100,0
2438,3203,4569,-61,-97,-69,10240,0.59,-0.08,2.08,1.65,2492,3296,4635,102,167,106,87,100,0
2447,3228,4587,-57,-91,-64,10240,0.59,-0.08,2.08,1.65,2490,3294,4633,102,167,106,87,100,0
2453,3239,4593,-49,-78,-56,10240,0.59,-0.08,2.08,1.65,2489,3292,4632,102,167,106,87,100,0
2459,3246,4599,-40,-64,-45,10240,0.59,-0.08,2.08,1.65,2488,3291,4631,102,167,106,87,100,0
2461,3249,4600,-33,-51,-36,10240,0.59,-0.08,2.08,1.65,2487,3289,4630,102,167,106,87,100,0
2467,3260,4603,-27,-41,-31,10240,0.59,-0.08,2.08,1.65,2486,3288,4629,102,167,106,87,100,0
2474,3272,4617,-21,-32,-24,10240,0.59,-0.08,2.08,1.65,2486,3288,4628,102,167,106,87,100,0
2481,3286,4628,-15,-21,-16,10240,0.59,-0.08,2.08,1.65,2486,3288,4628,102,167,106,87,100,0
2492,3298,4634,-7,-9,-8,10240,0.59,-0.08,2.08,1.65,2486,3288,4629,102,167,106,87,100,0
2503,3315,4647,1,4,3,10240,0.59,-0.08,2.08,1.65,2487,3289,4629,102,167,106,87,100,0
2527,3350,4658,14,23,12,10240,0.59,-0.08,2.08,1.65,2488,3291,4630,102,167,106,87,100,0
2541,3370,4679,28,42,24,10240,0.59,-0.08,2.08,1.65,2490,3294,4632,102,167,106,87,100,0
2557,3395,4690,42,64,37,10240,0.59,-0.08,2.08,1.65,2492,3297,4634,102,167,106,87,100,0
2563,3414,4695,56,86,47,10240,0.59,-0.08,2.08,1.65,2494,3301,4636,102,167,106,87,100,0
2548,3381,4678,59,91,50,10240,0.59,-0.08,2.08,1.65,2496,3303,4637,102,167,106,87,100,0
2470,3263,4606,40,62,31,10240,0.59,-0.08,2.08,1.65,2495,3302,4636,107,172,109,87,100,0
2445,3222,4579,11,18,3,10240,0.59,-0.08,2.22,1.82,2494,3299,4634,107,172,109,87,100,0
2433,3205,4566,-20,-32,-27,10240,0.59,-0.08,2.22,1.82,2492,3296,4632,107,172,109,87,100,0
2432,3204,4565,-47,-74,-54,10240,0.59,-0.08,2.22,1.82,2490,3293,4630,107,172,109,87,100,0
2436,3211,4571,-54,-84,-60,10240,0.59,-0.08,2.22,1.82,2488,3291,4628,107,172,109,87,100,0
2454,3239,4591,-50,-77,-55,10240,0.59,-0.08,2.22,1.82,2487,3289,4626,107,172,109,87,100,0
2462,3251,4599,-41,-64,-46,10240,0.59,-0.08,2.22,1.82,2486,3288,4626,107,172,109,87,100,0
2466,3257,4602,-32,-49,-35,10240,0.59,-0.08,2.22,1.82,2485,3287,4625,107,172,109,87,100,0
2465,3258,4603,-23,-36,-26,10240,0.59,-0.08,2.22,1.82,2484,3286,4624,107,172,109,87,100,0
2465,3258,4602,-20,-30,-23,10240,0.59,-0.08,2.22,1.82,2484,3285,4623,107,172,109,87,100,0
2475,3274,4617,-16,-23,-17,10240,0.59,-0.08,2.22,1.82,2484,3284,4623,107,172,109,87,100,0
2483,3290,4627,-11,-14,-11,10240,0.59,-0.08,2.22,1.82,2483,3284,4623,107,172,109,87,100,0
