2948,3585,4876,-64,-97,-77,10240,-1.00,-1.00,1.90,4.78,3028,3708,4971,236,115,81,78,98,0
2949,3586,4880,-74,-112,-87,10240,-1.00,-1.00,1.90,4.78,3026,3704,4968,236,115,81,78,98,0
2954,3595,4886,-75,-115,-88,10240,-1.00,-1.00,1.90,4.78,3023,3701,4966,236,115,81,78,98,0
2959,3605,4894,-72,-109,-83,10240,-1.00,-1.00,1.90,4.78,3021,3697,4963,236,115,81,78,98,0
2962,3610,4898,-66,-100,-75,10240,-1.00,-1.00,1.90,4.78,3019,3694,4961,236,115,81,78,98,0
2963,3611,4897,-60,-90,-68,10240,-1.00,-1.00,1.90,4.78,3017,3692,4959,236,115,81,78,98,0
2962,3611,4896,-56,-83,-63,10240,-1.00,-1.00,1.90,4.78,3016,3689,4957,236,115,81,78,98,0
2966,3616,4900,-53,-78,-60,10240,-1.00,-1.00,1.90,4.78,3014,3687,4955,236,115,81,78,98,0
2972,3626,4907,-49,-72,-56,10240,-1.00,-1.00,1.90,4.78,3012,3685,4953,236,115,81,78,98,0
2979,3636,4917,-43,-63,-49,10240,-1.00,-1.00,1.90,4.78,3011,3683,4952,236,115,81,78,98,0
2988,3650,4927,-35,-52,-40,10240,-1.00,-1.00,1.90,4.78,3011,3682,4951,236,115,81,78,98,0
3006,3676,4947,-24,-36,-27,10240,-1.00,-1.00,1.90,4.78,3010,3682,4951,236,115,81,78,98,0
3014,3687,4956,-14,-20,-14,10240,-1.00,-1.00,1.90,4.78,3011,3682,4951,236,115,81,78,98,0
3021,3700,4964,-3,-3,-2,10240,-1.00,-1.00,1.90,4.78,3011,3682,4952,236,115,81,78,98,0
3029,3711,4972,6,11,8,10240,-1.00,-1.00,1.90,4.78,3012,3683,4952,236,115,81,78,98,0
3038,3723,4980,14,22,16,10240,-1.00,-1.00,1.90,4.78,3012,3685,4953,236,115,81,78,98,0
3053,3746,4996,23,35,25,10240,-1.00,-1.00,1.90,4.78,3014,3687,4955,236,115,81,78,98,0
3063,3757,5005,32,48,34,10240,-1.00,-1.00,1.90,4.78,3015,3689,4957,236,115,81,78,98,0
3068,3764,5015,41,59,43,10240,-1.00,-1.00,1.90,4.78,3017,3692,4958,236,115,81,78,98,0
3073,3775,5023,48,70,52,10240,-1.00,-1.00,1.90,4.78,3019,3694,4961,236,115,81,78,98,0
3080,3789,5034,53,78,59,10240,-1.00,-1.00,1.90,4.78,3021,3697,4963,236,115,81,78,98,0
3072,3777,5016,53,80,60,10240,-1.00,-1.00,1.90,4.78,3023,3700,4965,236,115,81,78,98,0
3036,3723,4971,43,68,47,10240,-1.00,-1.00,1.90,4.78,3023,3701,4965,209,135,97,78,98,0
2992,3659,4926,22,37,22,10240,-1.00,-1.00,1.87,3.54,3022,3699,4964,209,135,97,78,98,0
2963,3612,4893,-6,-6,-12,10240,-1.00,-1.00,1.87,3.54,3020,3697,4961,209,135,97,78,98,0
2946,3585,4872,-36,-52,-46,10240,-1.00,-1.00,1.87,3.54,3018,3693,4958,209,135,97,78,98,0
2935,3581,4875,-59,-85,-68,10240,-1.00,-1.00,1.87,3.54,3015,3689,4956,209,135,97,78,98,0
2935,3581,4876,-71,-101,-78,10240,-1.00,-1.00,1.87,3.54,3012,3686,4953,209,135,97,78,98,0
2938,3581,4876,-75,-105,-79,10240,-1.00,-1.00,1.87,3.54,3010,3682,4950,209,135,97,78,98,0
2941,3582,4874,-74,-102,-76,10240,-1.00,-1.00,1.87,3.54,3008,3679,4948,209,135,97,78,98,0
2945,3583,4874,-69,-98,-74,10240,-1.00,-1.00,1.87,3.54,3005,3675,4945,209,135,97,78,98,0
2946,3585,4876,-64,-94,-71,10240,-1.00,-1.00,1.87,3.54,3003,3672,4943,209,135,97,78,98,0
2947,3586,4876,-59,-90,-69,10240,-1.00,-1.00,1.87,3.54,3002,3670,4941,209,135,97,78,98,0
2951,3595,4884,-55,-83,-64,10240,-1.00,-1.00,1.87,3.54,3000,3667,4939,209,135,97,78,98,0
2958,3605,4892,-50,-75,-58,10240,-1.00,-1.00,1.87,3.54,2998,3665,4937,209,135,97,78,98,0
2974,3617,4901,-42,-65,-50,10240,-1.00,-1.00,1.87,3.54,2998,3663,4936,209,135,97,78,98,0
2980,3641,4921,-32,-50,-37,10240,-1.00,-1.00,1.87,3.54,2997,3663,4936,209,135,97,78,98,0
2992,3657,4933,-21,-33,-24,10240,-1.00,-1.00,1.87,3.54,2997,3663,4936,209,135,97,78,98,0
3001,3669,4941,-10,-17,-12,10240,-1.00,-1.00,1.87,3.54,2997,3663,4936,209,135,97,78,98,0
3008,3682,4949,-1,0,0,10240,-1.00,-1.00,1.87,3.54,2997,3663,4936,209,135,97,78,98,0
3024,3692,4958,9,11,9,10240,-1.00,-1.00,1.87,3.54,2998,3664,4937,209,135,97,78,98,0
3031,3714,4973,18,25,18,10240,-1.00,-1.00,1.87,3.54,2999,3666,4938,209,135,97,78,98,0
3039,3724,4980,26,37,27,10240,-1.00,-1.00,1.87,3.54,3001,3668,4940,209,135,97,78,98,0
3046,3736,4988,35,49,35,10240,-1.00,-1.00,1.87,3.54,3002,3670,4941,209,135,97,78,98,0
3053,3746,4994,40,60,43,10240,-1.00,-1.00,1.87,3.54,3004,3673,4943,209,135,97,78,98,0
3067,3758,5005,48,69,49,10240,-1.00,-1.00,1.87,3.54,3006,3676,4945,209,135,97,78,98,0
3070,3770,5017,54,78,57,10240,-1.00,-1.00,1.87,3.54,3008,3679,4947,209,135,97,78,98,0
3055,3749,4991,54,78,55,10240,-1.00,-1.00,1.87,3.54,3010,3681,4949,209,135,107,78,98,0
3015,3693,4947,43,63,42,10240,-1.00,-1.00,1.70,3.21,3010,3681,4949,189,147,107,78,98,0
2975,3633,4903,19,31,16,10240,-1.00,-1.00,1.70,3.21,3009,3680,4947,189,147,107,78,98,0
2937,3580,4873,-13,-15,-19,10240,-1.00,-1.00,1.70,3.21,3006,3676,4945,189,147,107,78,98,0
2933,3571,4869,-42,-58,-47,10240,-1.00,-1.00,1.70,3.21,3004,3673,4942,189,147,107,78,98,0
2931,3567,4868,-61,-86,-65,10240,-1.00,-1.00,1.70,3.21,3001,3669,4940,189,147,107,78,98,0
2934,3573,4872,-68,-98,-70,10240,-1.00,-1.00,1.70,3.21,2999,3666,4937,189,147,107,75,98,0
2935,3580,4874,-67,-95,-67,10240,-1.00,-1.00,1.70,3.21,2997,3663,4935,189,147,107,75,98,0
2940,3584,4871,-63,-88,-65,10240,-1.00,-1.00,1.70,3.21,2995,3661,4933,189,147,107,75,98,0
2940,3584,4872,-58,-81,-61,10240,-1.00,-1.00,1.70,3.21,2993,3658,4931,189,147,107,75,98,0
2940,3583,4872,-55,-76,-59,10240,-1.00,-1.00,1.70,3.21,2992,3656,4929,189,147,107,75,98,0
2940,3583,4872,-52,-73,-58,10240,-1.00,-1.00,1.70,3.21,2990,3653,4927,189,147,107,75,98,0
2943,3584,4870,-50,-71,-56,10240,-1.00,-1.00,1.70,3.21,2988,3651,4925,189,147,107,75,98,0
2959,3608,4893,-43,-63,-49,10240,-1.00,-1.00,1.70,3.21,2987,3650,4924,189,147,107,75,98,0
2969,3624,4902,-35,-51,-40,10240,-1.00,-1.00,1.70,3.21,2987,3649,4924,189,147,107,75,98,0
2977,3635,4911,-25,-36,-30,10240,-1.00,-1.00,1.70,3.21,2986,3648,4923,189,147,107,75,98,0
2983,3646,4922,-14,-20,-16,10240,-1.00,-1.00,1.70,3.21,2986,3648,4923,189,147,107,75,98,0
2994,3661,4932,-5,-7,-6,10240,-1.00,-1.00,1.70,3.21,2987,3649,4923,189,147,107,75,98,0
3009,3685,4949,4,8,5,10240,-1.00,-1.00,1.70,3.21,2987,3650,4924,189,147,107,75,98,0
3016,3694,4955,13,22,15,10240,-1.00,-1.00,1.70,3.21,2988,3651,4925,189,147,107,75,98,0
3022,3705,4964,22,35,25,10240,-1.00,-1.00,1.70,3.21,2989,3653,4927,189,147,107,75,98,0
3030,3715,4971,30,47,33,10240,-1.00,-1.00,1.70,3.21,2991,3655,4928,189,147,107,75,98,0
3039,3725,4978,36,55,39,10240,-1.00,-1.00,1.70,3.21,2992,3657,4930,189,147,107,75,98,0
3055,3750,4997,45,67,48,10240,-1.00,-1.00,1.70,3.21,2994,3661,4932,189,147,107,75,98,0
3058,3755,4997,52,77,54,10240,-1.00,-1.00,1.70,3.21,2997,3664,4934,189,147,107,75,98,0
3039,3730,4974,52,78,53,10240,-1.00,-1.00,1.70,3.21,2998,3666,4936,189,147,111,75,98,0
2998,3670,4928,40,62,39,10240,-1.00,-1.00,1.78,2.80,2998,3666,4935,172,154,111,75,98,0
2958,3606,4882,15,25,10,10240,-1.00,-1.00,1.78,2.80,2997,3664,4934,172,154,111,75,98,0
2913,3545,4845,-19,-26,-26,10240,-1.00,-1.00,1.78,2.80,2994,3660,4931,172,154,111,75,98,0
2905,3533,4838,-51,-73,-58,10240,-1.00,-1.00,1.78,2.80,2991,3656,4927,172,154,111,75,98,0
2901,3526,4834,-73,-105,-79,10240,-1.00,-1.00,1.78,2.80,2988,3651,4924,172,154,111,75,98,0
2899,3524,4835,-85,-121,-87,10240,-1.00,-1.00,1.78,2.80,2985,3647,4921,172,154,111,75,98,0
2904,3530,4839,-84,-121,-86,10240,-1.00,-1.00,1.78,2.80,2982,3643,4919,172,154,111,75,98,0
2911,3543,4846,-80,-114,-81,10240,-1.00,-1.00,1.78,2.80,2980,3640,4916,172,154,111,75,98,0
2913,3544,4847,-74,-106,-75,10240,-1.00,-1.00,1.78,2.80,2978,3637,4914,172,154,111,75,98,0
2912,3544,4846,-68,-98,-70,10240,-1.00,-1.00,1.78,2.80,2975,3634,4912,172,154,111,75,98,0
2914,3546,4848,-64,-91,-66,10240,-1.00,-1.00,1.78,2.80,2973,3631,4910,172,154,111,75,98,0
2919,3554,4854,-60,-85,-62,10240,-1.00,-1.00,1.78,2.80,2972,3628,4908,172,154,111,75,98,0
2935,3579,4874,-52,-74,-53,10240,-1.00,-1.00,1.78,2.80,2970,3627,4907,172,154,111,75,98,0
2941,3584,4871,-43,-62,-45,10240,-1.00,-1.00,1.78,2.80,2969,3625,4905,172,154,111,75,98,0
2947,3592,4876,-34,-48,-37,10240,-1.00,-1.00,1.78,2.80,2969,3624,4904,172,154,111,75,98,0
2958,3608,4891,-23,-34,-27,10240,-1.00,-1.00,1.78,2.80,2968,3623,4904,172,154,111,75,98,0
2974,3622,4898,-13,-22,-20,10240,-1.00,-1.00,1.78,2.80,2969,3623,4904,172,154,111,75,98,0
2978,3642,4917,-4,-7,-8,10240,-1.00,-1.00,1.78,2.80,2969,3624,4904,172,154,111,75,98,0
2989,3656,4925,6,8,3,10240,-1.00,-1.00,1.78,2.80,2969,3625,4905,172,154,111,75,98,0
2997,3668,4933,15,22,13,10240,-1.00,-1.00,1.78,2.80,2970,3627,4906,172,154,111,75,98,0
3005,3679,4941,22,35,23,10240,-1.00,-1.00,1.78,2.80,2972,3628,4907,172,154,111,75,98,0
3018,3699,4948,31,47,30,10240,-1.00,-1.00,1.78,2.80,2973,3631,4908,172,154,111,75,98,0
3027,3713,4968,39,60,39,10240,-1.00,-1.00,1.78,2.80,2975,3633,4910,172,154,111,75,98,0
3035,3724,4974,47,71,48,10240,-1.00,-1.00,1.78,2.80,2977,3636,4912,172,154,111,75,98,0
3030,3718,4967,51,78,53,10240,-1.00,-1.00,1.78,2.80,2979,3639,4914,172,154,111,75,98,0
3003,3679,4934,46,71,48,10240,-1.00,-1.00,1.78,2.80,2979,3641,4915,163,166,119,75,98,0
2926,3565,4856,20,33,19,10240,-1.00,-1.00,1.88,2.26,2978,3638,4913,163,166,119,75,98,0
2900,3528,4830,-13,-15,-16,10240,-1.00,-1.00,1.88,2.26,2975,3634,4910,163,166,119,75,98,0
2889,3509,4819,-46,-65,-51,10240,-1.00,-1.00,1.88,2.26,2972,3630,4907,163,166,119,75,98,0
2883,3501,4813,-74,-106,-79,10240,-1.00,-1.00,1.88,2.26,2969,3626,4904,163,166,119,75,98,0
2880,3496,4811,-82,-119,-87,10240,-1.00,-1.00,1.88,2.26,2966,3622,4901,163,166,119,75,98,0
2887,3505,4819,-83,-121,-87,10240,-1.00,-1.00,1.88,2.26,2964,3618,4898,163,166,119,75,98,0
2893,3515,4826,-79,-115,-82,10240,-1.00,-1.00,1.88,2.26,2961,3614,4896,163,166,119,75,98,0
2895,3520,4828,-73,-107,-76,10240,-1.00,-1.00,1.88,2.26,2959,3611,4894,163,166,119,75,98,0
2896,3521,4828,-67,-97,-69,10240,-1.00,-1.00,1.88,2.26,2957,3608,4891,163,166,119,75,98,0
2896,3522,4830,-63,-90,-64,10240,-1.00,-1.00,1.88,2.26,2955,3605,4889,163,166,119,75,98,0
2906,3536,4840,-57,-82,-59,10240,-1.00,-1.00,1.88,2.26,2953,3603,4888,163,166,119,75,98,0
2913,3548,4846,-51,-72,-52,10240,-1.00,-1.00,1.88,2.26,2952,3601,4886,163,166,119,75,98,0
2923,3561,4857,-43,-60,-43,10240,-1.00,-1.00,1.88,2.26,2951,3600,4885,163,166,119,75,98,0
2934,3578,4870,-32,-45,-32,10240,-1.00,-1.00,1.88,2.26,2950,3599,4885,163,166,119,75,98,0
2941,3584,4871,-23,-31,-24,10240,-1.00,-1.00,1.88,2.26,2950,3598,4884,163,166,119,75,98,0
2958,3609,4888,-11,-16,-13,10240,-1.00,-1.00,1.88,2.26,2950,3599,4884,163,166,119,75,98,0
2967,3624,4899,0,0,-2,10240,-1.00,-1.00,1.88,2.26,2951,3600,4885,163,166,119,75,98,0
2973,3636,4905,9,13,6,10240,-1.00,-1.00,1.88,2.26,2952,3601,4886,163,166,119,75,98,0
2977,3643,4913,17,27,15,10240,-1.00,-1.00,1.88,2.26,2953,3602,4887,163,166,119,75,98,0
2986,3654,4922,23,37,23,10240,-1.00,-1.00,1.88,2.26,2954,3604,4888,163,166,119,75,98,0
3004,3679,4940,31,49,32,10240,-1.00,-1.00,1.88,2.26,2955,3607,4889,163,166,119,75,98,0
3010,3689,4947,39,60,41,10240,-1.00,-1.00,1.88,2.26,2957,3609,4891,163,166,119,75,98,0
3018,3701,4956,48,72,50,10240,-1.00,-1.00,1.88,2.26,2959,3612,4894,163,166,119,75,98,0
3017,3702,4952,54,82,56,10240,-1.00,-1.00,1.88,2.26,2961,3615,4895,163,166,119,75,98,0
2995,3669,4924,50,77,50,10240,-1.00,-1.00,1.88,2.26,2962,3617,4896,157,175,125,75,98,0
2919,3558,4847,26,42,24,10240,0.53,0.01,1.90,2.08,2961,3615,4895,157,175,125,75,98,0
2894,3521,4821,-4,-2,-8,10240,0.53,0.01,1.90,2.08,2959,3612,4892,157,175,125,75,98,0
2885,3504,4812,-36,-50,-42,10240,0.53,0.01,1.90,2.08,2956,3608,4890,157,175,125,75,98,0
2881,3496,4808,-62,-90,-69,10240,0.53,0.01,1.90,2.08,2954,3605,4887,157,175,125,75,98,0
2883,3496,4807,-69,-102,-76,10240,0.53,0.01,1.90,2.08,2951,3601,4884,157,175,125,75,98,0
2889,3511,4820,-68,-101,-74,10240,0.53,0.01,1.90,2.08,2949,3598,4882,157,175,125,75,98,0
2894,3520,4823,-63,-94,-68,10240,0.53,0.01,1.90,2.08,2947,3595,4880,157,175,125,75,98,0
2896,3522,4825,-57,-84,-62,10240,0.53,0.01,1.90,2.08,2946,3593,4878,157,175,125,75,98,0
2896,3523,4825,-52,-75,-56,10240,0.53,0.01,1.90,2.08,2944,3591,4877,157,175,125,75,98,0
2898,3528,4825,-48,-68,-53,10240,0.53,0.01,1.90,2.08,2942,3589,4875,157,175,125,75,98,0
2904,3536,4834,-44,-62,-48,10240,0.53,0.01,1.90,2.08,2941,3587,4873,157,175,125,75,98,0
2913,3548,4843,-39,-54,-42,10240,0.53,0.01,1.90,2.08,2940,3586,4872,157,175,125,75,98,0
2922,3562,4853,-31,-43,-34,10240,0.53,0.01,1.90,2.08,2940,3585,4872,157,175,125,75,98,0
2934,3578,4868,-21,-29,-22,10240,0.53,0.01,1.90,2.08,2939,3584,4872,157,175,125,75,98,0
2947,3593,4871,-10,-14,-13,10240,0.53,0.01,1.90,2.08,2940,3585,4872,157,175,125,75,98,0
2956,3609,4884,0,0,-3,10240,0.53,0.01,1.90,2.08,2940,3586,4872,157,175,125,75,98,0
2964,3621,4892,10,14,6,10240,0.53,0.01,1.90,2.08,2941,3587,4873,157,175,125,75,98,0
2973,3635,4902,19,28,14,10240,0.53,0.01,1.90,2.08,2942,3588,4874,157,175,125,75,98,0
2975,3641,4909,25,38,23,10240,0.53,0.01,1.90,2.08,2943,3590,4875,157,175,125,75,98,0
2993,3667,4926,33,51,32,10240,0.53,0.01,1.90,2.08,2945,3593,4877,157,175,125,75,98,0
3002,3679,4935,41,63,41,10240,0.53,0.01,1.90,2.08,2947,3596,4879,157,175,125,75,98,0
3010,3690,4943,49,74,50,10240,0.53,0.01,1.90,2.08,2949,3599,4881,157,175,125,75,98,0
3011,3692,4942,56,84,56,10240,0.53,0.01,1.90,2.08,2951,3602,4883,157,175,125,75,98,0
2991,3665,4917,53,81,52,10240,0.53,0.01,1.90,2.08,2952,3604,4884,149,178,126,75,98,0
2919,3558,4841,32,49,28,10240,0.53,0.01,1.91,1.96,2951,3602,4882,149,178,126,75,98,0
2893,3520,4815,2,6,-3,10240,0.53,0.01,1.91,1.96,2949,3600,4880,149,178,126,75,98,0
2882,3502,4804,-28,-39,-36,10240,0.53,0.01,1.91,1.96,2947,3596,4878,149,178,126,75,98,0
2877,3495,4800,-55,-79,-63,10240,0.53,0.01,1.91,1.96,2945,3593,4875,149,178,126,75,98,0
2876,3491,4799,-63,-92,-71,10240,0.53,0.01,1.91,1.96,2942,3590,4872,149,178,126,75,98,0
2884,3504,4806,-63,-93,-71,10240,0.53,0.01,1.91,1.96,2940,3587,4870,149,178,126,75,98,0
2889,3512,4812,-60,-88,-67,10240,0.53,0.01,1.91,1.96,2939,3584,4868,149,178,126,75,98,0
2892,3519,4815,-54,-79,-61,10240,0.53,0.01,1.91,1.96,2937,3582,4867,149,178,126,75,98,0
2892,3521,4815,-48,-69,-55,10240,0.53,0.01,1.91,1.96,2936,3580,4865,149,178,126,75,98,0
2893,3522,4817,-45,-62,-51,10240,0.53,0.01,1.91,1.96,2934,3578,4863,149,178,126,75,98,0
2902,3534,4826,-40,-55,-46,10240,0.53,0.01,1.91,1.96,2933,3577,4862,149,178,126,75,98,0
2910,3546,4835,-34,-47,-39,10240,0.53,0.01,1.91,1.96,2932,3576,4861,149,178,126,74,98,0
2919,3560,4844,-26,-36,-31,10240,0.53,0.01,1.91,1.96,2932,3575,4861,149,178,126,74,98,0
2929,3575,4857,-17,-22,-20,10240,0.53,0.01,1.91,1.96,2932,3575,4860,149,178,126,74,98,0
2947,3587,4866,-5,-8,-10,10240,0.53,0.01,1.91,1.96,2932,3575,4861,149,178,126,74,98,0
2952,3606,4874,4,6,0,10240,0.53,0.01,1.91,1.96,2933,3576,4861,149,178,126,74,98,0
2961,3620,4883,14,21,9,10240,0.53,0.01,1.91,1.96,2934,3578,4862,149,178,126,74,98,0
2970,3635,4893,24,34,17,10240,0.53,0.01,1.91,1.96,2935,3580,4863,149,178,126,74,98,0
2974,3643,4902,29,47,25,10240,0.53,0.01,1.91,1.96,2937,3582,4864,149,178,126,74,98,0
2992,3667,4909,38,60,33,10240,0.53,0.01,1.91,1.96,2938,3585,4866,149,178,126,74,98,0
3000,3679,4926,46,72,42,10240,0.53,0.01,1.91,1.96,2940,3588,4868,149,178,126,74,98,0
3008,3691,4937,54,83,51,10240,0.53,0.01,1.91,1.96,2943,3591,4870,149,178,126,74,98,0
3016,3702,4946,62,95,60,10240,0.53,0.01,1.91,1.96,2945,3595,4872,149,178,126,74,98,0
3019,3710,4947,66,102,67,10240,0.53,0.01,1.91,1.96,2948,3599,4875,149,178,126,74,98,0
2967,3634,4881,56,88,54,10240,0.53,0.01,1.91,1.96,2948,3600,4875,144,182,129,74,98,0
2932,3581,4847,36,58,31,10240,0.53,0.01,1.91,1.85,2948,3599,4874,144,182,129,84,98,0
2906,3544,4820,8,18,0,10240,0.53,0.01,1.91,1.85,2946,3598,4872,144,182,129,84,98,0
2893,3524,4806,-22,-27,-34,10240,0.53,0.01,1.91,1.85,2945,3595,4870,144,182,129,84,98,0
2888,3517,4802,-40,-54,-52,10240,0.53,0.01,1.91,1.85,2943,3593,4868,144,182,129,84,98,0
2889,3516,4803,-49,-68,-61,10240,0.53,0.01,1.91,1.85,2941,3590,4866,144,182,129,84,98,0
2893,3524,4810,-51,-71,-61,10240,0.53,0.01,1.91,1.85,2939,3588,4864,144,182,129,84,98,0
2900,3535,4817,-47,-66,-57,10240,0.53,0.01,1.91,1.85,2938,3586,4862,144,182,129,84,98,0
2905,3542,4821,-42,-58,-50,10240,0.53,0.01,1.91,1.85,2937,3585,4861,144,182,129,84,98,0
2906,3545,4823,-36,-49,-44,10240,0.53,0.01,1.91,1.85,2936,3583,4860,144,182,129,84,98,0
2911,3553,4828,-31,-40,-38,10240,0.53,0.01,1.91,1.85,2935,3582,4859,144,182,129,84,98,0
2917,3560,4833,-25,-32,-33,10240,0.53,0.01,1.91,1.85,2934,3581,4858,144,182,129,84,98,0
2925,3570,4841,-20,-24,-27,10240,0.53,0.01,1.91,1.85,2934,3581,4857,144,182,129,84,98,0
2934,3586,4855,-12,-14,-18,10240,0.53,0.01,1.91,1.85,2934,3581,4857,144,182,129,84,98,0
2943,3592,4859,-4,-4,-10,10240,0.53,0.01,1.91,1.85,2934,3582,4857,144,182,129,84,98,0
2959,3621,4874,6,10,0,10240,0.53,0.01,1.91,1.85,2935,3583,4858,144,182,129,84,98,0
2968,3635,4884,16,25,10,10240,0.53,0.01,1.91,1.85,2936,3585,4859,144,182,129,84,98,0
2974,3645,4895,25,39,19,10240,0.53,0.01,1.91,1.85,2938,3587,4860,144,182,129,84,98,0
2985,3658,4904,34,53,29,10240,0.53,0.01,1.91,1.85,2939,3589,4861,144,182,129,84,98,0
2993,3670,4912,41,63,38,10240,0.53,0.01,1.91,1.85,2941,3592,4863,144,182,129,84,98,0
3008,3691,4928,49,75,47,10240,0.53,0.01,1.91,1.85,2943,3595,4865,144,182,129,84,98,0
3014,3702,4935,57,86,55,10240,0.53,0.01,1.91,1.85,2946,3599,4868,144,182,129,84,98,0
3022,3715,4943,64,97,63,10240,0.53,0.01,1.91,1.85,2948,3602,4870,144,182,129,84,98,0
3031,3728,4955,71,108,71,10240,0.53,0.01,1.91,1.85,2951,3607,4873,144,182,129,84,98,0
3022,3716,4958,72,110,76,10240,0.53,0.01,1.91,1.85,2953,3610,4876,144,182,129,84,98,0
2989,3667,4901,64,98,65,10240,0.53,0.01,1.91,1.85,2954,3612,4877,138,182,131,84,98,0
2953,3610,4856,45,70,42,10240,0.53,0.01,1.88,1.74,2954,3612,4876,138,182,131,84,98,0
2928,3579,4837,19,31,12,10240,0.53,0.01,1.88,1.74,2953,3611,4875,138,182,131,84,98,0
2915,3557,4823,-7,-7,-21,10240,0.53,0.01,1.88,1.74,2952,3609,4873,138,182,131,84,98,0
2909,3549,4819,-26,-36,-40,10240,0.53,0.01,1.88,1.74,2951,3607,4871,138,182,131,84,98,0
2912,3553,4822,-35,-48,-46,10240,0.53,0.01,1.88,1.74,2949,3605,4869,138,182,131,84,98,0
2919,3562,4829,-36,-51,-47,10240,0.53,0.01,1.88,1.74,2948,3604,4868,138,182,131,84,98,0
2925,3572,4837,-32,-45,-42,10240,0.53,0.01,1.88,1.74,2948,3603,4867,138,182,131,84,98,0
2928,3576,4841,-27,-37,-35,10240,0.53,0.01,1.88,1.74,2947,3602,4866,138,182,131,84,98,0
2931,3581,4842,-21,-29,-29,10240,0.53,0.01,1.88,1.74,2947,3601,4865,138,182,131,84,98,0
2934,3588,4848,-17,-22,-23,10240,0.53,0.01,1.88,1.74,2946,3601,4865,138,182,131,84,98,0
2938,3594,4853,-13,-16,-19,10240,0.53,0.01,1.88,1.74,2946,3601,4864,138,182,131,84,98,0
2945,3597,4852,-9,-11,-15,10240,0.53,0.01,1.88,1.74,2946,3601,4864,138,182,131,84,98,0
2953,3608,4859,-3,-4,-11,10240,0.53,0.01,1.88,1.74,2946,3601,4864,138,182,131,84,98,0
2970,3637,4880,5,7,-3,10240,0.53,0.01,1.88,1.74,2947,3602,4864,138,182,131,84,98,0
2976,3648,4889,14,20,5,10240,0.53,0.01,1.88,1.74,2948,3603,4865,138,182,131,84,98,0
2986,3661,4900,23,35,17,10240,0.53,0.01,1.88,1.74,2949,3605,4866,138,182,131,84,98,0
2995,3673,4908,33,50,28,10240,0.53,0.01,1.88,1.74,2951,3608,4868,138,182,131,84,98,0
3003,3686,4916,40,60,36,10240,0.53,0.01,1.88,1.74,2952,3610,4869,138,182,131,84,98,0
3014,3702,4928,48,71,44,10240,0.53,0.01,1.88,1.74,2954,3613,4871,138,182,131,84,98,0
3021,3715,4936,54,82,51,10240,0.53,0.01,1.88,1.74,2957,3617,4873,138,182,131,84,98,0
3029,3727,4944,61,92,58,10240,0.53,0.01,1.88,1.74,2959,3620,4876,138,182,131,84,98,0
3038,3737,4954,67,101,66,10240,0.53,0.01,1.88,1.74,2962,3624,4878,138,182,131,84,98,0
3032,3731,4944,69,105,67,10240,0.53,0.01,1.88,1.74,2964,3628,4881,138,182,131,84,98,0
2966,3636,4868,54,82,48,10240,0.53,0.01,1.88,1.74,2964,3628,4880,130,175,127,84,98,0
2939,3596,4844,30,48,23,10240,0.53,0.01,1.85,1.69,2963,3627,4879,130,175,127,84,98,0
2920,3569,4826,1,6,-8,10240,0.53,0.01,1.85,1.69,2962,3625,4877,130,175,127,84,98,0
2914,3558,4819,-27,-36,-38,10240,0.53,0.01,1.85,1.69,2960,3623,4875,130,175,127,84,98,0
2912,3556,4818,-39,-54,-49,10240,0.53,0.01,1.85,1.69,2959,3621,4873,130,175,127,84,98,0
2917,3563,4826,-43,-60,-52,10240,0.53,0.01,1.85,1.69,2957,3619,4872,130,175,127,84,98,0
2924,3573,4833,-41,-57,-48,10240,0.53,0.01,1.85,1.69,2956,3617,4871,130,175,127,84,98,0
2929,3579,4839,-36,-50,-42,10240,0.53,0.01,1.85,1.69,2955,3616,4869,130,175,127,84,98,0
2930,3583,4840,-30,-42,-35,10240,0.53,0.01,1.85,1.69,2954,3615,4868,130,175,127,84,98,0
2931,3583,4839,-26,-36,-31,10240,0.53,0.01,1.85,1.69,2954,3614,4868,130,175,127,84,98,0
2935,3591,4847,-22,-30,-26,10240,0.53,0.01,1.85,1.69,2953,3613,4867,130,175,127,84,98,0
2939,3597,4851,-19,-25,-23,10240,0.53,0.01,1.85,1.69,2952,3612,4866,130,175,127,84,98,0
2944,3598,4850,-15,-20,-20,10240,0.53,0.01,1.85,1.69,2952,3612,4866,130,175,127,84,98,0
2950,3602,4853,-10,-15,-15,10240,0.53,0.01,1.85,1.69,2952,3612,4865,130,175,127,84,98,0
2961,3626,4866,-3,-6,-10,10240,0.53,0.01,1.85,1.69,2952,3612,4865,130,175,127,84,98,0
2969,3638,4876,3,3,-4,10240,0.53,0.01,1.85,1.69,2953,3613,4866,130,175,127,84,98,0
2972,3644,4884,10,14,4,10240,0.53,0.01,1.85,1.69,2954,3614,4866,130,175,127,84,98,0
2980,3654,4891,17,27,13,10240,0.53,0.01,1.85,1.69,2955,3615,4867,130,175,127,84,98,0
2987,3665,4897,22,35,20,10240,0.53,0.01,1.85,1.69,2956,3617,4868,130,175,127,84,98,0
3001,3685,4913,29,45,28,10240,0.53,0.01,1.85,1.69,2957,3619,4870,130,175,127,84,98,0
3005,3689,4916,36,55,35,10240,0.53,0.01,1.85,1.69,2959,3622,4871,130,175,127,84,98,0
2993,3674,4900,38,58,36,10240,0.53,0.01,1.85,1.69,2960,3623,4872,130,175,127,84,98,0
2960,3624,4860,30,46,26,10240,0.53,0.01,1.85,1.69,2960,3623,4872,118,161,117,84,98,0
2922,3574,4826,10,17,4,10240,0.53,0.01,1.85,1.66,2959,3622,4870,118,161,117,84,98,0
2879,3507,4782,-20,-26,-28,10240,0.53,0.01,1.85,1.66,2956,3618,4867,118,161,117,84,98,0
2873,3496,4777,-48,-69,-57,10240,0.53,0.01,1.85,1.66,2953,3614,4864,118,161,117,84,98,0
2871,3495,4776,-68,-98,-75,10240,0.53,0.01,1.85,1.66,2950,3610,4861,118,161,117,84,98,0
2872,3497,4777,-78,-113,-84,10240,0.53,0.01,1.85,1.66,2948,3606,4859,118,161,117,84,98,0
2877,3505,4786,-75,-110,-81,10240,0.53,0.01,1.85,1.66,2945,3603,4856,118,161,117,84,98,0
2887,3523,4797,-69,-99,-73,10240,0.53,0.01,1.85,1.66,2943,3600,4854,118,161,117,84,98,0
2888,3523,4797,-63,-89,-66,10240,0.53,0.01,1.85,1.66,2942,3598,4852,118,161,117,84,98,0
2887,3523,4797,-57,-80,-58,10240,0.53,0.01,1.85,1.66,2940,3595,4850,118,161,117,84,98,0
2888,3523,4797,-53,-73,-54,10240,0.53,0.01,1.85,1.66,2938,3593,4849,118,161,117,84,98,0
2891,3528,4801,-50,-69,-51,10240,0.53,0.01,1.85,1.66,2937,3590,4847,118,161,117,84,98,0
2904,3546,4813,-45,-61,-46,10240,0.53,0.01,1.85,1.66,2935,3589,4846,118,161,117,84,98,0
2912,3557,4822,-37,-51,-38,10240,0.53,0.01,1.85,1.66,2935,3588,4845,118,161,117,84,98,0
2921,3570,4832,-28,-38,-28,10240,0.53,0.01,1.85,1.66,2934,3587,4845,118,161,117,84,98,0
2930,3584,4843,-17,-23,-17,10240,0.53,0.01,1.85,1.66,2934,3587,4845,118,161,117,84,98,0
2939,3597,4852,-8,-10,-7,10240,0.53,0.01,1.85,1.66,2934,3588,4845,118,161,117,84,98,0
2954,3615,4862,1,4,2,10240,0.53,0.01,1.85,1.66,2935,3588,4845,118,161,117,84,98,0
2964,3631,4873,12,18,12,10240,0.53,0.01,1.85,1.66,2936,3590,4846,118,161,117,84,98,0
2968,3641,4882,20,31,21,10240,0.53,0.01,1.85,1.66,2937,3592,4848,118,161,117,84,98,0
2974,3647,4887,28,42,29,10240,0.53,0.01,1.85,1.66,2938,3593,4849,118,161,117,84,98,0
2963,3632,4869,29,45,29,10240,0.53,0.01,1.85,1.66,2939,3595,4850,118,161,117,84,98,0
2894,3531,4798,12,19,10,10240,0.53,0.01,1.85,1.66,2937,3593,4848,115,160,116,84,98,0
2869,3492,4772,-12,-17,-16,10240,0.53,0.01,1.86,1.64,2935,3589,4845,115,160,116,84,98,0
2857,3473,4762,-40,-58,-46,10240,0.53,0.01,1.86,1.64,2933,3585,4842,115,160,116,84,98,0
2854,3468,4761,-65,-96,-70,10240,0.53,0.01,1.86,1.64,2930,3581,4840,115,160,116,84,98,0
2855,3468,4762,-72,-108,-76,10240,0.53,0.01,1.86,1.64,2927,3578,4837,115,160,116,84,98,0
2863,3484,4771,-71,-106,-74,10240,0.53,0.01,1.86,1.64,2925,3575,4835,115,160,116,84,98,0
2869,3492,4778,-66,-98,-68,10240,0.53,0.01,1.86,1.64,2923,3572,4833,115,160,116,84,98,0
2871,3495,4781,-59,-88,-61,10240,0.53,0.01,1.86,1.64,2922,3569,4831,115,160,116,84,98,0
2872,3497,4781,-53,-78,-54,10240,0.53,0.01,1.86,1.64,2920,3567,4830,115,160,116,84,98,0
2875,3498,4782,-49,-72,-50,10240,0.53,0.01,1.86,1.64,2919,3565,4828,115,160,116,84,98,0
2882,3514,4793,-44,-65,-44,10240,0.53,0.01,1.86,1.64,2917,3563,4827,115,160,116,84,98,0
2888,3524,4801,-38,-56,-38,10240,0.53,0.01,1.86,1.64,2916,3562,4826,115,160,116,84,98,0
2898,3537,4810,-31,-44,-30,10240,0.53,0.01,1.86,1.64,2916,3561,4826,115,160,116,84,98,0
2908,3552,4821,-22,-29,-19,10240,0.53,0.01,1.86,1.64,2916,3560,4825,115,160,116,84,98,0
2929,3583,4832,-10,-12,-9,10240,0.53,0.01,1.86,1.64,2916,3561,4826,115,160,116,84,98,0
2939,3595,4854,2,5,3,10240,0.53,0.01,1.86,1.64,2917,3562,4827,115,160,116,84,98,0
2947,3600,4855,14,20,14,10240,0.53,0.01,1.86,1.64,2918,3564,4827,115,160,116,84,98,0
2953,3616,4864,24,35,24,10240,0.53,0.01,1.86,1.64,2919,3565,4829,115,160,116,84,98,0
2960,3629,4873,31,45,33,10240,0.53,0.01,1.86,1.64,2920,3567,4830,115,160,116,84,98,0
2972,3645,4888,38,56,40,10240,0.53,0.01,1.86,1.64,2922,3570,4832,115,160,116,84,98,0
2960,3629,4868,40,61,42,10240,0.53,0.01,1.86,1.64,2923,3572,4833,115,160,116,84,98,0
2930,3585,4839,33,51,35,10240,0.53,0.01,1.86,1.64,2923,3572,4833,114,162,117,84,98,0
2892,3529,4800,16,25,16,10240,0.53,0.01,1.87,1.61,2922,3571,4832,114,162,117,84,98,0
2868,3491,4775,-9,-12,-11,10240,0.53,0.01,1.87,1.61,2921,3568,4830,114,162,117,84,98,0
2856,3471,4767,-34,-50,-35,10240,0.53,0.01,1.87,1.61,2918,3565,4828,114,162,117,84,98,0
2859,3476,4771,-50,-74,-50,10240,0.53,0.01,1.87,1.61,2917,3562,4826,114,162,117,84,98,0
2864,3485,4777,-56,-83,-54,10240,0.53,0.01,1.87,1.61,2915,3560,4825,114,162,117,84,98,0
2871,3497,4785,-53,-78,-50,10240,0.53,0.01,1.87,1.61,2913,3557,4824,114,162,117,84,98,0
2878,3508,4793,-46,-67,-42,10240,0.53,0.01,1.87,1.61,2912,3556,4822,114,162,117,84,98,0
2881,3512,4795,-39,-56,-35,10240,0.53,0.01,1.87,1.61,2911,3554,4822,114,162,117,84,98,0
2881,3513,4794,-33,-47,-30,10240,0.53,0.01,1.87,1.61,2910,3553,4821,114,162,117,84,98,0
2884,3519,4799,-29,-40,-26,10240,0.53,0.01,1.87,1.61,2909,3552,4820,114,162,117,84,98,0
2890,3526,4803,-25,-35,-22,10240,0.53,0.01,1.87,1.61,2909,3551,4819,114,162,117,84,98,0
2897,3536,4812,-21,-28,-17,10240,0.53,0.01,1.87,1.61,2908,3551,4819,114,162,117,84,98,0
2918,3566,4835,-11,-14,-7,10240,0.53,0.01,1.87,1.61,2909,3551,4820,114,162,117,84,98,0
2929,3582,4848,0,1,4,10240,0.53,0.01,1.87,1.61,2909,3552,4821,114,162,117,84,98,0
2938,3594,4855,11,17,17,10240,0.53,0.01,1.87,1.61,2910,3553,4822,114,162,117,84,98,0
2946,3599,4858,23,32,27,10240,0.53,0.01,1.87,1.61,2911,3555,4823,114,162,117,84,98,0
2951,3613,4864,30,42,33,10240,0.53,0.01,1.87,1.61,2913,3557,4824,114,162,117,84,98,0
2966,3639,4883,38,55,41,10240,0.53,0.01,1.87,1.61,2914,3560,4826,114,162,117,84,98,0
2974,3649,4894,45,66,49,10240,0.53,0.01,1.87,1.61,2916,3563,4829,114,162,117,84,98,0
2982,3660,4902,52,78,58,10240,0.53,0.01,1.87,1.61,2919,3566,4831,114,162,117,84,98,0
2978,3656,4895,57,86,63,10240,0.53,0.01,1.87,1.61,2921,3569,4833,114,162,117,84,98,0
2954,3619,4863,52,78,56,10240,0.53,0.01,1.87,1.61,2922,3571,4834,114,164,117,84,98,0
2887,3523,4800,29,45,32,10240,0.53,0.01,1.90,1.61,2921,3569,4833,114,164,117,84,98,0
2873,3498,4786,2,5,3,10240,0.53,0.01,1.90,1.61,2919,3567,4831,114,164,117,84,98,0
2869,3493,4784,-24,-34,-23,10240,0.53,0.01,1.90,1.61,2917,3564,4830,114,164,117,84,98,0
2871,3496,4788,-43,-63,-41,10240,0.53,0.01,1.90,1.61,2916,3562,4828,114,164,117,84,98,0
2886,3508,4796,-42,-64,-40,10240,0.53,0.01,1.90,1.61,2915,3560,4827,114,164,117,84,98,0
2894,3532,4813,-35,-54,-32,10240,0.53,0.01,1.90,1.61,2914,3559,4827,114,164,117,84,98,0
2898,3537,4816,-27,-41,-24,10240,0.53,0.01,1.90,1.61,2914,3558,4827,114,164,117,84,98,0
2898,3539,4816,-20,-29,-16,10240,0.53,0.01,1.90,1.61,2913,3558,4826,114,164,117,84,98,0
2898,3538,4817,-16,-21,-11,10240,0.53,0.01,1.90,1.61,2912,3557,4826,114,164,117,84,98,0
2905,3548,4825,-13,-17,-7,10240,0.53,0.01,1.90,1.61,2912,3557,4826,114,164,117,84,98,0
2911,3558,4832,-9,-11,-3,10240,0.53,0.01,1.90,1.61,2912,3557,4826,114,164,117,84,98,0
2920,3570,4841,-3,-3,2,10240,0.53,0.01,1.90,1.61,2912,3557,4827,114,164,117,84,98,0
2931,3588,4856,4,8,12,10240,0.53,0.01,1.90,1.61,2913,3558,4827,114,164,117,84,98,0
2940,3593,4858,12,19,19,10240,0.53,0.01,1.90,1.61,2914,3559,4829,114,164,117,84,98,0
2954,3620,4871,22,34,28,10240,0.53,0.01,1.90,1.61,2915,3561,4830,114,164,117,84,98,0
2964,3635,4883,32,48,37,10240,0.53,0.01,1.90,1.61,2917,3564,4832,114,164,117,84,98,0
2969,3643,4893,40,60,45,10240,0.53,0.01,1.90,1.61,2919,3567,4834,114,164,117,84,98,0
2979,3655,4901,48,73,54,10240,0.53,0.01,1.90,1.61,2921,3569,4836,114,164,117,84,98,0
2986,3668,4910,54,82,61,10240,0.53,0.01,1.90,1.61,2923,3573,4838,114,164,117,84,98,0
2996,3682,4918,60,90,68,10240,0.53,0.01,1.90,1.61,2925,3576,4841,114,164,117,84,98,0
2975,3653,4893,60,90,66,10240,0.53,0.01,1.90,1.61,2927,3579,4843,114,164,115,84,98,0
2945,3604,4857,49,74,53,10240,0.53,0.01,1.93,1.64,2928,3580,4843,111,162,115,84,98,0
2908,3555,4824,29,45,30,10240,0.53,0.01,1.93,1.64,2927,3579,4843,111,162,115,84,98,0
2886,3523,4803,1,5,1,10240,0.53,0.01,1.93,1.64,2926,3577,4841,111,162,115,84,98,0
2882,3514,4801,-21,-28,-20,10240,0.53,0.01,1.93,1.64,2924,3575,4840,111,162,115,84,98,0
2886,3521,4806,-34,-47,-32,10240,0.53,0.01,1.93,1.64,2923,3573,4839,111,162,115,84,98,0
2896,3535,4816,-36,-51,-33,10240,0.53,0.01,1.93,1.64,2922,3572,4838,111,162,115,84,98,0
2905,3550,4827,-30,-42,-26,10240,0.53,0.01,1.93,1.64,2921,3571,4838,111,162,115,84,98,0
2909,3556,4830,-22,-31,-18,10240,0.53,0.01,1.93,1.64,2921,3571,4837,111,162,115,84,98,0
2908,3554,4828,-16,-22,-12,10240,0.53,0.01,1.93,1.64,2921,3570,4837,111,162,115,84,98,0
2908,3555,4828,-13,-16,-9,10240,0.53,0.01,1.93,1.64,2920,3570,4837,111,162,115,84,98,0
2912,3558,4831,-11,-14,-7,10240,0.53,0.01,1.93,1.64,2920,3569,4837,111,162,115,84,98,0
2917,3565,4836,-9,-11,-6,10240,0.53,0.01,1.93,1.64,2920,3569,4837,111,162,115,84,98,0
2923,3575,4844,-5,-6,-2,10240,0.53,0.01,1.93,1.64,2920,3569,4837,111,162,115,84,98,0
2938,3593,4857,2,3,4,10240,0.53,0.01,1.93,1.64,2920,3570,4838,111,162,115,84,98,0
2943,3595,4856,10,12,10,10240,0.53,0.01,1.93,1.64,2921,3571,4838,111,162,115,84,98,0
2949,3605,4863,17,21,17,10240,0.53,0.01,1.93,1.64,2922,3572,4839,111,162,115,84,98,0
2952,3615,4866,24,30,21,10240,0.53,0.01,1.93,1.64,2923,3574,4840,111,162,115,84,98,0
2966,3625,4873,29,37,25,10240,0.53,0.01,1.93,1.64,2925,3575,4841,111,162,115,84,98,0
2971,3646,4893,35,48,33,10240,0.53,0.01,1.93,1.64,2926,3578,4843,111,162,115,84,98,0
2970,3645,4888,39,56,38,10240,0.53,0.01,1.93,1.64,2928,3580,4844,111,162,115,84,98,0
2952,3617,4863,38,54,36,10240,0.53,0.01,1.93,1.64,2928,3581,4845,102,148,104,84,98,0
2913,3566,4827,24,38,23,10240,0.55,-0.08,1.93,1.62,2928,3581,4844,102,148,104,84,98,0
2859,3481,4773,-4,-2,-6,10240,0.55,-0.08,1.93,1.62,2926,3577,4842,102,148,104,84,98,0
2853,3470,4768,-32,-44,-34,10240,0.55,-0.08,1.93,1.62,2923,3574,4839,102,148,104,84,98,0
2852,3470,4769,-55,-78,-56,10240,0.55,-0.08,1.93,1.62,2921,3570,4837,102,148,104,84,98,0
2856,3476,4773,-67,-97,-67,10240,0.55,-0.08,1.93,1.62,2919,3567,4835,102,148,104,84,98,0
2863,3487,4780,-64,-93,-63,10240,0.55,-0.08,1.93,1.62,2917,3564,4833,102,148,104,84,98,0
2878,3511,4796,-55,-80,-54,10240,0.55,-0.08,1.93,1.62,2915,3563,4832,102,148,104,84,98,0
2880,3514,4797,-47,-66,-46,10240,0.55,-0.08,1.93,1.62,2914,3561,4831,102,148,104,84,98,0
2878,3513,4795,-40,-55,-39,10240,0.55,-0.08,1.93,1.62,2913,3559,4829,102,148,104,84,98,0
2880,3515,4797,-34,-47,-33,10240,0.55,-0.08,1.93,1.62,2912,3558,4828,102,148,104,84,98,0
2881,3519,4799,-32,-43,-31,10240,0.55,-0.08,1.93,1.62,2911,3557,4827,102,148,104,84,98,0
2894,3536,4811,-28,-36,-27,10240,0.55,-0.08,1.93,1.62,2910,3556,4827,102,148,104,84,98,0
2903,3551,4821,-21,-26,-20,10240,0.55,-0.08,1.93,1.62,2910,3556,4827,102,148,104,84,98,0
2913,3564,4831,-12,-13,-11,10240,0.55,-0.08,1.93,1.62,2910,3556,4827,102,148,104,84,98,0
2921,3577,4841,-2,0,-1,10240,0.55,-0.08,1.93,1.62,2911,3557,4827,102,148,104,84,98,0
2930,3592,4853,6,14,9,10240,0.55,-0.08,1.93,1.62,2911,3558,4828,102,148,104,84,98,0
2943,3599,4855,15,25,17,10240,0.55,-0.08,1.93,1.62,2912,3559,4829,102,148,104,84,98,0
2950,3613,4864,24,36,24,10240,0.55,-0.08,1.93,1.62,2914,3561,4830,102,148,104,84,98,0
2955,3624,4869,31,46,30,10240,0.55,-0.08,1.93,1.62,2915,3563,4832,102,148,104,84,98,0
2960,3631,4874,37,54,34,10240,0.55,-0.08,1.93,1.62,2916,3565,4833,102,148,104,84,98,0
2948,3611,4858,37,55,34,10240,0.55,-0.08,1.93,1.62,2917,3567,4834,102,148,104,84,98,0
2866,3493,4776,16,25,11,10240,0.55,-0.08,1.93,1.62,2916,3564,4832,103,149,103,84,98,0
2835,3437,4744,-13,-21,-19,10240,0.55,-0.08,1.96,1.66,2913,3560,4829,103,149,103,84,98,0
2818,3416,4730,-47,-72,-53,10240,0.55,-0.08,1.96,1.66,2910,3555,4826,103,149,103,84,98,0
2813,3416,4726,-78,-117,-83,10240,0.55,-0.08,1.96,1.66,2907,3551,4822,103,149,103,84,98,0
2815,3416,4726,-88,-131,-92,10240,0.55,-0.08,1.96,1.66,2904,3546,4819,103,149,103,84,98,0
2822,3416,4736,-88,-132,-91,10240,0.55,-0.08,1.96,1.66,2901,3542,4816,103,149,103,84,98,0
2828,3419,4741,-83,-127,-85,10240,0.55,-0.08,1.96,1.66,2898,3538,4814,103,149,103,84,98,0
2830,3425,4741,-76,-121,-79,10240,0.55,-0.08,1.96,1.66,2896,3534,4811,103,149,103,84,98,0
2830,3425,4742,-69,-114,-72,10240,0.55,-0.08,1.96,1.66,2894,3530,4809,103,149,103,84,98,0
2833,3434,4746,-64,-106,-67,10240,0.55,-0.08,1.96,1.66,2892,3527,4807,103,149,103,84,98,0
2838,3446,4753,-60,-96,-62,10240,0.55,-0.08,1.96,1.66,2890,3525,4805,103,149,103,84,98,0
2845,3461,4763,-54,-84,-55,10240,0.55,-0.08,1.96,1.66,2889,3522,4804,103,149,103,84,98,0
2855,3478,4772,-47,-69,-46,10240,0.55,-0.08,1.96,1.66,2888,3521,4803,103,149,103,84,98,0
2864,3492,4781,-38,-52,-36,10240,0.55,-0.08,1.96,1.66,2887,3520,4802,103,149,103,84,98,0
2883,3522,4802,-26,-32,-23,10240,0.55,-0.08,1.96,1.66,2887,3520,4802,103,149,103,84,98,0
2890,3531,4808,-14,-14,-11,10240,0.55,-0.08,1.96,1.66,2887,3520,4802,103,149,103,84,98,0
2899,3545,4818,-3,2,0,10240,0.55,-0.08,1.96,1.66,2887,3521,4803,103,149,103,84,98,0
2908,3558,4827,7,18,11,10240,0.55,-0.08,1.96,1.66,2888,3523,4804,103,149,103,84,98,0
2916,3570,4837,15,29,19,10240,0.55,-0.08,1.96,1.66,2889,3524,4805,103,149,103,84,98,0
2926,3588,4849,23,41,28,10240,0.55,-0.08,1.96,1.66,2890,3526,4806,103,149,103,84,98,0
2901,3550,4815,23,41,26,10240,0.55,-0.08,1.96,1.66,2890,3527,4806,103,149,107,84,98,0
2859,3486,4771,11,22,12,10240,0.55,-0.08,1.90,1.60,2889,3526,4805,105,155,107,84,98,0
2823,3424,4733,-11,-13,-13,10240,0.55,-0.08,1.90,1.60,2887,3522,4803,105,155,107,84,98,0
2801,3416,4716,-41,-54,-44,10240,0.55,-0.08,1.90,1.60,2884,3519,4800,105,155,107,84,98,0
2796,3416,4714,-65,-85,-67,10240,0.55,-0.08,1.90,1.60,2881,3515,4797,105,155,107,84,98,0
2799,3416,4719,-78,-99,-78,10240,0.55,-0.08,1.90,1.60,2879,3512,4794,105,155,107,84,98,0
2808,3416,4726,-79,-97,-77,10240,0.55,-0.08,1.90,1.60,2876,3509,4792,105,155,107,84,98,0
2818,3416,4735,-72,-94,-69,10240,0.55,-0.08,1.90,1.60,2874,3506,4790,105,155,107,84,98,0
2826,3418,4740,-62,-91,-61,10240,0.55,-0.08,1.90,1.60,2873,3503,4789,105,155,107,84,98,0
2829,3426,4743,-53,-85,-53,10240,0.55,-0.08,1.90,1.60,2871,3500,4787,105,155,107,84,98,0
2829,3428,4744,-46,-79,-47,10240,0.55,-0.08,1.90,1.60,2870,3498,4786,105,155,107,84,98,0
2832,3436,4748,-41,-72,-42,10240,0.55,-0.08,1.90,1.60,2869,3496,4784,105,155,107,84,98,0
2839,3449,4756,-37,-62,-37,10240,0.55,-0.08,1.90,1.60,2868,3494,4783,105,155,107,84,98,0
2846,3464,4765,-32,-51,-30,10240,0.55,-0.08,1.90,1.60,2867,3493,4783,105,155,107,84,98,0
2865,3495,4786,-22,-33,-19,10240,0.55,-0.08,1.90,1.60,2867,3493,4783,105,155,107,84,98,0
2876,3510,4797,-10,-14,-7,10240,0.55,-0.08,1.90,1.60,2867,3494,4783,105,155,107,84,98,0
2884,3523,4804,0,4,4,10240,0.55,-0.08,1.90,1.60,2868,3495,4784,105,155,107,84,98,0
2892,3536,4813,11,21,16,10240,0.55,-0.08,1.90,1.60,2868,3496,4785,105,155,107,84,98,0
2901,3550,4823,20,34,24,10240,0.55,-0.08,1.90,1.60,2869,3498,4786,105,155,107,84,98,0
2919,3575,4842,30,48,34,10240,0.55,-0.08,1.90,1.60,2871,3500,4788,105,155,107,84,98,0
2928,3589,4854,39,63,45,10240,0.55,-0.08,1.90,1.60,2873,3503,4790,105,155,107,84,98,0
2926,3589,4851,46,74,53,10240,0.55,-0.08,1.90,1.60,2875,3506,4792,105,155,107,84,98,0
2901,3552,4818,44,72,50,10240,0.55,-0.08,1.90,1.60,2876,3508,4793,110,159,113,84,98,0
2862,3491,4776,29,49,32,10240,0.55,-0.08,1.92,1.62,2875,3507,4793,110,159,113,84,98,0
2808,3416,4724,0,5,0,10240,0.55,-0.08,1.92,1.62,2873,3504,4790,110,159,113,84,98,0
2801,3416,4720,-30,-36,-31,10240,0.55,-0.08,1.92,1.62,2871,3501,4788,110,159,113,84,98,0
2803,3416,4723,-53,-67,-53,10240,0.55,-0.08,1.92,1.62,2868,3498,4786,110,159,113,84,98,0
2810,3416,4729,-64,-83,-63,10240,0.55,-0.08,1.92,1.62,2866,3496,4784,110,159,113,84,98,0
2820,3416,4738,-59,-81,-57,10240,0.55,-0.08,1.92,1.62,2865,3493,4783,110,159,113,84,98,0
2834,3439,4752,-49,-72,-48,10240,0.55,-0.08,1.92,1.62,2864,3491,4781,110,159,113,84,98,0
2836,3442,4752,-39,-64,-39,10240,0.55,-0.08,1.92,1.62,2863,3490,4781,110,159,113,84,98,0
2835,3443,4752,-32,-55,-32,10240,0.55,-0.08,1.92,1.62,2862,3488,4780,110,159,113,84,98,0
2837,3445,4754,-27,-46,-27,10240,0.55,-0.08,1.92,1.62,2861,3487,4779,110,159,113,84,98,0
2841,3452,4759,-24,-42,-25,10240,0.55,-0.08,1.92,1.62,2860,3485,4778,110,159,113,84,98,0
2856,3478,4776,-18,-31,-18,10240,0.55,-0.08,1.92,1.62,2860,3485,4778,110,159,113,84,98,0
2864,3491,4785,-10,-19,-9,10240,0.55,-0.08,1.92,1.62,2860,3485,4778,110,159,113,84,98,0
2875,3509,4797,-1,-2,1,10240,0.55,-0.08,1.92,1.62,2861,3486,4779,110,159,113,84,98,0
2884,3521,4806,9,14,12,10240,0.55,-0.08,1.92,1.62,2862,3487,4780,110,159,113,84,98,0
2901,3534,4814,19,27,21,10240,0.55,-0.08,1.92,1.62,2863,3489,4781,110,159,113,84,98,0
2910,3560,4833,29,42,31,10240,0.55,-0.08,1.92,1.62,2865,3491,4783,110,159,113,84,98,0
2917,3572,4841,39,56,41,10240,0.55,-0.08,1.92,1.62,2866,3494,4785,110,159,113,84,98,0
2925,3586,4852,47,70,51,10240,0.55,-0.08,1.92,1.62,2868,3497,4787,110,159,113,84,98,0
2933,3593,4857,54,82,59,10240,0.55,-0.08,1.92,1.62,2870,3500,4789,110,159,113,84,98,0
2922,3594,4856,55,87,63,10240,0.55,-0.08,1.92,1.62,2872,3503,4791,110,159,113,84,98,0
2883,3524,4800,45,73,51,10240,0.55,-0.08,1.92,1.62,2873,3504,4792,112,162,117,84,98,0
2844,3460,4759,23,40,27,10240,0.55,-0.08,1.89,1.60,2872,3503,4791,112,162,117,84,98,0
2818,3417,4733,-5,-3,-3,10240,0.55,-0.08,1.89,1.60,2870,3500,4789,112,162,117,84,98,0
2806,3416,4725,-33,-46,-35,10240,0.55,-0.08,1.89,1.60,2868,3497,4786,112,162,117,84,98,0
2811,3416,4726,-49,-71,-51,10240,0.55,-0.08,1.89,1.60,2866,3494,4784,112,162,117,84,98,0
2822,3416,4742,-52,-79,-54,10240,0.55,-0.08,1.89,1.60,2864,3492,4783,112,162,117,84,98,0
2831,3430,4750,-47,-73,-48,10240,0.55,-0.08,1.89,1.60,2863,3490,4782,112,162,117,84,98,0
2837,3443,4756,-38,-64,-39,10240,0.55,-0.08,1.89,1.60,2862,3488,4781,112,162,117,84,98,0
2837,3442,4755,-30,-56,-30,10240,0.55,-0.08,1.89,1.60,2861,3487,4780,112,162,117,84,98,0
2833,3436,4752,-27,-49,-27,10240,0.55,-0.08,1.89,1.60,2861,3485,4779,112,162,117,84,98,0
2835,3440,4753,-25,-45,-25,10240,0.55,-0.08,1.89,1.60,2860,3483,4778,112,162,117,84,98,0
2839,3449,4757,-24,-42,-24,10240,0.55,-0.08,1.89,1.60,2859,3482,4778,112,162,117,84,98,0
2844,3460,4765,-21,-36,-21,10240,0.55,-0.08,1.89,1.60,2858,3481,4777,112,162,117,84,98,0
2852,3473,4772,-16,-26,-15,10240,0.55,-0.08,1.89,1.60,2858,3481,4777,112,162,117,84,98,0
2867,3496,4789,-8,-12,-6,10240,0.55,-0.08,1.89,1.60,2859,3482,4778,112,162,117,84,98,0
2875,3509,4798,1,2,3,10240,0.55,-0.08,1.89,1.60,2859,3483,4778,112,162,117,84,98,0
2882,3519,4803,10,16,12,10240,0.55,-0.08,1.89,1.60,2860,3484,4779,112,162,117,84,98,0
2887,3528,4809,18,29,21,10240,0.55,-0.08,1.89,1.60,2861,3485,4780,112,162,117,84,98,0
2894,3540,4817,24,39,27,10240,0.55,-0.08,1.89,1.60,2862,3487,4781,112,162,117,84,98,0
2907,3558,4830,31,50,34,10240,0.55,-0.08,1.89,1.60,2863,3489,4783,112,162,117,84,98,0
2895,3540,4815,33,53,35,10240,0.55,-0.08,1.89,1.60,2864,3491,4784,112,162,117,84,98,0
2863,3490,4778,26,42,27,10240,0.55,-0.08,1.89,1.60,2864,3491,4784,105,155,110,84,98,0
2820,3424,4734,7,13,6,10240,0.55,-0.08,1.93,1.59,2863,3489,4782,105,155,110,84,98,0
2792,3414,4708,-20,-22,-23,10240,0.55,-0.08,1.93,1.59,2861,3486,4780,105,155,110,84,98,0
2776,3386,4697,-48,-58,-51,10240,0.55,-0.08,1.93,1.59,2858,3483,4777,105,155,110,84,98,0
2777,3389,4696,-68,-81,-69,10240,0.55,-0.08,1.93,1.59,2855,3480,4774,105,155,110,84,98,0
2783,3403,4701,-74,-83,-75,10240,0.55,-0.08,1.93,1.59,2853,3477,4772,105,155,110,84,98,0
2792,3416,4711,-72,-80,-72,10240,0.55,-0.08,1.93,1.59,2851,3475,4770,105,155,110,84,98,0
2795,3416,4716,-65,-70,-65,10240,0.55,-0.08,1.93,1.59,2849,3473,4768,105,155,110,84,98,0
2794,3416,4714,-59,-61,-58,10240,0.55,-0.08,1.93,1.59,2847,3471,4766,105,155,110,84,98,0
2793,3416,4712,-54,-56,-53,10240,0.55,-0.08,1.93,1.59,2845,3470,4764,105,155,110,84,98,0
2794,3416,4714,-52,-54,-51,10240,0.55,-0.08,1.93,1.59,2843,3468,4763,105,155,110,84,98,0
2797,3416,4720,-49,-52,-48,10240,0.55,-0.08,1.93,1.59,2842,3466,4761,105,155,110,84,98,0
2805,3416,4726,-45,-51,-44,10240,0.55,-0.08,1.93,1.59,2841,3464,4760,105,155,110,84,98,0
2825,3419,4743,-36,-48,-35,10240,0.55,-0.08,1.93,1.59,2840,3463,4759,105,155,110,84,98,0
2833,3438,4753,-25,-41,-24,10240,0.55,-0.08,1.93,1.59,2840,3462,4759,105,155,110,84,98,0
2841,3455,4762,-14,-30,-13,10240,0.55,-0.08,1.93,1.59,2840,3462,4759,105,155,110,84,98,0
2849,3470,4772,-3,-16,-1,10240,0.55,-0.08,1.93,1.59,2840,3462,4760,105,155,110,84,98,0
2858,3484,4780,5,0,7,10240,0.55,-0.08,1.93,1.59,2841,3463,4760,105,155,110,84,98,0
2874,3509,4797,14,16,17,10240,0.55,-0.08,1.93,1.59,2842,3464,4762,105,155,110,84,98,0
2882,3521,4804,24,32,27,10240,0.55,-0.08,1.93,1.59,2843,3466,4763,105,155,110,84,98,0
2883,3523,4803,31,44,33,10240,0.55,-0.08,1.93,1.59,2845,3468,4764,105,155,110,84,98,0
2863,3494,4781,31,45,32,10240,0.55,-0.08,1.93,1.59,2845,3469,4765,105,155,109,84,98,0
2819,3426,4733,17,23,16,10240,0.55,-0.08,1.95,1.61,2844,3468,4764,105,148,109,84,98,0
2753,3344,4666,-14,-20,-17,10240,0.55,-0.08,1.95,1.61,2841,3464,4761,105,148,109,84,98,0
2741,3326,4658,-48,-67,-52,10240,0.55,-0.08,1.95,1.61,2838,3459,4757,105,148,109,84,98,0
2739,3322,4656,-76,-106,-80,10240,0.55,-0.08,1.95,1.61,2835,3454,4754,105,148,109,84,98,0
2740,3324,4658,-93,-127,-96,10240,0.55,-0.08,1.95,1.61,2831,3450,4751,105,148,109,84,98,0
2746,3332,4663,-91,-126,-93,10240,0.55,-0.08,1.95,1.61,2829,3446,4748,105,148,109,84,98,0
2760,3354,4678,-84,-115,-85,10240,0.55,-0.08,1.95,1.61,2826,3443,4745,105,148,109,84,98,0
2762,3358,4680,-75,-102,-77,10240,0.55,-0.08,1.95,1.61,2824,3440,4743,105,148,109,84,98,0
2760,3357,4679,-68,-91,-69,10240,0.55,-0.08,1.95,1.61,2822,3437,4741,105,148,109,84,98,0
2761,3356,4679,-62,-82,-63,10240,0.55,-0.08,1.95,1.61,2820,3435,4739,105,148,109,84,98,0
2772,3361,4683,-57,-78,-59,10240,0.55,-0.08,1.95,1.61,2818,3432,4737,105,148,109,84,98,0
2776,3390,4695,-52,-67,-54,10240,0.55,-0.08,1.95,1.61,2817,3431,4736,105,148,109,84,98,0
2787,3413,4706,-43,-52,-46,10240,0.55,-0.08,1.95,1.61,2816,3430,4735,105,148,109,84,98,0
2796,3416,4719,-33,-35,-34,10240,0.55,-0.08,1.95,1.61,2815,3430,4734,105,148,109,84,98,0
2808,3416,4729,-24,-21,-22,10240,0.55,-0.08,1.95,1.61,2815,3429,4734,105,148,109,84,98,0
2831,3437,4740,-10,-9,-10,10240,0.55,-0.08,1.95,1.61,2816,3430,4734,105,148,109,84,98,0
2840,3455,4762,3,1,3,10240,0.55,-0.08,1.95,1.61,2816,3430,4735,105,148,109,84,98,0
2846,3469,4769,15,14,15,10240,0.55,-0.08,1.95,1.61,2817,3432,4736,105,148,109,84,98,0
2855,3482,4777,26,29,26,10240,0.55,-0.08,1.95,1.61,2819,3433,4738,105,148,109,84,98,0
2862,3494,4785,32,42,36,10240,0.55,-0.08,1.95,1.61,2820,3435,4739,105,148,109,84,98,0
2865,3497,4793,37,51,42,10240,0.55,-0.08,1.95,1.61,2822,3437,4741,105,148,109,84,98,0
2833,3445,4749,33,43,36,10240,0.55,-0.08,1.95,1.61,2822,3438,4741,112,155,116,84,98,0
2789,3407,4703,16,24,17,10240,0.55,-0.08,1.84,1.62,2821,3437,4740,112,155,116,84,98,0
2756,3351,4670,-10,-11,-11,10240,0.55,-0.08,1.84,1.62,2819,3434,4738,112,155,116,84,98,0
2737,3322,4654,-40,-53,-44,10240,0.55,-0.08,1.84,1.62,2816,3430,4735,112,155,116,84,98,0
2732,3314,4651,-63,-83,-66,10240,0.55,-0.08,1.84,1.62,2813,3426,4732,112,155,116,84,98,0
2736,3320,4654,-74,-101,-76,10240,0.55,-0.08,1.84,1.62,2811,3423,4730,112,155,116,84,98,0
2744,3331,4661,-74,-103,-76,10240,0.55,-0.08,1.84,1.62,2808,3420,4727,112,155,116,84,98,0
2754,3344,4668,-68,-94,-70,10240,0.55,-0.08,1.84,1.62,2807,3417,4725,112,155,116,84,98,0
2759,3352,4675,-59,-82,-62,10240,0.55,-0.08,1.84,1.62,2805,3415,4724,112,155,116,84,98,0
2759,3355,4676,-52,-70,-54,10240,0.55,-0.08,1.84,1.62,2804,3413,4722,112,155,116,84,98,0
2762,3359,4680,-46,-61,-48,10240,0.55,-0.08,1.84,1.62,2802,3411,4721,112,155,116,84,98,0
2768,3370,4687,-41,-53,-42,10240,0.55,-0.08,1.84,1.62,2801,3410,4719,112,155,116,84,98,0
2776,3383,4693,-35,-44,-36,10240,0.55,-0.08,1.84,1.62,2800,3409,4719,112,155,116,84,98,0
2780,3404,4699,-29,-30,-29,10240,0.55,-0.08,1.84,1.62,2799,3409,4718,112,155,116,84,98,0
2799,3416,4722,-19,-16,-18,10240,0.55,-0.08,1.84,1.62,2799,3409,4718,112,155,116,84,98,0
2812,3416,4731,-7,-4,-7,10240,0.55,-0.08,1.84,1.62,2800,3409,4718,112,155,116,84,98,0
2823,3419,4742,3,4,5,10240,0.55,-0.08,1.84,1.62,2801,3410,4719,112,155,116,84,98,0
2832,3440,4752,16,13,18,10240,0.55,-0.08,1.84,1.62,2802,3411,4720,112,155,116,84,98,0
2840,3456,4761,25,22,26,10240,0.55,-0.08,1.84,1.62,2803,3412,4722,112,155,116,84,98,0
2854,3483,4776,34,37,36,10240,0.55,-0.08,1.84,1.62,2805,3414,4724,112,155,116,84,98,0
2863,3497,4786,43,55,45,10240,0.55,-0.08,1.84,1.62,2807,3417,4726,112,155,116,84,98,0
2873,3513,4798,51,71,55,10240,0.55,-0.08,1.84,1.62,2809,3420,4728,112,155,116,84,98,0
2880,3522,4802,59,85,63,10240,0.55,-0.08,1.84,1.62,2811,3424,4730,112,155,116,84,98,0
2869,3507,4788,61,87,64,10240,0.55,-0.08,1.84,1.62,2813,3427,4732,112,155,116,84,98,0
2788,3408,4701,41,63,42,10240,0.55,-0.08,1.84,1.62,2812,3426,4731,117,164,122,84,98,0
2761,3360,4672,12,24,10,10240,0.55,-0.08,1.86,1.61,2811,3424,4729,117,164,122,84,98,0
2746,3337,4658,-20,-21,-25,10240,0.55,-0.08,1.86,1.61,2808,3421,4727,117,164,122,84,98,0
2744,3335,4659,-49,-62,-55,10240,0.55,-0.08,1.86,1.61,2806,3418,4725,117,164,122,84,98,0
2746,3338,4661,-58,-77,-63,10240,0.55,-0.08,1.86,1.61,2804,3415,4723,117,164,122,84,98,0
2761,3361,4679,-56,-74,-59,10240,0.55,-0.08,1.86,1.61,2803,3413,4721,117,164,122,84,98,0
2771,3377,4688,-48,-61,-50,10240,0.55,-0.08,1.86,1.61,2802,3412,4720,117,164,122,84,98,0
2778,3387,4692,-38,-47,-40,10240,0.55,-0.08,1.86,1.61,2801,3411,4719,117,164,122,84,98,0
2779,3388,4691,-29,-33,-32,10240,0.55,-0.08,1.86,1.61,2800,3411,4718,117,164,122,84,98,0
2779,3390,4690,-24,-25,-28,10240,0.55,-0.08,1.86,1.61,2800,3410,4717,117,164,122,84,98,0
2784,3413,4699,-20,-16,-24,10240,0.55,-0.08,1.86,1.61,2799,3410,4717,117,164,122,84,98,0
2792,3416,4709,-16,-8,-19,10240,0.55,-0.08,1.86,1.61,2799,3410,4716,117,164,122,84,98,0
2800,3416,4719,-10,-1,-12,10240,0.55,-0.08,1.86,1.61,2799,3410,4717,117,164,122,84,98,0
2812,3416,4728,-2,5,-3,10240,0.55,-0.08,1.86,1.61,2799,3411,4717,117,164,122,84,98,0
2823,3423,4739,7,7,6,10240,0.55,-0.08,1.86,1.61,2800,3411,4718,117,164,122,84,98,0
2844,3465,4762,19,18,19,10240,0.55,-0.08,1.86,1.61,2802,3413,4719,117,164,122,84,98,0
2852,3479,4770,31,33,31,10240,0.55,-0.08,1.86,1.61,2803,3415,4721,117,164,122,84,98,0
2861,3493,4779,42,50,42,10240,0.55,-0.08,1.86,1.61,2805,3418,4723,117,164,122,84,98,0
2869,3506,4788,52,69,52,10240,0.55,-0.08,1.86,1.61,2807,3421,4725,117,164,122,84,98,0
2877,3519,4796,58,79,59,10240,0.55,-0.08,1.86,1.61,2810,3424,4727,117,164,122,84,98,0
2891,3540,4811,66,91,67,10240,0.55,-0.08,1.86,1.61,2812,3428,4730,117,164,122,84,98,0
2900,3554,4820,73,103,75,10240,0.55,-0.08,1.86,1.61,2815,3432,4733,117,164,122,84,98,0
2903,3558,4821,79,112,80,10240,0.55,-0.08,1.86,1.61,2818,3436,4736,117,164,122,84,98,0
2884,3533,4799,78,112,78,10240,0.55,-0.08,1.86,1.61,2820,3439,4738,122,164,128,84,98,0
2799,3416,4753,53,78,61,10240,0.55,-0.08,1.77,1.60,2820,3439,4739,122,170,128,84,98,0
2777,3395,4688,21,37,27,10240,0.55,-0.08,1.77,1.60,2818,3437,4737,122,170,128,84,98,0
2767,3372,4678,-12,-8,-7,10240,0.55,-0.08,1.77,1.60,2817,3435,4735,122,170,128,84,98,0
2766,3369,4678,-40,-48,-36,10240,0.55,-0.08,1.77,1.60,2815,3433,4733,122,170,128,84,98,0
2769,3375,4683,-46,-56,-52,10240,0.55,-0.08,1.77,1.60,2813,3431,4731,122,170,128,84,98,0
2781,3408,4689,-43,-51,-50,10240,0.55,-0.08,1.77,1.60,2812,3430,4730,122,170,128,84,98,0
2788,3416,4701,-36,-39,-43,10240,0.55,-0.08,1.77,1.60,2811,3430,4729,122,170,128,84,98,0
2790,3416,4701,-29,-26,-36,10240,0.55,-0.08,1.77,1.60,2811,3429,4728,122,170,128,84,98,0
2789,3416,4701,-24,-15,-30,10240,0.55,-0.08,1.77,1.60,2810,3429,4727,122,170,128,84,98,0
2788,3416,4700,-21,-13,-26,10240,0.55,-0.08,1.77,1.60,2809,3428,4726,122,170,128,84,98,0
2794,3416,4709,-19,-12,-24,10240,0.55,-0.08,1.77,1.60,2809,3428,4726,122,170,128,84,98,0
2801,3416,4715,-16,-12,-19,10240,0.55,-0.08,1.77,1.60,2808,3427,4725,122,170,128,84,98,0
2812,3416,4724,-10,-11,-13,10240,0.55,-0.08,1.77,1.60,2809,3427,4725,122,170,128,84,98,0
2822,3420,4734,-1,-10,-5,10240,0.55,-0.08,1.77,1.60,2809,3427,4726,122,170,128,84,98,0
2832,3442,4744,7,-3,3,10240,0.55,-0.08,1.77,1.60,2810,3427,4726,122,170,128,84,98,0
2847,3473,4763,18,10,15,10240,0.55,-0.08,1.77,1.60,2811,3429,4727,122,170,128,84,98,0
2855,3484,4770,28,26,25,10240,0.55,-0.08,1.77,1.60,2813,3431,4729,122,170,128,84,98,0
2862,3495,4776,37,43,35,10240,0.55,-0.08,1.77,1.60,2814,3433,4730,122,170,128,84,98,0
2870,3507,4785,45,57,44,10240,0.55,-0.08,1.77,1.60,2816,3435,4732,122,170,128,84,98,0
2877,3519,4793,50,67,49,10240,0.55,-0.08,1.77,1.60,2818,3438,4734,122,170,128,84,98,0
2876,3519,4790,54,73,53,10240,0.55,-0.08,1.77,1.60,2820,3441,4736,122,170,128,84,98,0
2847,3471,4753,48,65,45,10240,0.55,-0.08,1.77,1.60,2821,3442,4737,117,160,122,84,98,0
2801,3416,4705,30,40,24,10240,0.55,-0.08,1.80,1.61,2820,3441,4736,117,160,122,84,98,0
2770,3379,4673,3,5,-5,10240,0.55,-0.08,1.80,1.61,2819,3439,4734,117,160,122,84,98,0
2752,3349,4656,-26,-35,-37,10240,0.55,-0.08,1.80,1.61,2816,3436,4731,117,160,122,84,98,0
2745,3338,4653,-50,-66,-60,10240,0.55,-0.08,1.80,1.61,2814,3433,4728,117,160,122,84,98,0
2749,3344,4656,-61,-82,-70,10240,0.55,-0.08,1.80,1.61,2812,3430,4726,117,160,122,84,98,0
2758,3355,4665,-62,-85,-69,10240,0.55,-0.08,1.80,1.61,2810,3427,4724,117,160,122,84,98,0
2765,3368,4675,-56,-77,-62,10240,0.55,-0.08,1.80,1.61,2808,3425,4722,117,160,122,84,98,0
2771,3379,4681,-48,-65,-54,10240,0.55,-0.08,1.80,1.61,2807,3424,4721,117,160,122,84,98,0
2773,3379,4681,-41,-54,-46,10240,0.55,-0.08,1.80,1.61,2806,3422,4720,117,160,122,84,98,0
2774,3383,4683,-35,-45,-40,10240,0.55,-0.08,1.80,1.61,2805,3421,4718,117,160,122,84,98,0
2778,3392,4687,-31,-38,-36,10240,0.55,-0.08,1.80,1.61,2804,3420,4717,117,160,122,84,98,0
2780,3406,4689,-28,-30,-32,10240,0.55,-0.08,1.80,1.61,2803,3419,4716,117,160,122,84,98,0
2790,3416,4700,-23,-20,-27,10240,0.55,-0.08,1.80,1.61,2803,3419,4716,117,160,122,84,98,0
2808,3416,4719,-14,-11,-17,10240,0.55,-0.08,1.80,1.61,2803,3419,4716,117,160,122,84,98,0
2819,3418,4729,-4,-5,-6,10240,0.55,-0.08,1.80,1.61,2804,3419,4716,117,160,122,84,98,0
2829,3438,4739,8,2,5,10240,0.55,-0.08,1.80,1.61,2804,3420,4717,117,160,122,84,98,0
2838,3455,4750,19,12,17,10240,0.55,-0.08,1.80,1.61,2806,3421,4718,117,160,122,84,98,0
2844,3467,4758,27,23,26,10240,0.55,-0.08,1.80,1.61,2807,3423,4720,117,160,122,84,98,0
2859,3492,4773,36,40,36,10240,0.55,-0.08,1.80,1.61,2809,3425,4721,117,160,122,84,98,0
2867,3504,4782,43,55,45,10240,0.55,-0.08,1.80,1.61,2811,3427,4723,117,160,122,84,98,0
2875,3518,4789,51,69,53,10240,0.55,-0.08,1.80,1.61,2813,3430,4726,117,160,122,84,98,0
2870,3511,4781,55,77,57,10240,0.55,-0.08,1.80,1.61,2815,3433,4727,117,160,122,84,98,0
2793,3461,4745,38,67,48,10240,0.55,-0.08,1.80,1.61,2814,3434,4728,117,161,123,84,98,0
2756,3356,4659,10,29,16,10240,0.55,-0.08,1.80,1.60,2812,3432,4726,117,161,123,84,98,0
2735,3320,4639,-24,-19,-20,10240,0.55,-0.08,1.80,1.60,2809,3428,4723,117,161,123,84,98,0
2727,3307,4630,-57,-68,-56,10240,0.55,-0.08,1.80,1.60,2807,3424,4720,117,161,123,84,98,0
2725,3305,4630,-72,-104,-82,10240,0.55,-0.08,1.80,1.60,2804,3420,4717,117,161,123,84,98,0
2734,3316,4632,-75,-110,-85,10240,0.55,-0.08,1.80,1.60,2802,3416,4714,117,161,123,84,98,0
2741,3331,4650,-71,-103,-80,10240,0.55,-0.08,1.80,1.60,2799,3413,4712,117,161,123,84,98,0
2747,3341,4655,-64,-91,-71,10240,0.55,-0.08,1.80,1.60,2798,3411,4710,117,161,123,84,98,0
2750,3346,4658,-55,-78,-62,10240,0.55,-0.08,1.80,1.60,2796,3409,4708,117,161,123,84,98,0
2750,3348,4657,-50,-68,-54,10240,0.55,-0.08,1.80,1.60,2795,3407,4706,117,161,123,84,98,0
2758,3356,4665,-44,-60,-48,10240,0.55,-0.08,1.80,1.60,2793,3405,4705,117,161,123,84,98,0
2763,3367,4673,-38,-52,-42,10240,0.55,-0.08,1.80,1.60,2792,3404,4704,117,161,123,84,98,0
2774,3385,4686,-31,-40,-34,10240,0.55,-0.08,1.80,1.60,2792,3403,4703,117,161,123,84,98,0
2779,3410,4693,-23,-24,-24,10240,0.55,-0.08,1.80,1.60,2791,3404,4703,117,161,123,84,98,0
2792,3416,4705,-14,-9,-14,10240,0.55,-0.08,1.80,1.60,2791,3404,4703,117,161,123,84,98,0
2812,3416,4725,-2,3,-1,10240,0.55,-0.08,1.80,1.60,2792,3404,4704,117,161,123,84,98,0
2822,3425,4735,9,12,10,10240,0.55,-0.08,1.80,1.60,2793,3405,4705,117,161,123,84,98,0
2830,3444,4744,21,20,22,10240,0.55,-0.08,1.80,1.60,2794,3406,4706,117,161,123,84,98,0
2838,3459,4753,31,30,33,10240,0.55,-0.08,1.80,1.60,2796,3408,4708,117,161,123,84,98,0
2845,3471,4761,38,42,41,10240,0.55,-0.08,1.80,1.60,2797,3410,4710,117,161,123,84,98,0
2863,3497,4780,47,58,50,10240,0.55,-0.08,1.80,1.60,2800,3413,4712,117,161,123,84,98,0
2872,3511,4790,55,72,60,10240,0.55,-0.08,1.80,1.60,2802,3416,4714,117,161,123,84,98,0
2875,3518,4791,63,84,67,10240,0.55,-0.08,1.80,1.60,2804,3420,4717,117,161,123,84,98,0
2855,3486,4766,63,85,66,10240,0.55,-0.08,1.80,1.60,2806,3422,4719,117,161,130,84,98,0
2809,3422,4715,48,64,48,10240,0.55,-0.08,1.71,1.51,2806,3422,4719,122,169,130,84,98,0
2738,3328,4647,14,17,12,10240,0.55,-0.08,1.71,1.51,2804,3419,4716,122,169,130,84,98,0
2727,3307,4634,-22,-33,-26,10240,0.55,-0.08,1.71,1.51,2801,3415,4713,122,169,130,84,98,0
2724,3303,4632,-53,-76,-57,10240,0.55,-0.08,1.71,1.51,2799,3411,4711,122,169,130,84,98,0
2726,3305,4634,-71,-102,-75,10240,0.55,-0.08,1.71,1.51,2796,3408,4708,122,169,130,84,98,0
2731,3316,4643,-70,-102,-73,10240,0.55,-0.08,1.71,1.51,2794,3405,4706,122,169,130,84,98,0
2749,3342,4659,-63,-90,-65,10240,0.55,-0.08,1.71,1.51,2793,3403,4704,122,169,130,84,98,0
2753,3350,4661,-53,-76,-56,10240,0.55,-0.08,1.71,1.51,2791,3401,4703,122,169,130,84,98,0
2755,3352,4662,-45,-62,-47,10240,0.55,-0.08,1.71,1.51,2790,3399,4702,122,169,130,84,98,0
2757,3353,4665,-37,-51,-40,10240,0.55,-0.08,1.71,1.51,2789,3398,4700,122,169,130,84,98,0
2758,3356,4668,-33,-45,-37,10240,0.55,-0.08,1.71,1.51,2788,3396,4699,122,169,130,84,98,0
2775,3385,4689,-27,-35,-29,10240,0.55,-0.08,1.71,1.51,2788,3396,4699,122,169,130,84,98,0
2780,3406,4695,-20,-21,-20,10240,0.55,-0.08,1.71,1.51,2787,3396,4699,122,169,130,84,98,0
2792,3416,4707,-11,-5,-9,10240,0.55,-0.08,1.71,1.51,2788,3397,4699,122,169,130,84,98,0
2799,3416,4717,-1,9,2,10240,0.55,-0.08,1.71,1.51,2788,3398,4700,122,169,130,84,98,0
2822,3416,4727,10,16,11,10240,0.55,-0.08,1.71,1.51,2789,3398,4701,122,169,130,84,98,0
2830,3442,4746,22,24,23,10240,0.55,-0.08,1.71,1.51,2790,3400,4702,122,169,130,84,98,0
2838,3456,4755,32,33,34,10240,0.55,-0.08,1.71,1.51,2792,3402,4704,122,169,130,84,98,0
2843,3468,4761,42,44,44,10240,0.55,-0.08,1.71,1.51,2794,3404,4706,122,169,130,84,98,0
2851,3479,4768,47,58,52,10240,0.55,-0.08,1.71,1.51,2796,3406,4708,122,169,130,84,98,0
2866,3502,4776,54,71,58,10240,0.55,-0.08,1.71,1.51,2798,3409,4710,122,169,130,84,98,0
2873,3514,4792,61,82,65,10240,0.55,-0.08,1.71,1.51,2800,3413,4713,122,169,130,84,98,0
2868,3506,4783,65,89,68,10240,0.55,-0.08,1.71,1.51,2803,3416,4715,122,169,130,84,98,0
2836,3455,4746,59,80,60,10240,0.55,-0.08,1.71,1.51,2804,3417,4716,126,175,134,85,98,0
2790,3411,4698,39,55,39,10240,0.55,-0.08,1.80,1.58,2803,3417,4716,126,175,134,85,98,0
2738,3327,4648,5,8,3,10240,0.55,-0.08,1.80,1.58,2801,3414,4713,126,175,134,85,98,0
2734,3318,4642,-27,-37,-30,10240,0.55,-0.08,1.80,1.58,2799,3411,4711,126,175,134,85,98,0
2734,3320,4644,-51,-68,-54,10240,0.55,-0.08,1.80,1.58,2797,3408,4709,126,175,134,85,98,0
2740,3330,4651,-61,-85,-63,10240,0.55,-0.08,1.80,1.58,2795,3405,4707,126,175,134,85,98,0
2749,3344,4659,-56,-78,-59,10240,0.55,-0.08,1.80,1.58,2793,3403,4705,126,175,134,85,98,0
2763,3367,4675,-47,-64,-49,10240,0.55,-0.08,1.80,1.58,2792,3402,4704,126,175,134,85,98,0
2764,3369,4674,-38,-50,-40,10240,0.55,-0.08,1.80,1.58,2791,3401,4703,126,175,134,85,98,0
2764,3369,4675,-31,-39,-32,10240,0.55,-0.08,1.80,1.58,2791,3400,4702,126,175,134,85,98,0
2767,3374,4678,-26,-30,-27,10240,0.55,-0.08,1.80,1.58,2790,3399,4701,126,175,134,85,98,0
2774,3384,4686,-23,-25,-23,10240,0.55,-0.08,1.80,1.58,2789,3399,4701,126,175,134,85,98,0
2788,3416,4701,-16,-13,-16,10240,0.55,-0.08,1.80,1.58,2789,3399,4701,126,175,134,85,98,0
2797,3416,4712,-7,-1,-6,10240,0.55,-0.08,1.80,1.58,2789,3400,4701,126,175,134,85,98,0
2808,3416,4722,2,8,4,10240,0.55,-0.08,1.80,1.58,2790,3400,4702,126,175,134,85,98,0
2819,3421,4733,13,17,15,10240,0.55,-0.08,1.80,1.58,2791,3401,4703,126,175,134,85,98,0
2829,3443,4744,22,23,25,10240,0.55,-0.08,1.80,1.58,2792,3402,4704,126,175,134,85,98,0
2846,3474,4763,33,36,36,10240,0.55,-0.08,1.80,1.58,2794,3405,4706,126,175,134,85,98,0
2855,3487,4772,44,52,47,10240,0.55,-0.08,1.80,1.58,2796,3407,4709,126,175,134,85,98,0
2863,3500,4780,53,69,57,10240,0.55,-0.08,1.80,1.58,2798,3411,4711,126,175,134,85,98,0
2872,3514,4791,61,84,66,10240,0.55,-0.08,1.80,1.58,2801,3414,4714,126,175,134,85,98,0
2880,3526,4801,68,94,73,10240,0.55,-0.08,1.80,1.58,2803,3418,4717,126,175,134,85,98,0
2883,3533,4799,72,102,77,10240,0.55,-0.08,1.80,1.58,2806,3422,4719,126,175,134,85,98,0
2852,3485,4762,67,95,70,10240,0.55,-0.08,1.80,1.58,2808,3424,4721,127,178,135,85,98,0
2803,3419,4710,48,69,48,10240,0.55,-0.08,1.82,1.58,2807,3423,4720,127,178,135,85,98,0
2770,3380,4674,20,31,16,10240,0.55,-0.08,1.82,1.58,2806,3422,4719,127,178,135,85,98,0
2740,3346,4655,-15,-14,-19,10240,0.55,-0.08,1.82,1.58,2804,3419,4717,127,178,135,85,98,0
2740,3330,4647,-41,-51,-46,10240,0.55,-0.08,1.82,1.58,2802,3417,4714,127,178,135,85,98,0
2741,3332,4648,-55,-71,-59,10240,0.55,-0.08,1.82,1.58,2800,3414,4712,127,178,135,85,98,0
2746,3342,4655,-59,-77,-62,10240,0.55,-0.08,1.82,1.58,2798,3411,4710,127,178,135,85,98,0
2756,3354,4661,-53,-73,-58,10240,0.55,-0.08,1.82,1.58,2797,3409,4709,127,178,135,85,98,0
2763,3369,4672,-46,-61,-50,10240,0.55,-0.08,1.82,1.58,2796,3408,4707,127,178,135,85,98,0
2766,3373,4674,-38,-49,-42,10240,0.55,-0.08,1.82,1.58,2795,3407,4706,127,178,135,85,98,0
2767,3376,4676,-32,-39,-36,10240,0.55,-0.08,1.82,1.58,2794,3406,4705,127,178,135,85,98,0
2773,3385,4683,-27,-30,-29,10240,0.55,-0.08,1.82,1.58,2793,3405,4705,127,178,135,85,98,0
2780,3402,4687,-22,-21,-25,10240,0.55,-0.08,1.82,1.58,2792,3405,4704,127,178,135,85,98,0
2796,3416,4707,-14,-10,-16,10240,0.55,-0.08,1.82,1.58,2793,3405,4704,127,178,135,85,98,0
2806,3416,4717,-4,0,-5,10240,0.55,-0.08,1.82,1.58,2793,3406,4704,127,178,135,85,98,0
2817,3419,4728,6,7,5,10240,0.55,-0.08,1.82,1.58,2794,3406,4705,127,178,135,85,98,0
2828,3441,4739,18,17,18,10240,0.55,-0.08,1.82,1.58,2795,3407,4706,127,178,135,85,98,0
2837,3459,4751,27,26,28,10240,0.55,-0.08,1.82,1.58,2796,3409,4708,127,178,135,85,98,0
2854,3487,4769,38,43,39,10240,0.55,-0.08,1.82,1.58,2798,3412,4710,127,178,135,85,98,0
2863,3499,4777,48,60,50,10240,0.55,-0.08,1.82,1.58,2800,3415,4712,127,178,135,85,98,0
2871,3513,4785,57,76,59,10240,0.55,-0.08,1.82,1.58,2803,3418,4715,127,178,135,85,98,0
2880,3527,4797,65,89,68,10240,0.55,-0.08,1.82,1.58,2805,3422,4717,127,178,135,85,98,0
2887,3540,4805,71,99,75,10240,0.55,-0.08,1.82,1.58,2808,3425,4720,127,178,135,85,98,0
2867,3509,4776,69,99,72,10240,0.55,-0.08,1.82,1.58,2810,3428,4722,128,178,136,85,98,0
2822,3436,4723,55,77,55,10240,0.55,-0.08,1.80,1.58,2811,3429,4722,128,177,136,85,98,0
2782,3404,4683,29,44,25,10240,0.55,-0.08,1.80,1.58,2810,3428,4721,128,177,136,84,98,0
2758,3361,4660,-2,0,-10,10240,0.55,-0.08,1.80,1.58,2808,3425,4719,128,177,136,84,98,0
2747,3344,4652,-31,-40,-40,10240,0.55,-0.08,1.80,1.58,2806,3423,4717,128,177,136,84,98,0
2747,3345,4654,-48,-60,-55,10240,0.55,-0.08,1.80,1.58,2804,3420,4714,128,177,136,84,98,0
2753,3352,4658,-53,-71,-59,10240,0.55,-0.08,1.80,1.58,2802,3418,4713,128,177,136,84,98,0
2760,3363,4666,-51,-68,-56,10240,0.55,-0.08,1.80,1.58,2801,3416,4711,128,177,136,84,98,0
2768,3377,4676,-44,-58,-48,10240,0.55,-0.08,1.80,1.58,2800,3415,4710,128,177,136,84,98,0
2777,3386,4680,-36,-46,-40,10240,0.55,-0.08,1.80,1.58,2799,3414,4709,128,177,136,84,98,0
2780,3395,4684,-28,-34,-33,10240,0.55,-0.08,1.80,1.58,2798,3413,4708,128,177,136,84,98,0
2781,3403,4685,-22,-23,-27,10240,0.55,-0.08,1.80,1.58,2798,3413,4707,128,177,136,84,98,0
2782,3415,4689,-18,-13,-23,10240,0.55,-0.08,1.80,1.58,2797,3413,4707,128,177,136,84,98,0
2792,3416,4701,-13,-5,-17,10240,0.55,-0.08,1.80,1.58,2797,3413,4706,128,177,136,84,98,0
2814,3416,4722,-5,0,-7,10240,0.55,-0.08,1.80,1.58,2798,3413,4707,128,177,136,84,98,0
2826,3437,4735,6,7,4,10240,0.55,-0.08,1.80,1.58,2798,3414,4708,128,177,136,84,98,0
2836,3457,4747,18,17,18,10240,0.55,-0.08,1.80,1.58,2800,3415,4709,128,177,136,84,98,0
2846,3473,4758,31,31,31,10240,0.55,-0.08,1.80,1.58,2801,3417,4711,128,177,136,84,98,0
2856,3490,4769,40,47,42,10240,0.55,-0.08,1.80,1.58,2803,3420,4713,128,177,136,84,98,0
2874,3520,4789,50,66,53,10240,0.55,-0.08,1.80,1.58,2805,3423,4715,128,177,136,84,98,0
2883,3533,4799,60,82,64,10240,0.55,-0.08,1.80,1.58,2808,3427,4718,128,177,136,84,98,0
2890,3545,4805,69,96,73,10240,0.55,-0.08,1.80,1.58,2811,3431,4721,128,177,136,84,98,0
2900,3556,4815,77,109,82,10240,0.55,-0.08,1.80,1.58,2814,3435,4724,128,177,136,84,98,0
2908,3571,4826,82,118,88,10240,0.55,-0.08,1.80,1.58,2817,3439,4728,128,177,136,85,98,0
2925,3598,4847,90,130,97,10240,0.55,-0.08,1.80,1.58,2820,3445,4732,128,177,136,85,98,0
2910,3576,4822,92,133,97,10240,0.55,-0.08,1.80,1.58,2823,3449,4735,128,177,136,85,98,0
2869,3514,4774,81,118,84,10240,0.55,-0.08,1.80,1.58,2825,3451,4736,132,184,141,85,98,0
2823,3437,4723,58,82,57,10240,0.55,-0.08,1.79,1.57,2825,3451,4735,132,184,141,85,98,0
2789,3416,4692,23,35,17,10240,0.55,-0.08,1.79,1.57,2824,3450,4734,132,184,141,85,98,0
2780,3399,4687,-8,-8,-15,10240,0.55,-0.08,1.79,1.57,2822,3448,4732,132,184,141,85,98,0
2782,3400,4684,-29,-35,-36,10240,0.55,-0.08,1.79,1.57,2821,3446,4731,132,184,141,85,98,0
2781,3410,4686,-38,-41,-44,10240,0.55,-0.08,1.79,1.57,2820,3445,4729,132,184,141,85,98,0
2787,3416,4697,-38,-39,-41,10240,0.55,-0.08,1.79,1.57,2819,3444,4728,132,184,141,85,98,0
2794,3416,4704,-33,-34,-36,10240,0.55,-0.08,1.79,1.57,2818,3443,4727,132,184,141,85,98,0
2798,3416,4709,-28,-29,-28,10240,0.55,-0.08,1.79,1.57,2817,3442,4727,132,184,141,85,98,0
2799,3416,4708,-23,-26,-22,10240,0.55,-0.08,1.79,1.57,2816,3441,4726,132,184,141,85,98,0
2802,3416,4710,-18,-25,-18,10240,0.55,-0.08,1.79,1.57,2816,3441,4726,132,184,141,85,98,0
2807,3416,4715,-14,-25,-15,10240,0.55,-0.08,1.79,1.57,2816,3440,4725,132,184,141,85,98,0
2816,3418,4723,-10,-23,-11,10240,0.55,-0.08,1.79,1.57,2816,3439,4725,132,184,141,85,98,0
2836,3457,4746,0,-13,-2,10240,0.55,-0.08,1.79,1.57,2816,3440,4726,132,184,141,85,98,0
2845,3472,4757,9,0,9,10240,0.55,-0.08,1.79,1.57,2817,3441,4727,132,184,141,85,98,0
2856,3489,4768,21,18,22,10240,0.55,-0.08,1.79,1.57,2819,3442,4728,132,184,141,85,98,0
2864,3504,4776,32,38,34,10240,0.55,-0.08,1.79,1.57,2820,3444,4730,132,184,141,85,98,0
2873,3518,4786,40,52,42,10240,0.55,-0.08,1.79,1.57,2822,3447,4732,132,184,141,85,98,0
2889,3541,4803,49,67,52,10240,0.55,-0.08,1.79,1.57,2824,3450,4734,132,184,141,85,98,0
2895,3551,4809,57,80,60,10240,0.55,-0.08,1.79,1.57,2826,3453,4737,132,184,141,85,98,0
2902,3558,4815,64,90,67,10240,0.55,-0.08,1.79,1.57,2829,3457,4739,132,184,141,85,98,0
2909,3570,4825,71,99,75,10240,0.55,-0.08,1.79,1.57,2832,3461,4742,132,184,141,85,98,0
2918,3584,4836,75,106,80,10240,0.55,-0.08,1.79,1.57,2835,3465,4745,132,184,141,85,98,0
2932,3601,4846,81,115,86,10240,0.55,-0.08,1.79,1.57,2838,3469,4749,132,184,141,84,98,0
2917,3586,4829,82,118,87,10240,0.55,-0.08,1.79,1.57,2840,3473,4751,132,184,141,84,98,0
2879,3528,4783,72,104,74,10240,0.55,-0.08,1.79,1.57,2842,3475,4752,129,178,138,84,98,0
2837,3459,4739,50,70,48,10240,0.55,-0.08,1.76,1.56,2842,3474,4752,129,178,138,84,98,0
2796,3416,4710,16,23,13,10240,0.55,-0.08,1.76,1.56,2840,3472,4751,129,178,138,84,98,0
2794,3416,4703,-14,-18,-17,10240,0.55,-0.08,1.76,1.56,2838,3471,4749,129,178,138,84,98,0
2796,3416,4705,-33,-44,-35,10240,0.55,-0.08,1.76,1.56,2837,3469,4747,129,178,138,84,98,0
2803,3416,4713,-40,-53,-40,10240,0.55,-0.08,1.76,1.56,2836,3467,4746,129,178,138,84,98,0
2814,3416,4721,-34,-52,-36,10240,0.55,-0.08,1.76,1.56,2835,3465,4746,129,178,138,84,98,0
2822,3427,4727,-27,-47,-29,10240,0.55,-0.08,1.76,1.56,2835,3464,4745,129,178,138,84,98,0
2822,3425,4727,-19,-43,-23,10240,0.55,-0.08,1.76,1.56,2834,3463,4744,129,178,138,84,98,0
2820,3423,4726,-15,-40,-19,10240,0.55,-0.08,1.76,1.56,2834,3461,4744,129,178,138,84,98,0
2823,3430,4729,-12,-35,-16,10240,0.55,-0.08,1.76,1.56,2833,3460,4743,129,178,138,84,98,0
2830,3441,4737,-9,-31,-13,10240,0.55,-0.08,1.76,1.56,2833,3460,4743,129,178,138,84,98,0
2845,3471,4756,-4,-19,-6,10240,0.55,-0.08,1.76,1.56,2834,3460,4743,129,178,138,84,98,0
2855,3486,4766,4,-3,3,10240,0.55,-0.08,1.76,1.56,2834,3461,4744,129,178,138,84,98,0
2864,3501,4775,14,14,14,10240,0.55,-0.08,1.76,1.56,2835,3462,4745,129,178,138,84,98,0
2874,3516,4787,24,31,26,10240,0.55,-0.08,1.76,1.56,2837,3464,4747,129,178,138,84,98,0
2882,3528,4797,32,44,35,10240,0.55,-0.08,1.76,1.56,2838,3466,4748,129,178,138,84,98,0
2898,3554,4811,42,59,45,10240,0.55,-0.08,1.76,1.56,2840,3469,4750,129,178,138,84,98,0
2905,3563,4818,50,72,53,10240,0.55,-0.08,1.76,1.56,2842,3472,4753,129,178,138,84,98,0
2912,3574,4828,58,84,62,10240,0.55,-0.08,1.76,1.56,2845,3476,4755,129,178,138,84,98,0
2919,3587,4836,65,95,69,10240,0.55,-0.08,1.76,1.56,2847,3479,4758,129,178,138,84,98,0
2927,3598,4846,69,103,75,10240,0.55,-0.08,1.76,1.56,2850,3483,4761,129,178,138,84,98,0
2940,3605,4847,75,109,79,10240,0.55,-0.08,1.76,1.56,2853,3487,4764,129,178,138,84,98,0
2928,3598,4838,77,112,79,10240,0.55,-0.08,1.76,1.56,2855,3491,4766,129,178,138,84,98,0
2888,3540,4792,67,96,66,10240,0.55,-0.08,1.76,1.56,2857,3493,4767,126,174,133,84,98,0
2840,3464,4741,43,61,38,10240,0.55,-0.08,1.79,1.58,2856,3492,4766,126,174,133,84,98,0
2804,3416,4706,9,13,3,10240,0.55,-0.08,1.79,1.58,2854,3489,4764,126,174,133,84,98,0
2781,3409,4685,-26,-33,-33,10240,0.55,-0.08,1.79,1.58,2852,3487,4761,126,174,133,84,98,0
2782,3405,4685,-51,-64,-58,10240,0.55,-0.08,1.79,1.58,2849,3484,4759,126,174,133,84,98,0
2780,3411,4688,-63,-75,-69,10240,0.55,-0.08,1.79,1.58,2847,3481,4757,126,174,133,84,98,0
2784,3416,4691,-66,-72,-70,10240,0.55,-0.08,1.79,1.58,2845,3479,4754,126,174,133,84,98,0
2792,3416,4701,-61,-68,-64,10240,0.55,-0.08,1.79,1.58,2843,3477,4753,126,174,133,84,98,0
2797,3416,4706,-56,-63,-57,10240,0.55,-0.08,1.79,1.58,2842,3475,4751,126,174,133,84,98,0
2796,3416,4706,-50,-60,-51,10240,0.55,-0.08,1.79,1.58,2840,3473,4750,126,174,133,84,98,0
2797,3416,4707,-45,-58,-45,10240,0.55,-0.08,1.79,1.58,2839,3471,4748,126,174,133,84,98,0
2803,3416,4712,-41,-56,-41,10240,0.55,-0.08,1.79,1.58,2838,3469,4747,126,174,133,84,98,0
2821,3416,4718,-34,-54,-37,10240,0.55,-0.08,1.79,1.58,2837,3468,4746,126,174,133,84,98,0
2832,3445,4740,-24,-45,-27,10240,0.55,-0.08,1.79,1.58,2837,3467,4746,126,174,133,84,98,0
2841,3463,4751,-13,-32,-16,10240,0.55,-0.08,1.79,1.58,2837,3467,4746,126,174,133,84,98,0
2852,3481,4763,0,-16,-3,10240,0.55,-0.08,1.79,1.58,2837,3467,4746,126,174,133,84,98,0
2860,3494,4772,9,3,10,10240,0.55,-0.08,1.79,1.58,2838,3468,4747,126,174,133,84,98,0
2877,3508,4781,19,18,20,10240,0.55,-0.08,1.79,1.58,2840,3469,4748,126,174,133,84,98,0
2885,3533,4800,29,35,31,10240,0.55,-0.08,1.79,1.58,2841,3472,4750,126,174,133,84,98,0
2892,3545,4807,38,49,40,10240,0.55,-0.08,1.79,1.58,2843,3474,4752,126,174,133,84,98,0
2899,3554,4813,46,62,49,10240,0.55,-0.08,1.79,1.58,2845,3477,4754,126,174,133,84,98,0
2907,3565,4821,51,73,57,10240,0.55,-0.08,1.79,1.58,2847,3480,4756,126,174,133,84,98,0
2925,3594,4833,59,86,63,10240,0.55,-0.08,1.79,1.58,2849,3483,4759,126,174,133,84,98,0
2927,3599,4847,66,96,70,10240,0.55,-0.08,1.79,1.58,2852,3487,4762,126,174,133,84,98,0
2907,3569,4817,66,96,69,10240,0.55,-0.08,1.79,1.58,2854,3490,4764,126,174,135,84,98,0
2864,3503,4767,53,78,53,10240,0.55,-0.08,1.76,1.56,2854,3490,4764,128,174,135,84,98,0
2818,3428,4718,25,36,24,10240,0.55,-0.08,1.76,1.56,2853,3488,4762,128,174,135,84,98,0
2778,3393,4684,-11,-15,-16,10240,0.55,-0.08,1.76,1.56,2850,3485,4760,128,174,135,84,98,0
2771,3381,4677,-43,-60,-49,10240,0.55,-0.08,1.76,1.56,2848,3482,4757,128,174,135,84,98,0
2771,3378,4676,-64,-88,-69,10240,0.55,-0.08,1.76,1.56,2845,3478,4754,128,174,135,84,98,0
2774,3382,4680,-73,-96,-76,10240,0.55,-0.08,1.76,1.56,2843,3475,4752,128,174,135,84,98,0
2781,3394,4685,-70,-93,-73,10240,0.55,-0.08,1.76,1.56,2841,3472,4750,128,174,135,83,98,0
2781,3413,4687,-65,-82,-68,10240,0.55,-0.08,1.76,1.56,2839,3470,4747,128,174,135,83,98,0
2781,3412,4686,-60,-71,-64,10240,0.55,-0.08,1.76,1.56,2837,3468,4745,128,174,135,83,98,0
2781,3405,4685,-57,-63,-60,10240,0.55,-0.08,1.76,1.56,2835,3466,4743,128,174,135,83,98,0
2780,3407,4688,-55,-57,-57,10240,0.55,-0.08,1.76,1.56,2833,3464,4742,128,174,135,83,98,0
2781,3408,4686,-53,-57,-56,10240,0.55,-0.08,1.76,1.56,2831,3463,4740,128,174,135,83,98,0
2793,3416,4702,-48,-54,-50,10240,0.55,-0.08,1.76,1.56,2830,3461,4738,128,174,135,83,98,0
2801,3416,4711,-42,-50,-42,10240,0.55,-0.08,1.76,1.56,2829,3459,4738,128,174,135,83,98,0
2811,3416,4719,-33,-46,-33,10240,0.55,-0.08,1.76,1.56,2829,3458,4737,128,174,135,83,98,0
2822,3422,4729,-22,-41,-22,10240,0.55,-0.08,1.76,1.56,2828,3457,4737,128,174,135,83,98,0
2831,3444,4739,-12,-33,-12,10240,0.55,-0.08,1.76,1.56,2828,3456,4737,128,174,135,83,98,0
2843,3469,4755,-1,-19,-1,10240,0.55,-0.08,1.76,1.56,2829,3457,4737,128,174,135,83,98,0
2851,3480,4762,8,-3,9,10240,0.55,-0.08,1.76,1.56,2830,3458,4738,128,174,135,83,98,0
2858,3490,4768,16,13,18,10240,0.55,-0.08,1.76,1.56,2831,3459,4739,128,174,135,83,98,0
2864,3500,4775,23,26,26,10240,0.55,-0.08,1.76,1.56,2832,3460,4740,128,174,135,83,98,0
2872,3513,4783,29,36,32,10240,0.55,-0.08,1.76,1.56,2833,3462,4742,128,174,135,83,98,0
2845,3472,4750,27,33,28,10240,0.55,-0.08,1.76,1.56,2833,3462,4742,121,163,128,83,98,0
2801,3417,4701,13,14,11,10240,0.50,-0.09,1.74,1.58,2832,3461,4741,121,163,128,83,98,0
2769,3376,4669,-10,-16,-15,10240,0.50,-0.09,1.74,1.58,2830,3458,4738,121,163,128,83,98,0
2746,3341,4648,-40,-57,-47,10240,0.50,-0.09,1.74,1.58,2827,3454,4735,121,163,128,83,98,0
2739,3326,4641,-64,-90,-71,10240,0.50,-0.09,1.74,1.58,2824,3450,4732,121,163,128,83,98,0
2738,3326,4642,-77,-109,-83,10240,0.50,-0.09,1.74,1.58,2822,3445,4729,121,163,128,83,98,0
2743,3336,4648,-81,-115,-85,10240,0.50,-0.09,1.74,1.58,2819,3442,4726,121,163,128,83,98,0
2753,3351,4657,-77,-109,-80,10240,0.50,-0.09,1.74,1.58,2817,3439,4724,121,163,128,83,98,0
2758,3358,4661,-70,-97,-73,10240,0.50,-0.09,1.74,1.58,2815,3436,4722,121,163,128,83,98,0
2760,3362,4664,-62,-86,-65,10240,0.50,-0.09,1.74,1.58,2813,3434,4720,121,163,128,83,98,0
2761,3364,4665,-56,-76,-59,10240,0.50,-0.09,1.74,1.58,2811,3431,4718,121,163,128,83,98,0
2764,3370,4669,-51,-69,-54,10240,0.50,-0.09,1.74,1.58,2810,3429,4717,121,163,128,83,98,0
2773,3385,4679,-46,-60,-48,10240,0.50,-0.09,1.74,1.58,2808,3428,4715,121,163,128,83,98,0
2780,3404,4687,-39,-48,-41,10240,0.50,-0.09,1.74,1.58,2808,3427,4714,121,163,128,83,98,0
2796,3416,4694,-30,-34,-32,10240,0.50,-0.09,1.74,1.58,2807,3427,4714,121,163,128,83,98,0
2807,3416,4715,-18,-21,-20,10240,0.50,-0.09,1.74,1.58,2807,3426,4714,121,163,128,83,98,0
2817,3418,4724,-7,-13,-9,10240,0.50,-0.09,1.74,1.58,2807,3426,4714,121,163,128,83,98,0
2826,3436,4734,4,-4,2,10240,0.50,-0.09,1.74,1.58,2808,3426,4715,121,163,128,83,98,0
2836,3454,4744,13,4,14,10240,0.50,-0.09,1.74,1.58,2809,3427,4716,121,163,128,83,98,0
2849,3480,4753,23,20,23,10240,0.50,-0.09,1.74,1.58,2810,3429,4717,121,163,128,83,98,0
2857,3492,4768,32,37,33,10240,0.50,-0.09,1.74,1.58,2812,3431,4719,121,163,128,83,98,0
2865,3503,4777,40,52,42,10240,0.50,-0.09,1.74,1.58,2814,3434,4721,121,163,128,83,98,0
2874,3519,4787,48,66,51,10240,0.50,-0.09,1.74,1.58,2816,3436,4723,121,163,128,83,98,0
2880,3526,4793,54,75,59,10240,0.50,-0.09,1.74,1.58,2818,3439,4725,121,163,128,83,98,0
2827,3442,4728,45,60,47,10240,0.50,-0.09,1.74,1.58,2818,3439,4725,125,170,132,83,98,0
2782,3404,4681,23,34,23,10240,0.50,-0.09,1.77,1.59,2817,3438,4724,125,170,132,83,98,0
2751,3351,4652,-7,-7,-10,10240,0.50,-0.09,1.77,1.59,2815,3435,4721,125,170,132,81,98,0
2736,3325,4636,-41,-55,-48,10240,0.50,-0.09,1.77,1.59,2812,3432,4719,125,170,132,81,98,0
2730,3314,4630,-63,-84,-70,10240,0.50,-0.09,1.77,1.59,2809,3428,4716,125,170,132,81,98,0
2728,3310,4629,-74,-104,-80,10240,0.50,-0.09,1.77,1.59,2807,3424,4713,125,170,132,81,98,0
2733,3318,4635,-76,-109,-82,10240,0.50,-0.09,1.77,1.59,2804,3420,4710,125,170,132,81,98,0
2739,3330,4642,-73,-104,-77,10240,0.50,-0.09,1.77,1.59,2802,3417,4708,125,170,132,81,98,0
2741,3333,4644,-68,-96,-71,10240,0.50,-0.09,1.77,1.59,2800,3415,4706,125,170,132,81,98,0
2741,3334,4644,-62,-87,-65,10240,0.50,-0.09,1.77,1.59,2798,3412,4704,125,170,132,81,98,0
2744,3340,4648,-57,-79,-60,10240,0.50,-0.09,1.77,1.59,2796,3409,4702,125,170,132,81,98,0
2750,3350,4654,-53,-71,-55,10240,0.50,-0.09,1.77,1.59,2795,3407,4700,125,170,132,81,98,0
2758,3359,4661,-47,-62,-49,10240,0.50,-0.09,1.77,1.59,2793,3406,4699,125,170,132,81,98,0
2767,3377,4672,-39,-50,-41,10240,0.50,-0.09,1.77,1.59,2793,3405,4698,125,170,132,81,98,0
2779,3399,4687,-29,-34,-30,10240,0.50,-0.09,1.77,1.59,2792,3405,4698,125,170,132,81,98,0
2793,3416,4701,-18,-17,-18,10240,0.50,-0.09,1.77,1.59,2792,3405,4698,125,170,132,81,98,0
2801,3416,4708,-7,-3,-6,10240,0.50,-0.09,1.77,1.59,2792,3405,4698,125,170,132,81,98,0
2810,3416,4715,3,6,4,10240,0.50,-0.09,1.77,1.59,2793,3406,4699,125,170,132,81,98,0
2818,3418,4723,12,11,13,10240,0.50,-0.09,1.77,1.59,2794,3406,4699,125,170,132,81,98,0
2825,3434,4731,20,15,20,10240,0.50,-0.09,1.77,1.59,2795,3407,4700,125,170,132,81,98,0
2839,3461,4746,28,25,28,10240,0.50,-0.09,1.77,1.59,2796,3409,4702,125,170,132,81,98,0
2845,3474,4754,36,38,37,10240,0.50,-0.09,1.77,1.59,2798,3411,4704,125,170,132,81,98,0
2855,3488,4763,43,54,45,10240,0.50,-0.09,1.77,1.59,2800,3414,4706,125,170,132,81,98,0
2855,3488,4761,49,65,51,10240,0.50,-0.09,1.77,1.59,2802,3416,4708,125,170,132,81,98,0
2789,3450,4731,35,60,45,10240,0.50,-0.09,1.77,1.59,2801,3417,4708,125,171,133,81,98,0
2755,3358,4653,12,30,20,10240,0.50,-0.09,1.77,1.58,2800,3415,4706,125,171,133,81,98,0
2734,3321,4630,-17,-10,-12,10240,0.50,-0.09,1.77,1.58,2798,3412,4704,125,171,133,81,98,0
2725,3310,4624,-47,-53,-45,10240,0.50,-0.09,1.77,1.58,2795,3409,4701,125,171,133,81,98,0
2722,3309,4624,-62,-85,-69,10240,0.50,-0.09,1.77,1.58,2793,3405,4699,125,171,133,81,98,0
2730,3313,4628,-66,-93,-73,10240,0.50,-0.09,1.77,1.58,2791,3402,4696,125,171,133,81,98,0
2738,3328,4638,-63,-89,-69,10240,0.50,-0.09,1.77,1.58,2789,3400,4694,125,171,133,81,98,0
2743,3337,4644,-56,-79,-62,10240,0.50,-0.09,1.77,1.58,2787,3398,4693,125,171,133,81,98,0
2744,3340,4645,-49,-69,-54,10240,0.50,-0.09,1.77,1.58,2786,3396,4691,125,171,133,81,98,0
2746,3341,4646,-44,-60,-48,10240,0.50,-0.09,1.77,1.58,2785,3394,4690,125,171,133,81,98,0
2753,3356,4654,-38,-51,-43,10240,0.50,-0.09,1.77,1.58,2783,3393,4688,125,171,133,81,98,0
2758,3363,4659,-34,-43,-38,10240,0.50,-0.09,1.77,1.58,2783,3392,4687,125,171,133,79,98,0
2768,3379,4670,-27,-32,-30,10240,0.50,-0.09,1.77,1.58,2782,3391,4687,125,171,133,79,98,0
2778,3398,4681,-18,-18,-21,10240,0.50,-0.09,1.77,1.58,2782,3392,4687,125,171,133,79,98,0
2783,3415,4685,-10,-3,-13,10240,0.50,-0.09,1.77,1.58,2782,3392,4687,125,171,133,79,98,0
2797,3416,4702,0,10,-2,10240,0.50,-0.09,1.77,1.58,2783,3393,4687,125,171,133,79,98,0
2805,3416,4711,8,18,7,10240,0.50,-0.09,1.77,1.58,2783,3394,4688,125,171,133,79,98,0
2813,3416,4717,16,22,16,10240,0.50,-0.09,1.77,1.58,2784,3395,4689,125,171,133,79,98,0
2820,3429,4724,25,24,25,10240,0.50,-0.09,1.77,1.58,2785,3396,4690,125,171,133,79,98,0
2827,3443,4732,31,30,31,10240,0.50,-0.09,1.77,1.58,2787,3397,4691,125,171,133,79,98,0
2840,3468,4747,38,42,39,10240,0.50,-0.09,1.77,1.58,2789,3400,4693,125,171,133,79,98,0
2849,3482,4757,46,56,47,10240,0.50,-0.09,1.77,1.58,2791,3402,4695,125,171,133,79,98,0
2857,3494,4765,53,70,56,10240,0.50,-0.09,1.77,1.58,2793,3406,4698,125,171,133,79,98,0
2857,3496,4764,58,80,61,10240,0.50,-0.09,1.77,1.58,2795,3409,4700,125,171,133,79,98,0
2833,3458,4734,55,75,56,10240,0.50,-0.09,1.77,1.58,2796,3410,4701,125,171,133,83,98,0
2760,3368,4657,32,45,30,10240,0.50,-0.09,1.77,1.58,2795,3409,4700,125,171,133,83,98,0
2740,3335,4638,2,5,-1,10240,0.50,-0.09,1.77,1.58,2793,3406,4698,125,171,133,83,98,0
2734,3324,4631,-27,-36,-33,10240,0.50,-0.09,1.77,1.58,2791,3404,4695,125,171,133,83,98,0
2733,3325,4633,-50,-67,-56,10240,0.50,-0.09,1.77,1.58,2789,3401,4693,125,171,133,83,98,0
2742,3329,4637,-53,-74,-59,10240,0.50,-0.09,1.77,1.58,2788,3399,4691,125,171,133,83,98,0
2751,3355,4653,-48,-67,-53,10240,0.50,-0.09,1.77,1.58,2787,3397,4690,125,171,133,83,98,0
2755,3361,4657,-42,-55,-45,10240,0.50,-0.09,1.77,1.58,2785,3396,4689,125,171,133,83,98,0
2755,3362,4658,-35,-45,-38,10240,0.50,-0.09,1.77,1.58,2784,3395,4688,125,171,133,83,98,0
2755,3361,4658,-30,-35,-32,10240,0.50,-0.09,1.77,1.58,2783,3394,4687,125,171,133,83,98,0
2761,3370,4658,-27,-31,-29,10240,0.50,-0.09,1.77,1.58,2783,3393,4686,125,171,133,83,98,0
2769,3383,4672,-23,-24,-25,10240,0.50,-0.09,1.77,1.58,2782,3392,4686,125,171,133,83,98,0
2779,3403,4682,-16,-13,-18,10240,0.50,-0.09,1.77,1.58,2782,3393,4685,125,171,133,83,98,0
2782,3416,4688,-9,0,-10,10240,0.50,-0.09,1.77,1.58,2782,3394,4686,125,171,133,83,98,0
2793,3416,4698,-1,11,0,10240,0.50,-0.09,1.77,1.58,2783,3394,4686,125,171,133,83,98,0
2810,3416,4708,8,18,8,10240,0.50,-0.09,1.77,1.58,2783,3395,4687,125,171,133,83,98,0
2818,3428,4724,17,24,17,10240,0.50,-0.09,1.77,1.58,2785,3396,4688,125,171,133,83,98,0
2826,3447,4733,27,31,28,10240,0.50,-0.09,1.77,1.58,2786,3398,4689,125,171,133,83,98,0
2835,3460,4742,36,40,38,10240,0.50,-0.09,1.77,1.58,2788,3400,4691,125,171,133,83,98,0
2841,3472,4751,43,52,47,10240,0.50,-0.09,1.77,1.58,2789,3402,4693,125,171,133,83,98,0
2859,3498,4768,51,67,56,10240,0.50,-0.09,1.77,1.58,2792,3406,4696,125,171,133,83,98,0
2867,3511,4778,59,81,65,10240,0.50,-0.09,1.77,1.58,2794,3409,4698,125,171,133,83,98,0
2876,3526,4787,67,94,74,10240,0.50,-0.09,1.77,1.58,2797,3413,4701,125,171,133,83,98,0
2883,3536,4794,75,106,82,10240,0.50,-0.09,1.77,1.58,2800,3417,4704,125,171,133,83,98,0
2877,3530,4784,77,110,83,10240,0.50,-0.09,1.77,1.58,2802,3421,4707,125,171,133,83,98,0
2804,3420,4702,59,85,62,10240,0.50,-0.09,1.77,1.58,2802,3421,4707,126,175,135,83,98,0
2778,3402,4676,34,52,33,10240,0.50,-0.09,1.78,1.57,2802,3420,4706,126,175,135,83,98,0
2761,3371,4662,3,10,0,10240,0.50,-0.09,1.78,1.57,2800,3418,4704,126,175,135,83,98,0
2758,3367,4661,-25,-29,-29,10240,0.50,-0.09,1.78,1.57,2799,3417,4703,126,175,135,83,98,0
2760,3370,4662,-35,-40,-38,10240,0.50,-0.09,1.78,1.57,2798,3415,4702,126,175,135,83,98,0
2778,3398,4681,-34,-39,-36,10240,0.50,-0.09,1.78,1.57,2797,3415,4701,126,175,135,83,98,0
2781,3415,4687,-28,-28,-29,10240,0.50,-0.09,1.78,1.57,2796,3415,4701,126,175,135,83,98,0
2782,3416,4685,-21,-15,-22,10240,0.50,-0.09,1.78,1.57,2796,3415,4700,126,175,135,83,98,0
2782,3416,4685,-15,-3,-15,10240,0.50,-0.09,1.78,1.57,2795,3415,4699,126,175,135,83,98,0
2782,3416,4684,-13,0,-14,10240,0.50,-0.09,1.78,1.57,2795,3415,4699,126,175,135,83,98,0
2792,3416,4697,-10,1,-11,10240,0.50,-0.09,1.78,1.57,2795,3415,4699,126,175,135,83,98,0
2799,3416,4704,-6,1,-6,10240,0.50,-0.09,1.78,1.57,2795,3415,4699,126,175,135,83,98,0
2810,3416,4715,0,1,0,10240,0.50,-0.09,1.78,1.57,2796,3415,4700,126,175,135,83,98,0
2821,3433,4726,10,5,11,10240,0.50,-0.09,1.78,1.57,2796,3415,4700,126,175,135,83,98,0
2831,3454,4737,19,14,20,10240,0.50,-0.09,1.78,1.57,2798,3417,4702,126,175,135,83,98,0
2849,3485,4759,30,30,32,10240,0.50,-0.09,1.78,1.57,2799,3419,4704,126,175,135,83,98,0
2858,3498,4767,41,49,44,10240,0.50,-0.09,1.78,1.57,2801,3422,4706,126,175,135,83,98,0
2866,3512,4776,50,66,54,10240,0.50,-0.09,1.78,1.57,2803,3425,4708,126,175,135,83,98,0
2874,3524,4783,59,81,64,10240,0.50,-0.09,1.78,1.57,2806,3428,4711,126,175,135,83,98,0
2881,3534,4793,65,90,70,10240,0.50,-0.09,1.78,1.57,2808,3431,4713,126,175,135,83,98,0
2897,3558,4809,72,102,78,10240,0.50,-0.09,1.78,1.57,2811,3436,4716,126,175,135,83,98,0
2905,3568,4816,79,112,85,10240,0.50,-0.09,1.78,1.57,2814,3440,4720,126,175,135,83,98,0
2913,3582,4827,86,122,93,10240,0.50,-0.09,1.78,1.57,2818,3445,4723,126,175,135,83,98,0
2918,3589,4830,92,131,99,10240,0.50,-0.09,1.78,1.57,2821,3450,4727,126,175,135,83,98,0
2861,3505,4806,80,114,94,10240,0.50,-0.09,1.78,1.57,2822,3451,4730,126,174,136,83,98,0
2822,3437,4720,57,79,68,10240,0.50,-0.09,1.75,1.55,2822,3451,4729,126,174,136,83,98,0
2794,3416,4694,27,36,34,10240,0.50,-0.09,1.75,1.55,2821,3450,4728,126,174,136,83,98,0
2783,3416,4683,-6,-6,-2,10240,0.50,-0.09,1.75,1.55,2820,3449,4727,126,174,136,83,98,0
2782,3416,4684,-25,-28,-32,10240,0.50,-0.09,1.75,1.55,2819,3448,4725,126,174,136,83,98,0
2790,3416,4695,-32,-32,-37,10240,0.50,-0.09,1.75,1.55,2818,3447,4724,126,174,136,83,98,0
2797,3416,4703,-30,-31,-33,10240,0.50,-0.09,1.75,1.55,2817,3446,4723,126,174,136,83,98,0
2805,3416,4709,-24,-30,-26,10240,0.50,-0.09,1.75,1.55,2817,3445,4723,126,174,136,83,98,0
2807,3416,4711,-17,-29,-18,10240,0.50,-0.09,1.75,1.55,2816,3444,4723,126,174,136,83,98,0
2806,3416,4710,-12,-28,-14,10240,0.50,-0.09,1.75,1.55,2816,3443,4722,126,174,136,83,98,0
2808,3416,4713,-9,-27,-11,10240,0.50,-0.09,1.75,1.55,2816,3442,4722,126,174,136,83,98,0
2815,3417,4718,-7,-26,-9,10240,0.50,-0.09,1.75,1.55,2816,3441,4722,126,174,136,83,98,0
2822,3435,4728,-3,-20,-4,10240,0.50,-0.09,1.75,1.55,2816,3441,4722,126,174,136,83,98,0
2831,3451,4737,2,-11,2,10240,0.50,-0.09,1.75,1.55,2817,3441,4722,126,174,136,83,98,0
2839,3467,4747,10,1,10,10240,0.50,-0.09,1.75,1.55,2817,3442,4723,126,174,136,83,98,0
2858,3495,4767,20,20,21,10240,0.50,-0.09,1.75,1.55,2819,3444,4725,126,174,136,83,98,0
2865,3507,4775,30,36,32,10240,0.50,-0.09,1.75,1.55,2820,3446,4726,126,174,136,83,98,0
2872,3519,4782,39,52,42,10240,0.50,-0.09,1.75,1.55,2822,3448,4728,126,174,136,83,98,0
2879,3529,4791,47,65,51,10240,0.50,-0.09,1.75,1.55,2824,3451,4730,126,174,136,83,98,0
2886,3541,4798,52,74,57,10240,0.50,-0.09,1.75,1.55,2826,3454,4733,126,174,136,83,98,0
2901,3561,4811,59,85,64,10240,0.50,-0.09,1.75,1.55,2828,3457,4735,126,174,136,83,98,0
2905,3567,4816,65,93,70,10240,0.50,-0.09,1.75,1.55,2831,3461,4738,126,174,136,83,98,0
2892,3552,4800,66,96,69,10240,0.50,-0.09,1.75,1.55,2833,3464,4740,126,174,128,83,98,0
2857,3498,4760,57,82,58,10240,0.50,-0.09,1.86,1.65,2834,3465,4741,119,162,128,83,98,0
2818,3432,4718,35,48,33,10240,0.50,-0.09,1.86,1.65,2833,3464,4740,119,162,128,83,98,0
2782,3416,4683,4,10,0,10240,0.50,-0.09,1.86,1.65,2832,3463,4738,119,162,128,83,98,0
2782,3412,4685,-22,-23,-27,10240,0.50,-0.09,1.86,1.65,2830,3461,4736,119,162,128,83,98,0
2782,3415,4686,-39,-43,-44,10240,0.50,-0.09,1.86,1.65,2828,3459,4735,119,162,128,83,98,0
2790,3416,4695,-45,-45,-48,10240,0.50,-0.09,1.86,1.65,2827,3458,4733,119,162,128,83,98,0
2797,3416,4705,-40,-44,-41,10240,0.50,-0.09,1.86,1.65,2826,3457,4732,119,162,128,83,98,0
2807,3416,4712,-32,-41,-33,10240,0.50,-0.09,1.86,1.65,2825,3455,4732,119,162,128,83,98,0
2807,3416,4712,-25,-40,-26,10240,0.50,-0.09,1.86,1.65,2825,3454,4731,119,162,128,83,98,0
2806,3416,4712,-20,-38,-21,10240,0.50,-0.09,1.86,1.65,2824,3453,4730,119,162,128,83,98,0
2809,3416,4713,-17,-37,-18,10240,0.50,-0.09,1.86,1.65,2824,3451,4730,119,162,128,83,98,0
2815,3417,4720,-14,-35,-15,10240,0.50,-0.09,1.86,1.65,2823,3450,4729,119,162,128,83,98,0
2833,3454,4740,-8,-25,-8,10240,0.50,-0.09,1.86,1.65,2824,3450,4730,119,162,128,83,98,0
2842,3469,4751,1,-11,1,10240,0.50,-0.09,1.86,1.65,2824,3451,4730,119,162,128,83,98,0
2851,3484,4761,11,5,12,10240,0.50,-0.09,1.86,1.65,2825,3452,4732,119,162,128,83,98,0
2860,3498,4770,21,24,24,10240,0.50,-0.09,1.86,1.65,2826,3454,4733,119,162,128,83,98,0
2869,3512,4779,29,37,33,10240,0.50,-0.09,1.86,1.65,2828,3456,4734,119,162,128,83,98,0
2883,3535,4796,38,52,42,10240,0.50,-0.09,1.86,1.65,2830,3458,4736,119,162,128,83,98,0
2890,3547,4804,46,65,51,10240,0.50,-0.09,1.86,1.65,2832,3461,4739,119,162,128,83,98,0
2898,3557,4810,54,78,59,10240,0.50,-0.09,1.86,1.65,2834,3464,4741,119,162,128,83,98,0
2904,3566,4816,60,88,66,10240,0.50,-0.09,1.86,1.65,2836,3468,4744,119,162,128,83,98,0
2902,3563,4811,63,92,67,10240,0.50,-0.09,1.86,1.65,2838,3471,4746,119,162,128,83,98,0
2829,3449,4730,46,65,47,10240,0.50,-0.09,1.86,1.65,2838,3470,4745,116,156,125,83,98,0
2789,3416,4690,19,29,17,10240,0.50,-0.09,1.71,1.55,2836,3468,4743,116,156,125,83,98,0
2771,3386,4675,-13,-15,-17,10240,0.50,-0.09,1.71,1.55,2834,3466,4741,116,156,125,83,98,0
2760,3368,4665,-47,-61,-52,10240,0.50,-0.09,1.71,1.55,2832,3462,4739,116,156,125,83,98,0
2759,3365,4664,-63,-80,-66,10240,0.50,-0.09,1.71,1.55,2829,3459,4736,116,156,125,83,98,0
2769,3381,4677,-65,-86,-67,10240,0.50,-0.09,1.71,1.55,2827,3457,4734,116,156,125,83,98,0
2778,3399,4687,-62,-80,-62,10240,0.50,-0.09,1.71,1.55,2826,3455,4733,116,156,125,83,98,0
2779,3414,4690,-55,-66,-54,10240,0.50,-0.09,1.71,1.55,2824,3453,4731,116,156,125,83,98,0
2781,3416,4686,-48,-51,-47,10240,0.50,-0.09,1.71,1.55,2823,3452,4730,116,156,125,83,98,0
2780,3416,4686,-44,-41,-43,10240,0.50,-0.09,1.71,1.55,2821,3451,4728,116,156,125,83,98,0
2782,3416,4689,-41,-36,-41,10240,0.50,-0.09,1.71,1.55,2820,3450,4727,116,156,125,83,98,0
2789,3416,4697,-37,-34,-38,10240,0.50,-0.09,1.71,1.55,2819,3449,4726,116,156,125,83,98,0
2796,3416,4707,-32,-33,-31,10240,0.50,-0.09,1.71,1.55,2818,3447,4725,116,156,125,83,98,0
2807,3416,4716,-25,-32,-23,10240,0.50,-0.09,1.71,1.55,2818,3446,4725,116,156,125,83,98,0
2828,3446,4725,-13,-23,-14,10240,0.50,-0.09,1.71,1.55,2818,3446,4725,116,156,125,83,98,0
2837,3463,4747,-1,-11,-1,10240,0.50,-0.09,1.71,1.55,2819,3447,4726,116,156,125,83,98,0
2844,3475,4756,10,3,10,10240,0.50,-0.09,1.71,1.55,2820,3448,4727,116,156,125,83,98,0
2854,3489,4764,21,20,21,10240,0.50,-0.09,1.71,1.55,2821,3449,4728,116,156,125,83,98,0
2859,3498,4771,28,32,32,10240,0.50,-0.09,1.71,1.55,2822,3451,4729,116,156,125,83,98,0
2875,3523,4777,36,46,38,10240,0.50,-0.09,1.71,1.55,2824,3453,4731,116,156,125,83,98,0
2881,3534,4796,44,58,46,10240,0.50,-0.09,1.71,1.55,2826,3456,4733,116,156,125,83,98,0
2882,3535,4792,49,67,52,10240,0.50,-0.09,1.71,1.55,2828,3459,4735,116,156,125,83,98,0
2857,3499,4762,47,65,48,10240,0.50,-0.09,1.71,1.55,2828,3460,4736,116,155,124,83,98,0
2812,3428,4713,30,40,31,10240,0.50,-0.09,1.71,1.57,2828,3459,4735,116,155,124,83,98,0
2750,3352,4652,-2,-4,-4,10240,0.50,-0.09,1.71,1.57,2825,3455,4732,116,155,124,83,98,0
2740,3335,4644,-36,-52,-40,10240,0.50,-0.09,1.71,1.57,2823,3451,4729,116,155,124,83,98,0
2737,3329,4641,-64,-92,-68,10240,0.50,-0.09,1.71,1.57,2820,3447,4727,116,155,124,83,98,0
2738,3331,4642,-80,-112,-83,10240,0.50,-0.09,1.71,1.57,2817,3443,4724,116,155,124,83,98,0
2741,3339,4647,-79,-111,-81,10240,0.50,-0.09,1.71,1.57,2814,3440,4721,116,155,124,83,98,0
2756,3361,4661,-72,-101,-75,10240,0.50,-0.09,1.71,1.57,2812,3437,4719,116,155,124,83,98,0
2759,3366,4664,-65,-89,-66,10240,0.50,-0.09,1.71,1.57,2811,3435,4717,116,155,124,83,98,0
2760,3368,4665,-57,-77,-59,10240,0.50,-0.09,1.71,1.57,2809,3433,4716,116,155,124,83,98,0
2761,3371,4666,-50,-67,-52,10240,0.50,-0.09,1.71,1.57,2807,3431,4714,116,155,124,83,98,0
2765,3378,4671,-47,-61,-48,10240,0.50,-0.09,1.71,1.57,2806,3429,4712,116,155,124,83,98,0
2781,3413,4686,-40,-47,-41,10240,0.50,-0.09,1.71,1.57,2805,3428,4712,116,155,124,83,98,0
2787,3416,4694,-32,-34,-33,10240,0.50,-0.09,1.71,1.57,2805,3428,4711,116,155,124,83,98,0
2798,3416,4705,-22,-22,-22,10240,0.50,-0.09,1.71,1.57,2804,3428,4711,116,155,124,83,98,0
2809,3416,4716,-10,-12,-11,10240,0.50,-0.09,1.71,1.57,2804,3427,4711,116,155,124,83,98,0
2821,3430,4727,0,-8,0,10240,0.50,-0.09,1.71,1.57,2805,3427,4712,116,155,124,83,98,0
2839,3468,4747,12,4,12,10240,0.50,-0.09,1.71,1.57,2806,3429,4713,116,155,124,83,98,0
2847,3480,4755,23,20,23,10240,0.50,-0.09,1.71,1.57,2808,3430,4714,116,155,124,83,98,0
2854,3492,4764,33,38,34,10240,0.50,-0.09,1.71,1.57,2809,3432,4716,116,155,124,83,98,0
2861,3503,4771,41,54,44,10240,0.50,-0.09,1.71,1.57,2811,3435,4718,116,155,124,83,98,0
2870,3518,4781,47,64,50,10240,0.50,-0.09,1.71,1.57,2813,3437,4720,116,155,124,83,98,0
2886,3543,4799,55,77,59,10240,0.50,-0.09,1.71,1.57,2815,3441,4722,116,155,124,83,98,0
2883,3537,4792,61,86,64,10240,0.50,-0.09,1.71,1.57,2817,3444,4725,116,155,124,83,98,0
2852,3491,4754,56,80,58,10240,0.50,-0.09,1.71,1.57,2819,3446,4726,122,166,129,83,98,0
2803,3421,4702,38,54,37,10240,0.50,-0.09,1.76,1.59,2818,3445,4725,122,166,129,83,98,0
2769,3389,4670,9,15,4,10240,0.50,-0.09,1.76,1.59,2816,3443,4723,122,166,129,83,98,0
2742,3340,4645,-25,-33,-30,10240,0.50,-0.09,1.76,1.59,2814,3440,4720,122,166,129,83,98,0
2742,3339,4645,-51,-68,-56,10240,0.50,-0.09,1.76,1.59,2812,3436,4718,122,166,129,83,98,0
2743,3343,4647,-63,-85,-67,10240,0.50,-0.09,1.76,1.59,2809,3433,4716,122,166,129,83,98,0
2750,3355,4653,-66,-90,-69,10240,0.50,-0.09,1.76,1.59,2807,3431,4713,122,166,129,83,98,0
2756,3365,4661,-60,-81,-63,10240,0.50,-0.09,1.76,1.59,2806,3428,4712,122,166,129,83,98,0
2766,3380,4669,-52,-69,-55,10240,0.50,-0.09,1.76,1.59,2804,3427,4710,122,166,129,83,98,0
2766,3380,4669,-45,-57,-48,10240,0.50,-0.09,1.76,1.59,2803,3425,4709,122,166,129,83,98,0
2768,3383,4671,-39,-49,-42,10240,0.50,-0.09,1.76,1.59,2802,3424,4708,122,166,129,83,98,0
2773,3393,4677,-34,-40,-37,10240,0.50,-0.09,1.76,1.59,2801,3423,4707,122,166,129,83,98,0
2782,3410,4682,-29,-32,-32,10240,0.50,-0.09,1.76,1.59,2800,3422,4706,122,166,129,83,98,0
2792,3416,4698,-22,-22,-24,10240,0.50,-0.09,1.76,1.59,2800,3422,4705,122,166,129,83,98,0
2803,3416,4709,-12,-13,-14,10240,0.50,-0.09,1.76,1.59,2800,3422,4706,122,166,129,83,98,0
2814,3420,4718,-2,-6,-4,10240,0.50,-0.09,1.76,1.59,2801,3422,4706,122,166,129,83,98,0
2823,3442,4728,7,1,7,10240,0.50,-0.09,1.76,1.59,2801,3423,4707,122,166,129,83,98,0
2832,3457,4737,17,11,16,10240,0.50,-0.09,1.76,1.59,2802,3424,4708,122,166,129,83,98,0
2847,3482,4754,27,26,26,10240,0.50,-0.09,1.76,1.59,2804,3426,4709,122,166,129,83,98,0
2855,3493,4762,36,43,36,10240,0.50,-0.09,1.76,1.59,2806,3428,4711,122,166,129,83,98,0
2861,3504,4768,44,57,45,10240,0.50,-0.09,1.76,1.59,2807,3430,4713,122,166,129,83,98,0
2870,3519,4778,51,70,53,10240,0.50,-0.09,1.76,1.59,2809,3433,4715,122,166,129,83,98,0
2878,3532,4787,57,80,59,10240,0.50,-0.09,1.76,1.59,2812,3437,4718,122,166,129,83,98,0
2855,3498,4756,55,78,56,10240,0.50,-0.09,1.76,1.59,2813,3439,4719,122,167,129,83,98,0
2814,3432,4709,42,58,40,10240,0.50,-0.09,1.78,1.59,2813,3438,4718,122,167,129,83,98,0
2780,3409,4675,19,30,13,10240,0.50,-0.09,1.78,1.59,2812,3437,4717,122,167,129,83,98,0
2758,3371,4657,-10,-9,-18,10240,0.50,-0.09,1.78,1.59,2810,3435,4715,122,167,129,83,98,0
2754,3360,4652,-34,-42,-42,10240,0.50,-0.09,1.78,1.59,2808,3433,4713,122,167,129,83,98,0
2755,3364,4657,-47,-57,-53,10240,0.50,-0.09,1.78,1.59,2807,3430,4711,122,167,129,83,98,0
2763,3376,4663,-50,-64,-54,10240,0.50,-0.09,1.78,1.59,2805,3429,4709,122,167,129,83,98,0
2775,3397,4676,-44,-55,-48,10240,0.50,-0.09,1.78,1.59,2804,3428,4708,122,167,129,83,98,0
2781,3413,4682,-36,-41,-39,10240,0.50,-0.09,1.78,1.59,2803,3427,4707,122,167,129,83,98,0
2782,3416,4683,-28,-27,-31,10240,0.50,-0.09,1.78,1.59,2803,3427,4707,122,167,129,83,98,0
2782,3416,4683,-23,-16,-26,10240,0.50,-0.09,1.78,1.59,2802,3426,4706,122,167,129,83,98,0
2784,3416,4682,-20,-11,-23,10240,0.50,-0.09,1.78,1.59,2801,3426,4705,122,167,129,83,98,0
2790,3416,4690,-17,-10,-21,10240,0.50,-0.09,1.78,1.59,2801,3426,4705,122,167,129,83,98,0
2799,3416,4700,-12,-9,-16,10240,0.50,-0.09,1.78,1.59,2801,3425,4704,122,167,129,83,98,0
2821,3438,4723,-2,-4,-6,10240,0.50,-0.09,1.78,1.59,2802,3426,4705,122,167,129,83,98,0
2832,3457,4734,8,5,6,10240,0.50,-0.09,1.78,1.59,2803,3427,4706,122,167,129,83,98,0
2841,3473,4744,20,19,19,10240,0.50,-0.09,1.78,1.59,2804,3428,4707,122,167,129,83,98,0
2850,3488,4753,32,36,31,10240,0.50,-0.09,1.78,1.59,2806,3430,4709,122,167,129,83,98,0
2858,3500,4761,40,50,39,10240,0.50,-0.09,1.78,1.59,2807,3433,4711,122,167,129,83,98,0
2874,3526,4779,49,65,49,10240,0.50,-0.09,1.78,1.59,2809,3436,4713,122,167,129,83,98,0
2882,3537,4787,57,78,58,10240,0.50,-0.09,1.78,1.59,2812,3439,4715,122,167,129,83,98,0
2889,3551,4795,65,90,66,10240,0.50,-0.09,1.78,1.59,2814,3443,4718,122,167,129,83,98,0
2897,3562,4804,72,102,74,10240,0.50,-0.09,1.78,1.59,2817,3447,4721,122,167,129,85,98,0
2907,3575,4813,78,111,80,10240,0.50,-0.09,1.78,1.59,2820,3451,4724,122,167,129,85,98,0
2885,3545,4783,76,109,76,10240,0.50,-0.09,1.78,1.59,2822,3454,4726,124,169,130,85,98,0
2841,3478,4734,62,88,59,10240,0.50,-0.09,1.78,1.60,2823,3455,4726,124,169,130,85,98,0
2798,3418,4691,36,50,30,10240,0.50,-0.09,1.78,1.60,2822,3454,4725,124,169,130,85,98,0
2778,3410,4672,3,9,-5,10240,0.50,-0.09,1.78,1.60,2821,3452,4723,124,169,130,85,98,0
2767,3387,4661,-25,-29,-34,10240,0.50,-0.09,1.78,1.60,2819,3450,4721,124,169,130,85,98,0
2763,3381,4660,-43,-52,-51,10240,0.50,-0.09,1.78,1.60,2817,3448,4719,124,169,130,85,98,0
2768,3387,4664,-49,-57,-55,10240,0.50,-0.09,1.78,1.60,2815,3446,4717,124,169,130,85,98,0
2777,3406,4674,-47,-57,-53,10240,0.50,-0.09,1.78,1.60,2814,3445,4716,124,169,130,85,98,0
2784,3416,4679,-41,-48,-47,10240,0.50,-0.09,1.78,1.60,2813,3444,4715,124,169,130,85,98,0
2784,3416,4679,-35,-38,-41,10240,0.50,-0.09,1.78,1.60,2812,3443,4713,124,169,130,85,98,0
2785,3416,4679,-30,-30,-36,10240,0.50,-0.09,1.78,1.60,2811,3442,4712,124,169,130,85,98,0
2784,3416,4680,-27,-26,-33,10240,0.50,-0.09,1.78,1.60,2810,3441,4711,124,169,130,85,98,0
2792,3416,4689,-24,-25,-29,10240,0.50,-0.09,1.78,1.60,2810,3440,4710,124,169,130,85,98,0
2800,3416,4697,-19,-24,-24,10240,0.50,-0.09,1.78,1.60,2809,3439,4710,124,169,130,85,98,0
2821,3438,4706,-10,-18,-17,10240,0.50,-0.09,1.78,1.60,2810,3439,4710,124,169,130,85,98,0
2830,3457,4728,0,-7,-5,10240,0.50,-0.09,1.78,1.60,2811,3440,4710,124,169,130,85,98,0
2839,3471,4737,12,5,6,10240,0.50,-0.09,1.78,1.60,2811,3441,4711,124,169,130,85,98,0
2847,3483,4747,23,21,18,10240,0.50,-0.09,1.78,1.60,2813,3442,4713,124,169,130,85,98,0
2854,3496,4753,30,35,29,10240,0.50,-0.09,1.78,1.60,2814,3444,4714,124,169,130,85,98,0
2868,3517,4760,38,48,36,10240,0.50,-0.09,1.78,1.60,2816,3446,4715,124,169,130,85,98,0
2874,3527,4775,45,60,44,10240,0.50,-0.09,1.78,1.60,2818,3449,4717,124,169,130,85,98,0
2879,3534,4780,51,70,50,10240,0.50,-0.09,1.78,1.60,2820,3452,4720,124,169,130,85,98,0
2886,3545,4787,57,80,57,10240,0.50,-0.09,1.78,1.60,2822,3455,4722,124,169,130,85,98,0
2892,3554,4793,61,86,63,10240,0.50,-0.09,1.78,1.60,2824,3458,4724,124,169,130,85,98,0
2869,3522,4790,58,82,64,10240,0.50,-0.09,1.78,1.60,2826,3461,4726,120,162,130,85,98,0
2826,3449,4714,43,59,46,10240,0.50,-0.09,1.78,1.60,2826,3460,4726,120,162,128,85,98,0
2786,3414,4671,18,25,17,10240,0.50,-0.09,1.73,1.57,2825,3459,4724,120,162,128,85,98,0
2759,3374,4651,-14,-19,-18,10240,0.50,-0.09,1.73,1.57,2822,3456,4722,120,162,128,85,98,0
2749,3357,4641,-43,-58,-53,10240,0.50,-0.09,1.73,1.57,2820,3452,4719,120,162,128,85,98,0
2744,3349,4638,-61,-80,-70,10240,0.50,-0.09,1.73,1.57,2817,3449,4716,120,162,128,85,98,0
2749,3355,4643,-68,-92,-74,10240,0.50,-0.09,1.73,1.57,2815,3446,4714,120,162,128,85,98,0
2755,3365,4650,-67,-91,-72,10240,0.50,-0.09,1.73,1.57,2813,3443,4712,120,162,128,85,98,0
2761,3377,4657,-61,-83,-66,10240,0.50,-0.09,1.73,1.57,2811,3441,4710,120,162,128,85,98,0
2764,3384,4659,-55,-72,-58,10240,0.50,-0.09,1.73,1.57,2810,3439,4708,120,162,128,85,98,0
2768,3390,4661,-48,-61,-52,10240,0.50,-0.09,1.73,1.57,2808,3437,4707,120,162,128,85,98,0
2773,3401,4666,-42,-50,-46,10240,0.50,-0.09,1.73,1.57,2807,3436,4705,120,162,128,85,98,0
2782,3414,4673,-36,-39,-41,10240,0.50,-0.09,1.73,1.57,2806,3436,4704,120,162,128,85,98,0
2786,3416,4678,-29,-30,-35,10240,0.50,-0.09,1.73,1.57,2806,3435,4703,120,162,128,85,98,0
2790,3416,4685,-23,-23,-28,10240,0.50,-0.09,1.73,1.57,2805,3434,4703,120,162,128,85,98,0
2813,3423,4708,-12,-17,-17,10240,0.50,-0.09,1.73,1.57,2805,3434,4703,120,162,128,85,98,0
2823,3444,4719,-2,-9,-5,10240,0.50,-0.09,1.73,1.57,2806,3434,4703,120,162,128,85,98,0
2834,3462,4731,9,2,7,10240,0.50,-0.09,1.73,1.57,2807,3435,4704,120,162,128,85,98,0
2841,3475,4739,21,16,20,10240,0.50,-0.09,1.73,1.57,2808,3436,4706,120,162,128,85,98,0
2848,3488,4746,29,31,28,10240,0.50,-0.09,1.73,1.57,2809,3438,4707,120,162,128,85,98,0
2865,3512,4763,38,46,38,10240,0.50,-0.09,1.73,1.57,2811,3441,4709,120,162,128,85,98,0
2872,3524,4771,46,60,46,10240,0.50,-0.09,1.73,1.57,2813,3443,4711,120,162,128,85,98,0
2880,3536,4781,54,72,55,10240,0.50,-0.09,1.73,1.57,2816,3447,4713,120,162,128,85,98,0
2888,3549,4788,61,85,63,10240,0.50,-0.09,1.73,1.57,2818,3450,4716,120,162,128,85,98,0
2889,3551,4788,65,91,67,10240,0.50,-0.09,1.73,1.57,2820,3453,4718,120,162,128,85,98,0
2825,3449,4712,51,70,51,10240,0.50,-0.09,1.73,1.57,2821,3453,4718,124,168,131,85,98,0
2785,3414,4670,27,38,22,10240,0.50,-0.09,1.75,1.58,2819,3452,4716,124,168,131,85,98,0
2759,3373,4649,-4,-5,-11,10240,0.50,-0.09,1.75,1.58,2817,3449,4714,124,168,131,85,98,0
2748,3355,4639,-38,-52,-47,10240,0.50,-0.09,1.75,1.58,2815,3446,4711,124,168,131,85,98,0
2743,3346,4634,-57,-75,-64,10240,0.50,-0.09,1.75,1.58,2813,3443,4709,124,168,131,85,98,0
2742,3346,4635,-65,-89,-70,10240,0.50,-0.09,1.75,1.58,2810,3440,4706,124,168,131,85,98,0
2750,3358,4642,-65,-90,-70,10240,0.50,-0.09,1.75,1.58,2808,3437,4704,124,168,131,85,98,0
2755,3365,4649,-61,-84,-65,10240,0.50,-0.09,1.75,1.58,2806,3434,4702,124,168,131,85,98,0
2759,3374,4653,-55,-75,-58,10240,0.50,-0.09,1.75,1.58,2805,3432,4701,124,168,131,85,98,0
2761,3378,4656,-49,-64,-51,10240,0.50,-0.09,1.75,1.58,2803,3431,4699,124,168,131,85,98,0
2769,3390,4662,-43,-54,-45,10240,0.50,-0.09,1.75,1.58,2802,3429,4698,124,168,131,85,98,0
2776,3406,4670,-36,-43,-38,10240,0.50,-0.09,1.75,1.58,2801,3428,4697,124,168,131,85,98,0
2785,3416,4679,-29,-31,-31,10240,0.50,-0.09,1.75,1.58,2801,3428,4697,124,168,131,85,98,0
2787,3416,4681,-21,-21,-24,10240,0.50,-0.09,1.75,1.58,2800,3428,4696,124,168,131,85,98,0
2798,3416,4694,-14,-14,-15,10240,0.50,-0.09,1.75,1.58,2800,3427,4696,124,168,131,85,98,0
2821,3441,4717,-2,-5,-3,10240,0.50,-0.09,1.75,1.58,2801,3428,4697,124,168,131,85,98,0
2831,3459,4728,8,5,8,10240,0.50,-0.09,1.75,1.58,2802,3429,4698,124,168,131,85,98,0
2839,3473,4737,20,18,21,10240,0.50,-0.09,1.75,1.58,2803,3430,4699,124,168,131,85,98,0
2847,3486,4745,31,35,33,10240,0.50,-0.09,1.75,1.58,2805,3432,4701,124,168,131,85,98,0
2854,3498,4752,38,47,40,10240,0.50,-0.09,1.75,1.58,2806,3434,4702,124,168,131,85,98,0
2870,3522,4770,46,61,49,10240,0.50,-0.09,1.75,1.58,2809,3437,4705,124,168,131,85,98,0
2878,3534,4778,54,74,57,10240,0.50,-0.09,1.75,1.58,2811,3440,4707,124,168,131,85,98,0
2887,3548,4789,62,86,66,10240,0.50,-0.09,1.75,1.58,2813,3444,4710,124,168,131,85,98,0
2897,3561,4798,70,99,75,10240,0.50,-0.09,1.75,1.58,2816,3448,4713,124,168,131,85,98,0
2898,3563,4795,75,105,78,10240,0.50,-0.09,1.75,1.58,2819,3452,4715,124,168,131,86,98,0
2832,3464,4719,61,85,62,10240,0.50,-0.09,1.75,1.58,2819,3452,4715,128,174,135,86,98,0
2791,3416,4675,36,50,32,10240,0.50,-0.09,1.76,1.59,2818,3451,4714,128,174,135,86,98,0
2769,3395,4659,4,8,-2,10240,0.50,-0.09,1.76,1.59,2817,3449,4712,128,174,135,86,98,0
2757,3373,4650,-30,-37,-37,10240,0.50,-0.09,1.76,1.59,2815,3447,4710,128,174,135,86,98,0
2755,3366,4648,-47,-60,-53,10240,0.50,-0.09,1.76,1.59,2813,3444,4708,128,174,135,86,98,0
2756,3370,4651,-54,-69,-57,10240,0.50,-0.09,1.76,1.59,2811,3441,4706,128,174,135,86,98,0
2764,3384,4658,-54,-69,-55,10240,0.50,-0.09,1.76,1.59,2809,3440,4705,128,174,135,86,98,0
2774,3399,4666,-48,-61,-49,10240,0.50,-0.09,1.76,1.59,2808,3438,4703,128,174,135,86,98,0
2777,3410,4667,-41,-48,-43,10240,0.50,-0.09,1.76,1.59,2807,3437,4702,128,174,135,86,98,0
2783,3416,4669,-33,-35,-37,10240,0.50,-0.09,1.76,1.59,2806,3437,4701,128,174,135,86,98,0
2785,3416,4677,-27,-26,-31,10240,0.50,-0.09,1.76,1.59,2806,3436,4700,128,174,135,86,98,0
2786,3416,4676,-23,-21,-28,10240,0.50,-0.09,1.76,1.59,2805,3435,4699,128,174,135,86,98,0
2792,3416,4684,-19,-19,-23,10240,0.50,-0.09,1.76,1.59,2805,3435,4699,128,174,135,86,98,0
2802,3416,4695,-13,-19,-16,10240,0.50,-0.09,1.76,1.59,2804,3434,4699,128,174,135,86,98,0
2825,3449,4719,-3,-10,-5,10240,0.50,-0.09,1.76,1.59,2805,3434,4700,128,174,135,86,98,0
2835,3467,4730,8,2,7,10240,0.50,-0.09,1.76,1.59,2806,3436,4701,128,174,135,86,98,0
2843,3481,4739,20,18,20,10240,0.50,-0.09,1.76,1.59,2807,3437,4702,128,174,135,86,98,0
2852,3495,4749,32,36,32,10240,0.50,-0.09,1.76,1.59,2809,3439,4703,128,174,135,86,98,0
2860,3508,4757,39,49,41,10240,0.50,-0.09,1.76,1.59,2811,3441,4705,128,174,135,86,98,0
2877,3532,4775,48,63,50,10240,0.50,-0.09,1.76,1.59,2813,3444,4707,128,174,135,86,98,0
2885,3545,4782,56,77,59,10240,0.50,-0.09,1.76,1.59,2815,3448,4710,128,174,135,86,98,0
2892,3556,4791,64,89,67,10240,0.50,-0.09,1.76,1.59,2818,3451,4713,128,174,135,86,98,0
2902,3569,4801,72,101,75,10240,0.50,-0.09,1.76,1.59,2821,3455,4716,128,174,135,86,98,0
2910,3585,4813,78,110,82,10240,0.50,-0.09,1.76,1.59,2823,3460,4719,128,174,135,86,98,0
2904,3576,4798,80,114,83,10240,0.50,-0.09,1.76,1.59,2826,3463,4721,128,174,135,86,98,0
2867,3520,4754,71,101,71,10240,0.50,-0.09,1.76,1.59,2828,3465,4723,129,177,136,86,98,0
2825,3450,4709,50,69,47,10240,0.50,-0.09,1.77,1.58,2827,3465,4722,129,177,136,86,98,0
2794,3416,4679,20,26,13,10240,0.50,-0.09,1.77,1.58,2826,3463,4721,129,177,136,86,98,0
2788,3416,4673,-8,-13,-17,10240,0.50,-0.09,1.77,1.58,2825,3462,4719,129,177,136,86,98,0
2788,3416,4672,-26,-38,-36,10240,0.50,-0.09,1.77,1.58,2824,3460,4718,129,177,136,86,98,0
2787,3416,4675,-35,-45,-43,10240,0.50,-0.09,1.77,1.58,2823,3459,4716,129,177,136,86,98,0
2792,3416,4683,-34,-43,-41,10240,0.50,-0.09,1.77,1.58,2822,3457,4715,129,177,136,86,98,0
2803,3416,4692,-30,-42,-35,10240,0.50,-0.09,1.77,1.58,2821,3456,4714,129,177,136,86,98,0
2807,3416,4697,-24,-40,-28,10240,0.50,-0.09,1.77,1.58,2820,3454,4714,129,177,136,86,98,0
2811,3418,4700,-17,-38,-21,10240,0.50,-0.09,1.77,1.58,2820,3453,4713,129,177,136,86,98,0
2814,3425,4703,-11,-35,-15,10240,0.50,-0.09,1.77,1.58,2820,3452,4713,129,177,136,86,98,0
2820,3439,4710,-7,-28,-10,10240,0.50,-0.09,1.77,1.58,2820,3452,4713,129,177,136,86,98,0
2828,3453,4719,-1,-18,-5,10240,0.50,-0.09,1.77,1.58,2820,3452,4713,129,177,136,86,98,0
2837,3470,4729,4,-5,2,10240,0.50,-0.09,1.77,1.58,2821,3453,4713,129,177,136,86,98,0
2856,3500,4750,14,12,13,10240,0.50,-0.09,1.77,1.58,2822,3454,4715,129,177,136,86,98,0
2866,3515,4761,25,30,25,10240,0.50,-0.09,1.77,1.58,2823,3456,4716,129,177,136,86,98,0
2876,3530,4771,36,48,37,10240,0.50,-0.09,1.77,1.58,2825,3459,4718,129,177,136,86,98,0
2884,3543,4780,46,64,48,10240,0.50,-0.09,1.77,1.58,2827,3461,4720,129,177,136,86,98,0
2902,3556,4789,55,75,56,10240,0.50,-0.09,1.77,1.58,2830,3465,4722,129,177,136,86,98,0
2908,3580,4806,64,89,65,10240,0.50,-0.09,1.77,1.58,2832,3468,4725,129,177,136,86,98,0
2915,3592,4815,71,101,73,10240,0.50,-0.09,1.77,1.58,2835,3473,4728,129,177,136,86,98,0
2924,3602,4823,78,111,81,10240,0.50,-0.09,1.77,1.58,2838,3477,4731,129,177,136,86,98,0
2931,3611,4829,83,121,88,10240,0.50,-0.09,1.77,1.58,2841,3481,4735,129,177,136,86,98,0
2949,3628,4840,90,129,93,10240,0.50,-0.09,1.77,1.58,2845,3486,4738,129,177,136,86,98,0
2946,3627,4833,94,133,95,10240,0.50,-0.09,1.77,1.58,2848,3491,4741,129,177,136,86,98,0
2920,3600,4811,90,128,88,10240,0.50,-0.09,1.77,1.58,2850,3495,4744,129,177,137,86,98,0
2877,3534,4761,74,105,69,10240,0.50,-0.09,1.75,1.57,2851,3496,4744,129,177,137,86,98,0
2839,3476,4722,45,65,38,10240,0.50,-0.09,1.75,1.57,2851,3495,4744,129,177,137,86,98,0
2812,3421,4697,11,13,4,10240,0.50,-0.09,1.75,1.57,2850,3493,4742,129,177,137,86,98,0
2813,3420,4698,-14,-30,-23,10240,0.50,-0.09,1.75,1.57,2848,3490,4740,129,177,137,86,98,0
2817,3430,4703,-28,-54,-36,10240,0.50,-0.09,1.75,1.57,2847,3488,4739,129,177,137,86,98,0
2824,3446,4713,-31,-60,-37,10240,0.50,-0.09,1.75,1.57,2847,3487,4738,129,177,137,86,98,0
2834,3462,4723,-25,-48,-29,10240,0.50,-0.09,1.75,1.57,2846,3486,4738,129,177,137,86,98,0
2838,3470,4728,-18,-34,-21,10240,0.50,-0.09,1.75,1.57,2846,3485,4738,129,177,137,86,98,0
2838,3470,4727,-12,-23,-15,10240,0.50,-0.09,1.75,1.57,2846,3485,4737,129,177,137,86,98,0
2837,3470,4727,-9,-17,-11,10240,0.50,-0.09,1.75,1.57,2845,3484,4737,129,177,137,86,98,0
2841,3477,4731,-7,-12,-9,10240,0.50,-0.09,1.75,1.57,2845,3484,4737,129,177,137,86,98,0
2846,3487,4736,-4,-8,-6,10240,0.50,-0.09,1.75,1.57,2845,3484,4737,129,177,137,86,98,0
2865,3514,4757,2,2,0,10240,0.50,-0.09,1.75,1.57,2846,3485,4737,129,177,137,86,98,0
2874,3527,4768,10,16,10,10240,0.50,-0.09,1.75,1.57,2847,3487,4738,129,177,137,86,98,0
2883,3542,4778,20,31,21,10240,0.50,-0.09,1.75,1.57,2848,3489,4740,129,177,137,86,98,0
2892,3555,4787,30,46,33,10240,0.50,-0.09,1.75,1.57,2850,3491,4741,129,177,137,86,98,0
2900,3568,4795,38,58,41,10240,0.50,-0.09,1.75,1.57,2851,3493,4743,129,177,137,86,98,0
2917,3594,4816,47,72,51,10240,0.50,-0.09,1.75,1.57,2853,3497,4745,129,177,137,86,98,0
2923,3602,4822,55,84,60,10240,0.50,-0.09,1.75,1.57,2856,3500,4748,129,177,137,86,98,0
2931,3612,4828,63,95,68,10240,0.50,-0.09,1.75,1.57,2858,3504,4751,129,177,137,86,98,0
2938,3615,4828,70,103,74,10240,0.50,-0.09,1.75,1.57,2861,3508,4753,129,177,137,86,98,0
2946,3624,4835,74,107,76,10240,0.50,-0.09,1.75,1.57,2864,3512,4756,129,177,137,86,98,0
2946,3625,4831,78,109,76,10240,0.50,-0.09,1.75,1.57,2866,3515,4758,129,177,137,86,98,0
2912,3588,4800,70,99,66,10240,0.50,-0.09,1.75,1.57,2868,3518,4760,124,175,131,87,98,0
2867,3519,4751,51,73,45,10240,0.50,-0.09,1.81,1.57,2868,3518,4760,124,175,131,87,98,0
2832,3462,4715,22,31,15,10240,0.50,-0.09,1.81,1.57,2867,3516,4758,124,175,131,87,98,0
2815,3425,4698,-10,-17,-17,10240,0.50,-0.09,1.81,1.57,2865,3513,4756,124,175,131,87,98,0
2807,3416,4694,-35,-58,-42,10240,0.50,-0.09,1.81,1.57,2863,3510,4754,124,175,131,87,98,0
2809,3416,4696,-48,-81,-54,10240,0.50,-0.09,1.81,1.57,2861,3506,4752,124,175,131,87,98,0
2817,3428,4705,-50,-87,-55,10240,0.50,-0.09,1.81,1.57,2860,3504,4751,124,175,131,87,98,0
2824,3443,4713,-46,-79,-49,10240,0.50,-0.09,1.81,1.57,2859,3502,4749,124,175,131,87,98,0
2827,3452,4717,-40,-68,-42,10240,0.50,-0.09,1.81,1.57,2858,3500,4748,124,175,131,87,98,0
2828,3452,4716,-34,-57,-36,10240,0.50,-0.09,1.81,1.57,2857,3499,4747,124,175,131,87,98,0
2829,3453,4717,-30,-49,-31,10240,0.50,-0.09,1.81,1.57,2856,3497,4746,124,175,131,87,98,0
2833,3461,4723,-27,-43,-28,10240,0.50,-0.09,1.81,1.57,2855,3496,4745,124,175,131,87,98,0
2837,3470,4727,-23,-37,-25,10240,0.50,-0.09,1.81,1.57,2854,3495,4745,124,175,131,87,98,0
2854,3497,4737,-16,-25,-19,10240,0.50,-0.09,1.81,1.57,2854,3495,4744,124,175,131,87,98,0
2864,3511,4757,-7,-10,-8,10240,0.50,-0.09,1.81,1.57,2855,3496,4745,124,175,131,87,98,0
2873,3525,4766,2,5,1,10240,0.50,-0.09,1.81,1.57,2855,3497,4746,124,175,131,87,98,0
2882,3538,4777,13,21,13,10240,0.50,-0.09,1.81,1.57,2856,3498,4747,124,175,131,87,98,0
2891,3551,4785,21,33,24,10240,0.50,-0.09,1.81,1.57,2857,3500,4748,124,175,131,87,98,0
2905,3574,4792,31,47,32,10240,0.50,-0.09,1.81,1.57,2859,3502,4749,124,175,131,87,98,0
2912,3586,4810,39,61,42,10240,0.50,-0.09,1.81,1.57,2861,3505,4751,124,175,131,87,98,0
2919,3595,4817,46,72,50,10240,0.50,-0.09,1.81,1.57,2863,3508,4754,124,175,131,87,98,0
2926,3607,4826,53,84,58,10240,0.50,-0.09,1.81,1.57,2865,3511,4756,124,175,131,87,98,0
2936,3613,4830,59,90,66,10240,0.50,-0.09,1.81,1.57,2867,3515,4758,124,175,131,87,98,0
2937,3616,4826,63,94,67,10240,0.50,-0.09,1.81,1.57,2869,3518,4761,124,175,131,87,98,0
2903,3573,4790,57,86,58,10240,0.50,-0.09,1.81,1.57,2871,3520,4762,121,176,129,87,98,0
2856,3501,4738,38,57,35,10240,0.50,-0.09,1.85,1.56,2870,3519,4761,121,176,129,87,98,0
2818,3436,4701,9,13,3,10240,0.50,-0.09,1.85,1.56,2868,3516,4759,121,176,129,87,98,0
2795,3416,4680,-25,-35,-32,10240,0.50,-0.09,1.85,1.56,2866,3513,4756,121,176,129,87,98,0
2788,3416,4673,-52,-72,-59,10240,0.50,-0.09,1.85,1.56,2863,3510,4754,121,176,129,87,98,0
2787,3416,4675,-67,-90,-72,10240,0.50,-0.09,1.85,1.56,2861,3507,4751,121,176,129,87,98,0
2789,3416,4679,-72,-92,-75,10240,0.50,-0.09,1.85,1.56,2858,3504,4748,121,176,129,87,98,0
2798,3416,4688,-69,-89,-71,10240,0.50,-0.09,1.85,1.56,2856,3501,4746,121,176,129,87,98,0
2804,3416,4693,-63,-86,-63,10240,0.50,-0.09,1.85,1.56,2855,3498,4745,121,176,129,87,98,0
2805,3416,4694,-56,-83,-57,10240,0.50,-0.09,1.85,1.56,2853,3495,4743,121,176,129,87,98,0
2806,3416,4695,-50,-80,-51,10240,0.50,-0.09,1.85,1.56,2851,3493,4741,121,176,129,87,98,0
2811,3417,4700,-45,-77,-46,10240,0.50,-0.09,1.85,1.56,2850,3490,4740,121,176,129,87,98,0
2818,3433,4708,-40,-71,-41,10240,0.50,-0.09,1.85,1.56,2849,3488,4739,121,176,129,87,98,0
2826,3449,4718,-34,-60,-34,10240,0.50,-0.09,1.85,1.56,2848,3487,4738,121,176,129,87,98,0
2845,3483,4740,-23,-42,-22,10240,0.50,-0.09,1.85,1.56,2848,3487,4738,121,176,129,87,98,0
2855,3498,4749,-12,-21,-9,10240,0.50,-0.09,1.85,1.56,2848,3487,4739,121,176,129,87,98,0
2866,3514,4761,0,-1,3,10240,0.50,-0.09,1.85,1.56,2849,3488,4739,121,176,129,87,98,0
2874,3527,4771,11,17,16,10240,0.50,-0.09,1.85,1.56,2850,3489,4741,121,176,129,87,98,0
2883,3541,4781,20,31,25,10240,0.50,-0.09,1.85,1.56,2851,3491,4742,121,176,129,87,98,0
2899,3563,4796,30,46,35,10240,0.50,-0.09,1.85,1.56,2852,3493,4744,121,176,129,87,98,0
2906,3575,4804,38,59,44,10240,0.50,-0.09,1.85,1.56,2854,3496,4746,121,176,129,87,98,0
2914,3588,4813,47,72,53,10240,0.50,-0.09,1.85,1.56,2856,3499,4748,121,176,129,87,98,0
2922,3600,4822,55,83,61,10240,0.50,-0.09,1.85,1.56,2858,3503,4750,121,176,129,87,98,0
2932,3612,4830,61,92,68,10240,0.50,-0.09,1.85,1.56,2861,3506,4753,121,176,129,87,98,0
2939,3616,4830,67,99,72,10240,0.50,-0.09,1.85,1.56,2864,3510,4756,121,176,129,87,98,0
2913,3589,4806,64,96,68,10240,0.50,-0.09,1.85,1.56,2865,3513,4757,126,180,133,87,98,0
2867,3519,4753,49,73,49,10240,0.50,-0.09,1.83,1.57,2865,3513,4757,126,180,133,87,98,0
2828,3454,4712,22,32,18,10240,0.50,-0.09,1.83,1.57,2864,3511,4756,126,180,133,87,98,0
2804,3416,4690,-11,-16,-15,10240,0.50,-0.09,1.83,1.57,2862,3508,4753,126,180,133,87,98,0
2792,3416,4682,-40,-58,-45,10240,0.50,-0.09,1.83,1.57,2860,3505,4751,126,180,133,87,98,0
2795,3416,4685,-56,-81,-60,10240,0.50,-0.09,1.83,1.57,2857,3502,4749,126,180,133,87,98,0
2800,3416,4691,-61,-87,-63,10240,0.50,-0.09,1.83,1.57,2856,3499,4747,126,180,133,87,98,0
2809,3416,4698,-57,-84,-59,10240,0.50,-0.09,1.83,1.57,2854,3496,4745,126,180,133,87,98,0
2817,3426,4705,-49,-79,-51,10240,0.50,-0.09,1.83,1.57,2853,3494,4744,126,180,133,87,98,0
2818,3433,4708,-42,-72,-44,10240,0.50,-0.09,1.83,1.57,2852,3492,4743,126,180,133,87,98,0
2818,3435,4706,-36,-65,-39,10240,0.50,-0.09,1.83,1.57,2850,3490,4742,126,180,133,87,98,0
2821,3441,4710,-32,-57,-35,10240,0.50,-0.09,1.83,1.57,2850,3488,4740,126,180,133,87,98,0
2827,3452,4717,-29,-49,-31,10240,0.50,-0.09,1.83,1.57,2849,3487,4740,126,180,133,87,98,0
2843,3480,4736,-22,-36,-23,10240,0.50,-0.09,1.83,1.57,2849,3487,4740,126,180,133,87,98,0
2851,3494,4746,-13,-20,-12,10240,0.50,-0.09,1.83,1.57,2849,3487,4740,126,180,133,87,98,0
2860,3507,4754,-3,-3,-1,10240,0.50,-0.09,1.83,1.57,2849,3487,4740,126,180,133,87,98,0
2870,3521,4765,6,13,10,10240,0.50,-0.09,1.83,1.57,2850,3489,4741,126,180,133,87,98,0
2879,3535,4775,15,26,19,10240,0.50,-0.09,1.83,1.57,2851,3490,4742,126,180,133,87,98,0
2893,3556,4790,25,40,29,10240,0.50,-0.09,1.83,1.57,2852,3492,4744,126,180,133,87,98,0
2900,3567,4797,33,53,38,10240,0.50,-0.09,1.83,1.57,2854,3495,4746,126,180,133,87,98,0
2908,3578,4805,42,65,46,10240,0.50,-0.09,1.83,1.57,2855,3498,4748,126,180,133,87,98,0
2915,3591,4814,49,76,54,10240,0.50,-0.09,1.83,1.57,2857,3501,4750,126,180,133,87,98,0
2923,3601,4822,55,84,60,10240,0.50,-0.09,1.83,1.57,2860,3504,4752,126,180,133,87,98,0
2936,3614,4830,62,93,66,10240,0.50,-0.09,1.83,1.57,2862,3508,4755,126,180,133,87,98,0
2920,3601,4815,62,95,66,10240,0.50,-0.09,1.83,1.57,2864,3511,4757,126,180,133,87,98,0
2882,3541,4768,52,80,53,10240,0.50,-0.09,1.83,1.57,2865,3512,4757,125,181,132,88,98,0
2841,3478,4725,31,48,28,10240,0.51,-0.09,1.86,1.57,2864,3511,4756,125,181,132,88,98,0
2816,3429,4700,1,1,-4,10240,0.51,-0.09,1.86,1.57,2862,3508,4754,125,181,132,88,98,0
2800,3416,4687,-28,-43,-34,10240,0.51,-0.09,1.86,1.57,2860,3505,4752,125,181,132,88,98,0
2803,3416,4690,-46,-71,-52,10240,0.51,-0.09,1.86,1.57,2858,3502,4750,125,181,132,88,98,0
2808,3417,4698,-52,-84,-57,10240,0.51,-0.09,1.86,1.57,2857,3499,4748,125,181,132,88,98,0
2818,3434,4707,-50,-80,-53,10240,0.51,-0.09,1.86,1.57,2855,3497,4747,125,181,132,88,98,0
2826,3449,4714,-42,-69,-45,10240,0.51,-0.09,1.86,1.57,2854,3495,4746,125,181,132,88,98,0
2830,3456,4718,-34,-57,-37,10240,0.51,-0.09,1.86,1.57,2854,3494,4745,125,181,132,88,98,0
2829,3456,4716,-28,-46,-31,10240,0.51,-0.09,1.86,1.57,2853,3493,4744,125,181,132,88,98,0
2832,3461,4720,-24,-38,-27,10240,0.51,-0.09,1.86,1.57,2852,3492,4743,125,181,132,88,98,0
2836,3469,4725,-21,-32,-23,10240,0.51,-0.09,1.86,1.57,2852,3491,4742,125,181,132,88,98,0
2851,3481,4733,-15,-25,-19,10240,0.51,-0.09,1.86,1.57,2852,3491,4742,125,181,132,88,98,0
2862,3509,4753,-6,-11,-9,10240,0.51,-0.09,1.86,1.57,2852,3491,4742,125,181,132,88,98,0
2870,3523,4764,2,4,1,10240,0.51,-0.09,1.86,1.57,2852,3492,4743,125,181,132,88,98,0
2880,3537,4775,13,20,13,10240,0.51,-0.09,1.86,1.57,2853,3494,4744,125,181,132,88,98,0
2889,3551,4783,22,36,25,10240,0.51,-0.09,1.86,1.57,2855,3496,4746,125,181,132,88,98,0
2905,3575,4801,32,51,35,10240,0.51,-0.09,1.86,1.57,2856,3498,4747,125,181,132,88,98,0
2913,3589,4811,41,65,46,10240,0.51,-0.09,1.86,1.57,2858,3501,4749,125,181,132,88,98,0
2920,3599,4818,49,78,54,10240,0.51,-0.09,1.86,1.57,2860,3505,4752,125,181,132,88,98,0
2928,3610,4827,57,90,63,10240,0.51,-0.09,1.86,1.57,2862,3508,4754,125,181,132,88,98,0
2935,3614,4828,62,96,68,10240,0.51,-0.09,1.86,1.57,2865,3512,4757,125,181,132,88,98,0
2953,3637,4844,70,104,73,10240,0.51,-0.09,1.86,1.57,2868,3516,4760,125,181,132,88,98,0
2955,3644,4847,76,112,78,10240,0.51,-0.09,1.86,1.57,2871,3520,4763,125,181,132,87,98,0
2937,3619,4823,75,110,74,10240,0.51,-0.09,1.86,1.57,2873,3523,4765,126,184,133,87,98,0
2894,3562,4780,63,94,60,10240,0.51,-0.09,1.87,1.57,2874,3525,4765,126,184,133,87,98,0
2850,3494,4733,36,56,31,10240,0.51,-0.09,1.87,1.57,2873,3524,4764,126,184,133,87,98,0
2809,3418,4693,0,0,-6,10240,0.51,-0.09,1.87,1.57,2871,3520,4762,126,184,133,87,98,0
2803,3416,4689,-32,-49,-38,10240,0.51,-0.09,1.87,1.57,2868,3517,4759,126,184,133,87,98,0
2803,3416,4688,-53,-82,-59,10240,0.51,-0.09,1.87,1.57,2866,3513,4757,126,184,133,87,98,0
2806,3416,4692,-62,-98,-67,10240,0.51,-0.09,1.87,1.57,2864,3510,4755,126,184,133,87,98,0
2813,3423,4700,-59,-94,-63,10240,0.51,-0.09,1.87,1.57,2863,3507,4753,126,184,133,87,98,0
2824,3446,4712,-52,-83,-56,10240,0.51,-0.09,1.87,1.57,2861,3505,4751,126,184,133,87,98,0
2826,3450,4713,-44,-72,-48,10240,0.51,-0.09,1.87,1.57,2860,3503,4750,126,184,133,87,98,0
2825,3449,4712,-38,-62,-41,10240,0.51,-0.09,1.87,1.57,2859,3501,4749,126,184,133,87,98,0
2828,3454,4714,-33,-52,-36,10240,0.51,-0.09,1.87,1.57,2858,3500,4748,126,184,133,87,98,0
2832,3462,4719,-30,-47,-34,10240,0.51,-0.09,1.87,1.57,2857,3499,4747,126,184,133,87,98,0
2847,3487,4737,-24,-36,-27,10240,0.51,-0.09,1.87,1.57,2857,3498,4746,126,184,133,87,98,0
2857,3502,4747,-16,-22,-17,10240,0.51,-0.09,1.87,1.57,2857,3498,4746,126,184,133,87,98,0
2866,3517,4757,-6,-6,-6,10240,0.51,-0.09,1.87,1.57,2857,3499,4747,126,184,133,87,98,0
2876,3529,4768,4,10,5,10240,0.51,-0.09,1.87,1.57,2858,3500,4748,126,184,133,87,98,0
2884,3543,4777,13,23,14,10240,0.51,-0.09,1.87,1.57,2859,3501,4749,126,184,133,87,98,0
2900,3567,4796,23,38,26,10240,0.51,-0.09,1.87,1.57,2860,3504,4750,126,184,133,87,98,0
2907,3580,4803,32,52,36,10240,0.51,-0.09,1.87,1.57,2861,3506,4752,126,184,133,87,98,0
2914,3592,4812,40,65,45,10240,0.51,-0.09,1.87,1.57,2863,3509,4754,126,184,133,87,98,0
2921,3600,4818,48,77,54,10240,0.51,-0.09,1.87,1.57,2865,3512,4756,126,184,133,87,98,0
2937,3612,4827,55,85,60,10240,0.51,-0.09,1.87,1.57,2868,3515,4758,126,184,133,87,98,0
2945,3625,4834,62,93,65,10240,0.51,-0.09,1.87,1.57,2870,3519,4761,126,184,133,87,98,0
2951,3634,4840,69,100,70,10240,0.51,-0.09,1.87,1.57,2873,3523,4764,126,184,133,87,98,0
2941,3622,4826,72,102,69,10240,0.51,-0.09,1.87,1.57,2875,3526,4766,126,184,134,87,98,0
2906,3579,4793,62,91,59,10240,0.51,-0.09,1.86,1.56,2876,3528,4766,128,188,134,87,98,0
2826,3452,4742,31,46,34,10240,0.51,-0.09,1.86,1.56,2874,3525,4766,128,188,134,87,98,0
2806,3417,4690,-4,-7,-2,10240,0.51,-0.09,1.86,1.56,2872,3522,4763,128,188,134,87,98,0
2799,3416,4685,-38,-57,-36,10240,0.51,-0.09,1.86,1.56,2870,3518,4761,128,188,134,87,98,0
2799,3416,4685,-63,-94,-61,10240,0.51,-0.09,1.86,1.56,2867,3515,4758,128,188,134,87,98,0
2801,3416,4688,-67,-100,-72,10240,0.51,-0.09,1.86,1.56,2865,3512,4756,128,188,134,87,98,0
2816,3429,4704,-62,-94,-66,10240,0.51,-0.09,1.86,1.56,2864,3509,4754,128,188,134,87,98,0
2820,3440,4708,-55,-85,-58,10240,0.51,-0.09,1.86,1.56,2862,3507,4752,128,188,134,87,98,0
2820,3442,4707,-48,-76,-51,10240,0.51,-0.09,1.86,1.56,2861,3504,4751,128,188,134,87,98,0
2821,3443,4709,-42,-67,-44,10240,0.51,-0.09,1.86,1.56,2859,3502,4750,128,188,134,87,98,0
2823,3445,4709,-39,-60,-42,10240,0.51,-0.09,1.86,1.56,2858,3500,4748,128,188,134,87,98,0
2833,3464,4722,-34,-52,-37,10240,0.51,-0.09,1.86,1.56,2857,3499,4747,128,188,134,87,98,0
2839,3476,4730,-28,-42,-30,10240,0.51,-0.09,1.86,1.56,2857,3498,4747,128,188,134,87,98,0
2849,3490,4740,-21,-30,-21,10240,0.51,-0.09,1.86,1.56,2856,3498,4746,128,188,134,87,98,0
2859,3504,4750,-11,-14,-11,10240,0.51,-0.09,1.86,1.56,2857,3498,4747,128,188,134,87,98,0
2869,3520,4760,-2,0,-1,10240,0.51,-0.09,1.86,1.56,2857,3499,4747,128,188,134,87,98,0
2886,3547,4780,8,16,10,10240,0.51,-0.09,1.86,1.56,2858,3501,4748,128,188,134,87,98,0
2894,3557,4788,19,31,21,10240,0.51,-0.09,1.86,1.56,2859,3503,4749,128,188,134,87,98,0
2902,3569,4795,29,46,32,10240,0.51,-0.09,1.86,1.56,2861,3505,4751,128,188,134,87,98,0
2908,3581,4803,37,59,41,10240,0.51,-0.09,1.86,1.56,2862,3507,4753,128,188,134,87,98,0
2916,3593,4813,43,68,47,10240,0.51,-0.09,1.86,1.56,2864,3510,4755,128,188,134,87,98,0
2932,3613,4827,51,80,55,10240,0.51,-0.09,1.86,1.56,2866,3514,4757,128,188,134,87,98,0
2939,3617,4828,58,89,61,10240,0.51,-0.09,1.86,1.56,2869,3517,4760,128,188,134,87,98,0
2944,3622,4830,65,95,66,10240,0.51,-0.09,1.86,1.56,2871,3521,4762,128,188,134,87,98,0
2932,3614,4820,67,97,65,10240,0.51,-0.09,1.86,1.56,2873,3524,4764,128,188,135,87,98,0
2893,3558,4777,55,81,51,10240,0.51,-0.09,1.88,1.57,2874,3525,4764,129,191,135,87,98,0
2812,3427,4693,22,32,17,10240,0.51,-0.09,1.88,1.57,2872,3522,4762,129,191,135,87,98,0
2791,3416,4675,-15,-18,-21,10240,0.51,-0.09,1.88,1.57,2869,3518,4759,129,191,135,87,98,0
2789,3416,4671,-49,-65,-56,10240,0.51,-0.09,1.88,1.57,2866,3515,4756,129,191,135,87,98,0
2790,3416,4669,-72,-97,-80,10240,0.51,-0.09,1.88,1.57,2864,3511,4753,129,191,135,87,98,0
2789,3416,4671,-75,-97,-83,10240,0.51,-0.09,1.88,1.57,2861,3508,4750,129,191,135,87,98,0
2793,3416,4681,-72,-93,-78,10240,0.51,-0.09,1.88,1.57,2859,3505,4748,129,191,135,87,98,0
2799,3416,4685,-67,-90,-72,10240,0.51,-0.09,1.88,1.57,2857,3502,4746,129,191,135,87,98,0
2800,3416,4687,-62,-87,-66,10240,0.51,-0.09,1.88,1.57,2855,3499,4744,129,191,135,87,98,0
2801,3416,4686,-57,-84,-60,10240,0.51,-0.09,1.88,1.57,2853,3496,4742,129,191,135,87,98,0
2803,3416,4689,-53,-81,-56,10240,0.51,-0.09,1.88,1.57,2852,3494,4740,129,191,135,87,98,0
