1490,1725,3411,1143,1324,2619,6898,-1.00,-1.00,0.00,0.00,403,467,923,338,391,0,0,0,0
1490,1724,3410,1106,1280,2531,6895,-1.00,-1.00,0.00,0.00,439,509,1006,338,391,0,0,0,0
1491,1725,3411,1069,1237,2447,6898,-1.00,-1.00,0.00,0.00,474,549,1086,338,391,0,0,0,0
1491,1725,3411,1034,1196,2366,6900,-1.00,-1.00,0.00,0.00,508,588,1164,338,391,0,0,0,0
1494,1727,3411,1001,1157,2287,6902,-1.00,-1.00,0.00,0.00,541,626,1239,338,391,0,0,0,0
1496,1729,3412,969,1120,2211,6915,-1.00,-1.00,0.00,0.00,573,663,1311,338,391,0,0,0,0
1498,1731,3415,938,1084,2138,6922,-1.00,-1.00,0.00,0.00,604,699,1381,338,391,0,0,0,0
1500,1734,3419,909,1050,2069,6931,-1.00,-1.00,0.00,0.00,634,733,1449,338,391,0,0,0,0
1503,1736,3421,880,1017,2002,6940,-1.00,-1.00,0.00,0.00,663,767,1515,338,391,0,0,0,0
1505,1740,3424,853,985,1939,6947,-1.00,-1.00,0.00,0.00,691,799,1578,338,391,0,0,0,0
1507,1748,3431,827,957,1878,6966,-1.00,-1.00,0.00,0.00,718,831,1640,338,391,0,0,0,0
1510,1750,3432,802,929,1818,6974,-1.00,-1.00,0.00,0.00,744,861,1700,338,391,0,0,0,0
1512,1754,3433,777,902,1761,6983,-1.00,-1.00,0.00,0.00,770,891,1758,338,391,0,0,0,0
1514,1758,3436,754,876,1705,6992,-1.00,-1.00,0.00,0.00,795,920,1814,338,391,0,0,0,0
1517,1761,3438,731,850,1649,7001,-1.00,-1.00,0.00,0.00,819,948,1868,338,391,0,0,0,0
1514,1757,3434,707,824,1595,6990,-1.00,-1.00,0.00,0.00,842,975,1920,338,391,0,0,0,0
1506,1744,3421,682,794,1539,6954,-1.00,-1.00,0.00,0.00,864,1001,1970,338,391,0,0,0,0
1496,1729,3409,655,760,1481,6914,-1.00,-1.00,0.00,0.00,885,1025,2018,338,391,0,0,0,0
1486,1719,3398,626,725,1422,6879,-1.00,-1.00,0.00,0.00,905,1048,2064,338,391,0,0,0,0
1480,1712,3393,597,690,1365,6855,-1.00,-1.00,0.00,0.00,924,1070,2108,338,391,0,0,0,0
1474,1706,3394,569,658,1313,6843,-1.00,-1.00,0.00,0.00,943,1091,2151,338,391,0,0,0,0
1472,1704,3391,545,630,1265,6836,-1.00,-1.00,0.00,0.00,960,1112,2193,338,391,0,0,0,0
1472,1705,3394,523,605,1221,6837,-1.00,-1.00,0.00,0.00,977,1132,2233,338,391,0,0,0,0
1473,1705,3394,504,583,1181,6840,-1.00,-1.00,0.00,0.00,994,1151,2271,338,391,0,0,0,0
1473,1705,3394,487,563,1141,6843,-1.00,-1.00,0.00,0.00,1010,1169,2309,338,391,0,0,0,0
1475,1708,3395,471,546,1104,6847,-1.00,-1.00,0.00,0.00,1025,1187,2345,338,391,0,0,0,0
1475,1709,3395,456,528,1068,6848,-1.00,-1.00,0.00,0.00,1040,1205,2380,338,391,0,0,0,0
1474,1706,3391,441,511,1031,6844,-1.00,-1.00,0.00,0.00,1055,1221,2414,338,391,0,0,0,0
1475,1708,3392,427,495,997,6847,-1.00,-1.00,0.00,0.00,1069,1237,2446,338,391,0,0,0,0
1476,1707,3393,413,478,963,6850,-1.00,-1.00,0.00,0.00,1082,1253,2478,338,391,0,0,0,0
1480,1713,3391,400,463,930,6856,-1.00,-1.00,0.00,0.00,1096,1268,2508,338,391,0,0,0,0
1482,1714,3390,389,450,899,6862,-1.00,-1.00,0.00,0.00,1109,1283,2538,338,391,0,0,0,0
1484,1718,3395,378,437,869,6874,-1.00,-1.00,0.00,0.00,1121,1298,2566,338,391,0,0,0,0
1487,1721,3401,368,426,842,6887,-1.00,-1.00,0.00,0.00,1133,1312,2594,338,391,0,0,0,0
1489,1724,3404,358,414,817,6897,-1.00,-1.00,0.00,0.00,1145,1326,2621,338,391,0,0,0,0
1494,1728,3407,349,404,794,6912,-1.00,-1.00,0.00,0.00,1157,1339,2647,338,391,0,0,0,0
1497,1729,3408,341,393,771,6917,-1.00,-1.00,0.00,0.00,1168,1352,2673,338,391,0,0,0,0
1499,1731,3410,332,382,747,6924,-1.00,-1.00,0.00,0.00,1179,1365,2697,338,391,0,0,0,0
1501,1733,3411,324,372,724,6929,-1.00,-1.00,0.00,0.00,1190,1377,2721,338,391,0,0,0,0
1503,1735,3413,315,361,701,6936,-1.00,-1.00,0.00,0.00,1200,1389,2744,338,391,0,0,0,0
1505,1743,3420,307,352,681,6952,-1.00,-1.00,0.00,0.00,1210,1401,2767,338,391,0,0,0,0
1506,1745,3421,298,344,661,6957,-1.00,-1.00,0.00,0.00,1220,1412,2788,338,391,0,0,0,0
1504,1740,3414,289,334,640,6945,-1.00,-1.00,0.00,0.00,1230,1423,2809,338,391,0,0,0,0
1496,1728,3403,278,321,616,6912,-1.00,-1.00,0.00,0.00,1239,1433,2829,338,391,0,0,0,0
1484,1717,3388,263,304,588,6869,-1.00,-1.00,0.00,0.00,1247,1443,2848,338,391,0,0,0,0
1466,1702,3386,245,284,559,6826,-1.00,-1.00,0.00,0.00,1254,1451,2866,338,391,0,0,0,0
1463,1701,3398,227,265,537,6822,-1.00,-1.00,0.00,0.00,1261,1460,2883,338,391,0,0,0,0
1462,1705,3409,211,250,520,6819,-1.00,-1.00,0.00,0.00,1268,1468,2901,338,391,0,0,0,0
1459,1702,3403,198,238,507,6807,-1.00,-1.00,0.00,0.00,1274,1476,2918,338,391,0,0,0,0
1458,1700,3400,189,230,493,6801,-1.00,-1.00,0.00,0.00,1280,1483,2934,338,391,0,0,0,0
1460,1702,3404,182,223,478,6808,-1.00,-1.00,0.00,0.00,1286,1490,2949,338,391,0,0,0,0
1461,1704,3409,176,215,462,6819,-1.00,-1.00,0.00,0.00,1292,1498,2965,338,391,0,0,0,0
1462,1705,3411,171,209,449,6824,-1.00,-1.00,0.00,0.00,1298,1504,2979,338,391,0,0,0,0
1462,1705,3410,166,203,436,6821,-1.00,-1.00,0.00,0.00,1303,1511,2994,338,391,0,0,0,0
1462,1704,3408,161,196,423,6823,-1.00,-1.00,0.00,0.00,1309,1518,3008,338,391,0,0,0,0
1462,1700,3397,156,189,406,6819,-1.00,-1.00,0.00,0.00,1314,1524,3021,338,391,0,0,0,0
1463,1699,3391,151,181,387,6819,-1.00,-1.00,0.00,0.00,1319,1529,3033,338,391,0,0,0,0
1464,1701,3389,146,174,369,6824,-1.00,-1.00,0.00,0.00,1323,1535,3045,338,391,0,0,0,0
1466,1703,3386,142,168,352,6827,-1.00,-1.00,0.00,0.00,1328,1541,3056,338,391,0,0,0,0
1469,1705,3381,139,164,336,6828,-1.00,-1.00,0.00,0.00,1333,1546,3067,338,391,0,0,0,0
1474,1707,3385,137,160,323,6844,-1.00,-1.00,0.00,0.00,1338,1552,3078,338,391,0,0,0,0
1476,1711,3388,136,157,312,6854,-1.00,-1.00,0.00,0.00,1342,1557,3088,338,391,0,0,0,0
1478,1712,3385,134,154,302,6857,-1.00,-1.00,0.00,0.00,1347,1562,3098,338,391,0,0,0,0
1481,1714,3382,132,151,292,6858,-1.00,-1.00,0.00,0.00,1351,1567,3107,338,391,0,0,0,0
1482,1715,3383,130,148,282,6862,-1.00,-1.00,0.00,0.00,1356,1572,3117,338,391,0,0,0,0
1488,1721,3392,128,146,273,6876,-1.00,-1.00,0.00,0.00,1360,1577,3126,338,391,0,0,0,0
1491,1725,3398,127,144,267,6899,-1.00,-1.00,0.00,0.00,1364,1582,3135,338,391,0,0,0,0
1493,1727,3400,126,142,262,6907,-1.00,-1.00,0.00,0.00,1369,1587,3144,338,391,0,0,0,0
1495,1728,3402,125,140,258,6913,-1.00,-1.00,0.00,0.00,1373,1592,3152,338,391,0,0,0,0
1495,1728,3399,122,137,252,6913,-1.00,-1.00,0.00,0.00,1377,1596,3160,338,391,0,0,0,0
1483,1716,3382,116,131,239,6905,-1.00,-1.00,0.00,0.00,1380,1600,3168,338,391,0,0,0,0
1473,1706,3379,108,121,226,6838,-1.00,-1.00,0.00,0.00,1384,1604,3175,338,391,0,0,0,0
1464,1699,3383,97,110,214,6819,-1.00,-1.00,0.00,0.00,1386,1607,3182,338,391,0,0,0,0
1459,1695,3387,85,98,204,6801,-1.00,-1.00,0.00,0.00,1389,1610,3189,338,391,0,0,0,0
1455,1698,3396,75,91,200,6792,-1.00,-1.00,0.00,0.00,1391,1613,3196,338,391,0,0,0,0
1451,1692,3390,67,84,196,6780,-1.00,-1.00,0.00,0.00,1393,1615,3202,338,391,0,0,0,0
1450,1691,3383,61,80,190,6767,-1.00,-1.00,0.00,0.00,1395,1618,3208,338,391,0,0,0,0
1451,1692,3385,57,76,183,6771,-1.00,-1.00,0.00,0.00,1397,1620,3214,338,391,0,0,0,0
1453,1695,3391,55,73,176,6783,-1.00,-1.00,0.00,0.00,1398,1623,3220,338,391,0,0,0,0
1454,1696,3392,54,72,170,6789,-1.00,-1.00,0.00,0.00,1400,1625,3226,338,391,0,0,0,0
1455,1698,3397,54,71,168,6795,-1.00,-1.00,0.00,0.00,1402,1628,3231,338,391,0,0,0,0
1456,1699,3399,53,70,166,6798,-1.00,-1.00,0.00,0.00,1404,1630,3237,338,391,0,0,0,0
1456,1689,3379,52,66,157,6788,-1.00,-1.00,0.00,0.00,1406,1632,3242,338,391,0,0,0,0
1457,1689,3377,51,62,149,6791,-1.00,-1.00,0.00,0.00,1407,1634,3246,338,391,0,0,0,0
1457,1687,3371,50,58,137,6790,-1.00,-1.00,0.00,0.00,1409,1636,3250,338,391,0,0,0,0
1460,1691,3376,49,54,127,6800,-1.00,-1.00,0.00,0.00,1411,1637,3254,338,391,0,0,0,0
1463,1698,3381,49,54,124,6817,-1.00,-1.00,0.00,0.00,1412,1640,3259,338,391,0,0,0,0
1465,1702,3382,49,55,121,6826,-1.00,-1.00,0.00,0.00,1414,1642,3263,338,391,0,0,0,0
1468,1703,3377,50,57,118,6827,-1.00,-1.00,0.00,0.00,1416,1644,3267,338,391,0,0,0,0
1470,1706,3375,51,59,114,6832,-1.00,-1.00,0.00,0.00,1418,1646,3270,338,391,0,0,0,0
1473,1708,3380,52,59,110,6841,-1.00,-1.00,0.00,0.00,1420,1648,3274,338,391,0,0,0,0
1478,1710,3385,53,59,107,6857,-1.00,-1.00,0.00,0.00,1422,1650,3278,338,391,0,0,0,0
1479,1713,3382,54,60,104,6860,-1.00,-1.00,0.00,0.00,1424,1652,3281,338,391,0,0,0,0
1481,1715,3380,55,60,102,6861,-1.00,-1.00,0.00,0.00,1425,1654,3284,338,391,0,0,0,0
1483,1716,3379,55,60,99,6864,-1.00,-1.00,0.00,0.00,1427,1656,3287,338,391,0,0,0,0
1486,1719,3382,56,60,95,6876,-1.00,-1.00,0.00,0.00,1429,1658,3291,338,391,0,0,0,0
1487,1721,3385,56,60,92,6884,-1.00,-1.00,0.00,0.00,1431,1660,3294,338,391,0,0,0,0
1482,1716,3378,54,59,88,6863,-1.00,-1.00,0.00,0.00,1433,1662,3297,338,391,0,0,0,0
1474,1709,3377,50,55,85,6843,-1.00,-1.00,0.00,0.00,1434,1664,3299,338,391,0,0,0,0
1464,1701,3377,43,49,81,6817,-1.00,-1.00,0.00,0.00,1435,1665,3302,338,391,0,0,0,0
1457,1688,3368,34,39,74,6788,-1.00,-1.00,0.00,0.00,1436,1666,3304,338,391,0,0,0,0
1452,1692,3385,26,32,73,6776,-1.00,-1.00,0.00,0.00,1437,1667,3307,338,391,0,0,0,0
1450,1692,3384,19,27,73,6770,-1.00,-1.00,0.00,0.00,1437,1667,3309,338,391,0,0,0,0
1449,1690,3381,15,23,71,6766,-1.00,-1.00,0.00,0.00,1437,1668,3312,338,391,0,0,0,0
1450,1692,3384,13,23,73,6769,-1.00,-1.00,0.00,0.00,1438,1669,3314,338,391,0,0,0,0
1451,1693,3385,12,23,70,6775,-1.00,-1.00,0.00,0.00,1438,1670,3316,338,391,0,0,0,0
1453,1693,3386,12,22,68,6779,-1.00,-1.00,0.00,0.00,1439,1671,3319,338,391,0,0,0,0
1451,1680,3360,12,19,61,6767,-1.00,-1.00,0.00,0.00,1439,1671,3320,338,391,0,0,0,0
1452,1683,3366,12,16,55,6771,-1.00,-1.00,0.00,0.00,1440,1671,3322,338,391,0,0,0,0
1451,1680,3361,12,12,47,6766,-1.00,-1.00,0.00,0.00,1440,1672,3323,338,391,0,0,0,0
1451,1683,3367,11,10,41,6770,-1.00,-1.00,0.00,0.00,1440,1672,3324,338,391,0,0,0,0
1451,1678,3356,11,9,38,6767,-1.00,-1.00,0.00,0.00,1441,1672,3326,338,391,0,0,0,0
1455,1685,3363,11,9,36,6782,-1.00,-1.00,0.00,0.00,1441,1673,3327,338,391,0,0,0,0
1458,1689,3367,12,11,37,6791,-1.00,-1.00,0.00,0.00,1442,1673,3328,338,391,0,0,0,0
1460,1693,3369,14,13,36,6800,-1.00,-1.00,0.00,0.00,1442,1674,3329,338,391,0,0,0,0
1463,1696,3371,17,17,38,6809,-1.00,-1.00,0.00,0.00,1443,1674,3331,338,391,0,0,0,0
1465,1700,3377,18,20,41,6820,-1.00,-1.00,0.00,0.00,1444,1675,3332,338,391,0,0,0,0
1468,1704,3372,20,23,40,6827,-1.00,-1.00,0.00,0.00,1445,1676,3334,338,391,10,0,0,0
1470,1706,3370,22,26,39,6828,-1.00,-1.00,77.78,77.99,1445,1677,3335,338,391,10,0,0,0
1472,1707,3373,23,27,38,6836,-1.00,-1.00,77.78,77.99,1446,1678,3336,338,391,10,0,0,0
1474,1709,3379,25,29,37,6847,-1.00,-1.00,77.78,77.99,1447,1679,3338,338,391,10,0,0,0
1476,1710,3382,26,29,39,6856,-1.00,-1.00,77.78,77.99,1448,1680,3339,338,391,10,0,0,0
1472,1707,3372,26,28,38,6836,-1.00,-1.00,77.78,77.99,1449,1681,3340,338,391,10,0,0,0
1464,1701,3372,23,26,36,6815,-1.00,-1.00,77.78,77.99,1450,1682,3341,338,391,10,0,0,0
1454,1683,3356,17,19,30,6773,-1.00,-1.00,77.78,77.99,1450,1682,3342,338,391,10,0,0,0
1447,1680,3360,9,11,23,6751,-1.00,-1.00,77.78,77.99,1450,1682,3342,338,391,10,0,0,0
1444,1685,3370,2,5,22,6742,-1.00,-1.00,77.78,77.99,1449,1682,3343,338,391,10,0,0,0
1440,1680,3361,-3,0,19,6722,-1.00,-1.00,77.78,77.99,1449,1682,3344,338,391,10,0,0,0
1440,1680,3361,-6,0,19,6723,-1.00,-1.00,77.78,77.99,1449,1682,3344,338,391,10,0,0,0
1441,1681,3362,-7,0,19,6725,-1.00,-1.00,77.78,77.99,1448,1682,3345,338,391,10,0,0,0
1443,1683,3367,-7,-1,18,6735,-1.00,-1.00,77.78,77.99,1448,1682,3346,338,391,10,0,0,0
1444,1685,3370,-6,0,19,6741,-1.00,-1.00,77.78,77.99,1448,1682,3347,338,391,10,0,0,0
1444,1686,3372,-5,1,21,6745,-1.00,-1.00,77.78,77.99,1448,1682,3347,338,391,10,0,0,0
1443,1686,3372,-4,3,23,6745,-1.00,-1.00,77.78,77.99,1448,1682,3348,338,391,10,0,0,0
1444,1685,3370,-4,3,23,6744,-1.00,-1.00,77.78,77.99,1448,1682,3349,338,391,10,0,0,0
1445,1687,3375,-4,3,23,6753,-1.00,-1.00,77.78,77.99,1448,1683,3350,338,391,10,0,0,0
1446,1684,3368,-3,3,22,6752,-1.00,-1.00,77.78,77.99,1448,1683,3350,338,391,10,0,0,0
1449,1674,3348,-2,0,15,6750,-1.00,-1.00,77.78,77.99,1448,1682,3350,338,391,10,0,0,0
1450,1676,3350,0,-2,10,6759,-1.00,-1.00,77.78,77.99,1448,1682,3350,338,391,10,0,0,0
1453,1681,3355,1,-3,5,6769,-1.00,-1.00,77.78,77.99,1448,1682,3351,338,391,10,0,0,0
1455,1687,3360,3,-2,2,6780,-1.00,-1.00,77.78,77.99,1448,1682,3351,338,391,10,0,0,0
1457,1689,3362,5,1,6,6787,-1.00,-1.00,77.78,77.99,1448,1682,3351,338,391,10,0,0,0
1462,1696,3365,8,6,9,6797,-1.00,-1.00,77.78,77.99,1449,1683,3352,338,391,10,0,0,0
1464,1701,3373,11,10,13,6817,-1.00,-1.00,77.78,77.99,1449,1683,3352,338,391,10,0,0,0
1466,1703,3373,13,14,16,6823,-1.00,-1.00,77.78,77.99,1450,1684,3353,338,391,10,0,0,0
1468,1706,3370,15,17,17,6827,-1.00,-1.00,77.78,77.99,1451,1685,3354,338,391,10,0,0,0
1469,1706,3370,16,19,18,6827,-1.00,-1.00,77.78,77.99,1451,1686,3354,338,391,10,0,0,0
1456,1687,3370,14,15,16,6818,-1.00,-1.00,77.78,77.99,1451,1686,3355,259,299,10,0,0,0
1446,1674,3346,8,7,9,6743,-1.00,-1.00,77.78,77.99,1451,1685,3354,259,299,10,0,0,0
1438,1678,3357,1,0,6,6718,-1.00,-1.00,77.78,77.99,1451,1685,3355,259,299,10,0,0,0
1431,1670,3345,-8,-7,0,6692,-1.00,-1.00,77.78,77.99,1450,1684,3354,259,299,10,0,0,0
1428,1664,3341,-14,-13,-7,6682,-1.00,-1.00,77.78,77.99,1449,1684,3354,259,299,10,0,0,0
1425,1659,3338,-19,-16,-8,6680,-1.00,-1.00,77.78,77.99,1448,1683,3353,259,299,10,0,0,0
1426,1657,3338,-21,-20,-13,6680,-1.00,-1.00,77.78,77.99,1448,1682,3353,259,299,10,0,0,0
1426,1660,3342,-21,-22,-13,6684,-1.00,-1.00,77.78,77.99,1447,1681,3352,259,299,10,0,0,0
1429,1663,3341,-20,-22,-12,6685,-1.00,-1.00,77.78,77.99,1446,1681,3352,259,299,10,0,0,0
1430,1665,3340,-19,-19,-12,6683,-1.00,-1.00,77.78,77.99,1446,1680,3352,259,299,10,0,0,0
1429,1668,3341,-17,-16,-10,6685,-1.00,-1.00,77.78,77.99,1445,1680,3351,259,299,10,0,0,0
1429,1668,3342,-16,-14,-10,6685,-1.00,-1.00,77.78,77.99,1445,1679,3351,259,299,10,0,0,0
1429,1665,3339,-15,-13,-10,6683,-1.00,-1.00,77.78,77.99,1444,1679,3351,259,299,10,0,0,0
1431,1670,3342,-15,-11,-9,6686,-1.00,-1.00,77.78,77.99,1444,1679,3350,259,299,10,0,0,0
1432,1672,3345,-13,-10,-8,6692,-1.00,-1.00,77.78,77.99,1443,1678,3350,259,299,10,0,0,0
1438,1675,3350,-11,-8,-6,6701,-1.00,-1.00,77.78,77.99,1443,1678,3350,259,299,10,0,0,0
1442,1683,3366,-7,-3,0,6735,-1.00,-1.00,77.78,77.99,1443,1679,3351,259,299,10,0,0,0
1442,1676,3352,-4,-1,2,6737,-1.00,-1.00,77.78,77.99,1443,1678,3351,259,299,10,0,0,0
1444,1672,3344,-1,-1,2,6738,-1.00,-1.00,77.78,77.99,1443,1678,3350,259,299,10,0,0,0
1446,1670,3339,0,-3,0,6741,-1.00,-1.00,77.78,77.99,1443,1678,3350,259,229,10,0,0,0
1449,1675,3343,2,-4,-5,6751,-1.00,-1.00,77.78,77.99,1444,1678,3350,259,229,10,0,0,0
1453,1682,3350,4,-3,-6,6769,-1.00,-1.00,77.78,77.99,1444,1678,3350,259,229,10,0,0,0
1455,1687,3355,7,0,-3,6780,-1.00,-1.00,77.78,77.99,1444,1678,3350,259,229,10,0,0,0
1456,1689,3356,9,5,1,6785,-1.00,-1.00,77.78,77.99,1445,1679,3350,259,229,10,0,0,0
1454,1686,3351,10,7,3,6774,-1.00,-1.00,77.78,77.99,1445,1679,3350,259,229,10,0,0,0
1445,1673,3338,7,5,0,6741,-1.00,-1.00,77.78,77.99,1445,1679,3350,202,229,10,0,0,0
1426,1661,3334,0,-1,-5,6670,-1.00,-1.00,77.78,77.99,1444,1678,3349,202,229,10,0,0,0
1420,1639,3320,-8,-13,-13,6640,-1.00,-1.00,77.78,77.99,1443,1677,3348,202,229,10,0,0,0
1415,1631,3309,-17,-26,-23,6618,-1.00,-1.00,77.78,77.99,1443,1675,3347,202,229,10,0,0,0
1412,1626,3302,-24,-36,-31,6605,-1.00,-1.00,77.78,77.99,1441,1674,3346,202,229,10,0,0,0
1411,1623,3299,-27,-44,-38,6599,-1.00,-1.00,77.78,77.99,1440,1672,3344,202,229,10,0,0,0
1409,1622,3299,-29,-47,-42,6598,-1.00,-1.00,77.78,77.99,1439,1670,3342,202,229,10,0,0,0
1411,1623,3300,-29,-47,-43,6600,-1.00,-1.00,77.78,77.99,1439,1669,3341,202,229,10,0,0,0
1412,1625,3303,-28,-46,-41,6606,-1.00,-1.00,77.78,77.99,1438,1667,3340,202,229,10,0,0,0
1413,1627,3305,-27,-43,-38,6610,-1.00,-1.00,77.78,77.99,1437,1666,3339,202,229,10,0,0,0
1413,1628,3305,-25,-41,-36,6611,-1.00,-1.00,77.78,77.99,1436,1665,3337,202,229,10,0,0,0
1413,1628,3307,-23,-38,-33,6615,-1.00,-1.00,77.78,77.99,1435,1663,3336,202,229,10,0,0,0
1416,1631,3310,-22,-35,-30,6620,-1.00,-1.00,77.78,77.99,1435,1662,3336,202,229,10,0,0,0
1418,1635,3314,-20,-32,-27,6628,-1.00,-1.00,77.78,77.99,1434,1661,3335,202,229,10,0,0,0
1420,1638,3319,-17,-28,-22,6637,-1.00,-1.00,77.78,77.99,1434,1661,3334,202,229,10,0,0,0
1422,1643,3324,-15,-24,-18,6649,-1.00,-1.00,77.78,77.99,1433,1660,3334,202,229,10,0,0,0
1425,1660,3336,-12,-16,-11,6674,-1.00,-1.00,77.78,77.99,1433,1660,3334,202,229,10,0,0,0
1426,1662,3336,-10,-9,-5,6678,-1.00,-1.00,77.78,77.99,1433,1660,3334,202,229,10,0,0,0
1429,1669,3341,-7,-1,0,6682,-1.00,-1.00,77.78,77.99,1433,1660,3334,202,229,10,0,0,0
1432,1673,3346,-4,5,5,6692,-1.00,-1.00,77.78,77.99,1432,1661,3335,202,229,10,0,0,0
1435,1677,3354,-2,9,9,6709,-1.00,-1.00,77.78,77.99,1433,1661,3335,202,229,10,0,0,0
1440,1681,3363,1,14,16,6737,-1.00,-1.00,77.78,77.99,1433,1662,3336,202,229,10,0,0,0
1442,1675,3350,4,15,17,6736,-1.00,-1.00,77.78,77.99,1433,1662,3337,202,229,10,0,0,0
1444,1672,3344,7,14,16,6740,-1.00,-1.00,77.78,77.99,1433,1663,3337,202,188,22,0,0,0
1446,1671,3339,9,12,12,6740,-1.00,-1.00,17.15,21.38,1434,1663,3337,202,188,22,0,0,0
1444,1669,3335,10,9,5,6732,-1.00,-1.00,17.15,21.38,1434,1663,3337,202,188,22,0,0,0
1428,1667,3338,6,6,2,6677,-1.00,-1.00,17.15,21.38,1434,1663,3337,161,188,22,0,0,0
1420,1642,3319,0,0,-4,6639,-1.00,-1.00,17.15,21.38,1434,1663,3336,161,188,22,0,0,0
1411,1625,3299,-8,-11,-13,6599,-1.00,-1.00,17.15,21.38,1433,1661,3335,161,188,22,0,0,0
1407,1617,3288,-16,-24,-24,6577,-1.00,-1.00,17.15,21.38,1432,1660,3334,161,188,22,0,0,0
1403,1613,3282,-22,-36,-37,6565,-1.00,-1.00,17.15,21.38,1431,1658,3332,161,188,22,0,0,0
1401,1609,3275,-26,-43,-46,6550,-1.00,-1.00,17.15,21.38,1430,1657,3330,161,188,22,0,0,0
1400,1609,3276,-27,-45,-50,6552,-1.00,-1.00,17.15,21.38,1429,1655,3328,161,188,22,0,0,0
1402,1611,3279,-28,-45,-51,6558,-1.00,-1.00,17.15,21.38,1428,1654,3327,161,188,22,0,0,0
1404,1613,3281,-26,-44,-49,6563,-1.00,-1.00,17.15,21.38,1427,1652,3325,161,188,22,0,0,0
1404,1614,3283,-25,-41,-46,6566,-1.00,-1.00,17.15,21.38,1427,1651,3324,161,188,22,0,0,0
1405,1615,3285,-23,-38,-42,6570,-1.00,-1.00,17.15,21.38,1426,1650,3322,161,188,22,0,0,0
1406,1616,3286,-21,-36,-39,6573,-1.00,-1.00,17.15,21.38,1425,1649,3321,161,188,22,0,0,0
1407,1618,3289,-20,-33,-36,6579,-1.00,-1.00,17.15,21.38,1425,1648,3320,161,188,22,0,0,0
1408,1621,3293,-18,-31,-32,6586,-1.00,-1.00,17.15,21.38,1424,1647,3319,161,188,22,0,0,0
1410,1625,3299,-16,-27,-28,6598,-1.00,-1.00,17.15,21.38,1423,1646,3319,161,188,22,0,0,0
1416,1635,3311,-13,-22,-21,6623,-1.00,-1.00,17.15,21.38,1423,1646,3318,161,188,22,0,0,0
1419,1639,3318,-10,-16,-13,6636,-1.00,-1.00,17.15,21.38,1423,1645,3318,161,188,22,0,0,0
1422,1646,3322,-6,-9,-5,6645,-1.00,-1.00,17.15,21.38,1423,1646,3318,161,188,22,0,0,0
1424,1653,3330,-2,-2,2,6661,-1.00,-1.00,17.15,21.38,1423,1646,3319,161,188,22,0,0,0
1426,1663,3335,0,4,7,6671,-1.00,-1.00,17.15,21.38,1423,1646,3319,161,188,22,0,0,0
1428,1669,3338,2,11,12,6676,-1.00,-1.00,17.15,21.38,1423,1647,3320,161,188,22,0,0,0
1432,1671,3343,4,17,16,6687,-1.00,-1.00,17.15,21.38,1424,1648,3321,161,188,22,0,0,0
1434,1676,3353,6,22,21,6706,-1.00,-1.00,17.15,21.38,1424,1649,3322,161,188,22,0,0,0
1439,1681,3362,9,25,27,6725,-1.00,-1.00,17.15,21.38,1425,1650,3323,161,188,22,0,0,0
1439,1672,3345,11,25,28,6727,-1.00,-1.00,17.15,21.38,1425,1651,3324,161,188,22,0,0,0
1435,1677,3355,12,26,30,6712,-1.00,-1.00,17.15,21.38,1425,1651,3325,161,188,22,0,0,0
1426,1666,3334,9,23,24,6669,-1.00,-1.00,17.15,21.38,1425,1652,3325,131,158,37,0,0,0
1419,1643,3317,4,13,13,6635,-1.00,-1.00,8.59,8.26,1425,1652,3325,131,158,37,0,0,0
1411,1626,3299,-2,1,1,6597,-1.00,-1.00,8.59,8.26,1425,1651,3324,131,158,37,0,0,0
1406,1619,3287,-9,-12,-15,6575,-1.00,-1.00,8.59,8.26,1424,1650,3323,131,158,37,83,0,0
1402,1613,3277,-14,-25,-28,6555,-1.00,-1.00,8.59,8.26,1423,1649,3321,131,158,37,83,0,0
1401,1612,3277,-18,-31,-37,6554,-1.00,-1.00,8.59,8.26,1423,1647,3320,131,158,37,83,0,0
1401,1612,3276,-20,-34,-41,6553,-1.00,-1.00,8.59,8.26,1422,1646,3318,131,158,37,83,0,0
1403,1614,3279,-20,-34,-41,6557,-1.00,-1.00,8.59,8.26,1421,1645,3317,131,158,37,83,0,0
1405,1615,3283,-19,-32,-39,6566,-1.00,-1.00,8.59,8.26,1421,1644,3316,131,158,37,83,0,0
1405,1618,3287,-17,-29,-35,6575,-1.00,-1.00,8.59,8.26,1420,1643,3315,131,158,37,83,0,0
1406,1619,3288,-15,-27,-31,6576,-1.00,-1.00,8.59,8.26,1420,1642,3314,131,158,37,83,0,0
1406,1620,3288,-14,-24,-28,6577,-1.00,-1.00,8.59,8.26,1419,1642,3313,131,158,37,83,0,0
1408,1622,3291,-13,-22,-25,6583,-1.00,-1.00,8.59,8.26,1419,1641,3312,131,158,37,83,0,0
1409,1625,3295,-12,-19,-22,6591,-1.00,-1.00,8.59,8.26,1419,1640,3312,131,158,37,83,0,0
1414,1632,3306,-9,-16,-17,6602,-1.00,-1.00,8.59,8.26,1418,1640,3312,131,158,37,83,0,0
1417,1637,3313,-6,-11,-10,6627,-1.00,-1.00,8.59,8.26,1418,1640,3312,131,158,37,83,0,0
1419,1643,3317,-3,-5,-4,6635,-1.00,-1.00,8.59,8.26,1418,1640,3312,131,158,37,83,0,0
1423,1654,3324,0,1,3,6649,-1.00,-1.00,8.59,8.26,1419,1641,3312,131,158,37,83,0,0
1425,1660,3328,2,8,8,6657,-1.00,-1.00,8.59,8.26,1419,1641,3313,131,158,37,83,0,0
1426,1668,3334,4,15,13,6668,-1.00,-1.00,8.59,8.26,1419,1642,3314,131,158,37,83,0,0
1429,1668,3337,6,20,17,6676,-1.00,-1.00,8.59,8.26,1419,1643,3314,131,158,37,83,0,0
1432,1671,3343,8,24,21,6687,-1.00,-1.00,8.59,8.26,1420,1644,3315,131,158,37,83,0,0
1435,1677,3355,11,27,27,6710,-1.00,-1.00,8.59,8.26,1420,1645,3317,131,158,37,83,0,0
1436,1675,3351,13,28,30,6721,-1.00,-1.00,8.59,8.26,1421,1646,3318,131,158,37,83,0,0
1436,1673,3353,14,28,33,6728,-1.00,-1.00,8.59,8.26,1421,1647,3319,131,158,37,83,0,0
1429,1671,3343,13,27,32,6686,-1.00,-1.00,8.59,8.26,1422,1648,3320,107,134,46,83,0,0
1423,1658,3324,9,22,23,6649,-1.00,-1.00,5.87,5.43,1422,1648,3320,107,134,46,83,0,0
1414,1636,3309,4,11,12,6619,-1.00,-1.00,5.87,5.43,1421,1648,3319,107,134,46,83,0,0
1409,1625,3297,-2,0,-1,6595,-1.00,-1.00,5.87,5.43,1421,1647,3319,107,134,46,83,0,0
1404,1621,3290,-8,-12,-14,6581,-1.00,-1.00,5.87,5.43,1420,1646,3318,107,134,46,83,0,0
1404,1617,3285,-12,-21,-23,6570,-1.00,-1.00,5.87,5.43,1420,1645,3317,107,134,46,83,0,0
1404,1618,3286,-14,-25,-28,6572,-1.00,-1.00,5.87,5.43,1419,1644,3316,107,134,46,83,0,0
1405,1620,3289,-15,-25,-29,6579,-1.00,-1.00,5.87,5.43,1419,1643,3315,107,134,46,83,0,0
1407,1622,3292,-14,-24,-27,6584,-1.00,-1.00,5.87,5.43,1418,1643,3314,107,134,46,83,0,0
1409,1626,3295,-12,-21,-24,6591,-1.00,-1.00,5.87,5.43,1418,1642,3313,107,134,46,83,0,0
1409,1627,3298,-10,-18,-20,6595,-1.00,-1.00,5.87,5.43,1418,1642,3313,107,134,46,83,0,0
1410,1626,3297,-9,-16,-17,6594,-1.00,-1.00,5.87,5.43,1418,1641,3312,107,134,46,83,0,0
1410,1628,3299,-8,-14,-15,6599,-1.00,-1.00,5.87,5.43,1417,1641,3312,107,134,46,83,0,0
1412,1630,3303,-7,-13,-13,6606,-1.00,-1.00,5.87,5.43,1417,1640,3312,107,134,46,83,0,0
1416,1639,3308,-5,-9,-10,6616,-1.00,-1.00,5.87,5.43,1417,1640,3311,107,134,46,83,0,0
1419,1645,3320,-2,-4,-4,6640,-1.00,-1.00,5.87,5.43,1417,1640,3312,107,134,46,83,0,0
1422,1651,3325,0,1,2,6651,-1.00,-1.00,5.87,5.43,1417,1641,3312,107,134,46,83,0,0
1425,1660,3330,3,8,8,6660,-1.00,-1.00,5.87,5.43,1418,1641,3313,107,134,46,83,0,0
1425,1667,3336,5,14,15,6672,-1.00,-1.00,5.87,5.43,1418,1642,3314,107,134,46,83,0,0
1429,1668,3336,7,19,18,6673,-1.00,-1.00,5.87,5.43,1418,1643,3314,107,134,46,83,0,0
1432,1673,3346,9,24,23,6692,-1.00,-1.00,5.87,5.43,1419,1644,3315,107,134,46,83,0,0
1434,1676,3353,11,27,27,6706,-1.00,-1.00,5.87,5.43,1419,1645,3317,107,134,46,83,0,0
1437,1681,3362,14,30,33,6727,-1.00,-1.00,5.87,5.43,1420,1646,3318,107,134,46,83,0,0
1437,1681,3362,15,32,38,6730,-1.00,-1.00,5.87,5.43,1420,1648,3320,107,134,46,83,0,0
1426,1678,3356,13,32,39,6713,-1.00,-1.00,5.87,5.43,1420,1649,3321,88,134,46,83,0,0
1421,1651,3321,10,24,30,6643,-1.00,-1.00,5.87,5.43,1421,1649,3321,88,115,52,84,0,0
1412,1632,3304,3,12,15,6609,-1.00,-1.00,4.45,3.96,1420,1648,3320,88,115,52,84,0,0
1407,1622,3291,-3,-2,-2,6583,-1.00,-1.00,4.45,3.96,1420,1647,3319,88,115,52,84,0,0
1404,1619,3287,-9,-16,-18,6575,-1.00,-1.00,4.45,3.96,1419,1646,3318,88,115,52,84,100,0
1403,1616,3285,-13,-24,-26,6571,-1.00,-1.00,4.45,3.96,1419,1645,3317,88,115,52,84,100,0
1403,1617,3285,-14,-27,-30,6570,-1.00,-1.00,4.45,3.96,1418,1644,3316,88,115,52,84,100,0
1405,1619,3287,-14,-27,-30,6575,-1.00,-1.00,4.45,3.96,1418,1644,3315,88,115,52,84,100,0
1407,1621,3291,-13,-25,-28,6582,-1.00,-1.00,4.45,3.96,1417,1643,3314,88,115,52,84,100,0
1408,1623,3294,-11,-23,-25,6588,-1.00,-1.00,4.45,3.96,1417,1642,3314,88,115,52,84,100,0
1408,1625,3295,-10,-20,-22,6591,-1.00,-1.00,4.45,3.96,1417,1642,3313,88,115,52,84,100,0
1409,1625,3297,-9,-18,-19,6595,-1.00,-1.00,4.45,3.96,1417,1641,3312,88,115,52,84,100,0
1409,1626,3299,-8,-16,-16,6599,-1.00,-1.00,4.45,3.96,1416,1640,3312,88,115,52,84,100,0
1411,1629,3303,-7,-14,-13,6606,-1.00,-1.00,4.45,3.96,1416,1640,3312,88,115,52,84,100,0
1413,1633,3309,-5,-12,-10,6618,-1.00,-1.00,4.45,3.96,1416,1640,3312,88,115,52,84,100,0
1418,1638,3314,-3,-8,-5,6628,-1.00,-1.00,4.45,3.96,1416,1640,3312,88,115,52,84,100,0
1422,1650,3325,0,-2,0,6651,-1.00,-1.00,4.45,3.96,1416,1640,3312,88,115,52,84,100,0
1424,1656,3333,3,4,8,6666,-1.00,-1.00,4.45,3.96,1417,1641,3313,88,115,52,84,100,0
1425,1666,3336,5,11,14,6672,-1.00,-1.00,4.45,3.96,1417,1642,3314,88,115,52,84,100,0
1425,1668,3339,7,18,20,6678,-1.00,-1.00,4.45,3.96,1417,1642,3314,88,115,52,84,100,0
1428,1668,3337,8,22,22,6674,-1.00,-1.00,4.45,3.96,1417,1643,3315,88,115,52,84,100,0
1434,1676,3352,10,26,26,6703,-1.00,-1.00,4.45,3.96,1418,1644,3316,88,115,52,84,100,0
1436,1678,3356,13,29,30,6711,-1.00,-1.00,4.45,3.96,1419,1645,3318,88,115,52,84,100,0
1433,1674,3348,14,29,31,6697,-1.00,-1.00,4.45,3.96,1419,1646,3319,88,115,52,84,100,0
1426,1665,3336,13,27,30,6673,-1.00,-1.00,4.45,3.96,1419,1647,3319,73,100,54,84,100,0
1417,1641,3317,9,18,20,6635,-1.00,-1.00,3.73,3.16,1419,1647,3319,73,100,54,84,100,0
1401,1615,3284,0,2,2,6565,-1.00,-1.00,3.73,3.16,1419,1646,3318,73,100,54,84,100,0
1398,1612,3283,-8,-13,-13,6555,-1.00,-1.00,3.73,3.16,1418,1645,3317,73,100,54,84,100,0
1396,1610,3285,-15,-26,-25,6552,-1.00,-1.00,3.73,3.16,1417,1644,3316,73,100,54,84,100,0
1395,1608,3284,-20,-33,-32,6550,-1.00,-1.00,3.73,3.16,1416,1642,3315,73,100,54,84,100,0
1395,1609,3286,-20,-33,-31,6551,-1.00,-1.00,3.73,3.16,1416,1641,3314,73,100,54,84,100,0
1397,1613,3289,-20,-31,-28,6560,-1.00,-1.00,3.73,3.16,1415,1640,3313,73,100,54,84,100,0
1399,1614,3287,-19,-29,-27,6564,-1.00,-1.00,3.73,3.16,1415,1639,3312,73,100,54,84,100,0
1400,1615,3288,-17,-27,-25,6566,-1.00,-1.00,3.73,3.16,1414,1639,3311,73,100,54,84,100,0
1400,1615,3287,-15,-24,-23,6568,-1.00,-1.00,3.73,3.16,1414,1638,3310,73,100,54,77,100,0
1401,1616,3290,-14,-23,-22,6570,-1.00,-1.00,3.73,3.16,1413,1637,3310,73,100,54,77,100,0
1403,1618,3290,-12,-21,-21,6579,-1.00,-1.00,3.73,3.16,1413,1636,3309,73,100,54,77,100,0
1405,1621,3294,-11,-19,-19,6589,-1.00,-1.00,3.73,3.16,1413,1636,3309,73,100,54,77,100,0
1408,1625,3301,-8,-16,-15,6601,-1.00,-1.00,3.73,3.16,1412,1636,3308,73,100,54,77,100,0
1410,1630,3307,-6,-12,-10,6614,-1.00,-1.00,3.73,3.16,1412,1635,3308,73,100,54,77,100,0
1413,1634,3315,-3,-8,-4,6630,-1.00,-1.00,3.73,3.16,1412,1635,3309,73,100,54,77,100,0
1420,1645,3330,0,-2,4,6661,-1.00,-1.00,3.73,3.16,1413,1636,3309,73,100,54,77,100,0
1423,1654,3338,4,5,13,6677,-1.00,-1.00,3.73,3.16,1413,1636,3310,73,100,54,77,100,0
1422,1658,3343,6,11,21,6687,-1.00,-1.00,3.73,3.16,1413,1637,3311,73,100,54,77,100,0
1426,1662,3345,9,18,28,6690,-1.00,-1.00,3.73,3.16,1414,1638,3312,73,100,54,77,100,0
1429,1672,3349,11,24,32,6697,-1.00,-1.00,3.73,3.16,1414,1639,3314,73,100,54,77,100,0
1436,1678,3356,14,29,35,6712,-1.00,-1.00,3.73,3.16,1415,1640,3315,73,100,54,77,100,0
1438,1681,3362,17,33,38,6725,-1.00,-1.00,3.73,3.16,1416,1642,3317,73,100,54,77,100,0
1438,1681,3362,20,37,41,6726,-1.00,-1.00,3.73,3.16,1416,1643,3318,73,100,54,77,100,0
1431,1675,3351,19,36,40,6702,-1.00,-1.00,3.73,3.16,1417,1644,3319,64,93,59,89,100,0
1422,1654,3338,15,29,34,6677,-1.00,-1.00,3.18,2.54,1417,1644,3320,64,93,59,89,100,0
1403,1619,3296,6,13,17,6584,-1.00,-1.00,3.18,2.54,1417,1644,3319,64,93,59,89,100,0
1397,1613,3297,-3,-3,1,6570,-1.00,-1.00,3.18,2.54,1416,1642,3318,64,93,59,89,100,0
1395,1610,3295,-12,-18,-12,6562,-1.00,-1.00,3.18,2.54,1415,1641,3318,64,93,59,89,100,0
1393,1607,3294,-18,-29,-22,6556,-1.00,-1.00,3.18,2.54,1415,1640,3317,64,93,59,89,100,0
1393,1606,3293,-20,-31,-22,6554,-1.00,-1.00,3.18,2.54,1414,1639,3316,64,93,59,89,100,0
1393,1608,3295,-20,-31,-22,6560,-1.00,-1.00,3.18,2.54,1413,1638,3315,64,93,59,89,100,0
1396,1611,3297,-20,-30,-21,6567,-1.00,-1.00,3.18,2.54,1413,1637,3315,64,93,59,89,100,0
1397,1612,3297,-18,-28,-19,6571,-1.00,-1.00,3.18,2.54,1412,1636,3314,64,93,59,89,100,0
1398,1614,3298,-16,-25,-17,6573,-1.00,-1.00,3.18,2.54,1412,1636,3314,64,93,59,89,100,0
1399,1614,3297,-14,-23,-16,6575,-1.00,-1.00,3.18,2.54,1411,1635,3313,64,93,59,89,100,0
1401,1617,3297,-12,-21,-16,6581,-1.00,-1.00,3.18,2.54,1411,1634,3312,64,93,59,89,100,0
1403,1618,3298,-11,-19,-15,6587,-1.00,-1.00,3.18,2.54,1411,1634,3312,64,93,59,89,100,0
1405,1621,3299,-8,-16,-14,6595,-1.00,-1.00,3.18,2.54,1410,1633,3312,64,93,59,89,100,0
1408,1625,3302,-6,-13,-12,6604,-1.00,-1.00,3.18,2.54,1410,1633,3311,64,93,59,89,100,0
1414,1628,3309,-2,-10,-9,6618,-1.00,-1.00,3.18,2.54,1410,1633,3311,64,93,59,89,100,0
1417,1639,3325,0,-4,-2,6650,-1.00,-1.00,3.18,2.54,1411,1633,3312,64,93,59,89,100,0
1420,1645,3335,4,1,6,6669,-1.00,-1.00,3.18,2.54,1411,1634,3312,64,93,59,89,100,0
1421,1651,3342,7,7,15,6684,-1.00,-1.00,3.18,2.54,1411,1634,3313,64,93,59,89,100,0
1423,1656,3345,9,13,24,6690,-1.00,-1.00,3.18,2.54,1412,1635,3314,64,93,59,89,100,0
1427,1663,3351,11,19,29,6702,-1.00,-1.00,3.18,2.54,1412,1636,3316,64,93,59,89,100,0
1433,1678,3358,14,26,34,6717,-1.00,-1.00,3.18,2.54,1413,1637,3317,64,93,59,89,100,0
1437,1681,3362,17,32,37,6724,-1.00,-1.00,3.18,2.54,1414,1639,3319,64,93,59,89,100,0
1440,1684,3369,20,38,42,6739,-1.00,-1.00,3.18,2.54,1415,1640,3320,64,93,59,89,100,0
1443,1688,3376,24,43,46,6753,-1.00,-1.00,3.18,2.54,1415,1642,3322,64,93,59,89,100,0
1446,1693,3386,26,45,52,6774,-1.00,-1.00,3.18,2.54,1416,1643,3324,64,93,59,87,100,0
1445,1691,3383,27,46,55,6768,-1.00,-1.00,3.18,2.54,1417,1645,3326,64,93,59,87,100,0
1436,1680,3361,26,44,51,6722,-1.00,-1.00,3.18,2.54,1418,1646,3327,60,89,63,87,100,0
1424,1655,3344,20,34,42,6687,-1.00,-1.00,2.86,2.23,1418,1646,3328,60,89,63,87,100,0
1417,1637,3322,12,20,25,6643,-1.00,-1.00,2.86,2.23,1418,1646,3328,60,89,63,87,100,0
1411,1626,3306,4,3,5,6612,-1.00,-1.00,2.86,2.23,1418,1646,3327,60,89,63,87,100,0
1406,1619,3298,-3,-11,-9,6591,-1.00,-1.00,2.86,2.23,1418,1645,3326,60,89,63,87,100,0
1404,1618,3297,-8,-20,-20,6587,-1.00,-1.00,2.86,2.23,1417,1644,3325,60,89,63,87,100,0
1404,1618,3298,-11,-24,-25,6588,-1.00,-1.00,2.86,2.23,1417,1643,3324,60,89,63,87,100,0
1406,1619,3297,-12,-25,-27,6590,-1.00,-1.00,2.86,2.23,1416,1642,3323,60,89,63,87,100,0
1407,1620,3298,-11,-23,-26,6596,-1.00,-1.00,2.86,2.23,1416,1641,3322,60,89,63,87,100,0
1409,1624,3304,-9,-21,-23,6608,-1.00,-1.00,2.86,2.23,1416,1641,3322,60,89,63,87,100,0
1409,1624,3304,-8,-19,-21,6609,-1.00,-1.00,2.86,2.23,1416,1640,3321,60,89,63,87,100,0
1410,1625,3305,-7,-17,-18,6611,-1.00,-1.00,2.86,2.23,1415,1640,3321,60,89,63,87,100,0
1411,1626,3307,-5,-15,-16,6614,-1.00,-1.00,2.86,2.23,1415,1639,3320,60,89,63,87,100,0
1412,1629,3312,-4,-13,-13,6624,-1.00,-1.00,2.86,2.23,1415,1639,3320,60,89,63,87,100,0
1417,1636,3324,-2,-10,-8,6648,-1.00,-1.00,2.86,2.23,1415,1639,3320,60,89,63,87,100,0
1421,1642,3331,0,-5,-1,6663,-1.00,-1.00,2.86,2.23,1415,1639,3321,60,89,63,87,100,0
1422,1647,3339,2,0,6,6679,-1.00,-1.00,2.86,2.23,1416,1639,3321,60,89,63,87,100,0
1422,1652,3344,5,5,13,6689,-1.00,-1.00,2.86,2.23,1416,1640,3322,60,89,63,87,100,0
1427,1658,3351,7,10,19,6702,-1.00,-1.00,2.86,2.23,1416,1640,3323,60,89,63,87,100,0
1434,1677,3361,10,18,26,6721,-1.00,-1.00,2.86,2.23,1417,1641,3324,60,89,63,87,100,0
1436,1681,3363,13,26,31,6726,-1.00,-1.00,2.86,2.23,1417,1643,3325,60,89,63,87,100,0
1440,1683,3368,17,32,36,6735,-1.00,-1.00,2.86,2.23,1418,1644,3327,60,89,63,87,100,0
1443,1688,3376,20,38,41,6753,-1.00,-1.00,2.86,2.23,1419,1646,3328,60,89,63,87,100,0
1443,1691,3383,22,40,45,6767,-1.00,-1.00,2.86,2.23,1420,1647,3330,60,89,63,87,100,0
1450,1699,3399,24,43,52,6803,-1.00,-1.00,2.86,2.23,1421,1649,3333,60,89,63,87,100,0
1451,1689,3378,26,43,52,6797,-1.00,-1.00,2.86,2.23,1422,1650,3334,60,89,63,87,100,0
1453,1690,3377,27,43,51,6803,-1.00,-1.00,2.86,2.23,1423,1651,3336,60,89,67,84,100,0
1452,1687,3371,29,40,46,6796,-1.00,-1.00,2.68,2.10,1424,1653,3337,60,84,67,84,100,0
1446,1687,3375,27,36,39,6780,-1.00,-1.00,2.68,2.10,1425,1654,3338,55,84,67,84,100,0
1425,1661,3349,19,28,30,6697,-1.00,-1.00,2.68,2.10,1425,1654,3338,55,84,67,84,100,0
1420,1643,3332,11,15,19,6664,-1.00,-1.00,2.68,2.10,1424,1654,3338,55,84,67,84,100,0
1415,1633,3318,2,2,5,6637,-1.00,-1.00,2.68,2.10,1424,1653,3337,55,84,67,84,100,0
1413,1629,3313,-6,-11,-9,6627,-1.00,-1.00,2.68,2.10,1424,1652,3337,55,84,67,84,100,0
1411,1627,3309,-9,-19,-19,6618,-1.00,-1.00,2.68,2.10,1423,1651,3336,55,84,67,84,100,0
1412,1627,3311,-10,-22,-23,6622,-1.00,-1.00,2.68,2.10,1423,1651,3335,55,84,67,84,100,0
1413,1630,3313,-11,-22,-24,6626,-1.00,-1.00,2.68,2.10,1423,1650,3334,55,84,67,84,100,0
1414,1631,3317,-10,-21,-22,6635,-1.00,-1.00,2.68,2.10,1422,1649,3334,55,84,67,84,100,0
1415,1633,3319,-9,-19,-19,6639,-1.00,-1.00,2.68,2.10,1422,1649,3333,55,84,67,84,100,0
1416,1633,3320,-7,-17,-16,6640,-1.00,-1.00,2.68,2.10,1422,1648,3333,55,84,67,84,100,0
1416,1634,3323,-6,-15,-13,6646,-1.00,-1.00,2.68,2.10,1422,1648,3332,55,84,67,84,100,0
1418,1637,3326,-5,-13,-10,6653,-1.00,-1.00,2.68,2.10,1422,1647,3332,55,84,67,84,100,0
1419,1640,3330,-4,-11,-7,6660,-1.00,-1.00,2.68,2.10,1421,1647,3332,55,84,67,84,100,0
1421,1644,3336,-3,-8,-3,6672,-1.00,-1.00,2.68,2.10,1421,1647,3332,55,84,67,84,100,0
1422,1649,3342,-1,-4,1,6683,-1.00,-1.00,2.68,2.10,1421,1647,3333,55,84,67,84,100,0
1425,1658,3349,0,0,6,6699,-1.00,-1.00,2.68,2.10,1422,1647,3333,55,84,67,84,100,0
1430,1665,3356,3,6,12,6712,-1.00,-1.00,2.68,2.10,1422,1648,3334,55,84,67,84,100,0
1432,1676,3361,5,14,18,6723,-1.00,-1.00,2.68,2.10,1422,1649,3335,55,84,67,84,100,0
1436,1681,3364,8,21,23,6728,-1.00,-1.00,2.68,2.10,1423,1650,3336,55,84,67,84,100,0
1439,1684,3369,11,27,27,6738,-1.00,-1.00,2.68,2.10,1423,1651,3337,55,84,67,84,100,0
1444,1690,3380,14,32,32,6762,-1.00,-1.00,2.68,2.10,1424,1652,3338,55,84,67,84,100,0
1446,1695,3390,17,35,38,6782,-1.00,-1.00,2.68,2.10,1425,1654,3340,55,84,67,84,100,0
1448,1696,3391,20,38,43,6792,-1.00,-1.00,2.68,2.10,1425,1655,3342,55,84,67,84,100,0
1450,1688,3376,22,38,43,6791,-1.00,-1.00,2.68,2.10,1426,1656,3343,55,84,67,84,100,0
1452,1688,3373,23,36,40,6796,-1.00,-1.00,2.68,2.10,1427,1657,3344,55,78,67,84,100,0
1457,1693,3376,25,34,35,6812,2.18,-0.08,2.35,1.92,1428,1659,3345,55,78,67,84,100,0
1456,1694,3377,26,32,31,6809,2.18,-0.08,2.35,1.92,1429,1660,3346,55,78,67,82,100,0
1448,1683,3364,24,30,27,6780,2.18,-0.08,2.35,1.92,1430,1661,3347,51,78,67,82,100,0
1440,1686,3373,21,28,26,6748,2.18,-0.08,2.35,1.92,1430,1661,3347,51,78,67,82,100,0
1428,1668,3352,13,21,19,6704,2.18,-0.08,2.35,1.92,1430,1662,3348,51,78,67,82,100,0
1418,1638,3326,3,7,6,6652,2.18,-0.08,2.35,1.92,1430,1661,3347,51,78,67,82,100,0
1415,1633,3320,-4,-4,-4,6640,2.18,-0.08,2.35,1.92,1429,1660,3346,51,78,67,82,100,0
1414,1632,3317,-10,-17,-17,6635,2.18,-0.08,2.35,1.92,1429,1659,3345,51,78,67,82,100,0
1414,1631,3316,-13,-26,-25,6633,2.18,-0.08,2.35,1.92,1428,1658,3344,51,78,67,82,100,0
1415,1633,3318,-14,-26,-26,6635,2.18,-0.08,2.35,1.92,1428,1657,3343,51,78,67,82,100,0
1418,1637,3324,-12,-24,-25,6649,2.18,-0.08,2.35,1.92,1427,1657,3343,51,78,67,82,100,0
1420,1638,3326,-10,-22,-22,6652,2.18,-0.08,2.35,1.92,1427,1656,3342,51,78,67,82,100,0
1420,1639,3327,-9,-19,-18,6655,2.18,-0.08,2.35,1.92,1427,1655,3341,51,78,67,82,100,0
1419,1639,3327,-7,-17,-15,6654,2.18,-0.08,2.35,1.92,1427,1655,3341,51,78,67,82,100,0
1420,1641,3329,-7,-15,-14,6658,2.18,-0.08,2.35,1.92,1426,1654,3341,51,78,67,82,100,0
1423,1646,3336,-6,-13,-11,6672,2.18,-0.08,2.35,1.92,1426,1654,3340,51,78,67,82,100,0
1422,1650,3341,-5,-10,-7,6682,2.18,-0.08,2.35,1.92,1426,1654,3340,51,78,67,82,100,0
1421,1656,3345,-4,-5,-2,6690,2.18,-0.08,2.35,1.92,1426,1654,3341,51,78,67,82,100,0
1425,1661,3349,-3,0,2,6699,2.18,-0.08,2.35,1.92,1426,1654,3341,51,78,67,82,100,0
1429,1669,3354,-1,4,6,6709,2.18,-0.08,2.35,1.92,1426,1655,3341,51,78,67,82,100,0
1436,1679,3358,1,11,10,6717,2.18,-0.08,2.35,1.92,1426,1656,3342,51,78,67,82,100,0
1438,1682,3364,5,17,14,6730,2.18,-0.08,2.35,1.92,1427,1656,3343,51,78,67,82,100,0
1441,1686,3372,9,23,19,6745,2.18,-0.08,2.35,1.92,1427,1657,3344,51,78,67,82,100,0
1442,1689,3379,12,27,24,6761,2.18,-0.08,2.35,1.92,1428,1658,3345,51,78,67,82,100,0
1444,1688,3377,13,28,28,6773,2.18,-0.08,2.35,1.92,1428,1659,3346,51,78,67,82,100,0
1448,1679,3358,15,27,26,6774,2.18,-0.08,2.35,1.92,1429,1660,3346,51,72,64,82,100,0
1450,1685,3366,17,25,24,6786,2.18,-0.08,2.27,1.87,1430,1661,3347,51,72,64,82,100,0
1453,1688,3368,19,24,20,6795,2.18,-0.08,2.27,1.87,1430,1662,3348,51,72,64,82,100,0
1456,1694,3373,21,25,19,6805,2.18,-0.08,2.27,1.87,1431,1663,3348,51,72,64,82,100,0
1455,1692,3371,22,27,21,6801,2.18,-0.08,2.27,1.87,1432,1664,3349,51,72,64,82,100,0
1439,1682,3365,19,25,20,6747,2.18,-0.08,2.27,1.87,1432,1664,3350,47,72,64,82,100,0
1429,1670,3348,13,20,15,6698,2.18,-0.08,2.27,1.87,1432,1665,3350,47,72,64,80,100,0
1423,1650,3337,4,9,5,6675,2.18,-0.08,2.27,1.87,1432,1664,3349,47,72,64,80,100,0
1418,1638,3325,-4,-4,-5,6650,2.18,-0.08,2.27,1.87,1431,1663,3348,47,72,64,80,100,0
1416,1634,3320,-10,-15,-16,6639,2.18,-0.08,2.27,1.87,1431,1662,3347,47,72,64,80,100,0
1415,1632,3317,-13,-24,-22,6634,2.18,-0.08,2.27,1.87,1430,1661,3346,47,72,64,80,100,0
1415,1634,3319,-14,-27,-26,6639,2.18,-0.08,2.27,1.87,1430,1660,3346,47,72,64,80,100,0
1417,1635,3323,-14,-27,-26,6647,2.18,-0.08,2.27,1.87,1429,1660,3345,47,72,64,80,100,0
1419,1638,3325,-13,-25,-24,6651,2.18,-0.08,2.27,1.87,1429,1659,3344,47,72,64,80,100,0
1419,1639,3327,-11,-22,-21,6654,2.18,-0.08,2.27,1.87,1429,1658,3344,47,72,64,80,100,0
1419,1640,3327,-10,-20,-18,6655,2.18,-0.08,2.27,1.87,1428,1658,3343,47,72,64,80,100,0
1419,1640,3327,-9,-18,-16,6655,2.18,-0.08,2.27,1.87,1428,1657,3342,47,72,64,80,100,0
1420,1641,3330,-9,-17,-15,6659,2.18,-0.08,2.27,1.87,1428,1656,3342,47,72,64,80,100,0
1422,1644,3332,-8,-15,-13,6664,2.18,-0.08,2.27,1.87,1428,1656,3342,47,72,64,80,100,0
1423,1648,3337,-6,-13,-10,6675,2.18,-0.08,2.27,1.87,1427,1656,3342,47,72,64,80,100,0
1422,1658,3344,-5,-8,-6,6690,2.18,-0.08,2.27,1.87,1427,1656,3342,47,72,64,80,100,0
1425,1666,3348,-4,-2,-1,6697,2.18,-0.08,2.27,1.87,1427,1656,3342,47,72,64,80,100,0
1430,1671,3348,-2,4,2,6699,2.18,-0.08,2.27,1.87,1427,1657,3342,47,72,64,80,100,0
1431,1677,3354,0,11,6,6708,2.18,-0.08,2.27,1.87,1427,1657,3342,47,72,64,80,100,0
1434,1679,3359,2,16,10,6719,2.18,-0.08,2.27,1.87,1428,1658,3343,47,72,64,80,100,0
1439,1686,3373,6,20,15,6735,2.18,-0.08,2.27,1.87,1428,1659,3344,47,72,64,80,100,0
1441,1687,3374,8,23,21,6757,2.18,-0.08,2.27,1.87,1429,1660,3345,47,72,64,80,100,0
1442,1679,3358,10,23,21,6754,2.18,-0.08,2.27,1.87,1429,1661,3345,47,72,64,80,100,0
1444,1679,3358,12,22,20,6760,2.18,-0.08,2.27,1.87,1429,1661,3346,47,66,60,80,100,0
1445,1672,3345,13,18,13,6755,2.18,-0.08,2.22,1.83,1430,1662,3346,47,66,60,80,100,0
1437,1680,3360,12,16,9,6731,2.18,-0.08,2.22,1.83,1430,1662,3346,42,66,60,80,100,0
1424,1663,3340,7,11,4,6684,2.18,-0.08,2.22,1.83,1430,1662,3346,42,66,60,80,100,0
1417,1639,3323,0,1,-3,6647,2.18,-0.08,2.22,1.83,1430,1661,3345,42,66,60,80,100,0
1408,1626,3306,-8,-9,-13,6613,2.18,-0.08,2.22,1.83,1429,1660,3344,42,66,60,80,100,0
1406,1619,3297,-15,-23,-27,6595,2.18,-0.08,2.22,1.83,1428,1659,3342,42,66,60,80,100,0
1405,1617,3294,-19,-34,-38,6590,2.18,-0.08,2.22,1.83,1427,1658,3341,42,66,60,80,100,0
1405,1618,3297,-21,-38,-43,6595,2.18,-0.08,2.22,1.83,1427,1656,3339,42,66,60,80,99,0
1406,1620,3298,-21,-38,-43,6596,2.18,-0.08,2.22,1.83,1426,1655,3338,42,66,60,80,99,0
1407,1621,3301,-20,-36,-41,6602,2.18,-0.08,2.22,1.83,1425,1654,3337,42,66,60,80,99,0
1408,1623,3303,-19,-34,-37,6606,2.18,-0.08,2.22,1.83,1425,1653,3336,42,66,60,80,99,0
1407,1621,3301,-18,-32,-35,6602,2.18,-0.08,2.22,1.83,1424,1652,3335,42,66,60,80,99,0
1406,1620,3299,-17,-31,-34,6598,2.18,-0.08,2.22,1.83,1423,1651,3333,42,66,60,80,99,0
1406,1620,3299,-17,-30,-33,6598,2.18,-0.08,2.22,1.83,1423,1650,3332,42,66,60,80,99,0
1407,1621,3301,-16,-30,-32,6602,2.18,-0.08,2.22,1.83,1422,1649,3331,42,66,60,80,99,0
1409,1625,3305,-15,-28,-30,6611,2.18,-0.08,2.22,1.83,1422,1648,3330,42,66,60,80,99,0
1413,1632,3315,-13,-24,-25,6621,2.18,-0.08,2.22,1.83,1422,1647,3330,42,66,60,80,99,0
1416,1637,3323,-10,-19,-19,6646,2.18,-0.08,2.22,1.83,1421,1647,3330,42,66,60,80,99,0
1419,1641,3328,-7,-13,-12,6656,2.18,-0.08,2.22,1.83,1421,1647,3329,42,66,60,80,99,0
1421,1648,3332,-4,-7,-5,6668,2.18,-0.08,2.22,1.83,1421,1647,3330,42,66,60,80,99,0
1422,1652,3336,-1,-2,0,6678,2.18,-0.08,2.22,1.83,1421,1647,3330,42,66,60,80,99,0
1423,1659,3340,0,3,4,6686,2.18,-0.08,2.22,1.83,1421,1647,3330,42,66,60,80,99,0
1426,1668,3345,1,9,8,6697,2.18,-0.08,2.22,1.83,1422,1648,3331,42,66,60,80,99,0
1429,1672,3348,3,15,11,6700,2.18,-0.08,2.22,1.83,1422,1649,3331,42,66,60,80,99,0
1431,1675,3352,5,20,15,6706,2.18,-0.08,2.22,1.83,1422,1650,3332,42,66,60,80,99,0
1425,1669,3343,5,21,15,6691,2.18,-0.08,2.22,1.83,1422,1650,3332,42,66,60,80,99,0
1420,1647,3331,4,16,11,6666,2.18,-0.08,2.22,1.83,1422,1650,3332,38,64,59,80,99,0
1395,1606,3278,-4,0,-5,6557,2.18,-0.08,2.19,1.51,1421,1649,3330,38,64,59,80,99,0
1391,1596,3262,-13,-19,-27,6524,2.18,-0.08,2.19,1.51,1420,1647,3328,38,64,59,80,99,0
1388,1592,3257,-22,-37,-47,6509,2.18,-0.08,2.19,1.51,1419,1645,3326,38,64,59,80,99,0
1387,1590,3256,-29,-50,-63,6503,2.18,-0.08,2.19,1.51,1418,1643,3323,38,64,59,80,99,0
1385,1589,3253,-30,-52,-67,6499,2.18,-0.08,2.19,1.51,1417,1642,3321,38,64,59,80,99,0
1387,1590,3251,-30,-52,-68,6502,2.18,-0.08,2.19,1.51,1416,1640,3319,38,64,59,80,99,0
1387,1591,3253,-30,-50,-66,6506,2.18,-0.08,2.19,1.51,1415,1638,3317,38,64,59,80,99,0
1389,1592,3254,-28,-48,-65,6509,2.18,-0.08,2.19,1.51,1414,1637,3314,38,64,59,80,99,0
1388,1591,3254,-26,-46,-62,6508,2.18,-0.08,2.19,1.51,1413,1635,3312,38,64,59,80,99,0
1386,1591,3252,-26,-44,-60,6504,2.18,-0.08,2.19,1.51,1412,1634,3310,38,64,59,80,99,0
1387,1590,3250,-25,-43,-58,6501,2.18,-0.08,2.19,1.51,1412,1632,3308,38,64,59,80,99,0
1387,1591,3253,-25,-42,-57,6506,2.18,-0.08,2.19,1.51,1411,1631,3307,38,64,59,80,99,0
1389,1594,3259,-24,-40,-54,6519,2.18,-0.08,2.19,1.51,1410,1630,3305,38,64,59,80,99,0
1391,1596,3264,-22,-37,-49,6528,2.18,-0.08,2.19,1.51,1409,1629,3304,38,64,59,80,99,0
1393,1601,3271,-19,-34,-43,6543,2.18,-0.08,2.19,1.51,1409,1628,3303,38,64,59,80,99,0
1395,1608,3282,-17,-28,-34,6564,2.18,-0.08,2.19,1.51,1408,1627,3302,38,64,59,80,99,0
1398,1613,3288,-14,-23,-26,6577,2.18,-0.08,2.19,1.51,1408,1626,3301,38,64,59,80,99,0
1401,1616,3294,-11,-17,-18,6588,2.18,-0.08,2.19,1.51,1408,1626,3301,38,64,59,80,99,0
1404,1620,3300,-8,-12,-10,6601,2.18,-0.08,2.19,1.51,1408,1626,3301,38,64,59,80,99,0
1406,1625,3305,-5,-7,-4,6611,2.18,-0.08,2.19,1.51,1408,1626,3301,38,64,59,80,99,0
1412,1635,3316,-2,-2,2,6634,2.18,-0.08,2.19,1.51,1408,1626,3302,38,64,59,80,99,0
1412,1635,3318,0,2,8,6638,2.18,-0.08,2.19,1.51,1408,1626,3302,38,64,59,80,99,0
1408,1628,3309,1,4,10,6618,2.18,-0.08,2.19,1.51,1408,1627,3303,38,64,59,80,99,0
1397,1612,3285,0,1,4,6571,2.18,-0.08,2.19,1.51,1408,1626,3302,36,62,64,80,99,0
1385,1590,3252,-7,-9,-10,6503,2.18,-0.08,1.97,1.32,1407,1625,3300,36,62,64,80,99,0
1368,1567,3235,-17,-26,-30,6461,2.18,-0.08,1.97,1.32,1406,1623,3298,36,62,64,80,99,0
1364,1563,3229,-27,-40,-48,6425,2.18,-0.08,1.97,1.32,1404,1621,3296,36,62,64,80,99,0
1362,1560,3227,-35,-52,-61,6417,2.18,-0.08,1.97,1.32,1403,1619,3294,36,62,64,80,99,0
1361,1558,3225,-39,-58,-65,6411,2.18,-0.08,1.97,1.32,1401,1617,3291,36,62,64,80,99,0
1360,1557,3224,-40,-58,-66,6410,2.18,-0.08,1.97,1.32,1400,1615,3289,36,62,64,80,99,0
1363,1560,3223,-39,-57,-65,6414,2.18,-0.08,1.97,1.32,1399,1613,3287,36,62,64,80,99,0
1364,1561,3224,-37,-55,-64,6423,2.18,-0.08,1.97,1.32,1398,1611,3285,36,62,64,80,99,0
1364,1561,3224,-35,-52,-62,6422,2.18,-0.08,1.97,1.32,1396,1610,3283,36,62,64,80,99,0
1363,1561,3223,-33,-49,-60,6421,2.18,-0.08,1.97,1.32,1395,1608,3281,36,62,64,80,99,0
1364,1561,3222,-32,-47,-58,6421,2.18,-0.08,1.97,1.32,1394,1606,3279,36,62,64,80,99,0
1365,1561,3222,-30,-46,-57,6423,2.18,-0.08,1.97,1.32,1393,1605,3277,36,62,64,80,99,0
1367,1565,3226,-28,-43,-54,6434,2.18,-0.08,1.97,1.32,1392,1604,3275,36,62,64,80,99,0
1369,1568,3227,-26,-40,-51,6442,2.18,-0.08,1.97,1.32,1392,1602,3273,36,62,64,80,99,0
1372,1571,3230,-23,-36,-48,6452,2.18,-0.08,1.97,1.32,1391,1601,3272,36,62,64,80,99,0
1374,1575,3232,-20,-32,-44,6463,2.18,-0.08,1.97,1.32,1390,1600,3271,36,62,64,80,99,0
1377,1579,3238,-17,-27,-39,6476,2.18,-0.08,1.97,1.32,1390,1600,3270,36,62,64,80,99,0
1384,1588,3253,-13,-21,-32,6505,2.18,-0.08,1.97,1.32,1390,1599,3269,36,62,64,80,99,0
1386,1593,3260,-9,-15,-24,6521,2.18,-0.08,1.97,1.32,1390,1599,3269,36,62,64,80,99,0
1389,1596,3266,-6,-10,-15,6533,2.18,-0.08,1.97,1.32,1390,1599,3269,36,62,64,80,99,0
1392,1600,3273,-2,-4,-6,6546,2.18,-0.08,1.97,1.32,1390,1599,3269,36,62,64,80,99,0
1392,1604,3279,0,0,0,6558,2.18,-0.08,1.97,1.32,1390,1599,3269,36,62,64,80,99,0
1395,1613,3289,2,4,7,6579,2.18,-0.08,1.97,1.32,1390,1600,3270,36,62,64,80,99,0
1395,1613,3290,3,8,13,6580,2.18,-0.08,1.97,1.32,1390,1600,3270,36,62,64,80,99,0
1392,1603,3275,3,8,13,6551,2.18,-0.08,1.97,1.32,1390,1600,3271,36,62,64,80,99,0
1380,1583,3243,0,3,4,6486,2.18,-0.08,1.97,1.32,1390,1600,3270,38,63,68,80,99,0
1366,1565,3219,-6,-8,-13,6426,2.18,-0.08,1.89,1.31,1389,1599,3268,38,63,68,80,99,0
1349,1545,3207,-17,-25,-32,6368,2.18,-0.08,1.89,1.31,1388,1597,3266,38,63,68,80,99,0
1344,1537,3200,-28,-40,-49,6351,2.18,-0.08,1.89,1.31,1386,1595,3264,38,63,68,80,99,0
1342,1535,3197,-36,-50,-59,6342,2.18,-0.08,1.89,1.31,1385,1593,3262,38,63,68,80,99,0
1340,1532,3194,-41,-56,-63,6336,2.18,-0.08,1.89,1.31,1383,1591,3259,38,63,68,80,99,0
1340,1532,3194,-42,-58,-64,6333,2.18,-0.08,1.89,1.31,1382,1589,3257,38,63,68,80,99,0
1343,1535,3196,-41,-56,-63,6343,2.18,-0.08,1.89,1.31,1381,1587,3255,38,63,68,80,99,0
1343,1537,3197,-39,-54,-60,6349,2.18,-0.08,1.89,1.31,1379,1585,3253,38,63,68,80,99,0
1344,1538,3196,-37,-50,-58,6350,2.18,-0.08,1.89,1.31,1378,1584,3251,38,63,68,80,99,0
1344,1538,3196,-35,-47,-55,6351,2.18,-0.08,1.89,1.31,1377,1582,3249,38,63,68,80,99,0
1344,1538,3196,-33,-45,-54,6352,2.18,-0.08,1.89,1.31,1376,1581,3248,38,63,68,80,99,0
1347,1542,3197,-31,-42,-52,6360,2.18,-0.08,1.89,1.31,1375,1579,3246,38,63,68,80,99,0
1350,1546,3198,-29,-39,-50,6368,2.18,-0.08,1.89,1.31,1374,1578,3244,38,63,68,80,99,0
1353,1547,3201,-26,-35,-47,6375,2.18,-0.08,1.89,1.31,1373,1577,3243,38,63,68,80,99,0
1355,1550,3205,-22,-31,-43,6385,2.18,-0.08,1.89,1.31,1373,1576,3242,38,63,68,80,99,0
1359,1555,3206,-18,-27,-39,6396,2.18,-0.08,1.89,1.31,1372,1576,3240,38,63,68,80,99,0
1364,1563,3208,-14,-22,-36,6405,2.18,-0.08,1.89,1.31,1372,1575,3239,38,63,68,80,99,0
1367,1565,3214,-11,-17,-31,6428,2.18,-0.08,1.89,1.31,1372,1575,3239,38,63,68,80,99,0
1370,1570,3221,-7,-12,-26,6442,2.18,-0.08,1.89,1.31,1372,1575,3238,38,63,68,80,99,0
1372,1575,3228,-3,-6,-20,6457,2.18,-0.08,1.89,1.31,1372,1575,3238,38,63,68,80,99,0
1376,1578,3234,0,-3,-13,6468,2.18,-0.08,1.89,1.31,1372,1575,3237,38,63,68,80,99,0
1381,1587,3241,2,2,-6,6482,2.18,-0.08,1.89,1.31,1372,1575,3238,38,63,68,80,99,0
1384,1592,3255,6,7,1,6511,2.18,-0.08,1.89,1.31,1373,1576,3238,38,63,68,80,99,0
1387,1597,3263,9,12,10,6526,2.18,-0.08,1.89,1.31,1373,1577,3239,38,63,68,80,99,0
1391,1601,3271,12,18,18,6543,2.18,-0.08,1.89,1.31,1374,1577,3240,38,63,68,80,99,0
1393,1605,3276,15,21,26,6553,2.18,-0.08,1.89,1.31,1374,1578,3241,38,63,68,80,99,0
1389,1601,3270,16,23,29,6541,2.18,-0.08,1.89,1.31,1375,1579,3242,38,63,68,80,99,0
1364,1564,3208,10,14,15,6416,2.18,-0.08,1.89,1.31,1374,1579,3241,43,68,74,80,99,0
1352,1548,3197,0,1,-3,6369,2.18,-0.08,1.89,1.37,1374,1577,3240,43,68,74,80,99,0
1342,1537,3188,-12,-15,-24,6336,2.18,-0.08,1.89,1.37,1373,1576,3238,43,68,74,80,99,0
1336,1528,3182,-24,-32,-45,6314,2.18,-0.08,1.89,1.37,1371,1575,3236,43,68,74,80,99,0
1333,1524,3178,-31,-41,-50,6302,2.18,-0.08,1.89,1.37,1370,1573,3234,43,68,74,80,99,0
1328,1519,3174,-36,-46,-54,6287,2.18,-0.08,1.89,1.37,1369,1571,3232,43,68,74,80,99,0
1328,1519,3173,-38,-49,-56,6287,2.18,-0.08,1.89,1.37,1367,1569,3230,43,68,74,80,99,0
1329,1520,3172,-38,-49,-56,6292,2.18,-0.08,1.89,1.37,1366,1568,3228,43,68,74,80,99,0
1332,1521,3172,-37,-48,-56,6295,2.18,-0.08,1.89,1.37,1365,1566,3226,43,68,74,80,99,0
1332,1523,3172,-35,-46,-55,6297,2.18,-0.08,1.89,1.37,1364,1565,3225,43,68,74,80,99,0
1332,1523,3171,-33,-43,-53,6297,2.18,-0.08,1.89,1.37,1363,1563,3223,43,68,74,80,99,0
1332,1523,3170,-31,-41,-52,6298,2.18,-0.08,1.89,1.37,1362,1562,3221,43,68,74,80,99,0
1335,1526,3172,-29,-39,-50,6304,2.18,-0.08,1.89,1.37,1361,1561,3219,43,68,74,80,99,0
1337,1529,3173,-27,-36,-48,6311,2.18,-0.08,1.89,1.37,1360,1560,3218,43,68,74,80,99,0
1339,1532,3175,-24,-33,-46,6320,2.18,-0.08,1.89,1.37,1359,1559,3216,43,68,74,80,99,0
1345,1540,3180,-20,-27,-42,6343,2.18,-0.08,1.89,1.37,1359,1558,3215,43,68,74,80,99,0
1348,1545,3184,-17,-22,-37,6355,2.18,-0.08,1.89,1.37,1359,1558,3214,43,68,74,80,99,0
1352,1550,3187,-12,-16,-33,6366,2.18,-0.08,1.89,1.37,1358,1557,3213,43,68,74,80,99,0
1355,1550,3189,-8,-11,-28,6374,2.18,-0.08,1.89,1.37,1358,1557,3212,43,68,74,80,99,0
1358,1555,3194,-5,-7,-24,6386,2.18,-0.08,1.89,1.37,1358,1557,3212,43,68,74,80,99,0
1363,1564,3208,-1,-2,-17,6417,2.18,-0.08,1.89,1.37,1358,1557,3212,43,68,74,80,99,0
1366,1567,3215,2,1,-10,6430,2.18,-0.08,1.89,1.37,1359,1558,3212,43,68,74,80,99,0
1369,1572,3223,5,7,-2,6446,2.18,-0.08,1.89,1.37,1359,1558,3212,43,68,74,80,99,0
1373,1577,3230,9,12,6,6460,2.18,-0.08,1.89,1.37,1359,1559,3213,43,68,74,80,99,0
1375,1581,3238,11,15,13,6476,2.18,-0.08,1.89,1.37,1360,1560,3214,43,68,74,80,99,0
1382,1592,3254,15,21,22,6508,2.18,-0.08,1.89,1.37,1361,1561,3215,43,68,74,80,99,0
1384,1595,3257,18,25,30,6514,2.18,-0.08,1.89,1.37,1362,1562,3216,43,68,74,80,99,0
1380,1588,3247,19,27,33,6494,2.18,-0.08,1.89,1.37,1362,1563,3217,43,68,74,80,99,0
1368,1571,3219,16,24,28,6438,2.18,-0.08,1.89,1.37,1362,1563,3217,47,70,78,80,99,0
1354,1552,3190,9,14,11,6371,2.18,-0.08,1.85,1.42,1362,1562,3217,47,70,78,80,99,0
1335,1529,3174,-2,-2,-9,6332,2.18,-0.08,1.85,1.42,1361,1561,3215,47,70,78,80,99,0
1329,1521,3170,-14,-18,-27,6288,2.18,-0.08,1.85,1.42,1360,1560,3214,47,70,78,80,99,0
1327,1519,3167,-24,-30,-39,6279,2.18,-0.08,1.85,1.42,1359,1559,3212,47,70,78,80,99,0
1325,1517,3165,-30,-37,-43,6273,2.18,-0.08,1.85,1.42,1358,1557,3210,47,70,78,80,99,0
1324,1517,3164,-32,-39,-44,6271,2.18,-0.08,1.85,1.42,1357,1556,3209,47,70,78,80,99,0
1327,1520,3164,-31,-38,-44,6274,2.18,-0.08,1.85,1.42,1356,1555,3207,47,70,78,80,99,0
1329,1522,3165,-30,-36,-43,6285,2.18,-0.08,1.85,1.42,1355,1554,3206,47,70,78,80,99,0
1330,1523,3166,-28,-34,-42,6289,2.18,-0.08,1.85,1.42,1354,1553,3205,47,70,78,80,99,0
1331,1525,3165,-25,-31,-40,6292,2.18,-0.08,1.85,1.42,1353,1552,3203,47,70,78,80,99,0
1332,1525,3166,-23,-28,-38,6293,2.18,-0.08,1.85,1.42,1353,1551,3202,47,70,78,80,99,0
1335,1529,3165,-21,-26,-37,6296,2.18,-0.08,1.85,1.42,1352,1550,3201,47,70,78,80,99,0
1338,1533,3169,-18,-22,-35,6313,2.18,-0.08,1.85,1.42,1351,1549,3200,47,70,78,80,99,0
1341,1537,3174,-15,-18,-32,6324,2.18,-0.08,1.85,1.42,1351,1549,3199,47,70,78,80,99,0
1344,1541,3175,-11,-14,-28,6336,2.18,-0.08,1.85,1.42,1351,1549,3198,47,70,78,80,99,0
1347,1546,3176,-8,-9,-25,6347,2.18,-0.08,1.85,1.42,1351,1549,3197,47,70,78,80,99,0
1354,1551,3180,-4,-5,-21,6360,2.18,-0.08,1.85,1.42,1351,1549,3197,47,70,78,80,99,0
1358,1560,3196,0,0,-15,6393,2.18,-0.08,1.85,1.42,1351,1549,3197,47,70,78,80,99,0
1361,1564,3205,4,6,-7,6410,2.18,-0.08,1.85,1.42,1351,1550,3197,47,70,78,80,99,0
1364,1567,3211,8,11,0,6423,2.18,-0.08,1.85,1.42,1352,1550,3198,47,70,78,80,99,0
1368,1571,3220,11,15,10,6440,2.18,-0.08,1.85,1.42,1352,1551,3198,47,70,78,80,99,0
1370,1577,3227,13,19,17,6455,2.18,-0.08,1.85,1.42,1353,1552,3199,47,70,78,80,99,0
1378,1588,3244,17,24,26,6489,2.18,-0.08,1.85,1.42,1354,1553,3201,47,70,78,80,99,0
1381,1592,3253,20,29,36,6506,2.18,-0.08,1.85,1.42,1355,1554,3202,47,70,78,80,99,0
1384,1598,3262,23,35,45,6525,2.18,-0.08,1.85,1.42,1356,1556,3204,47,70,78,80,99,0
1386,1603,3261,26,40,51,6529,2.18,-0.08,1.85,1.42,1357,1557,3206,47,70,78,80,99,0
1384,1599,3257,27,41,53,6518,2.18,-0.08,1.85,1.42,1358,1559,3208,47,70,78,80,99,0
1360,1562,3198,21,32,38,6396,2.18,-0.08,1.85,1.42,1358,1559,3208,50,72,83,81,99,0
1347,1548,3179,11,19,16,6348,2.18,-0.08,1.79,1.42,1357,1558,3207,50,72,83,81,99,0
1339,1537,3176,0,3,-4,6323,2.18,-0.08,1.79,1.42,1357,1558,3206,50,72,83,81,99,0
1336,1532,3172,-11,-13,-25,6308,2.18,-0.08,1.79,1.42,1356,1557,3205,50,72,83,81,99,0
1333,1529,3170,-17,-20,-31,6301,2.18,-0.08,1.79,1.42,1355,1556,3203,50,72,83,81,99,0
1332,1528,3170,-20,-25,-32,6298,2.18,-0.08,1.79,1.42,1354,1555,3202,50,72,83,81,99,0
1334,1529,3169,-21,-26,-32,6302,2.18,-0.08,1.79,1.42,1354,1554,3201,50,72,83,81,99,0
1336,1533,3172,-20,-24,-31,6311,2.18,-0.08,1.79,1.42,1353,1553,3200,50,72,83,81,99,0
1338,1536,3173,-18,-22,-29,6317,2.18,-0.08,1.79,1.42,1353,1553,3199,50,72,83,81,99,0
1339,1537,3173,-16,-19,-28,6320,2.18,-0.08,1.79,1.42,1352,1552,3199,50,72,83,81,99,0
1341,1538,3174,-14,-16,-26,6324,2.18,-0.08,1.79,1.42,1352,1552,3198,50,72,83,81,99,0
1341,1539,3174,-12,-14,-24,6327,2.18,-0.08,1.79,1.42,1351,1551,3197,50,72,83,81,99,0
1343,1542,3175,-10,-12,-23,6333,2.18,-0.08,1.79,1.42,1351,1551,3196,50,72,83,81,99,0
1345,1545,3175,-8,-10,-22,6342,2.18,-0.08,1.79,1.42,1351,1551,3195,50,72,83,81,99,0
1348,1549,3179,-6,-7,-20,6355,2.18,-0.08,1.79,1.42,1351,1551,3195,50,72,83,81,99,0
1355,1556,3190,-3,-3,-15,6381,2.18,-0.08,1.79,1.42,1351,1551,3195,50,72,83,81,99,0
1359,1563,3202,0,2,-8,6403,2.18,-0.08,1.79,1.42,1351,1551,3195,50,72,83,81,99,0
1362,1566,3210,4,7,0,6420,2.18,-0.08,1.79,1.42,1352,1552,3195,50,72,83,81,99,0
1366,1571,3219,9,12,10,6439,2.18,-0.08,1.79,1.42,1352,1553,3196,50,72,83,81,99,0
1370,1578,3228,12,17,19,6457,2.18,-0.08,1.79,1.42,1353,1553,3197,50,72,83,81,99,0
1377,1588,3244,16,22,28,6489,2.18,-0.08,1.79,1.42,1354,1555,3199,50,72,83,81,99,0
1380,1592,3251,20,28,37,6503,2.18,-0.08,1.79,1.42,1354,1556,3201,50,72,83,81,99,0
1384,1598,3259,23,33,45,6519,2.18,-0.08,1.79,1.42,1355,1557,3203,50,72,83,81,99,0
1386,1605,3264,27,39,52,6533,2.18,-0.08,1.79,1.42,1356,1559,3205,50,72,83,81,99,0
1389,1609,3262,29,43,55,6536,2.18,-0.08,1.79,1.42,1358,1560,3207,50,72,83,81,99,0
1384,1600,3256,29,43,54,6515,2.18,-0.08,1.79,1.42,1358,1562,3208,50,72,84,81,99,0
1370,1579,3228,24,37,45,6457,2.18,-0.08,1.76,1.41,1359,1562,3209,50,72,84,81,99,0
1357,1560,3194,16,25,27,6387,2.18,-0.08,1.76,1.41,1359,1562,3208,50,72,84,81,99,0
1348,1551,3183,6,10,7,6354,2.18,-0.08,1.76,1.41,1358,1562,3207,50,72,84,81,99,0
1344,1544,3181,-3,-3,-11,6339,2.18,-0.08,1.76,1.41,1358,1561,3207,50,72,84,81,99,0
1342,1541,3180,-10,-12,-22,6332,2.18,-0.08,1.76,1.41,1357,1561,3206,50,72,84,81,99,0
1342,1541,3179,-13,-16,-25,6333,2.18,-0.08,1.76,1.41,1357,1560,3205,50,72,84,81,99,0
1343,1544,3178,-14,-17,-26,6338,2.18,-0.08,1.76,1.41,1356,1559,3204,50,72,84,81,99,0
1345,1547,3178,-13,-16,-25,6345,2.18,-0.08,1.76,1.41,1356,1559,3203,50,72,84,81,99,0
1348,1552,3179,-11,-13,-25,6353,2.18,-0.08,1.76,1.41,1356,1559,3202,50,72,84,81,99,0
1350,1553,3178,-9,-10,-24,6357,2.18,-0.08,1.76,1.41,1356,1559,3201,50,72,84,81,99,0
1350,1553,3179,-7,-7,-23,6358,2.18,-0.08,1.76,1.41,1355,1558,3201,50,72,84,81,99,0
1351,1553,3179,-5,-5,-22,6358,2.18,-0.08,1.76,1.41,1355,1558,3200,50,72,84,81,99,0
1352,1552,3181,-4,-5,-21,6361,2.18,-0.08,1.76,1.41,1355,1558,3199,50,72,84,81,99,0
1354,1556,3188,-3,-4,-18,6377,2.18,-0.08,1.76,1.41,1355,1558,3199,50,72,84,81,99,0
1361,1566,3206,0,-1,-10,6413,2.18,-0.08,1.76,1.41,1355,1558,3199,50,72,84,81,99,0
1364,1571,3215,2,3,-1,6430,2.18,-0.08,1.76,1.41,1356,1559,3200,50,72,84,81,99,0
1368,1576,3224,6,8,8,6448,2.18,-0.08,1.76,1.41,1356,1559,3201,50,72,84,81,99,0
1372,1583,3234,10,15,19,6468,2.18,-0.08,1.76,1.41,1357,1560,3202,50,72,84,81,99,0
1375,1589,3243,13,20,27,6487,2.18,-0.08,1.76,1.41,1357,1561,3203,50,72,84,81,99,0
1383,1601,3258,17,26,37,6504,2.18,-0.08,1.76,1.41,1358,1562,3205,50,72,84,81,99,0
1385,1607,3261,21,33,44,6529,2.18,-0.08,1.76,1.41,1359,1564,3207,50,72,84,81,99,0
1389,1609,3261,24,38,49,6536,2.18,-0.08,1.76,1.41,1360,1565,3209,50,72,84,81,99,0
1391,1614,3259,27,43,52,6541,2.18,-0.08,1.76,1.41,1361,1567,3210,50,72,84,81,99,0
1393,1624,3268,29,47,52,6557,2.18,-0.08,1.76,1.41,1362,1569,3212,50,72,84,81,99,0
1392,1619,3268,29,48,52,6560,2.18,-0.08,1.76,1.41,1363,1571,3214,50,72,84,81,99,0
1382,1601,3251,27,44,48,6509,2.18,-0.08,1.76,1.41,1364,1572,3215,48,70,82,81,99,0
1367,1577,3221,20,34,38,6443,0.58,-0.08,1.75,1.38,1364,1572,3215,48,70,82,81,99,0
1357,1561,3193,10,18,18,6385,0.58,-0.08,1.75,1.38,1364,1571,3215,48,70,82,81,99,0
1351,1553,3183,0,1,-2,6362,0.58,-0.08,1.75,1.38,1363,1571,3214,48,70,82,81,99,0
1349,1553,3181,-7,-10,-19,6358,0.58,-0.08,1.75,1.38,1363,1570,3213,48,70,82,81,99,0
1349,1554,3182,-11,-15,-28,6357,0.58,-0.08,1.75,1.38,1362,1570,3211,48,70,82,81,99,0
1350,1553,3181,-12,-16,-30,6359,0.58,-0.08,1.75,1.38,1362,1569,3210,48,70,82,81,99,0
1352,1553,3183,-12,-16,-29,6364,0.58,-0.08,1.75,1.38,1361,1569,3210,48,70,82,81,99,0
1354,1558,3188,-10,-14,-26,6377,0.58,-0.08,1.75,1.38,1361,1568,3209,48,70,82,81,99,0
1358,1564,3195,-7,-11,-22,6390,0.58,-0.08,1.75,1.38,1361,1568,3208,48,70,82,81,99,0
1357,1564,3199,-5,-8,-17,6397,0.58,-0.08,1.75,1.38,1361,1568,3208,48,70,82,81,99,0
1357,1564,3199,-4,-5,-13,6398,0.58,-0.08,1.75,1.38,1361,1568,3208,48,70,82,81,99,0
1359,1565,3201,-3,-3,-9,6402,0.58,-0.08,1.75,1.38,1361,1568,3208,48,70,82,81,99,0
1360,1567,3206,-2,-3,-6,6413,0.58,-0.08,1.75,1.38,1361,1568,3207,48,70,82,81,99,0
1367,1577,3215,0,0,-2,6429,0.58,-0.08,1.75,1.38,1361,1568,3208,48,70,82,81,99,0
1371,1583,3232,3,5,5,6465,0.58,-0.08,1.75,1.38,1361,1568,3209,48,70,82,81,99,0
1375,1589,3240,7,10,14,6482,0.58,-0.08,1.75,1.38,1362,1569,3210,48,70,82,81,99,0
1378,1595,3251,11,17,25,6502,0.58,-0.08,1.75,1.38,1362,1570,3211,48,70,82,81,99,0
1382,1601,3255,14,22,34,6516,0.58,-0.08,1.75,1.38,1363,1571,3212,48,70,82,81,99,0
1385,1608,3260,17,27,39,6528,0.58,-0.08,1.75,1.38,1364,1572,3214,48,70,82,81,99,0
1392,1620,3263,20,34,44,6548,0.58,-0.08,1.75,1.38,1365,1574,3216,48,70,82,81,99,0
1393,1626,3270,23,40,47,6559,0.58,-0.08,1.75,1.38,1366,1576,3217,48,70,82,81,99,0
1395,1632,3275,26,46,50,6572,0.58,-0.08,1.75,1.38,1366,1577,3219,48,70,82,81,99,0
1395,1630,3272,27,50,51,6576,0.58,-0.08,1.75,1.38,1367,1579,3221,48,70,82,81,99,0
1394,1632,3274,27,51,52,6568,0.58,-0.08,1.75,1.38,1368,1581,3223,48,70,82,80,99,0
1373,1588,3236,21,41,42,6472,0.58,-0.08,1.75,1.38,1369,1581,3223,46,69,82,80,99,0
1360,1568,3205,12,24,24,6410,0.58,-0.08,1.72,1.32,1368,1581,3223,46,69,82,80,99,0
1353,1558,3187,1,5,2,6373,0.58,-0.08,1.72,1.32,1368,1580,3222,46,69,82,80,99,0
1351,1553,3182,-8,-13,-19,6362,0.58,-0.08,1.72,1.32,1367,1579,3220,46,69,82,80,99,0
1351,1553,3180,-13,-21,-32,6359,0.58,-0.08,1.72,1.32,1367,1578,3219,46,69,82,80,99,0
1351,1553,3181,-15,-24,-37,6360,0.58,-0.08,1.72,1.32,1366,1577,3218,46,69,82,80,99,0
1352,1556,3184,-15,-24,-36,6369,0.58,-0.08,1.72,1.32,1366,1577,3216,46,69,82,80,99,0
1355,1561,3192,-13,-21,-33,6385,0.58,-0.08,1.72,1.32,1365,1576,3216,46,69,82,80,99,0
1357,1564,3197,-11,-18,-27,6394,0.58,-0.08,1.72,1.32,1365,1576,3215,46,69,82,80,99,0
1358,1566,3201,-9,-14,-22,6402,0.58,-0.08,1.72,1.32,1365,1575,3215,46,69,82,80,99,0
1359,1565,3200,-7,-11,-17,6400,0.58,-0.08,1.72,1.32,1365,1575,3214,46,69,82,80,99,0
1359,1566,3203,-6,-10,-14,6407,0.58,-0.08,1.72,1.32,1364,1575,3214,46,69,82,80,99,0
1361,1569,3209,-5,-8,-11,6419,0.58,-0.08,1.72,1.32,1364,1575,3214,46,69,82,80,99,0
1363,1573,3216,-3,-6,-7,6433,0.58,-0.08,1.72,1.32,1364,1575,3214,46,69,82,80,99,0
1367,1579,3225,-1,-3,0,6451,0.58,-0.08,1.72,1.32,1364,1575,3214,46,69,82,80,99,0
1376,1591,3244,2,3,9,6488,0.58,-0.08,1.72,1.32,1365,1575,3215,46,69,82,80,99,0
1379,1599,3254,6,10,20,6508,0.58,-0.08,1.72,1.32,1365,1576,3216,46,69,82,80,99,0
1384,1605,3257,11,17,29,6521,0.58,-0.08,1.72,1.32,1366,1577,3218,46,69,82,80,99,0
1387,1610,3254,15,24,35,6526,0.58,-0.08,1.72,1.32,1367,1578,3219,46,69,82,80,99,0
1391,1616,3258,19,30,37,6539,0.58,-0.08,1.72,1.32,1367,1579,3220,46,69,82,80,99,0
1394,1626,3269,22,35,39,6564,0.58,-0.08,1.72,1.32,1368,1581,3222,46,69,82,80,99,0
1395,1632,3275,24,40,42,6577,0.58,-0.08,1.72,1.32,1369,1583,3224,46,69,82,80,99,0
1398,1639,3282,26,46,48,6591,0.58,-0.08,1.72,1.32,1370,1585,3225,46,69,82,80,99,0
1397,1642,3284,26,51,53,6591,0.58,-0.08,1.72,1.32,1371,1586,3227,46,69,82,80,99,0
1393,1624,3267,25,48,50,6557,0.58,-0.08,1.72,1.32,1372,1588,3229,44,71,84,80,99,0
1364,1576,3217,17,33,35,6433,0.58,-0.08,1.72,1.23,1371,1587,3228,44,71,84,80,99,0
1355,1563,3192,6,14,12,6385,0.58,-0.08,1.72,1.23,1371,1586,3227,44,71,84,80,99,0
1351,1554,3182,-5,-7,-13,6361,0.58,-0.08,1.72,1.23,1370,1585,3226,44,71,84,80,99,0
1349,1554,3179,-15,-23,-33,6356,0.58,-0.08,1.72,1.23,1370,1584,3224,44,71,84,80,99,0
1348,1555,3180,-19,-28,-41,6355,0.58,-0.08,1.72,1.23,1369,1583,3223,44,71,84,80,99,0
1349,1554,3178,-20,-29,-43,6354,0.58,-0.08,1.72,1.23,1368,1582,3221,44,71,84,80,99,0
1350,1553,3179,-19,-28,-43,6357,0.58,-0.08,1.72,1.23,1368,1581,3220,44,71,84,80,99,0
1352,1556,3185,-18,-27,-40,6369,0.58,-0.08,1.72,1.23,1367,1581,3219,44,71,84,80,99,0
1353,1560,3189,-16,-25,-36,6379,0.58,-0.08,1.72,1.23,1367,1580,3218,44,71,84,80,99,0
1354,1562,3193,-14,-22,-32,6387,0.58,-0.08,1.72,1.23,1366,1579,3217,44,71,84,80,99,0
1356,1564,3197,-12,-19,-26,6391,0.58,-0.08,1.72,1.23,1366,1579,3216,44,71,84,80,99,0
1357,1566,3200,-11,-16,-22,6401,0.58,-0.08,1.72,1.23,1365,1578,3216,44,71,84,80,99,0
1359,1567,3207,-9,-13,-16,6414,0.58,-0.08,1.72,1.23,1365,1578,3215,44,71,84,80,99,0
1362,1572,3215,-6,-11,-10,6431,0.58,-0.08,1.72,1.23,1365,1578,3215,44,71,84,80,99,0
1366,1579,3224,-4,-7,-4,6449,0.58,-0.08,1.72,1.23,1365,1578,3216,44,71,84,80,99,0
1374,1592,3234,0,0,4,6469,0.58,-0.08,1.72,1.23,1366,1578,3216,44,71,84,80,99,0
1379,1599,3250,4,7,14,6505,0.58,-0.08,1.72,1.23,1366,1579,3217,44,71,84,80,99,0
1382,1604,3250,9,14,22,6513,0.58,-0.08,1.72,1.23,1366,1580,3218,44,71,84,80,99,0
1386,1613,3258,14,22,30,6530,0.58,-0.08,1.72,1.23,1367,1581,3220,44,71,84,80,99,0
1391,1621,3261,17,28,35,6542,0.58,-0.08,1.72,1.23,1368,1582,3221,44,71,84,80,99,0
1392,1626,3269,20,34,39,6558,0.58,-0.08,1.72,1.23,1369,1584,3223,44,71,84,80,99,0
1395,1633,3275,22,40,43,6579,0.58,-0.08,1.72,1.23,1370,1585,3224,44,71,84,80,99,0
1399,1639,3280,24,45,47,6594,0.58,-0.08,1.72,1.23,1371,1587,3226,44,71,84,80,99,0
1403,1638,3277,26,47,50,6601,0.58,-0.08,1.72,1.23,1372,1589,3228,44,71,84,80,99,0
1404,1637,3275,28,48,49,6603,0.58,-0.08,1.72,1.23,1373,1591,3230,44,71,86,80,99,0
1397,1637,3277,28,48,48,6586,0.58,-0.08,1.68,1.20,1374,1592,3231,44,71,86,80,99,0
1373,1592,3238,21,35,36,6476,0.58,-0.08,1.68,1.20,1373,1592,3231,45,72,86,80,99,0
1360,1570,3205,10,17,18,6410,0.58,-0.08,1.68,1.20,1373,1591,3230,45,72,86,80,99,0
1354,1562,3191,-2,-1,-2,6382,0.58,-0.08,1.68,1.20,1372,1590,3229,45,72,86,80,99,0
1352,1558,3190,-12,-20,-23,6370,0.58,-0.08,1.68,1.20,1372,1589,3228,45,72,86,80,99,0
1350,1555,3188,-18,-28,-35,6364,0.58,-0.08,1.68,1.20,1371,1588,3227,45,72,86,80,99,0
1349,1554,3186,-20,-31,-38,6362,0.58,-0.08,1.68,1.20,1370,1587,3225,45,72,86,80,99,0
1351,1556,3187,-20,-31,-38,6366,0.58,-0.08,1.68,1.20,1370,1586,3224,45,72,86,80,99,0
1353,1560,3188,-19,-30,-37,6376,0.58,-0.08,1.68,1.20,1369,1585,3223,45,72,86,80,99,0
1355,1564,3193,-17,-27,-35,6387,0.58,-0.08,1.68,1.20,1369,1584,3222,45,72,86,80,99,0
1356,1565,3195,-15,-23,-31,6390,0.58,-0.08,1.68,1.20,1368,1584,3221,45,72,86,80,99,0
1357,1566,3197,-13,-20,-28,6394,0.58,-0.08,1.68,1.20,1368,1583,3220,45,72,86,80,99,0
1358,1568,3201,-11,-17,-24,6403,0.58,-0.08,1.68,1.20,1367,1583,3219,45,72,86,80,99,0
1360,1570,3207,-9,-15,-19,6415,0.58,-0.08,1.68,1.20,1367,1582,3219,45,72,86,80,99,0
1362,1575,3216,-8,-12,-14,6432,0.58,-0.08,1.68,1.20,1367,1582,3219,45,72,86,80,99,0
1367,1581,3225,-5,-8,-6,6451,0.58,-0.08,1.68,1.20,1367,1582,3219,45,72,86,80,99,0
1375,1595,3244,-1,-1,3,6487,0.58,-0.08,1.68,1.20,1367,1582,3220,45,72,86,80,99,0
1379,1603,3254,3,6,15,6508,0.58,-0.08,1.68,1.20,1368,1583,3221,45,72,86,80,99,0
1383,1611,3260,8,14,25,6525,0.58,-0.08,1.68,1.20,1368,1584,3222,45,72,86,80,99,0
1387,1617,3263,13,23,33,6536,0.58,-0.08,1.68,1.20,1369,1585,3224,45,72,86,80,99,0
1390,1625,3266,16,29,37,6546,0.58,-0.08,1.68,1.20,1370,1586,3225,45,72,86,80,99,0
1393,1638,3281,19,37,43,6574,0.58,-0.08,1.68,1.20,1370,1588,3227,45,72,86,80,99,0
1395,1638,3281,21,42,46,6583,0.58,-0.08,1.68,1.20,1371,1590,3229,45,72,86,80,99,0
1399,1643,3286,23,47,50,6598,0.58,-0.08,1.68,1.20,1372,1592,3231,45,72,86,80,99,0
1403,1638,3275,26,48,51,6601,0.58,-0.08,1.68,1.20,1373,1593,3232,45,72,86,80,99,0
1406,1636,3271,28,46,47,6607,0.58,-0.08,1.68,1.20,1374,1595,3233,45,74,87,80,99,0
1408,1641,3275,30,45,44,6615,0.58,-0.08,1.72,1.22,1375,1596,3235,45,74,87,80,99,0
1398,1637,3275,29,42,40,6589,0.58,-0.08,1.72,1.22,1376,1598,3236,47,74,87,80,99,0
1389,1627,3266,24,38,36,6539,0.58,-0.08,1.72,1.22,1377,1598,3237,47,74,87,80,99,0
1374,1597,3241,16,28,28,6482,0.58,-0.08,1.72,1.22,1376,1598,3237,47,74,87,80,99,0
1364,1578,3214,5,11,12,6427,0.58,-0.08,1.72,1.22,1376,1598,3237,47,74,87,80,99,0
1357,1567,3195,-5,-5,-7,6388,0.58,-0.08,1.72,1.22,1375,1597,3235,47,74,87,80,99,0
1355,1565,3194,-13,-20,-24,6385,0.58,-0.08,1.72,1.22,1375,1596,3234,47,74,87,80,99,0
1354,1564,3192,-17,-28,-35,6380,0.58,-0.08,1.72,1.22,1374,1595,3232,47,74,87,80,99,0
1354,1564,3192,-19,-30,-39,6382,0.58,-0.08,1.72,1.22,1373,1594,3231,47,74,87,80,99,0
1356,1566,3195,-19,-29,-38,6389,0.58,-0.08,1.72,1.22,1373,1593,3230,47,74,87,80,99,0
1360,1571,3203,-17,-27,-35,6405,0.58,-0.08,1.72,1.22,1372,1592,3229,47,74,87,80,99,0
1360,1572,3206,-15,-24,-30,6413,0.58,-0.08,1.72,1.22,1372,1591,3228,47,74,87,80,99,0
1361,1573,3207,-13,-21,-25,6415,0.58,-0.08,1.72,1.22,1372,1591,3227,47,74,87,80,99,0
1362,1574,3210,-11,-18,-21,6421,0.58,-0.08,1.72,1.22,1371,1590,3227,47,74,87,80,99,0
1363,1577,3214,-10,-16,-17,6428,0.58,-0.08,1.72,1.22,1371,1590,3226,47,74,87,80,99,0
1369,1586,3228,-7,-12,-12,6456,0.58,-0.08,1.72,1.22,1371,1590,3227,47,74,87,80,99,0
1373,1591,3235,-4,-8,-5,6471,0.58,-0.08,1.72,1.22,1371,1590,3227,47,74,87,80,99,0
1377,1599,3245,0,-1,3,6490,0.58,-0.08,1.72,1.22,1371,1590,3227,47,74,87,80,99,0
1380,1605,3256,3,5,13,6512,0.58,-0.08,1.72,1.22,1372,1590,3228,47,74,87,80,99,0
1384,1617,3265,7,12,22,6530,0.58,-0.08,1.72,1.22,1372,1591,3230,47,74,87,80,99,0
1392,1632,3271,11,22,30,6542,0.58,-0.08,1.72,1.22,1373,1593,3231,47,74,87,80,99,0
1393,1638,3279,14,31,37,6561,0.58,-0.08,1.72,1.22,1373,1594,3233,47,74,87,80,99,0
1394,1642,3286,17,38,43,6575,0.58,-0.08,1.72,1.22,1374,1596,3234,47,74,87,80,99,0
1396,1646,3293,20,44,48,6590,0.58,-0.08,1.72,1.22,1375,1597,3236,47,74,87,80,99,0
1399,1642,3284,21,45,50,6598,0.58,-0.08,1.72,1.22,1376,1599,3238,47,74,87,80,99,0
1406,1640,3274,23,44,47,6601,0.58,-0.08,1.72,1.22,1377,1600,3239,47,74,88,80,99,0
1410,1643,3279,26,43,44,6620,0.58,-0.08,1.70,1.26,1378,1602,3240,47,74,88,80,99,0
1413,1649,3284,29,42,40,6633,0.58,-0.08,1.70,1.26,1379,1603,3242,47,74,88,80,99,0
1413,1650,3283,32,43,39,6633,0.58,-0.08,1.70,1.26,1380,1605,3243,47,74,88,79,99,0
1406,1639,3271,31,41,37,6604,0.58,-0.08,1.70,1.26,1381,1606,3244,48,74,88,79,99,0
1382,1638,3279,23,38,35,6569,0.58,-0.08,1.70,1.26,1381,1607,3245,48,74,88,79,99,0
1372,1591,3230,12,23,21,6461,0.58,-0.08,1.70,1.26,1381,1606,3245,48,74,88,79,99,0
1365,1581,3214,0,6,4,6429,0.58,-0.08,1.70,1.26,1380,1606,3244,48,74,88,79,99,0
1361,1575,3206,-10,-9,-12,6412,0.58,-0.08,1.70,1.26,1379,1605,3243,48,74,88,79,99,0
1361,1573,3204,-15,-25,-29,6407,0.58,-0.08,1.70,1.26,1379,1604,3241,48,74,88,79,99,0
1359,1571,3200,-17,-29,-36,6400,0.58,-0.08,1.70,1.26,1378,1602,3240,48,74,88,79,99,0
1360,1573,3205,-18,-30,-37,6410,0.58,-0.08,1.70,1.26,1377,1601,3239,48,74,88,79,99,0
1363,1576,3210,-17,-28,-34,6421,0.58,-0.08,1.70,1.26,1377,1601,3238,48,74,88,79,99,0
1364,1579,3214,-15,-26,-31,6429,0.58,-0.08,1.70,1.26,1377,1600,3237,48,74,88,79,99,0
1366,1582,3218,-13,-22,-25,6436,0.58,-0.08,1.70,1.26,1376,1599,3236,48,74,88,79,99,0
1366,1582,3218,-11,-20,-21,6437,0.58,-0.08,1.70,1.26,1376,1599,3236,48,74,88,79,99,0
1368,1585,3222,-10,-17,-18,6445,0.58,-0.08,1.70,1.26,1376,1598,3235,48,74,88,79,99,0
1370,1589,3229,-8,-14,-13,6458,0.58,-0.08,1.70,1.26,1375,1598,3235,48,74,88,79,99,0
1373,1593,3236,-6,-11,-9,6472,0.58,-0.08,1.70,1.26,1375,1598,3235,48,74,88,79,99,0
1377,1600,3244,-3,-6,-2,6488,0.58,-0.08,1.70,1.26,1375,1598,3235,48,74,88,79,99,0
1380,1607,3252,0,0,5,6505,0.58,-0.08,1.70,1.26,1376,1598,3236,48,74,88,79,99,0
1388,1627,3265,4,8,13,6531,0.58,-0.08,1.70,1.26,1376,1599,3237,48,74,88,79,99,0
1392,1633,3268,8,18,20,6538,0.58,-0.08,1.70,1.26,1377,1600,3238,48,74,88,79,99,0
1393,1637,3276,11,26,27,6554,0.58,-0.08,1.70,1.26,1377,1602,3239,48,74,88,79,99,0
1393,1642,3285,14,33,34,6573,0.58,-0.08,1.70,1.26,1378,1603,3241,48,74,88,79,99,0
1395,1644,3289,15,36,39,6588,0.58,-0.08,1.70,1.26,1378,1604,3242,48,74,88,79,99,0
1403,1634,3268,18,35,38,6595,0.58,-0.08,1.70,1.26,1379,1605,3243,48,72,85,79,99,0
1406,1640,3275,20,35,36,6606,0.58,-0.08,1.71,1.33,1380,1606,3244,48,72,85,79,99,0
1409,1646,3278,23,35,34,6618,0.58,-0.08,1.71,1.33,1381,1608,3245,48,72,85,79,99,0
1413,1650,3283,27,35,31,6629,0.58,-0.08,1.71,1.33,1382,1609,3247,48,72,85,79,99,0
1416,1656,3288,29,39,35,6642,0.58,-0.08,1.71,1.33,1383,1611,3248,48,72,85,79,99,0
1411,1649,3279,29,40,34,6623,0.58,-0.08,1.71,1.33,1384,1612,3249,48,72,85,79,99,0
1398,1638,3274,26,37,32,6584,0.58,-0.08,1.71,1.33,1384,1613,3250,47,64,85,79,99,0
1389,1630,3263,19,31,26,6528,0.58,-0.08,1.71,1.33,1385,1613,3250,47,64,85,79,99,0
1379,1605,3245,10,17,15,6491,0.58,-0.08,1.71,1.33,1384,1613,3250,47,64,85,79,99,0
1372,1592,3229,0,3,2,6458,0.58,-0.08,1.71,1.33,1384,1612,3250,47,64,85,79,99,0
1367,1583,3217,-7,-9,-11,6434,0.58,-0.08,1.71,1.33,1383,1611,3248,47,64,85,79,99,0
1366,1582,3215,-12,-21,-22,6430,0.58,-0.08,1.71,1.33,1383,1610,3247,47,64,85,79,99,0
1366,1582,3217,-15,-26,-28,6434,0.58,-0.08,1.71,1.33,1382,1610,3246,47,64,85,79,99,0
1367,1585,3220,-16,-27,-29,6441,0.58,-0.08,1.71,1.33,1382,1609,3245,47,64,85,79,99,0
1369,1587,3224,-15,-25,-26,6449,0.58,-0.08,1.71,1.33,1381,1608,3245,47,64,85,79,99,0
1372,1592,3230,-13,-22,-22,6461,0.58,-0.08,1.71,1.33,1381,1607,3244,47,64,85,79,99,0
1372,1592,3231,-11,-18,-18,6463,0.58,-0.08,1.71,1.33,1381,1607,3244,47,64,85,79,99,0
1371,1592,3231,-9,-16,-15,6462,0.58,-0.08,1.71,1.33,1380,1606,3243,47,64,85,79,99,0
1372,1594,3235,-8,-14,-11,6470,0.58,-0.08,1.71,1.33,1380,1606,3243,47,64,85,79,99,0
1375,1598,3239,-7,-12,-9,6477,0.58,-0.08,1.71,1.33,1380,1606,3243,47,64,85,79,99,0
1381,1610,3252,-5,-7,-3,6504,0.58,-0.08,1.71,1.33,1380,1606,3243,47,64,85,79,99,0
1384,1620,3258,-2,0,2,6516,0.58,-0.08,1.71,1.33,1380,1606,3244,47,64,85,79,99,0
1388,1627,3258,2,7,8,6517,0.58,-0.08,1.71,1.33,1380,1607,3244,47,64,85,79,99,0
1390,1631,3264,5,15,14,6530,0.58,-0.08,1.71,1.33,1381,1608,3245,47,64,85,79,99,0
1393,1636,3273,8,21,18,6546,0.58,-0.08,1.71,1.33,1381,1609,3246,47,64,85,79,99,0
1395,1644,3278,10,26,22,6560,0.58,-0.08,1.71,1.33,1382,1610,3247,47,64,85,79,99,0
1398,1641,3283,12,28,28,6589,0.58,-0.08,1.71,1.33,1382,1611,3248,47,64,85,79,99,0
1401,1634,3267,14,28,27,6586,0.58,-0.08,1.71,1.33,1383,1612,3249,47,64,78,79,99,0
1404,1638,3269,16,27,26,6595,0.58,-0.08,1.65,1.42,1384,1613,3249,47,62,78,79,99,0
1408,1644,3278,19,26,25,6608,0.58,-0.08,1.65,1.42,1384,1614,3250,47,62,78,79,99,0
1410,1648,3279,21,27,23,6617,0.58,-0.08,1.65,1.42,1385,1615,3251,47,62,78,79,99,0
1404,1639,3270,21,27,23,6593,0.58,-0.08,1.65,1.42,1386,1616,3252,47,62,78,79,99,0
1393,1636,3272,18,26,23,6558,0.58,-0.08,1.65,1.42,1386,1616,3253,45,62,78,79,99,0
1384,1621,3252,12,20,16,6504,0.58,-0.08,1.65,1.42,1386,1616,3253,45,62,78,79,99,0
1374,1598,3234,2,7,4,6469,0.58,-0.08,1.65,1.42,1386,1616,3252,45,62,78,79,99,0
1368,1585,3222,-6,-5,-7,6445,0.58,-0.08,1.65,1.42,1385,1615,3251,45,62,78,78,99,0
1367,1584,3215,-12,-18,-20,6431,0.58,-0.08,1.65,1.42,1384,1614,3250,45,62,78,78,99,0
1367,1584,3216,-15,-26,-28,6432,0.58,-0.08,1.65,1.42,1384,1613,3249,45,62,78,78,99,0
1368,1585,3217,-16,-29,-32,6434,0.58,-0.08,1.65,1.42,1383,1612,3248,45,62,78,78,99,0
1369,1588,3221,-15,-27,-31,6443,0.58,-0.08,1.65,1.42,1383,1611,3247,45,62,78,78,99,0
1372,1593,3227,-14,-24,-27,6454,0.58,-0.08,1.65,1.42,1382,1610,3246,45,62,78,78,99,0
1372,1592,3229,-12,-21,-23,6459,0.58,-0.08,1.65,1.42,1382,1610,3245,45,62,78,78,99,0
1371,1592,3228,-11,-18,-19,6457,0.58,-0.08,1.65,1.42,1382,1609,3245,45,62,78,78,99,0
1372,1593,3230,-10,-17,-16,6461,0.58,-0.08,1.65,1.42,1381,1609,3244,45,62,78,78,99,0
1372,1595,3233,-9,-16,-14,6466,0.58,-0.08,1.65,1.42,1381,1608,3244,45,62,78,78,99,0
1378,1597,3236,-8,-14,-12,6473,0.58,-0.08,1.65,1.42,1381,1608,3244,45,62,78,78,99,0
1381,1610,3250,-5,-9,-6,6501,0.58,-0.08,1.65,1.42,1381,1608,3244,45,62,78,78,99,0
1384,1619,3254,-2,-2,0,6509,0.58,-0.08,1.65,1.42,1381,1608,3244,45,62,78,78,99,0
1387,1628,3258,1,5,5,6516,0.58,-0.08,1.65,1.42,1381,1609,3245,45,62,78,78,99,0
1390,1630,3261,4,13,11,6523,0.58,-0.08,1.65,1.42,1382,1610,3245,45,62,78,78,99,0
1392,1634,3268,6,18,15,6536,0.58,-0.08,1.65,1.42,1382,1610,3246,45,62,78,78,99,0
1393,1642,3285,8,23,22,6574,0.58,-0.08,1.65,1.42,1382,1612,3247,45,62,78,78,99,0
1396,1642,3286,10,25,28,6582,0.58,-0.08,1.65,1.42,1383,1613,3249,45,62,78,78,99,0
1399,1635,3270,12,26,29,6582,0.58,-0.08,1.65,1.42,1383,1613,3249,45,62,78,78,99,0
1401,1633,3264,14,25,27,6583,0.58,-0.08,1.65,1.42,1384,1614,3250,45,60,73,78,99,0
1400,1634,3265,15,22,21,6582,0.58,-0.08,1.66,1.45,1384,1615,3250,45,60,73,78,99,0
1386,1625,3253,12,17,13,6507,0.58,-0.08,1.66,1.45,1385,1615,3250,41,60,73,78,99,0
1372,1597,3231,5,7,3,6463,0.58,-0.08,1.66,1.45,1384,1614,3250,41,60,73,78,99,0
1364,1580,3208,-3,-5,-10,6417,0.58,-0.08,1.66,1.45,1383,1613,3248,41,60,73,78,99,0
1359,1571,3196,-13,-20,-26,6392,0.58,-0.08,1.66,1.45,1383,1612,3247,41,60,73,78,99,0
1357,1569,3192,-20,-33,-40,6384,0.58,-0.08,1.66,1.45,1382,1610,3245,41,60,73,78,99,0
1357,1569,3191,-23,-38,-49,6382,0.58,-0.08,1.66,1.45,1381,1609,3243,41,60,73,78,99,0
1357,1569,3193,-24,-40,-51,6385,0.58,-0.08,1.66,1.45,1380,1608,3241,41,60,73,78,99,0
1359,1571,3196,-23,-38,-49,6392,0.58,-0.08,1.66,1.45,1379,1606,3240,41,60,73,78,99,0
1360,1573,3200,-21,-36,-45,6401,0.58,-0.08,1.66,1.45,1379,1605,3239,41,60,73,78,99,0
1360,1574,3201,-20,-34,-41,6403,0.58,-0.08,1.66,1.45,1378,1604,3237,41,60,73,78,99,0
1359,1572,3198,-19,-32,-39,6396,0.58,-0.08,1.66,1.45,1378,1603,3236,41,60,73,78,99,0
1360,1572,3199,-18,-30,-37,6398,0.58,-0.08,1.66,1.45,1377,1602,3235,41,60,73,78,99,0
1360,1573,3202,-17,-29,-35,6404,0.58,-0.08,1.66,1.45,1376,1601,3234,41,60,73,78,99,0
1362,1577,3207,-16,-28,-33,6415,0.58,-0.08,1.66,1.45,1376,1600,3233,41,60,73,78,99,0
1364,1581,3214,-14,-25,-28,6429,0.58,-0.08,1.66,1.45,1375,1600,3232,41,60,73,78,99,0
1371,1592,3229,-11,-19,-19,6458,0.58,-0.08,1.66,1.45,1375,1600,3232,41,60,73,78,99,0
1374,1598,3236,-7,-12,-10,6473,0.58,-0.08,1.66,1.45,1375,1599,3232,41,60,73,78,99,0
1377,1603,3243,-3,-6,-1,6487,0.58,-0.08,1.66,1.45,1375,1600,3233,41,60,73,78,99,0
1379,1611,3251,0,1,7,6502,0.58,-0.08,1.66,1.45,1376,1600,3233,41,60,73,78,99,0
1382,1619,3255,2,7,13,6510,0.58,-0.08,1.66,1.45,1376,1601,3234,41,60,73,78,99,0
1388,1628,3256,5,14,17,6512,0.58,-0.08,1.66,1.45,1376,1602,3235,41,60,73,78,99,0
1389,1630,3261,8,20,21,6521,0.58,-0.08,1.66,1.45,1377,1602,3235,41,60,73,78,99,0
1388,1628,3258,10,24,22,6518,0.58,-0.08,1.66,1.45,1377,1603,3236,41,60,73,78,99,0
1379,1615,3247,9,22,19,6494,0.58,-0.08,1.66,1.45,1377,1604,3237,40,61,73,78,99,0
1366,1585,3216,3,11,9,6433,0.58,-0.08,1.69,1.29,1377,1603,3236,40,61,73,78,99,0
1343,1564,3186,-7,-5,-9,6368,0.58,-0.08,1.69,1.29,1375,1602,3234,40,61,73,78,99,0
1338,1547,3175,-19,-24,-28,6322,0.58,-0.08,1.69,1.29,1374,1600,3232,40,61,73,78,99,0
1336,1546,3173,-29,-40,-45,6312,0.58,-0.08,1.69,1.29,1373,1598,3230,40,61,73,78,99,0
1334,1542,3172,-35,-49,-54,6305,0.58,-0.08,1.69,1.29,1372,1596,3228,40,61,73,78,99,0
1333,1540,3170,-37,-53,-56,6301,0.58,-0.08,1.69,1.29,1370,1594,3226,40,61,73,78,99,0
1333,1541,3171,-37,-53,-55,6304,0.58,-0.08,1.69,1.29,1369,1593,3225,40,61,73,78,99,0
1336,1545,3174,-35,-51,-53,6315,0.58,-0.08,1.69,1.29,1368,1591,3223,40,61,73,78,99,0
1337,1546,3173,-33,-49,-51,6317,0.58,-0.08,1.69,1.29,1367,1590,3221,40,61,73,78,99,0
1336,1546,3172,-32,-46,-49,6315,0.58,-0.08,1.69,1.29,1366,1588,3220,40,61,73,78,99,0
1337,1546,3173,-30,-43,-47,6316,0.58,-0.08,1.69,1.29,1365,1587,3218,40,61,73,78,99,0
1336,1546,3172,-29,-41,-46,6318,0.58,-0.08,1.69,1.29,1364,1585,3216,40,61,73,78,99,0
1339,1549,3175,-27,-39,-44,6328,0.58,-0.08,1.69,1.29,1363,1584,3215,40,61,73,78,99,0
1342,1553,3176,-25,-36,-41,6337,0.58,-0.08,1.69,1.29,1363,1583,3214,40,61,73,78,99,0
1344,1557,3178,-22,-32,-39,6346,0.58,-0.08,1.69,1.29,1362,1582,3213,40,61,73,78,99,0
1348,1557,3181,-19,-28,-36,6354,0.58,-0.08,1.69,1.29,1361,1581,3212,40,61,73,78,99,0
1351,1562,3184,-15,-24,-32,6365,0.58,-0.08,1.69,1.29,1361,1581,3211,40,61,73,78,99,0
1357,1570,3195,-11,-19,-27,6391,0.58,-0.08,1.69,1.29,1361,1580,3210,40,61,73,78,99,0
1359,1574,3203,-7,-14,-20,6406,0.58,-0.08,1.69,1.29,1361,1580,3210,40,61,73,78,99,0
1362,1578,3210,-3,-9,-12,6420,0.58,-0.08,1.69,1.29,1361,1580,3210,40,61,73,78,99,0
1364,1582,3217,0,-4,-3,6435,0.58,-0.08,1.69,1.29,1361,1580,3210,40,61,73,78,99,0
1367,1588,3223,2,0,3,6446,0.58,-0.08,1.69,1.29,1361,1580,3211,40,61,73,78,99,0
1370,1594,3231,4,5,9,6461,0.58,-0.08,1.69,1.29,1362,1581,3211,40,61,73,78,99,0
1363,1582,3215,4,6,10,6430,0.58,-0.08,1.69,1.29,1362,1581,3211,40,61,73,78,99,0
1351,1563,3184,1,1,2,6366,0.58,-0.08,1.69,1.29,1361,1580,3210,40,61,72,78,99,0
1336,1547,3170,-6,-8,-10,6315,0.47,-0.08,1.72,1.31,1360,1579,3209,40,61,72,78,99,0
1326,1532,3160,-16,-23,-27,6275,0.47,-0.08,1.72,1.31,1359,1578,3207,40,61,72,78,99,0
1315,1516,3150,-27,-38,-42,6233,0.47,-0.08,1.72,1.31,1358,1576,3206,40,61,72,78,99,0
1312,1511,3146,-36,-50,-50,6222,0.47,-0.08,1.72,1.31,1356,1573,3204,40,61,72,78,99,0
1309,1508,3144,-41,-57,-54,6214,0.47,-0.08,1.72,1.31,1355,1571,3202,40,61,72,78,99,0
1309,1507,3142,-44,-61,-57,6211,0.47,-0.08,1.72,1.31,1353,1569,3200,40,61,72,78,99,0
1310,1509,3143,-44,-61,-57,6216,0.47,-0.08,1.72,1.31,1352,1567,3198,40,61,72,78,99,0
1314,1515,3148,-42,-58,-54,6226,0.47,-0.08,1.72,1.31,1350,1565,3196,40,61,72,78,99,0
1315,1516,3147,-39,-54,-52,6234,0.47,-0.08,1.72,1.31,1349,1564,3194,40,61,72,78,99,0
1314,1516,3148,-36,-50,-48,6235,0.47,-0.08,1.72,1.31,1348,1562,3193,40,61,72,78,99,0
1315,1516,3148,-34,-47,-45,6235,0.47,-0.08,1.72,1.31,1347,1561,3191,40,61,72,78,99,0
1316,1518,3149,-32,-45,-44,6241,0.47,-0.08,1.72,1.31,1346,1559,3190,40,61,72,78,99,0
1321,1523,3151,-30,-41,-41,6248,0.47,-0.08,1.72,1.31,1345,1558,3189,40,61,72,78,99,0
1324,1528,3157,-26,-37,-38,6269,0.47,-0.08,1.72,1.31,1344,1557,3188,40,61,72,78,99,0
1325,1532,3161,-23,-32,-34,6279,0.47,-0.08,1.72,1.31,1344,1556,3187,40,61,72,78,99,0
1329,1537,3164,-19,-26,-29,6291,0.47,-0.08,1.72,1.31,1343,1556,3186,40,61,72,78,99,0
1332,1542,3168,-16,-21,-24,6305,0.47,-0.08,1.72,1.31,1343,1555,3185,40,61,72,78,99,0
1339,1546,3172,-12,-16,-19,6317,0.47,-0.08,1.72,1.31,1343,1555,3185,40,61,72,78,99,0
1342,1555,3176,-7,-10,-15,6339,0.47,-0.08,1.72,1.31,1343,1555,3185,40,61,72,78,99,0
1345,1557,3177,-3,-5,-11,6347,0.47,-0.08,1.72,1.31,1343,1555,3184,40,61,72,78,99,0
1348,1558,3182,0,-1,-7,6356,0.47,-0.08,1.72,1.31,1343,1555,3184,40,61,72,78,99,0
1350,1564,3185,3,3,-4,6370,0.47,-0.08,1.72,1.31,1343,1555,3184,40,61,72,78,99,0
1353,1567,3192,5,6,0,6384,0.47,-0.08,1.72,1.31,1344,1556,3185,40,61,72,78,99,0
1359,1576,3207,9,10,7,6414,0.47,-0.08,1.72,1.31,1344,1556,3185,40,61,72,78,99,0
1363,1583,3216,12,16,15,6432,0.47,-0.08,1.72,1.31,1345,1557,3186,40,61,72,78,99,0
1366,1588,3223,15,21,23,6447,0.47,-0.08,1.72,1.31,1345,1558,3188,40,61,72,78,99,0
1369,1594,3230,19,27,32,6461,0.47,-0.08,1.72,1.31,1346,1559,3189,40,61,72,78,99,0
1368,1591,3227,20,30,35,6454,0.47,-0.08,1.72,1.31,1347,1561,3190,40,61,72,78,99,0
1344,1556,3176,15,22,24,6343,0.47,-0.08,1.72,1.31,1347,1560,3190,46,68,77,78,99,0
1329,1539,3166,6,10,10,6294,0.47,-0.08,1.81,1.41,1346,1560,3189,46,68,77,78,99,0
1321,1525,3157,-5,-7,-7,6258,0.47,-0.08,1.81,1.41,1345,1558,3188,46,68,77,78,99,0
1314,1515,3149,-18,-25,-26,6233,0.47,-0.08,1.81,1.41,1344,1557,3187,46,68,77,78,99,0
1309,1510,3145,-26,-35,-33,6217,0.47,-0.08,1.81,1.41,1343,1555,3185,46,68,77,78,99,0
1304,1503,3139,-31,-42,-38,6198,0.47,-0.08,1.81,1.41,1342,1554,3184,46,68,77,78,99,0
1303,1502,3139,-35,-47,-41,6196,0.47,-0.08,1.81,1.41,1341,1552,3182,46,68,77,78,99,0
1305,1504,3140,-36,-48,-42,6202,0.47,-0.08,1.81,1.41,1339,1550,3181,46,68,77,78,99,0
1307,1506,3142,-35,-47,-41,6210,0.47,-0.08,1.81,1.41,1338,1549,3179,46,68,77,78,99,0
1309,1508,3143,-32,-44,-39,6215,0.47,-0.08,1.81,1.41,1337,1548,3178,46,68,77,78,99,0
1310,1510,3143,-29,-41,-36,6218,0.47,-0.08,1.81,1.41,1336,1546,3177,46,68,77,78,99,0
1310,1510,3143,-27,-38,-34,6220,0.47,-0.08,1.81,1.41,1336,1545,3176,46,68,77,78,99,0
1311,1512,3144,-26,-35,-33,6225,0.47,-0.08,1.81,1.41,1335,1544,3175,46,68,77,78,99,0
1314,1515,3147,-24,-32,-31,6232,0.47,-0.08,1.81,1.41,1334,1543,3174,46,68,77,78,99,0
1316,1519,3148,-21,-29,-29,6241,0.47,-0.08,1.81,1.41,1333,1542,3173,46,68,77,78,99,0
1322,1528,3156,-18,-24,-24,6268,0.47,-0.08,1.81,1.41,1333,1542,3172,46,68,77,78,99,0
1324,1532,3159,-14,-18,-20,6279,0.47,-0.08,1.81,1.41,1333,1541,3172,46,68,77,78,99,0
1327,1536,3163,-10,-12,-15,6289,0.47,-0.08,1.81,1.41,1333,1541,3172,46,68,77,78,99,0
1331,1541,3166,-7,-7,-11,6301,0.47,-0.08,1.81,1.41,1333,1541,3172,46,68,77,78,99,0
1334,1546,3170,-4,-2,-7,6315,0.47,-0.08,1.81,1.41,1333,1541,3171,46,68,77,78,99,0
1340,1553,3174,0,2,-3,6324,0.47,-0.08,1.81,1.41,1333,1542,3172,46,68,77,78,99,0
1343,1558,3175,4,8,0,6345,0.47,-0.08,1.81,1.41,1333,1542,3172,46,68,77,78,99,0
1346,1558,3178,7,11,2,6352,0.47,-0.08,1.81,1.41,1334,1543,3172,46,68,77,78,99,0
1349,1563,3183,11,15,5,6366,0.47,-0.08,1.81,1.41,1334,1544,3172,46,68,77,78,99,0
1352,1567,3190,13,18,9,6381,0.47,-0.08,1.81,1.41,1335,1544,3173,46,68,77,78,99,0
1358,1571,3197,16,20,14,6395,0.47,-0.08,1.81,1.41,1335,1545,3174,46,68,77,78,99,0
1361,1582,3214,20,26,22,6428,0.47,-0.08,1.81,1.41,1336,1546,3175,46,68,77,78,99,0
1365,1588,3221,23,31,30,6442,0.47,-0.08,1.81,1.41,1337,1548,3177,46,68,77,78,99,0
1368,1594,3229,26,36,39,6459,0.47,-0.08,1.81,1.41,1338,1549,3178,46,68,77,78,99,0
1371,1600,3236,28,42,47,6473,0.47,-0.08,1.81,1.41,1339,1551,3180,46,68,77,78,99,0
1372,1602,3239,30,45,52,6478,0.47,-0.08,1.81,1.41,1340,1553,3182,46,68,77,78,99,0
1352,1568,3189,26,39,42,6378,0.47,-0.08,1.81,1.41,1341,1553,3182,51,74,81,78,99,0
1337,1550,3170,17,27,27,6321,0.47,-0.08,1.87,1.49,1341,1553,3182,51,74,81,78,99,0
1325,1535,3160,6,10,7,6278,0.47,-0.08,1.87,1.49,1340,1553,3181,51,74,81,78,99,0
1319,1524,3153,-7,-8,-13,6251,0.47,-0.08,1.87,1.49,1340,1552,3180,51,74,81,78,99,0
1314,1517,3148,-16,-20,-22,6233,0.47,-0.08,1.87,1.49,1339,1550,3179,51,74,81,78,99,0
1308,1510,3142,-22,-29,-28,6213,0.47,-0.08,1.87,1.49,1338,1549,3178,51,74,81,78,99,0
1307,1508,3140,-26,-35,-32,6209,0.47,-0.08,1.87,1.49,1337,1548,3177,51,74,81,78,99,0
1308,1509,3142,-28,-37,-34,6212,0.47,-0.08,1.87,1.49,1336,1546,3176,51,74,81,78,99,0
1310,1512,3144,-28,-37,-34,6220,0.47,-0.08,1.87,1.49,1335,1545,3175,51,74,81,78,99,0
1312,1514,3144,-26,-35,-32,6227,0.47,-0.08,1.87,1.49,1334,1544,3173,51,74,81,78,99,0
1313,1516,3146,-23,-31,-30,6232,0.47,-0.08,1.87,1.49,1333,1543,3173,51,74,81,78,99,0
1314,1517,3146,-21,-29,-28,6233,0.47,-0.08,1.87,1.49,1333,1543,3172,51,74,81,78,99,0
1315,1518,3147,-19,-26,-26,6238,0.47,-0.08,1.87,1.49,1332,1542,3171,51,74,81,78,99,0
1316,1521,3148,-18,-24,-24,6244,0.47,-0.08,1.87,1.49,1332,1541,3170,51,74,81,78,99,0
1319,1524,3151,-16,-21,-22,6253,0.47,-0.08,1.87,1.49,1331,1540,3169,51,74,81,78,99,0
1324,1533,3158,-13,-16,-18,6277,0.47,-0.08,1.87,1.49,1331,1540,3169,51,74,81,78,99,0
1327,1538,3162,-9,-11,-14,6290,0.47,-0.08,1.87,1.49,1331,1540,3169,51,74,81,78,99,0
1331,1543,3165,-5,-5,-10,6303,0.47,-0.08,1.87,1.49,1331,1540,3169,51,74,81,78,99,0
1335,1548,3167,-1,0,-6,6316,0.47,-0.08,1.87,1.49,1331,1540,3169,51,74,81,78,99,0
1339,1552,3169,2,5,-3,6327,0.47,-0.08,1.87,1.49,1331,1541,3169,51,74,81,78,99,0
1345,1559,3173,6,10,0,6345,0.47,-0.08,1.87,1.49,1332,1541,3169,51,74,81,78,99,0
1347,1562,3179,10,14,3,6357,0.47,-0.08,1.87,1.49,1332,1542,3169,51,74,81,78,99,0
1350,1567,3187,13,18,7,6374,0.47,-0.08,1.87,1.49,1333,1543,3170,51,74,81,78,99,0
1353,1571,3195,16,22,13,6391,0.47,-0.08,1.87,1.49,1333,1544,3171,51,74,81,78,99,0
1356,1576,3202,18,25,20,6405,0.47,-0.08,1.87,1.49,1334,1545,3172,51,74,81,78,99,0
1363,1588,3220,21,31,29,6440,0.47,-0.08,1.87,1.49,1335,1546,3173,51,74,81,78,99,0
1366,1593,3226,25,36,38,6453,0.47,-0.08,1.87,1.49,1336,1548,3175,51,74,81,78,99,0
1370,1602,3234,28,42,46,6468,0.47,-0.08,1.87,1.49,1337,1550,3177,51,74,81,78,99,0
1372,1607,3237,31,48,53,6475,0.47,-0.08,1.87,1.49,1338,1552,3179,51,74,81,78,99,0
1368,1599,3231,31,49,54,6462,0.47,-0.08,1.87,1.49,1339,1553,3181,51,74,81,77,99,0
1343,1559,3172,24,39,39,6407,0.47,-0.08,1.87,1.49,1340,1553,3180,53,77,83,77,99,0
1330,1543,3163,14,24,20,6297,0.47,-0.08,1.90,1.52,1339,1553,3180,53,77,83,77,99,0
1323,1532,3157,1,5,0,6269,0.47,-0.08,1.90,1.52,1339,1552,3179,53,77,83,77,99,0
1319,1526,3151,-10,-12,-18,6251,0.47,-0.08,1.90,1.52,1338,1552,3178,53,77,83,77,99,0
1316,1523,3149,-16,-21,-23,6243,0.47,-0.08,1.90,1.52,1337,1551,3177,53,77,83,77,99,0
1315,1520,3146,-19,-26,-26,6236,0.47,-0.08,1.90,1.52,1337,1550,3176,53,77,83,77,99,0
1315,1520,3147,-20,-28,-28,6238,0.47,-0.08,1.90,1.52,1336,1549,3175,53,77,83,77,99,0
1317,1524,3149,-20,-27,-27,6247,0.47,-0.08,1.90,1.52,1335,1548,3174,53,77,83,77,99,0
1320,1526,3151,-19,-26,-26,6255,0.47,-0.08,1.90,1.52,1335,1547,3173,53,77,83,77,99,0
1321,1528,3151,-16,-23,-24,6261,0.47,-0.08,1.90,1.52,1334,1546,3173,53,77,83,77,99,0
1324,1530,3154,-14,-19,-21,6262,0.47,-0.08,1.90,1.52,1334,1546,3172,53,77,83,77,99,0
1324,1530,3154,-12,-17,-20,6267,0.47,-0.08,1.90,1.52,1334,1545,3172,53,77,83,77,99,0
1323,1533,3155,-10,-15,-18,6271,0.47,-0.08,1.90,1.52,1333,1545,3171,53,77,83,77,99,0
1326,1536,3158,-9,-13,-16,6280,0.47,-0.08,1.90,1.52,1333,1545,3171,53,77,83,77,99,0
1328,1539,3160,-8,-10,-14,6289,0.47,-0.08,1.90,1.52,1333,1544,3170,53,77,83,77,99,0
1335,1549,3167,-5,-5,-10,6303,0.47,-0.08,1.90,1.52,1333,1545,3170,53,77,83,77,99,0
1339,1553,3168,-1,0,-7,6326,0.47,-0.08,1.90,1.52,1333,1545,3170,53,77,83,77,99,0
1342,1559,3170,3,5,-3,6338,0.47,-0.08,1.90,1.52,1333,1545,3170,53,77,83,77,99,0
1345,1559,3173,7,9,0,6346,0.47,-0.08,1.90,1.52,1334,1546,3170,53,77,83,77,99,0
1349,1565,3182,10,13,3,6364,0.47,-0.08,1.90,1.52,1334,1546,3170,53,77,83,77,99,0
1355,1570,3190,13,17,8,6380,0.47,-0.08,1.90,1.52,1335,1547,3171,53,77,83,77,99,0
1358,1579,3207,17,21,17,6414,0.47,-0.08,1.90,1.52,1336,1548,3172,53,77,83,77,99,0
1361,1586,3214,20,27,26,6428,0.47,-0.08,1.90,1.52,1337,1550,3174,53,77,83,77,99,0
1365,1592,3221,23,32,35,6443,0.47,-0.08,1.90,1.52,1337,1551,3175,53,77,83,77,99,0
1368,1601,3229,25,39,43,6459,0.47,-0.08,1.90,1.52,1339,1553,3177,53,77,83,77,99,0
1368,1609,3234,27,45,48,6469,0.47,-0.08,1.90,1.52,1339,1554,3179,53,77,83,77,99,0
1358,1582,3207,26,42,45,6415,0.47,-0.08,1.90,1.52,1340,1555,3180,51,76,81,77,99,0
1345,1562,3174,20,34,32,6346,0.47,-0.08,1.92,1.49,1340,1556,3180,51,76,81,77,99,0
1333,1547,3162,11,20,14,6304,0.47,-0.08,1.92,1.49,1340,1555,3179,51,76,81,77,99,0
1325,1537,3157,0,1,-4,6277,0.47,-0.08,1.92,1.49,1340,1555,3178,51,76,81,76,99,0
1322,1531,3153,-8,-10,-17,6265,0.47,-0.08,1.92,1.49,1339,1554,3178,51,76,81,76,99,0
1322,1529,3152,-13,-18,-22,6258,0.47,-0.08,1.92,1.49,1338,1553,3177,51,76,81,76,99,0
1322,1529,3151,-16,-22,-24,6258,0.47,-0.08,1.92,1.49,1338,1552,3176,51,76,81,76,99,0
1323,1531,3153,-15,-22,-24,6266,0.47,-0.08,1.92,1.49,1337,1552,3175,51,76,81,76,99,0
1324,1534,3156,-14,-21,-22,6273,0.47,-0.08,1.92,1.49,1337,1551,3174,51,76,81,76,99,0
1326,1537,3157,-13,-18,-20,6279,0.47,-0.08,1.92,1.49,1337,1551,3174,51,76,81,76,99,0
1326,1539,3159,-12,-15,-17,6283,0.47,-0.08,1.92,1.49,1336,1550,3173,51,76,81,76,99,0
1326,1539,3159,-11,-13,-15,6283,0.47,-0.08,1.92,1.49,1336,1550,3173,51,76,81,76,99,0
1327,1539,3159,-10,-11,-14,6286,0.47,-0.08,1.92,1.49,1336,1549,3172,51,76,81,76,99,0
1329,1541,3161,-8,-10,-13,6293,0.47,-0.08,1.92,1.49,1335,1549,3172,51,76,81,76,99,0
1333,1546,3163,-6,-8,-11,6303,0.47,-0.08,1.92,1.49,1335,1549,3172,51,76,81,76,99,0
1339,1553,3167,-3,-4,-9,6325,0.47,-0.08,1.92,1.49,1335,1549,3172,51,76,81,76,99,0
1342,1559,3169,0,0,-7,6338,0.47,-0.08,1.92,1.49,1336,1550,3172,51,76,81,76,99,0
1345,1559,3173,4,4,-4,6346,0.47,-0.08,1.92,1.49,1336,1550,3172,51,76,81,76,99,0
1349,1567,3184,8,9,1,6368,0.47,-0.08,1.92,1.49,1336,1550,3172,51,76,81,76,99,0
1353,1570,3191,11,13,7,6382,0.47,-0.08,1.92,1.49,1337,1551,3173,51,76,81,76,99,0
1358,1581,3208,14,18,16,6416,0.47,-0.08,1.92,1.49,1338,1552,3174,51,76,81,76,99,0
1362,1587,3216,18,24,26,6431,0.47,-0.08,1.92,1.49,1338,1553,3175,51,76,81,76,99,0
1365,1593,3222,21,30,34,6445,0.47,-0.08,1.92,1.49,1339,1555,3177,51,76,81,76,99,0
1368,1601,3228,24,36,42,6457,0.47,-0.08,1.92,1.49,1340,1556,3178,51,76,81,76,99,0
1368,1604,3229,26,40,46,6457,0.47,-0.08,1.92,1.49,1341,1558,3180,51,76,81,76,99,0
1348,1566,3180,22,34,36,6360,0.47,-0.08,1.92,1.49,1341,1558,3180,49,73,78,76,99,0
1334,1549,3162,13,22,20,6307,0.47,-0.08,1.91,1.49,1341,1558,3180,49,73,78,76,99,0
1324,1535,3155,2,5,1,6272,0.47,-0.08,1.91,1.49,1341,1557,3179,49,73,78,76,99,0
1320,1528,3150,-9,-12,-17,6254,0.47,-0.08,1.91,1.49,1340,1556,3178,49,73,78,76,99,0
1318,1525,3148,-16,-22,-24,6246,0.47,-0.08,1.91,1.49,1339,1555,3177,49,73,78,76,99,0
1316,1523,3146,-20,-27,-27,6243,0.47,-0.08,1.91,1.49,1338,1554,3176,49,73,78,76,99,0
1318,1525,3147,-20,-29,-28,6248,0.47,-0.08,1.91,1.49,1338,1553,3175,49,73,78,76,99,0
1322,1529,3151,-19,-28,-27,6259,0.47,-0.08,1.91,1.49,1337,1552,3174,49,73,78,76,99,0
1323,1533,3152,-17,-25,-25,6269,0.47,-0.08,1.91,1.49,1337,1551,3173,49,73,78,76,99,0
1323,1535,3153,-15,-21,-23,6273,0.47,-0.08,1.91,1.49,1336,1551,3173,49,73,78,76,99,0
1324,1535,3154,-13,-18,-20,6273,0.47,-0.08,1.91,1.49,1336,1550,3172,49,73,78,76,99,0
1324,1536,3155,-12,-15,-18,6277,0.47,-0.08,1.91,1.49,1336,1550,3171,49,73,78,76,99,0
1326,1538,3156,-11,-14,-17,6281,0.47,-0.08,1.91,1.49,1335,1549,3171,49,73,78,76,99,0
1328,1540,3158,-10,-12,-15,6288,0.47,-0.08,1.91,1.49,1335,1549,3170,49,73,78,76,99,0
1331,1545,3162,-8,-9,-12,6300,0.47,-0.08,1.91,1.49,1335,1549,3170,49,73,78,76,99,0
1338,1553,3163,-4,-5,-10,6312,0.47,-0.08,1.91,1.49,1335,1549,3170,49,73,78,76,99,0
1342,1558,3170,0,0,-6,6340,0.47,-0.08,1.91,1.49,1335,1549,3170,49,73,78,76,99,0
1346,1561,3175,4,5,-2,6350,0.47,-0.08,1.91,1.49,1336,1550,3170,49,73,78,76,99,0
1350,1567,3185,8,10,3,6370,0.47,-0.08,1.91,1.49,1336,1550,3171,49,73,78,76,99,0
1353,1572,3193,11,14,10,6387,0.47,-0.08,1.91,1.49,1337,1551,3171,49,73,78,76,99,0
1360,1576,3202,15,18,17,6404,0.47,-0.08,1.91,1.49,1337,1552,3172,49,73,78,76,99,0
1362,1589,3218,19,24,27,6437,0.47,-0.08,1.91,1.49,1338,1553,3174,49,73,78,76,99,0
1366,1597,3225,22,30,36,6451,0.47,-0.08,1.91,1.49,1339,1555,3176,49,73,78,76,99,0
1369,1605,3232,25,37,44,6464,0.47,-0.08,1.91,1.49,1340,1556,3177,49,73,78,76,99,0
1370,1609,3231,27,44,50,6463,0.47,-0.08,1.91,1.49,1341,1558,3179,49,73,78,76,99,0
1363,1595,3221,26,44,49,6442,0.47,-0.08,1.91,1.49,1342,1559,3181,49,73,78,78,99,0
1334,1550,3163,17,31,32,6311,0.47,-0.08,1.91,1.49,1342,1559,3180,49,73,78,78,99,0
1323,1534,3153,6,13,12,6268,0.47,-0.08,1.91,1.49,1341,1558,3179,49,73,78,78,99,0
1316,1523,3146,-7,-7,-8,6241,0.47,-0.08,1.91,1.49,1340,1557,3178,49,73,78,78,99,0
1313,1517,3143,-19,-26,-27,6228,0.47,-0.08,1.91,1.49,1339,1556,3177,49,73,78,78,99,0
1310,1515,3141,-24,-34,-31,6220,0.47,-0.08,1.91,1.49,1338,1554,3176,49,73,78,78,99,0
1309,1513,3139,-26,-38,-34,6216,0.47,-0.08,1.91,1.49,1337,1553,3174,49,73,78,78,99,0
1311,1515,3139,-26,-38,-34,6220,0.47,-0.08,1.91,1.49,1336,1552,3173,49,73,78,78,99,0
1313,1519,3141,-26,-37,-33,6229,0.47,-0.08,1.91,1.49,1336,1551,3172,49,73,78,78,99,0
1315,1521,3142,-24,-34,-32,6236,0.47,-0.08,1.91,1.49,1335,1550,3171,49,73,78,78,99,0
1317,1523,3143,-21,-31,-30,6241,0.47,-0.08,1.91,1.49,1334,1549,3170,49,73,78,78,99,0
1318,1524,3142,-19,-27,-28,6244,0.47,-0.08,1.91,1.49,1334,1548,3169,49,73,78,78,99,0
1318,1526,3145,-17,-25,-26,6248,0.47,-0.08,1.91,1.49,1333,1547,3169,49,73,78,78,99,0
1321,1528,3146,-15,-22,-25,6256,0.47,-0.08,1.91,1.49,1333,1547,3168,49,73,78,78,99,0
1324,1532,3150,-13,-19,-22,6267,0.47,-0.08,1.91,1.49,1333,1546,3167,49,73,78,78,99,0
1325,1537,3153,-10,-15,-19,6279,0.47,-0.08,1.91,1.49,1332,1546,3167,49,73,78,78,99,0
1333,1547,3160,-6,-10,-14,6307,0.47,-0.08,1.91,1.49,1332,1546,3166,49,73,78,78,99,0
1337,1552,3165,-2,-4,-9,6321,0.47,-0.08,1.91,1.49,1332,1546,3166,49,73,78,78,99,0
1341,1557,3169,1,2,-4,6338,0.47,-0.08,1.91,1.49,1333,1546,3167,49,73,78,78,99,0
1344,1559,3173,6,7,0,6346,0.47,-0.08,1.91,1.49,1333,1547,3167,49,73,78,78,99,0
1348,1565,3183,9,11,5,6366,0.47,-0.08,1.91,1.49,1334,1547,3167,49,73,78,78,99,0
1356,1575,3201,13,17,14,6402,0.47,-0.08,1.91,1.49,1334,1548,3168,49,73,78,78,99,0
1358,1582,3210,17,22,23,6419,0.47,-0.08,1.91,1.49,1335,1549,3170,49,73,78,78,99,0
1361,1588,3218,21,28,34,6436,0.47,-0.08,1.91,1.49,1336,1551,3171,49,73,78,78,99,0
1365,1595,3225,24,35,43,6451,0.47,-0.08,1.91,1.49,1337,1552,3173,49,73,78,78,99,0
1369,1606,3233,26,41,49,6467,0.47,-0.08,1.91,1.49,1338,1554,3175,49,73,78,78,99,0
1368,1606,3231,28,45,52,6462,0.47,-0.08,1.91,1.49,1339,1556,3177,49,73,78,78,99,0
1356,1578,3200,26,41,46,6401,0.47,-0.08,1.91,1.49,1340,1556,3178,50,75,80,78,99,0
1339,1555,3168,18,30,31,6327,0.47,-0.08,1.91,1.48,1340,1556,3177,50,75,80,77,99,0
1325,1537,3157,7,13,11,6277,0.47,-0.08,1.91,1.48,1339,1556,3177,50,75,80,77,99,0
1316,1523,3147,-5,-7,-9,6242,0.47,-0.08,1.91,1.48,1338,1555,3176,50,75,80,77,99,0
1308,1511,3140,-16,-23,-23,6213,0.47,-0.08,1.91,1.48,1337,1553,3175,50,75,80,77,99,0
1306,1509,3137,-23,-34,-30,6206,0.47,-0.08,1.91,1.48,1336,1552,3173,50,75,80,77,99,0
1304,1507,3134,-28,-40,-34,6199,0.47,-0.08,1.91,1.48,1335,1550,3172,50,75,80,77,99,0
1306,1508,3132,-29,-42,-37,6201,0.47,-0.08,1.91,1.48,1334,1549,3171,50,75,80,77,99,0
1307,1510,3133,-28,-41,-37,6207,0.47,-0.08,1.91,1.48,1333,1548,3169,50,75,80,77,99,0
1312,1516,3136,-26,-38,-36,6222,0.47,-0.08,1.91,1.48,1333,1547,3168,50,75,80,77,99,0
1312,1517,3137,-23,-34,-34,6225,0.47,-0.08,1.91,1.48,1332,1546,3167,50,75,80,77,99,0
1313,1518,3136,-21,-31,-32,6227,0.47,-0.08,1.91,1.48,1331,1545,3166,50,75,80,77,99,0
1314,1519,3137,-19,-28,-30,6231,0.47,-0.08,1.91,1.48,1331,1544,3165,50,75,80,77,99,0
1316,1523,3141,-17,-25,-28,6239,0.47,-0.08,1.91,1.48,1330,1543,3165,50,75,80,77,99,0
1322,1530,3147,-14,-21,-24,6262,0.47,-0.08,1.91,1.48,1330,1543,3164,50,75,80,77,99,0
1324,1535,3151,-11,-16,-20,6274,0.47,-0.08,1.91,1.48,1330,1542,3163,50,75,80,77,99,0
1328,1541,3156,-7,-10,-15,6289,0.47,-0.08,1.91,1.48,1330,1542,3163,50,75,80,77,99,0
1333,1547,3159,-3,-4,-10,6303,0.47,-0.08,1.91,1.48,1330,1542,3163,50,75,80,77,99,0
1336,1550,3161,0,1,-6,6316,0.47,-0.08,1.91,1.48,1330,1543,3163,50,75,80,77,99,0
1344,1559,3168,5,6,-2,6336,0.47,-0.08,1.91,1.48,1331,1543,3163,50,75,80,77,99,0
1347,1565,3181,9,12,4,6361,0.47,-0.08,1.91,1.48,1331,1544,3164,50,75,80,77,99,0
1351,1569,3189,13,17,11,6379,0.47,-0.08,1.91,1.48,1332,1545,3165,50,75,80,77,99,0
1354,1574,3197,17,22,19,6394,0.47,-0.08,1.91,1.48,1332,1546,3166,50,75,80,77,99,0
1357,1581,3208,20,26,28,6415,0.47,-0.08,1.91,1.48,1333,1547,3167,50,75,80,77,99,0
1365,1588,3216,24,31,35,6433,0.47,-0.08,1.91,1.48,1334,1548,3169,50,75,80,77,99,0
1367,1602,3231,27,38,44,6463,0.47,-0.08,1.91,1.48,1335,1550,3171,50,75,80,77,99,0
1363,1594,3222,28,42,49,6444,0.47,-0.08,1.91,1.48,1336,1552,3173,50,75,80,77,99,0
1352,1572,3191,26,38,43,6382,0.47,-0.08,1.91,1.48,1337,1552,3173,52,78,82,77,99,0
1335,1552,3166,18,28,30,6316,0.47,-0.08,1.94,1.50,1337,1552,3173,52,78,82,77,99,0
1314,1533,3155,4,10,10,6268,0.47,-0.08,1.94,1.50,1336,1552,3172,52,78,82,77,99,0
1310,1515,3143,-8,-8,-8,6222,0.47,-0.08,1.94,1.50,1335,1550,3171,52,78,82,77,99,0
1308,1512,3140,-18,-22,-20,6215,0.47,-0.08,1.94,1.50,1334,1549,3170,52,78,82,77,99,0
1306,1510,3136,-25,-32,-27,6207,0.47,-0.08,1.94,1.50,1333,1548,3169,52,78,82,77,99,0
1306,1509,3134,-26,-37,-31,6203,0.47,-0.08,1.94,1.50,1332,1547,3168,52,78,82,77,99,0
1307,1511,3133,-26,-36,-32,6207,0.47,-0.08,1.94,1.50,1332,1545,3167,52,78,82,77,99,0
1313,1519,3137,-24,-33,-32,6228,0.47,-0.08,1.94,1.50,1331,1544,3166,52,78,82,77,99,0
1315,1521,3138,-21,-30,-31,6234,0.47,-0.08,1.94,1.50,1330,1544,3165,52,78,82,77,99,0
1316,1523,3139,-18,-25,-28,6238,0.47,-0.08,1.94,1.50,1330,1543,3164,52,78,82,77,99,0
1317,1525,3140,-15,-21,-26,6240,0.47,-0.08,1.94,1.50,1330,1542,3163,52,78,82,77,99,0
1318,1526,3142,-13,-19,-24,6246,0.47,-0.08,1.94,1.50,1329,1542,3163,52,78,82,77,99,0
1324,1533,3147,-10,-15,-21,6265,0.47,-0.08,1.94,1.50,1329,1542,3162,52,78,82,77,99,0
1324,1537,3150,-8,-11,-17,6275,0.47,-0.08,1.94,1.50,1329,1541,3162,52,78,82,77,99,0
1329,1543,3155,-5,-6,-13,6290,0.47,-0.08,1.94,1.50,1329,1541,3161,52,78,82,77,99,0
1333,1548,3158,-1,-1,-9,6305,0.47,-0.08,1.94,1.50,1329,1542,3161,52,78,82,77,99,0
1337,1552,3161,1,3,-5,6319,0.47,-0.08,1.94,1.50,1329,1542,3161,52,78,82,77,99,0
1345,1560,3173,6,8,0,6346,0.47,-0.08,1.94,1.50,1330,1543,3162,52,78,82,77,99,0
1348,1567,3184,11,14,7,6368,0.47,-0.08,1.94,1.50,1330,1543,3162,52,78,82,77,99,0
1352,1571,3192,15,19,15,6384,0.47,-0.08,1.94,1.50,1331,1544,3163,52,78,82,77,99,0
1355,1577,3200,19,25,24,6400,0.47,-0.08,1.94,1.50,1332,1545,3165,52,78,82,77,99,0
1359,1583,3210,22,29,32,6420,0.47,-0.08,1.94,1.50,1333,1547,3166,52,78,82,77,99,0
1365,1597,3226,25,36,41,6452,0.47,-0.08,1.94,1.50,1334,1548,3168,52,78,82,77,99,0
1365,1597,3227,27,41,48,6454,0.47,-0.08,1.94,1.50,1335,1550,3170,52,78,82,77,99,0
1357,1583,3207,27,41,48,6415,0.47,-0.08,1.94,1.50,1336,1551,3171,52,78,82,77,99,0
1343,1561,3173,22,34,38,6341,0.47,-0.08,1.94,1.50,1336,1551,3171,52,78,81,77,99,0
1327,1543,3160,12,20,21,6290,0.47,-0.08,1.97,1.52,1336,1551,3171,52,78,81,77,99,0
1314,1521,3147,0,1,1,6235,0.47,-0.08,1.97,1.52,1335,1550,3170,52,78,81,77,99,0
1311,1518,3144,-11,-14,-14,6225,0.47,-0.08,1.97,1.52,1334,1549,3169,52,78,81,77,99,0
1310,1516,3140,-19,-25,-21,6218,0.47,-0.08,1.97,1.52,1333,1548,3168,52,78,81,77,99,0
1309,1513,3136,-22,-31,-26,6213,0.47,-0.08,1.97,1.52,1332,1547,3167,52,78,81,77,99,0
1310,1515,3135,-22,-32,-28,6215,0.47,-0.08,1.97,1.52,1332,1546,3166,52,78,81,77,99,0
1315,1522,3139,-21,-30,-29,6233,0.47,-0.08,1.97,1.52,1331,1545,3165,52,78,81,77,99,0
1317,1525,3139,-18,-26,-28,6240,0.47,-0.08,1.97,1.52,1331,1544,3164,52,78,81,77,99,0
1317,1527,3140,-16,-22,-26,6242,0.47,-0.08,1.97,1.52,1330,1544,3164,52,78,81,77,99,0
1319,1527,3140,-13,-18,-24,6245,0.47,-0.08,1.97,1.52,1330,1543,3163,52,78,81,77,99,0
1319,1528,3142,-12,-16,-23,6249,0.47,-0.08,1.97,1.52,1329,1543,3162,52,78,81,77,99,0
1324,1534,3146,-9,-14,-20,6265,0.47,-0.08,1.97,1.52,1329,1542,3162,52,78,81,77,99,0
1325,1538,3150,-7,-10,-17,6275,0.47,-0.08,1.97,1.52,1329,1542,3161,52,78,81,77,99,0
1327,1543,3153,-5,-6,-13,6286,0.47,-0.08,1.97,1.52,1329,1542,3161,52,78,81,77,99,0
1332,1548,3157,-2,-1,-9,6299,0.47,-0.08,1.97,1.52,1329,1542,3161,52,78,81,77,99,0
1336,1552,3160,1,3,-6,6313,0.47,-0.08,1.97,1.52,1329,1543,3161,52,78,81,77,99,0
1343,1560,3170,5,8,-1,6339,0.47,-0.08,1.97,1.52,1330,1543,3161,52,78,81,77,99,0
1346,1564,3177,9,13,4,6355,0.47,-0.08,1.97,1.52,1330,1544,3162,52,78,81,77,99,0
1349,1569,3185,13,17,11,6371,0.47,-0.08,1.97,1.52,1331,1545,3162,52,78,81,77,99,0
1352,1572,3192,16,21,19,6384,0.47,-0.08,1.97,1.52,1332,1546,3163,52,78,81,77,99,0
1355,1578,3201,19,25,25,6402,0.47,-0.08,1.97,1.52,1333,1547,3165,52,78,81,77,99,0
1354,1577,3196,20,27,29,6393,0.47,-0.08,1.97,1.52,1333,1548,3166,52,78,81,77,99,0
1342,1560,3169,17,24,24,6337,0.47,-0.08,1.97,1.52,1334,1548,3166,49,73,75,77,99,0
1327,1542,3158,11,16,15,6285,0.56,-0.08,1.99,1.55,1333,1548,3166,49,73,75,77,99,0
1316,1525,3146,1,3,1,6240,0.56,-0.08,1.99,1.55,1333,1547,3165,49,73,75,77,99,0
1308,1514,3138,-9,-12,-12,6212,0.56,-0.08,1.99,1.55,1332,1546,3164,49,73,75,77,99,0
1302,1506,3126,-19,-24,-22,6186,0.56,-0.08,1.99,1.55,1331,1545,3163,49,73,75,77,99,0
1301,1504,3122,-24,-33,-30,6180,0.56,-0.08,1.99,1.55,1330,1544,3161,49,73,75,77,99,0
1301,1505,3120,-27,-37,-35,6181,0.56,-0.08,1.99,1.55,1329,1542,3160,49,73,75,77,99,0
1304,1508,3123,-27,-37,-38,6190,0.56,-0.08,1.99,1.55,1328,1541,3159,49,73,75,77,99,0
1308,1513,3125,-25,-34,-37,6203,0.56,-0.08,1.99,1.55,1327,1540,3158,49,73,75,77,99,0
1311,1518,3128,-21,-29,-34,6210,0.56,-0.08,1.99,1.55,1327,1539,3157,49,73,75,77,99,0
1311,1518,3130,-18,-25,-31,6215,0.56,-0.08,1.99,1.55,1326,1539,3156,49,73,75,77,99,0
1311,1519,3131,-16,-22,-28,6217,0.56,-0.08,1.99,1.55,1326,1538,3155,49,73,75,77,99,0
1313,1521,3132,-14,-19,-25,6222,0.56,-0.08,1.99,1.55,1325,1537,3154,49,73,75,77,99,0
1315,1523,3135,-13,-17,-22,6230,0.56,-0.08,1.99,1.55,1325,1537,3153,49,73,75,77,99,0
1322,1527,3138,-10,-14,-19,6241,0.56,-0.08,1.99,1.55,1325,1537,3153,49,73,75,77,99,0
1324,1537,3146,-6,-10,-15,6267,0.56,-0.08,1.99,1.55,1325,1537,3153,49,73,75,77,99,0
1327,1542,3148,-3,-4,-11,6279,0.56,-0.08,1.99,1.55,1325,1537,3153,49,73,75,77,99,0
1331,1547,3153,1,1,-6,6294,0.56,-0.08,1.99,1.55,1325,1537,3153,49,73,75,77,99,0
1334,1552,3156,3,7,-2,6305,0.56,-0.08,1.99,1.55,1326,1538,3153,49,73,75,77,99,0
1337,1554,3159,6,11,1,6315,0.56,-0.08,1.99,1.55,1326,1538,3153,49,73,75,77,99,0
1343,1561,3170,10,15,6,6340,0.56,-0.08,1.99,1.55,1326,1539,3153,49,73,75,77,99,0
1346,1565,3176,13,19,12,6351,0.56,-0.08,1.99,1.55,1327,1540,3154,49,73,75,77,99,0
1345,1564,3175,16,21,16,6350,0.56,-0.08,1.99,1.55,1328,1541,3155,49,73,75,77,99,0
1338,1557,3164,15,21,17,6322,0.56,-0.08,1.99,1.55,1328,1541,3155,48,73,75,77,99,0
1325,1539,3152,10,15,12,6273,0.56,-0.08,1.99,1.55,1328,1541,3155,48,69,70,77,99,0
1300,1502,3122,0,0,-1,6176,0.56,-0.08,2.02,1.63,1327,1540,3154,48,69,70,77,99,0
1294,1494,3113,-13,-17,-16,6150,0.56,-0.08,2.02,1.63,1326,1538,3153,48,69,70,77,99,0
1291,1489,3107,-24,-33,-29,6136,0.56,-0.08,2.02,1.63,1325,1537,3151,48,69,70,77,99,0
1289,1487,3103,-32,-44,-40,6128,0.56,-0.08,2.02,1.63,1324,1535,3150,48,69,70,77,99,0
1288,1486,3100,-33,-46,-44,6125,0.56,-0.08,2.02,1.63,1322,1533,3148,48,69,70,77,99,0
1294,1494,3104,-32,-45,-45,6143,0.56,-0.08,2.02,1.63,1321,1532,3146,48,69,70,77,99,0
1298,1500,3108,-29,-41,-43,6158,0.56,-0.08,2.02,1.63,1321,1531,3145,48,69,70,77,99,0
1300,1503,3111,-26,-35,-40,6167,0.56,-0.08,2.02,1.63,1320,1530,3144,48,69,70,77,99,0
1301,1504,3112,-22,-30,-35,6172,0.56,-0.08,2.02,1.63,1319,1529,3143,48,69,70,77,99,0
1301,1505,3113,-19,-26,-32,6174,0.56,-0.08,2.02,1.63,1319,1528,3142,48,69,70,77,99,0
1304,1509,3119,-17,-23,-28,6186,0.56,-0.08,2.02,1.63,1318,1528,3141,48,69,70,77,99,0
1306,1512,3122,-15,-20,-25,6195,0.56,-0.08,2.02,1.63,1318,1527,3141,48,69,70,77,99,0
1310,1517,3126,-13,-16,-21,6208,0.56,-0.08,2.02,1.63,1318,1527,3140,48,69,70,77,99,0
1313,1522,3131,-9,-12,-16,6222,0.56,-0.08,2.02,1.63,1317,1527,3140,48,69,70,77,99,0
1317,1528,3135,-6,-7,-11,6237,0.56,-0.08,2.02,1.63,1317,1527,3140,48,69,70,77,99,0
1325,1539,3145,-1,0,-5,6268,0.56,-0.08,2.02,1.63,1318,1527,3140,48,69,70,77,99,0
1326,1543,3149,2,5,0,6279,0.56,-0.08,2.02,1.63,1318,1528,3140,48,69,70,77,99,0
1330,1547,3151,6,11,5,6290,0.56,-0.08,2.02,1.63,1318,1528,3140,48,69,70,77,99,0
1334,1552,3155,10,17,9,6302,0.56,-0.08,2.02,1.63,1319,1529,3141,48,69,70,77,99,0
1336,1554,3156,13,20,12,6311,0.56,-0.08,2.02,1.63,1319,1530,3141,48,69,70,77,99,0
1342,1562,3166,16,24,16,6332,0.56,-0.08,2.02,1.63,1320,1531,3142,48,69,70,77,99,0
1340,1559,3166,18,26,19,6331,0.56,-0.08,2.02,1.63,1321,1532,3143,48,69,70,77,99,0
1328,1546,3153,16,24,18,6289,0.56,-0.08,2.02,1.63,1321,1532,3143,49,70,69,77,99,0
1314,1525,3138,10,16,13,6228,0.56,-0.08,2.08,1.69,1321,1532,3143,49,70,69,77,99,0
1298,1502,3120,0,1,1,6169,0.56,-0.08,2.08,1.69,1320,1531,3142,49,70,69,77,99,0
1283,1488,3106,-14,-16,-13,6128,0.56,-0.08,2.08,1.69,1319,1530,3141,49,70,69,77,99,0
1278,1474,3088,-26,-33,-28,6085,0.56,-0.08,2.08,1.69,1318,1528,3139,49,70,69,77,99,0
1276,1471,3082,-34,-45,-41,6077,0.56,-0.08,2.08,1.69,1316,1526,3138,49,70,69,77,99,0
1276,1471,3080,-38,-51,-49,6073,0.56,-0.08,2.08,1.69,1315,1524,3136,49,70,69,77,99,0
1278,1473,3082,-38,-52,-53,6079,0.56,-0.08,2.08,1.69,1314,1522,3134,49,70,69,77,99,0
1281,1479,3086,-36,-49,-52,6094,0.56,-0.08,2.08,1.69,1312,1521,3132,49,70,69,77,99,0
1289,1489,3095,-32,-43,-47,6121,0.56,-0.08,2.08,1.69,1312,1520,3131,49,70,69,77,99,0
1290,1490,3096,-27,-37,-42,6126,0.56,-0.08,2.08,1.69,1311,1519,3130,49,70,69,77,99,0
1291,1491,3098,-23,-32,-36,6130,0.56,-0.08,2.08,1.69,1310,1518,3129,49,70,69,77,99,0
1292,1493,3100,-20,-27,-32,6135,0.56,-0.08,2.08,1.69,1310,1517,3128,49,70,69,77,99,0
1294,1496,3103,-18,-25,-29,6144,0.56,-0.08,2.08,1.69,1309,1516,3127,49,70,69,77,99,0
1299,1504,3111,-15,-20,-24,6168,0.56,-0.08,2.08,1.69,1309,1516,3126,49,70,69,77,99,0
1302,1510,3116,-12,-15,-19,6181,0.56,-0.08,2.08,1.69,1309,1516,3126,49,70,69,77,99,0
1306,1515,3123,-8,-9,-13,6197,0.56,-0.08,2.08,1.69,1308,1516,3126,49,70,69,77,99,0
1311,1521,3128,-4,-3,-6,6213,0.56,-0.08,2.08,1.69,1309,1516,3126,49,70,69,77,99,0
1315,1526,3133,0,2,-1,6228,0.56,-0.08,2.08,1.69,1309,1516,3126,49,70,69,77,99,0
1322,1536,3142,4,8,5,6256,0.56,-0.08,2.08,1.69,1309,1517,3127,49,70,69,77,99,0
1324,1540,3145,8,14,10,6267,0.56,-0.08,2.08,1.69,1310,1518,3127,49,70,69,77,99,0
1326,1544,3150,12,19,15,6278,0.56,-0.08,2.08,1.69,1310,1519,3128,49,70,69,77,99,0
1329,1549,3153,15,23,19,6289,0.56,-0.08,2.08,1.69,1311,1520,3129,49,70,69,77,99,0
1332,1553,3156,17,27,22,6300,0.56,-0.08,2.08,1.69,1312,1521,3130,49,70,69,77,99,0
1339,1560,3164,20,31,26,6328,0.56,-0.08,2.08,1.69,1312,1522,3131,49,70,69,77,99,0
1340,1562,3167,23,34,29,6335,0.56,-0.08,2.08,1.69,1313,1523,3132,49,70,69,77,99,0
1334,1555,3158,23,35,29,6308,0.56,-0.08,2.08,1.69,1314,1524,3133,49,70,69,77,99,0
1322,1537,3145,20,30,26,6259,0.56,-0.08,2.08,1.69,1314,1525,3134,52,74,72,77,99,0
1304,1512,3126,11,17,16,6191,0.56,-0.08,2.11,1.72,1314,1524,3133,52,74,72,77,99,0
1281,1479,3096,-3,-3,-1,6100,0.56,-0.08,2.11,1.72,1313,1523,3132,52,74,72,77,99,0
1275,1471,3085,-17,-23,-19,6075,0.56,-0.08,2.11,1.72,1312,1521,3130,52,74,72,77,99,0
1273,1467,3078,-29,-39,-34,6061,0.56,-0.08,2.11,1.72,1310,1519,3129,52,74,72,77,99,0
1270,1464,3073,-36,-50,-46,6053,0.56,-0.08,2.11,1.72,1309,1518,3127,52,74,72,77,99,0
1271,1464,3072,-37,-52,-50,6052,0.56,-0.08,2.11,1.72,1308,1516,3125,52,74,72,77,99,0
1278,1474,3079,-35,-49,-50,6062,0.56,-0.08,2.11,1.72,1307,1514,3123,52,74,72,77,99,0
1281,1479,3084,-32,-45,-47,6092,0.56,-0.08,2.11,1.72,1306,1513,3122,52,74,72,77,99,0
1284,1483,3087,-28,-38,-42,6101,0.56,-0.08,2.11,1.72,1305,1512,3121,52,74,72,77,99,0
1285,1484,3089,-23,-32,-36,6106,0.56,-0.08,2.11,1.72,1305,1511,3120,52,74,72,77,99,0
1286,1485,3090,-21,-28,-33,6111,0.56,-0.08,2.11,1.72,1304,1510,3119,52,74,72,77,99,0
1290,1491,3093,-18,-25,-29,6117,0.56,-0.08,2.11,1.72,1303,1510,3118,52,74,72,77,99,0
1293,1495,3101,-15,-21,-25,6138,0.56,-0.08,2.11,1.72,1303,1509,3118,52,74,72,77,99,0
1296,1501,3105,-12,-16,-20,6152,0.56,-0.08,2.11,1.72,1303,1509,3117,52,74,72,77,99,0
1300,1506,3111,-8,-11,-15,6168,0.56,-0.08,2.11,1.72,1303,1509,3117,52,74,72,77,99,0
1302,1511,3116,-5,-5,-9,6182,0.56,-0.08,2.11,1.72,1303,1509,3117,52,74,72,77,99,0
1311,1516,3122,0,0,-3,6198,0.56,-0.08,2.11,1.72,1303,1509,3117,52,74,72,77,99,0
1315,1527,3133,4,5,3,6228,0.56,-0.08,2.11,1.72,1303,1510,3118,52,74,72,77,99,0
1318,1531,3136,8,11,9,6241,0.56,-0.08,2.11,1.72,1304,1511,3118,52,74,72,77,99,0
1321,1537,3141,12,17,15,6254,0.56,-0.08,2.11,1.72,1304,1511,3119,52,74,72,77,99,0
1324,1541,3143,15,23,19,6264,0.56,-0.08,2.11,1.72,1305,1512,3120,52,74,72,77,99,0
1325,1544,3147,17,26,22,6274,0.56,-0.08,2.11,1.72,1306,1513,3121,52,74,72,77,99,0
1332,1553,3154,20,31,25,6298,0.56,-0.08,2.11,1.72,1307,1515,3122,52,74,72,77,99,0
1335,1556,3156,22,34,28,6309,0.56,-0.08,2.11,1.72,1308,1516,3123,52,74,72,77,99,0
1338,1561,3165,25,38,33,6330,0.56,-0.08,2.11,1.72,1309,1518,3124,52,74,72,77,99,0
1342,1563,3168,28,41,37,6336,0.56,-0.08,2.11,1.72,1310,1519,3126,52,74,72,77,99,0
1342,1562,3167,29,42,39,6335,0.56,-0.08,2.11,1.72,1311,1521,3127,52,74,72,77,99,0
1319,1534,3143,25,35,34,6248,0.56,-0.08,2.11,1.72,1311,1521,3128,55,79,76,77,99,0
1302,1510,3123,15,21,23,6186,0.56,-0.08,2.14,1.73,1311,1521,3127,55,79,76,77,99,0
1291,1493,3110,2,4,8,6140,0.56,-0.08,2.14,1.73,1310,1520,3127,55,79,76,77,99,0
1284,1483,3097,-11,-15,-8,6110,0.56,-0.08,2.14,1.73,1309,1518,3126,55,79,76,77,99,0
1280,1479,3089,-20,-27,-21,6093,0.56,-0.08,2.14,1.73,1308,1517,3125,55,79,76,77,99,0
1277,1474,3082,-25,-35,-30,6080,0.56,-0.08,2.14,1.73,1307,1516,3123,55,79,76,77,99,0
1278,1476,3082,-27,-38,-36,6084,0.56,-0.08,2.14,1.73,1306,1514,3122,55,79,76,77,99,0
1282,1481,3086,-27,-37,-38,6097,0.56,-0.08,2.14,1.73,1305,1513,3121,55,79,76,77,99,0
1286,1487,3090,-25,-34,-36,6113,0.56,-0.08,2.14,1.73,1305,1512,3120,55,79,76,77,99,0
1289,1490,3095,-21,-29,-32,6125,0.56,-0.08,2.14,1.73,1304,1512,3119,55,79,76,77,99,0
1292,1495,3099,-17,-23,-27,6138,0.56,-0.08,2.14,1.73,1304,1511,3118,55,79,76,77,99,0
1294,1497,3102,-14,-19,-22,6143,0.56,-0.08,2.14,1.73,1304,1511,3118,55,79,76,77,99,0
1296,1500,3104,-11,-15,-18,6151,0.56,-0.08,2.14,1.73,1303,1510,3117,55,79,76,77,99,0
1298,1504,3107,-8,-11,-14,6161,0.56,-0.08,2.14,1.73,1303,1510,3117,55,79,76,77,99,0
1301,1509,3111,-6,-7,-11,6174,0.56,-0.08,2.14,1.73,1303,1510,3117,55,79,76,77,99,0
1309,1520,3124,-2,-1,-5,6206,0.56,-0.08,2.14,1.73,1303,1510,3117,55,79,76,77,99,0
1313,1525,3130,2,4,1,6221,0.56,-0.08,2.14,1.73,1304,1511,3117,55,79,76,77,99,0
1317,1531,3134,6,10,7,6237,0.56,-0.08,2.14,1.73,1304,1512,3118,55,79,76,77,99,0
1321,1536,3139,11,16,14,6251,0.56,-0.08,2.14,1.73,1305,1512,3119,55,79,76,77,99,0
1324,1541,3142,14,21,18,6264,0.56,-0.08,2.14,1.73,1305,1513,3119,55,79,76,77,99,0
1329,1550,3150,17,26,22,6275,0.56,-0.08,2.14,1.73,1306,1515,3120,55,79,76,77,99,0
1332,1554,3151,20,31,25,6299,0.56,-0.08,2.14,1.73,1307,1516,3121,55,79,76,77,99,0
1335,1557,3155,23,35,29,6310,0.56,-0.08,2.14,1.73,1308,1517,3122,55,79,76,77,99,0
1339,1562,3164,26,39,33,6329,0.56,-0.08,2.14,1.73,1309,1519,3124,55,79,76,77,99,0
1342,1563,3168,28,41,36,6336,0.56,-0.08,2.14,1.73,1310,1520,3125,55,79,76,77,99,0
1345,1569,3175,30,43,41,6351,0.56,-0.08,2.14,1.73,1311,1522,3127,55,79,76,77,99,0
1337,1560,3161,30,42,41,6319,0.56,-0.08,2.14,1.73,1312,1523,3128,55,80,76,75,99,0
1323,1542,3145,25,36,35,6265,0.56,-0.08,2.14,1.73,1312,1524,3129,56,80,77,75,99,0
1308,1520,3130,16,24,24,6207,0.56,-0.08,2.13,1.73,1312,1524,3129,56,80,77,75,99,0
1298,1504,3117,4,8,9,6165,0.56,-0.08,2.13,1.73,1312,1523,3128,56,80,77,75,99,0
1290,1492,3107,-7,-8,-3,6141,0.56,-0.08,2.13,1.73,1311,1522,3128,56,80,77,75,99,0
1288,1489,3096,-15,-21,-15,6121,0.56,-0.08,2.13,1.73,1310,1521,3127,56,80,77,75,99,0
1288,1489,3095,-19,-28,-23,6119,0.56,-0.08,2.13,1.73,1309,1520,3126,56,80,77,75,99,0
1290,1491,3096,-20,-30,-28,6126,0.56,-0.08,2.13,1.73,1309,1519,3125,56,80,77,75,99,0
1293,1497,3100,-19,-28,-28,6141,0.56,-0.08,2.13,1.73,1308,1518,3124,56,80,77,75,99,0
1300,1506,3104,-15,-23,-25,6155,0.56,-0.08,2.13,1.73,1308,1518,3123,56,80,77,75,99,0
1301,1509,3110,-12,-17,-21,6172,0.56,-0.08,2.13,1.73,1308,1517,3123,56,80,77,75,99,0
1301,1510,3112,-9,-12,-16,6175,0.56,-0.08,2.13,1.73,1308,1517,3122,56,80,77,75,99,0
1302,1512,3113,-6,-8,-12,6179,0.56,-0.08,2.13,1.73,1307,1517,3122,56,80,77,75,99,0
1304,1514,3116,-5,-5,-9,6187,0.56,-0.08,2.13,1.73,1307,1517,3122,56,80,77,75,99,0
1311,1518,3120,-2,-3,-6,6198,0.56,-0.08,2.13,1.73,1307,1517,3122,56,80,77,75,99,0
1314,1528,3129,0,1,-2,6226,0.56,-0.08,2.13,1.73,1308,1517,3122,56,80,77,75,99,0
1319,1533,3134,4,6,2,6241,0.56,-0.08,2.13,1.73,1308,1518,3122,56,80,77,75,99,0
1324,1539,3138,9,12,8,6257,0.56,-0.08,2.13,1.73,1309,1518,3123,56,80,77,75,99,0
1325,1545,3140,12,18,12,6269,0.56,-0.08,2.13,1.73,1309,1519,3123,56,80,77,75,99,0
1328,1549,3144,15,22,16,6283,0.56,-0.08,2.13,1.73,1310,1520,3124,56,80,77,75,99,0
1336,1558,3156,18,28,20,6312,0.56,-0.08,2.13,1.73,1311,1522,3125,56,80,77,75,99,0
1339,1562,3164,21,32,26,6328,0.56,-0.08,2.13,1.73,1312,1523,3126,56,80,77,75,99,0
1343,1565,3169,25,36,32,6337,0.56,-0.08,2.13,1.73,1313,1524,3128,56,80,77,75,99,0
1346,1571,3176,28,40,39,6353,0.56,-0.08,2.13,1.73,1314,1526,3129,56,80,77,75,99,0
1348,1576,3184,30,43,44,6367,0.56,-0.08,2.13,1.73,1315,1528,3131,56,80,77,75,99,0
1335,1559,3159,28,41,42,6314,0.56,-0.08,2.13,1.73,1315,1529,3132,54,78,76,75,99,0
1322,1539,3143,22,33,34,6258,0.56,-0.08,2.10,1.69,1316,1529,3133,54,78,76,75,99,0
1308,1520,3130,13,19,21,6208,0.56,-0.08,2.10,1.69,1315,1529,3133,54,78,76,75,99,0
1301,1508,3118,1,2,5,6174,0.56,-0.08,2.10,1.69,1315,1528,3132,54,78,76,75,99,0
1297,1502,3110,-8,-11,-7,6157,0.56,-0.08,2.10,1.69,1314,1527,3131,54,78,76,75,99,0
1296,1500,3104,-14,-20,-16,6149,0.56,-0.08,2.10,1.69,1314,1526,3130,54,78,76,75,99,0
1296,1501,3103,-16,-23,-21,6151,0.56,-0.08,2.10,1.69,1313,1525,3129,54,78,76,75,99,0
1299,1506,3106,-16,-23,-24,6163,0.56,-0.08,2.10,1.69,1313,1525,3129,54,78,76,75,99,0
1302,1511,3111,-14,-20,-23,6176,0.56,-0.08,2.10,1.69,1312,1524,3128,54,78,76,75,99,0
1306,1516,3116,-11,-16,-19,6191,0.56,-0.08,2.10,1.69,1312,1524,3128,54,78,76,75,99,0
1309,1521,3121,-8,-10,-14,6202,0.56,-0.08,2.10,1.69,1312,1524,3127,54,78,76,75,99,0
1309,1521,3122,-5,-6,-10,6204,0.56,-0.08,2.10,1.69,1312,1524,3127,54,78,76,75,99,0
1311,1523,3124,-3,-3,-6,6210,0.56,-0.08,2.10,1.69,1312,1524,3127,54,78,76,75,99,0
1313,1526,3126,-1,-1,-3,6218,0.56,-0.08,2.10,1.69,1312,1524,3127,54,78,76,75,99,0
1316,1532,3131,0,1,-1,6232,0.56,-0.08,2.10,1.69,1312,1524,3127,54,78,76,75,99,0
1325,1542,3140,4,6,3,6262,0.56,-0.08,2.10,1.69,1312,1525,3128,54,78,76,75,99,0
1327,1549,3144,8,12,7,6275,0.56,-0.08,2.10,1.69,1313,1526,3128,54,78,76,75,99,0
1331,1553,3146,12,18,12,6290,0.56,-0.08,2.10,1.69,1314,1526,3129,54,78,76,75,99,0
1335,1558,3154,16,24,17,6307,0.56,-0.08,2.10,1.69,1314,1527,3130,54,78,76,75,99,0
1339,1563,3163,19,28,22,6326,0.56,-0.08,2.10,1.69,1315,1529,3131,54,78,76,75,99,0
1345,1572,3177,22,33,29,6353,0.56,-0.08,2.10,1.69,1316,1530,3132,54,78,76,75,99,0
1349,1578,3185,26,38,38,6371,0.56,-0.08,2.10,1.69,1317,1532,3134,54,78,76,75,99,0
1352,1585,3191,29,43,45,6382,0.56,-0.08,2.10,1.69,1318,1533,3136,54,78,76,75,99,0
1350,1581,3186,31,46,49,6373,0.56,-0.08,2.10,1.69,1319,1535,3138,54,78,76,76,99,0
1339,1563,3162,29,42,44,6324,0.56,-0.08,2.10,1.69,1320,1536,3138,52,76,75,76,99,0
1311,1526,3133,18,28,30,6217,0.56,-0.08,2.07,1.65,1320,1536,3138,52,76,75,76,99,0
1302,1513,3121,6,10,12,6183,0.56,-0.08,2.07,1.65,1319,1535,3138,52,76,75,76,99,0
1300,1507,3112,-6,-8,-5,6166,0.56,-0.08,2.07,1.65,1319,1534,3137,52,76,75,76,99,0
1297,1504,3108,-16,-22,-18,6158,0.56,-0.08,2.07,1.65,1318,1533,3136,52,76,75,76,99,0
1298,1504,3105,-19,-26,-25,6156,0.56,-0.08,2.07,1.65,1317,1532,3135,52,76,75,76,99,0
1301,1509,3108,-18,-26,-27,6158,0.56,-0.08,2.07,1.65,1317,1531,3134,52,76,75,76,99,0
1304,1515,3113,-17,-23,-26,6184,0.56,-0.08,2.07,1.65,1316,1531,3133,52,76,75,76,99,0
1309,1520,3118,-13,-19,-22,6198,0.56,-0.08,2.07,1.65,1316,1530,3133,52,76,75,76,99,0
1311,1523,3122,-10,-13,-17,6208,0.56,-0.08,2.07,1.65,1316,1530,3132,52,76,75,76,99,0
1312,1525,3123,-7,-9,-13,6214,0.56,-0.08,2.07,1.65,1316,1530,3132,52,76,75,76,99,0
1314,1528,3125,-4,-6,-10,6216,0.56,-0.08,2.07,1.65,1316,1530,3132,52,76,75,76,99,0
1317,1531,3130,-2,-3,-7,6230,0.56,-0.08,2.07,1.65,1316,1530,3132,52,76,75,76,99,0
1320,1537,3133,0,0,-4,6242,0.56,-0.08,2.07,1.65,1316,1530,3132,52,76,75,76,99,0
1324,1541,3137,2,4,0,6257,0.56,-0.08,2.07,1.65,1316,1531,3132,52,76,75,76,99,0
1326,1546,3140,5,8,3,6269,0.56,-0.08,2.07,1.65,1316,1531,3132,52,76,75,76,99,0
1329,1552,3145,8,13,6,6286,0.56,-0.08,2.07,1.65,1317,1532,3133,52,76,75,76,99,0
1338,1563,3162,12,18,13,6324,0.56,-0.08,2.07,1.65,1318,1533,3134,52,76,75,76,99,0
1341,1565,3168,16,24,20,6337,0.56,-0.08,2.07,1.65,1318,1534,3135,52,76,75,76,99,0
1345,1571,3176,20,29,28,6351,0.56,-0.08,2.07,1.65,1319,1535,3136,52,76,75,76,99,0
1349,1579,3185,24,34,37,6370,0.56,-0.08,2.07,1.65,1320,1537,3138,52,76,75,76,99,0
1353,1589,3192,27,40,43,6384,0.56,-0.08,2.07,1.65,1321,1538,3140,52,76,75,76,99,0
1357,1595,3197,30,46,48,6395,0.56,-0.08,2.07,1.65,1322,1540,3142,52,76,75,76,99,0
1349,1578,3185,30,46,49,6370,0.56,-0.08,2.07,1.65,1323,1541,3143,52,76,75,76,99,0
1334,1557,3155,25,39,40,6303,0.56,-0.08,2.07,1.65,1324,1542,3143,52,75,75,76,99,0
1319,1536,3142,16,25,27,6246,0.56,-0.08,2.04,1.65,1324,1542,3143,52,75,75,76,99,0
1306,1518,3129,3,5,9,6199,0.56,-0.08,2.04,1.65,1323,1541,3143,52,75,75,76,99,0
1297,1503,3110,-9,-12,-8,6157,0.56,-0.08,2.04,1.65,1322,1540,3142,52,75,75,76,99,0
1296,1502,3106,-18,-25,-20,6149,0.56,-0.08,2.04,1.65,1321,1538,3141,52,75,75,76,99,0
1295,1500,3103,-23,-33,-29,6146,0.56,-0.08,2.04,1.65,1320,1537,3139,52,75,75,76,99,0
1296,1501,3103,-24,-36,-34,6149,0.56,-0.08,2.04,1.65,1320,1536,3138,52,75,75,76,99,0
1299,1506,3106,-23,-34,-34,6162,0.56,-0.08,2.04,1.65,1319,1535,3137,52,75,75,76,99,0
1305,1517,3117,-20,-29,-30,6189,0.56,-0.08,2.04,1.65,1318,1534,3136,52,75,75,76,99,0
1307,1520,3119,-17,-23,-25,6198,0.56,-0.08,2.04,1.65,1318,1534,3136,52,75,75,76,99,0
1309,1521,3122,-13,-18,-20,6204,0.56,-0.08,2.04,1.65,1318,1533,3135,52,75,75,76,99,0
1310,1524,3124,-10,-13,-15,6210,0.56,-0.08,2.04,1.65,1317,1533,3135,52,75,75,76,99,0
1312,1527,3127,-8,-10,-12,6217,0.56,-0.08,2.04,1.65,1317,1533,3135,52,75,75,76,99,0
1318,1536,3134,-5,-6,-8,6241,0.56,-0.08,2.04,1.65,1317,1533,3135,52,75,75,76,99,0
1323,1540,3138,-1,-1,-4,6256,0.56,-0.08,2.04,1.65,1318,1533,3135,52,75,75,76,99,0
1325,1546,3142,2,4,0,6270,0.56,-0.08,2.04,1.65,1318,1534,3135,52,75,75,76,99,0
1329,1552,3148,6,10,5,6288,0.56,-0.08,2.04,1.65,1318,1534,3135,52,75,75,76,99,0
1334,1558,3153,9,15,10,6306,0.56,-0.08,2.04,1.65,1319,1535,3136,52,75,75,76,99,0
1342,1565,3168,14,20,17,6335,0.56,-0.08,2.04,1.65,1319,1536,3137,52,75,75,76,99,0
1345,1571,3177,18,26,25,6354,0.56,-0.08,2.04,1.65,1320,1537,3138,52,75,75,76,99,0
1348,1579,3185,22,31,33,6370,0.56,-0.08,2.04,1.65,1321,1539,3140,52,75,75,76,99,0
1352,1587,3193,26,37,41,6386,0.56,-0.08,2.04,1.65,1322,1540,3142,52,75,75,76,99,0
1356,1594,3198,28,43,47,6395,0.56,-0.08,2.04,1.65,1323,1542,3144,52,75,75,76,99,0
1361,1601,3204,31,49,52,6408,0.56,-0.08,2.04,1.65,1325,1544,3146,52,75,75,76,99,0
1356,1597,3199,32,51,53,6398,0.56,-0.08,2.04,1.65,1326,1546,3147,52,75,75,76,99,0
1342,1569,3171,28,45,46,6342,0.56,-0.08,2.04,1.65,1326,1547,3148,53,78,78,77,99,0
1326,1547,3150,20,32,33,6277,0.56,-0.08,2.03,1.61,1326,1547,3148,53,78,78,77,99,0
1312,1527,3138,8,13,16,6224,0.56,-0.08,2.03,1.61,1326,1546,3148,53,78,78,77,99,0
1299,1506,3117,-6,-9,-3,6168,0.56,-0.08,2.03,1.61,1325,1545,3147,53,78,78,77,99,0
1296,1502,3110,-17,-24,-18,6156,0.56,-0.08,2.03,1.61,1324,1543,3146,53,78,78,77,99,0
1295,1500,3107,-24,-35,-28,6149,0.56,-0.08,2.03,1.61,1323,1542,3144,53,78,78,77,99,0
1295,1501,3105,-27,-40,-35,6148,0.56,-0.08,2.03,1.61,1322,1540,3143,53,78,78,77,99,0
1298,1504,3106,-26,-39,-36,6156,0.56,-0.08,2.03,1.61,1321,1539,3142,53,78,78,77,99,0
1303,1515,3115,-24,-34,-34,6182,0.56,-0.08,2.03,1.61,1321,1538,3141,53,78,78,77,99,0
1305,1517,3118,-20,-29,-30,6191,0.56,-0.08,2.03,1.61,1320,1538,3140,53,78,78,77,99,0
1306,1520,3120,-17,-24,-25,6197,0.56,-0.08,2.03,1.61,1320,1537,3139,53,78,78,77,99,0
1307,1521,3122,-14,-19,-21,6200,0.56,-0.08,2.03,1.61,1319,1537,3139,53,78,78,77,99,0
1309,1523,3124,-12,-16,-18,6206,0.56,-0.08,2.03,1.61,1319,1536,3138,53,78,78,77,99,0
1315,1531,3132,-10,-12,-14,6230,0.56,-0.08,2.03,1.61,1319,1536,3138,53,78,78,77,99,0
1319,1536,3137,-6,-8,-9,6245,0.56,-0.08,2.03,1.61,1319,1536,3138,53,78,78,77,99,0
1324,1542,3140,-2,-3,-4,6261,0.56,-0.08,2.03,1.61,1319,1536,3138,53,78,78,77,99,0
