2661,3469,5047,13,3,68,10240,-1.00,-1.00,26.90,187.96,2642,3456,4975,463,112,6,70,0,0
2663,3468,5048,18,12,72,10240,-1.00,-1.00,26.90,187.96,2642,3456,4978,463,112,6,70,0,0
2665,3477,5054,20,14,72,10240,-1.00,-1.00,26.90,187.96,2643,3457,4980,463,112,6,70,0,0
2678,3500,5078,24,21,77,10240,-1.00,-1.00,26.90,187.96,2644,3458,4983,463,112,6,70,0,0
2687,3517,5095,29,32,86,10240,-1.00,-1.00,26.90,187.96,2646,3460,4987,463,112,6,70,0,0
2694,3531,5117,36,46,100,10240,-1.00,-1.00,26.90,187.96,2647,3463,4991,463,112,6,70,0,0
2706,3550,5123,44,62,114,10240,-1.00,-1.00,26.90,187.96,2649,3466,4996,463,112,6,70,0,0
2717,3565,5123,52,76,121,10240,-1.00,-1.00,26.90,187.96,2652,3469,5000,463,112,6,70,0,0
2735,3591,5123,62,91,123,10240,-1.00,-1.00,26.90,187.96,2654,3473,5004,463,112,6,70,0,0
2743,3603,5123,72,106,121,10240,-1.00,-1.00,26.90,187.96,2657,3477,5008,463,112,24,70,0,0
2750,3615,5123,80,118,117,10240,-1.00,-1.00,6.72,36.36,2661,3482,5012,463,112,24,70,0,0
2756,3625,5123,87,128,113,10240,-1.00,-1.00,6.72,36.36,2664,3487,5016,463,112,24,70,0,0
2768,3647,5124,92,138,109,10240,-1.00,-1.00,6.72,36.36,2667,3492,5019,463,112,24,70,0,0
2776,3658,5147,96,146,111,10240,-1.00,-1.00,6.72,36.36,2671,3497,5023,463,112,24,70,0,0
2784,3667,5159,101,154,116,10240,-1.00,-1.00,6.72,36.36,2675,3503,5028,463,112,24,70,0,0
2792,3682,5173,107,163,125,10240,-1.00,-1.00,6.72,36.36,2678,3509,5033,463,112,24,70,0,0
2799,3695,5184,111,169,135,10240,-1.00,-1.00,6.72,36.36,2682,3515,5038,463,112,24,72,0,0
2778,3660,5139,108,164,128,10240,-1.00,-1.00,6.72,36.36,2686,3520,5041,376,135,25,72,0,0
2739,3597,5123,93,141,115,10240,-1.00,-1.00,7.73,28.23,2687,3523,5044,376,135,25,72,0,0
2694,3527,5087,66,99,91,10240,-1.00,-1.00,7.73,28.23,2688,3523,5045,376,135,25,72,0,0
2665,3477,5039,32,43,53,10240,-1.00,-1.00,7.73,28.23,2687,3521,5045,376,135,25,72,0,0
2646,3446,5019,-1,-9,22,10240,-1.00,-1.00,7.73,28.23,2686,3519,5044,376,135,25,72,100,0
2633,3416,5006,-26,-53,-6,10240,-1.00,-1.00,7.73,28.23,2684,3515,5043,376,135,25,72,100,0
2633,3416,5008,-40,-78,-25,10240,-1.00,-1.00,7.73,28.23,2682,3512,5042,376,135,25,72,100,0
2636,3418,5014,-46,-89,-30,10240,-1.00,-1.00,7.73,28.23,2681,3509,5041,376,135,25,72,100,0
2643,3439,5030,-45,-88,-27,10240,-1.00,-1.00,7.73,28.23,2679,3507,5041,376,135,25,72,100,0
2650,3459,5045,-39,-75,-17,10240,-1.00,-1.00,7.73,28.23,2678,3505,5041,376,135,25,72,100,0
2658,3464,5051,-32,-61,-6,10240,-1.00,-1.00,7.73,28.23,2678,3504,5041,376,135,25,72,100,0
2657,3464,5050,-26,-48,3,10240,-1.00,-1.00,7.73,28.23,2677,3502,5041,376,135,25,72,100,0
2659,3466,5052,-21,-39,8,10240,-1.00,-1.00,7.73,28.23,2676,3501,5042,376,135,25,72,100,0
2663,3473,5058,-17,-35,11,10240,-1.00,-1.00,7.73,28.23,2676,3500,5042,376,135,25,72,100,0
2668,3486,5069,-14,-28,15,10240,-1.00,-1.00,7.73,28.23,2676,3500,5043,376,135,25,72,100,0
2686,3514,5103,-7,-15,27,10240,-1.00,-1.00,7.73,28.23,2676,3500,5045,376,135,25,72,100,0
2693,3529,5121,1,0,43,10240,-1.00,-1.00,7.73,28.23,2677,3501,5048,376,135,25,72,100,0
2704,3546,5123,11,17,57,10240,-1.00,-1.00,7.73,28.23,2677,3503,5050,376,135,25,72,100,0
2715,3560,5122,22,35,68,10240,-1.00,-1.00,7.73,28.23,2679,3505,5053,376,135,25,72,100,0
2723,3574,5123,30,48,70,10240,-1.00,-1.00,7.73,28.23,2680,3507,5055,376,135,25,72,100,0
2738,3594,5123,40,62,69,10240,-1.00,-1.00,7.73,28.23,2682,3510,5057,376,135,43,72,100,0
2743,3604,5123,48,74,66,10240,-1.00,-1.00,4.52,16.49,2684,3513,5059,376,135,43,72,100,0
2749,3613,5123,55,84,64,10240,-1.00,-1.00,4.52,16.49,2686,3516,5062,376,135,43,72,100,0
2754,3622,5123,60,93,62,10240,-1.00,-1.00,4.52,16.49,2689,3520,5064,376,135,43,72,100,0
2767,3646,5126,65,103,61,10240,-1.00,-1.00,4.52,16.49,2691,3524,5066,376,135,43,72,100,0
2777,3660,5158,71,113,67,10240,-1.00,-1.00,4.52,16.49,2694,3528,5069,376,135,43,72,100,0
2784,3671,5170,77,123,76,10240,-1.00,-1.00,4.52,16.49,2697,3533,5072,376,135,43,72,100,0
2785,3671,5167,82,131,84,10240,-1.00,-1.00,4.52,16.49,2700,3538,5075,376,135,43,72,100,0
2764,3638,5131,79,125,83,10240,-1.00,-1.00,4.52,16.49,2702,3541,5077,314,157,38,71,100,0
2684,3511,5079,54,84,61,10240,-1.00,-1.00,5.92,15.53,2702,3540,5077,314,157,38,71,100,0
2656,3463,5038,21,31,27,10240,-1.00,-1.00,5.92,15.53,2700,3538,5076,314,157,38,71,100,0
2638,3426,5015,-15,-28,-10,10240,-1.00,-1.00,5.92,15.53,2698,3534,5074,314,157,38,71,100,0
2624,3416,5004,-48,-81,-40,10240,-1.00,-1.00,5.92,15.53,2695,3530,5072,314,157,38,71,100,0
2623,3416,5003,-61,-101,-57,10240,-1.00,-1.00,5.92,15.53,2693,3526,5069,314,157,38,71,100,0
2630,3417,5016,-65,-109,-61,10240,-1.00,-1.00,5.92,15.53,2691,3522,5067,314,157,38,71,100,0
2642,3435,5034,-62,-103,-54,10240,-1.00,-1.00,5.92,15.53,2689,3520,5066,314,157,38,71,100,0
2649,3454,5049,-54,-90,-41,10240,-1.00,-1.00,5.92,15.53,2688,3517,5066,314,157,38,71,100,0
2652,3461,5054,-45,-77,-27,10240,-1.00,-1.00,5.92,15.53,2687,3516,5065,314,157,38,71,100,0
2651,3459,5052,-39,-64,-18,10240,-1.00,-1.00,5.92,15.53,2686,3514,5065,314,157,38,71,100,0
2650,3458,5052,-35,-56,-13,10240,-1.00,-1.00,5.92,15.53,2684,3512,5065,314,157,38,71,100,0
2654,3461,5055,-33,-53,-11,10240,-1.00,-1.00,5.92,15.53,2683,3510,5064,314,157,38,71,100,0
2660,3467,5060,-30,-50,-9,10240,-1.00,-1.00,5.92,15.53,2683,3509,5064,314,157,38,71,100,0
2666,3481,5073,-25,-43,-4,10240,-1.00,-1.00,5.92,15.53,2682,3508,5064,314,157,38,71,100,0
2675,3497,5090,-18,-32,5,10240,-1.00,-1.00,5.92,15.53,2682,3507,5065,314,157,38,71,100,0
2693,3528,5123,-8,-14,21,10240,-1.00,-1.00,5.92,15.53,2682,3508,5067,314,157,38,71,100,0
2701,3541,5122,1,3,35,10240,-1.00,-1.00,5.92,15.53,2683,3509,5069,314,157,38,71,100,0
2710,3554,5123,12,21,46,10240,-1.00,-1.00,5.92,15.53,2684,3511,5071,314,157,38,71,100,0
2717,3564,5123,21,36,52,10240,-1.00,-1.00,5.92,15.53,2685,3512,5073,314,157,38,71,100,0
2723,3573,5123,28,46,51,10240,-1.00,-1.00,5.92,15.53,2686,3514,5074,314,157,57,71,100,0
2733,3589,5123,35,56,49,10240,-1.00,-1.00,3.98,10.41,2688,3517,5076,314,157,57,71,100,0
2740,3599,5123,41,65,48,10240,-1.00,-1.00,3.98,10.41,2689,3520,5077,314,157,57,71,100,0
2747,3612,5123,47,74,46,10240,-1.00,-1.00,3.98,10.41,2691,3523,5079,314,157,57,71,100,0
2754,3622,5124,53,84,45,10240,-1.00,-1.00,3.98,10.41,2693,3526,5080,314,157,57,71,100,0
2739,3596,5124,53,83,44,10240,-1.00,-1.00,3.98,10.41,2695,3528,5082,314,166,57,71,100,0
2699,3537,5111,41,65,39,10240,-1.00,-1.00,3.98,10.41,2695,3529,5083,265,166,57,71,100,0
2658,3468,5046,18,28,19,10240,-1.00,-1.00,3.98,10.41,2694,3527,5082,265,166,57,71,100,0
2627,3417,5004,-13,-22,-10,10240,-1.00,-1.00,3.98,10.41,2692,3523,5079,265,166,57,71,100,0
2608,3416,4992,-44,-65,-41,10240,-1.00,-1.00,3.98,10.41,2689,3519,5076,265,166,57,71,100,0
2590,3414,4992,-69,-92,-69,10240,-1.00,-1.00,3.98,10.41,2686,3516,5073,265,166,57,71,100,0
2591,3414,4996,-83,-102,-78,10240,-1.00,-1.00,3.98,10.41,2682,3512,5071,265,166,57,69,100,0
2595,3416,4999,-88,-99,-77,10240,-1.00,-1.00,3.98,10.41,2679,3509,5068,265,166,57,69,100,0
2613,3416,5007,-83,-95,-71,10240,-1.00,-1.00,3.98,10.41,2677,3506,5066,265,166,57,69,100,0
2618,3416,5013,-74,-92,-63,10240,-1.00,-1.00,3.98,10.41,2675,3503,5065,265,166,57,69,100,0
2616,3416,5016,-65,-88,-56,10240,-1.00,-1.00,3.98,10.41,2673,3500,5063,265,166,57,69,100,0
2617,3416,5015,-58,-85,-51,10240,-1.00,-1.00,3.98,10.41,2671,3497,5061,265,166,57,69,100,0
2617,3416,5017,-55,-82,-47,10240,-1.00,-1.00,3.98,10.41,2670,3495,5060,265,166,57,69,100,0
2626,3416,5025,-51,-80,-42,10240,-1.00,-1.00,3.98,10.41,2668,3492,5059,265,166,57,69,100,0
2637,3424,5036,-44,-75,-36,10240,-1.00,-1.00,3.98,10.41,2667,3490,5058,265,166,57,69,100,0
2653,3457,5062,-34,-63,-23,10240,-1.00,-1.00,3.98,10.41,2667,3489,5058,265,166,57,69,100,0
2662,3474,5076,-22,-47,-8,10240,-1.00,-1.00,3.98,10.41,2667,3488,5059,265,166,57,69,100,0
2670,3490,5092,-11,-27,7,10240,-1.00,-1.00,3.98,10.41,2667,3488,5060,265,166,57,69,100,0
2680,3506,5112,0,-6,26,10240,-1.00,-1.00,3.98,10.41,2667,3489,5061,265,166,57,69,100,0
2689,3521,5123,8,9,39,10240,-1.00,-1.00,3.98,10.41,2668,3490,5064,265,166,57,69,100,0
2703,3542,5123,17,25,49,10240,-1.00,-1.00,3.98,10.41,2669,3492,5066,265,166,57,69,100,0
2709,3550,5123,26,38,55,10240,-1.00,-1.00,3.98,10.41,2670,3494,5067,265,166,57,69,100,0
2714,3559,5123,34,50,56,10240,-1.00,-1.00,3.98,10.41,2672,3496,5069,265,166,57,69,100,0
2720,3568,5123,40,59,54,10240,-1.00,-1.00,3.98,10.41,2673,3498,5071,265,166,76,69,100,0
2734,3590,5123,46,69,53,10240,-1.00,-1.00,3.17,6.61,2675,3501,5073,265,166,76,69,100,0
2742,3602,5123,53,79,51,10240,-1.00,-1.00,3.17,6.61,2678,3505,5074,265,166,76,69,100,0
2743,3604,5123,58,88,49,10240,-1.00,-1.00,3.17,6.61,2680,3508,5076,265,166,76,69,100,0
2725,3576,5123,57,87,47,10240,-1.00,-1.00,3.17,6.61,2681,3510,5078,235,172,76,69,100,0
2683,3511,5094,43,65,39,10240,-1.00,-1.00,3.17,6.61,2681,3510,5078,235,172,76,72,100,0
2595,3407,4984,6,15,4,10240,-1.00,-1.00,3.17,6.61,2678,3507,5075,235,172,76,72,100,0
2568,3363,4956,-36,-43,-36,10240,-1.00,-1.00,3.17,6.61,2675,3502,5071,235,172,76,72,100,0
2563,3345,4943,-74,-97,-78,10240,-1.00,-1.00,3.17,6.61,2671,3497,5067,235,172,76,72,100,0
2563,3334,4939,-100,-137,-113,10240,-1.00,-1.00,3.17,6.61,2667,3491,5063,235,172,76,72,100,0
2563,3327,4935,-105,-151,-121,10240,-1.00,-1.00,3.17,6.61,2664,3486,5058,235,172,76,72,100,0
2562,3326,4938,-103,-155,-121,10240,-1.00,-1.00,3.17,6.61,2661,3481,5054,235,172,76,72,100,0
2562,3336,4949,-99,-152,-116,10240,-1.00,-1.00,3.17,6.61,2657,3476,5051,235,172,76,72,100,0
2562,3349,4960,-96,-144,-107,10240,-1.00,-1.00,3.17,6.61,2654,3472,5048,235,172,76,72,100,0
2562,3359,4968,-93,-131,-95,10240,-1.00,-1.00,3.17,6.61,2651,3468,5045,235,172,76,72,100,0
2564,3366,4975,-90,-117,-83,10240,-1.00,-1.00,3.17,6.61,2648,3464,5043,235,172,76,72,100,0
2574,3377,4981,-84,-103,-73,10240,-1.00,-1.00,3.17,6.61,2646,3461,5041,235,172,76,72,100,0
2579,3385,4987,-77,-91,-64,10240,-1.00,-1.00,3.17,6.61,2643,3459,5039,235,172,76,72,100,0
2584,3399,4998,-69,-78,-55,10240,-1.00,-1.00,3.17,6.61,2642,3457,5038,235,172,76,72,100,0
2596,3416,5010,-59,-64,-44,10240,-1.00,-1.00,3.17,6.61,2640,3456,5037,235,172,76,72,100,0
2613,3416,5016,-48,-52,-34,10240,-1.00,-1.00,3.17,6.61,2639,3454,5036,235,172,76,72,100,0
2635,3421,5041,-33,-42,-20,10240,-1.00,-1.00,3.17,6.61,2639,3453,5036,235,172,76,72,100,0
2643,3444,5056,-17,-29,-5,10240,-1.00,-1.00,3.17,6.61,2639,3453,5037,235,172,76,72,100,0
2651,3456,5064,-3,-19,7,10240,-1.00,-1.00,3.17,6.61,2639,3453,5038,235,172,76,72,100,0
2659,3468,5074,7,-5,21,10240,-1.00,-1.00,3.17,6.61,2640,3453,5039,235,172,76,72,100,0
2668,3477,5080,15,8,30,10240,-1.00,-1.00,3.17,6.61,2641,3454,5040,235,172,76,72,100,0
2675,3500,5105,22,21,41,10240,-1.00,-1.00,3.17,6.61,2642,3456,5042,235,172,76,72,100,0
2686,3516,5121,30,35,53,10240,-1.00,-1.00,3.17,6.61,2644,3458,5045,235,172,76,72,100,0
2695,3532,5123,38,49,63,10240,-1.00,-1.00,3.17,6.61,2645,3460,5048,235,172,76,72,100,0
2707,3550,5123,46,65,71,10240,-1.00,-1.00,3.17,6.61,2647,3463,5050,235,172,76,72,100,0
2709,3562,5123,52,78,73,10240,-1.00,-1.00,3.17,6.61,2650,3467,5053,235,172,76,72,100,0
2680,3507,5097,49,73,65,10240,-1.00,-1.00,3.17,6.61,2651,3468,5054,216,187,106,72,100,0
2636,3433,5025,33,46,39,10240,-1.00,-1.00,2.57,3.88,2650,3467,5053,216,187,106,72,100,0
2587,3396,4978,3,8,3,10240,-1.00,-1.00,2.57,3.88,2648,3464,5051,216,187,106,72,100,0
2563,3347,4943,-32,-44,-40,10240,-1.00,-1.00,2.57,3.88,2645,3460,5047,216,187,106,72,100,0
2563,3310,4927,-59,-90,-80,10240,-1.00,-1.00,2.57,3.88,2642,3455,5043,216,187,106,72,100,0
2563,3303,4922,-74,-118,-102,10240,-1.00,-1.00,2.57,3.88,2640,3450,5039,216,187,106,72,100,0
2562,3297,4919,-78,-138,-113,10240,-1.00,-1.00,2.57,3.88,2637,3445,5035,216,187,106,72,100,0
2563,3300,4923,-75,-145,-114,10240,-1.00,-1.00,2.57,3.88,2635,3440,5031,216,187,106,72,100,0
2563,3311,4932,-73,-140,-109,10240,-1.00,-1.00,2.57,3.88,2632,3436,5028,216,187,106,72,100,0
2562,3340,4955,-71,-126,-97,10240,-1.00,-1.00,2.57,3.88,2630,3433,5025,216,187,106,72,100,0
2562,3346,4960,-68,-110,-84,10240,-1.00,-1.00,2.57,3.88,2628,3430,5023,216,187,106,72,100,0
2563,3348,4961,-66,-95,-72,10240,-1.00,-1.00,2.57,3.88,2625,3427,5021,216,187,106,72,100,0
2563,3350,4962,-64,-82,-62,10240,-1.00,-1.00,2.57,3.88,2623,3425,5019,216,187,106,72,100,0
2563,3357,4968,-61,-75,-57,10240,-1.00,-1.00,2.57,3.88,2621,3422,5018,216,187,106,72,100,0
2579,3390,4992,-55,-62,-48,10240,-1.00,-1.00,2.57,3.88,2620,3421,5017,216,187,106,72,100,0
2590,3414,5009,-47,-44,-34,10240,-1.00,-1.00,2.57,3.88,2619,3421,5016,216,187,106,72,100,0
2609,3416,5014,-34,-27,-21,10240,-1.00,-1.00,2.57,3.88,2619,3421,5016,216,187,106,72,100,0
2615,3416,5022,-21,-12,-7,10240,-1.00,-1.00,2.57,3.88,2619,3421,5017,216,187,106,72,100,0
2629,3416,5034,-8,-5,3,10240,-1.00,-1.00,2.57,3.88,2619,3421,5017,216,187,106,72,100,0
2647,3453,5060,5,4,15,10240,-1.00,-1.00,2.57,3.88,2620,3422,5019,216,187,106,72,100,0
2654,3458,5064,16,14,26,10240,-1.00,-1.00,2.57,3.88,2621,3423,5020,216,187,106,72,100,0
2660,3473,5076,27,27,39,10240,-1.00,-1.00,2.57,3.88,2622,3425,5022,216,187,106,72,100,0
2664,3480,5081,34,42,49,10240,-1.00,-1.00,2.57,3.88,2624,3426,5024,216,187,106,72,100,0
2667,3487,5086,38,49,53,10240,-1.00,-1.00,2.57,3.88,2625,3428,5026,216,187,106,72,100,0
2679,3508,5108,43,59,62,10240,-1.00,-1.00,2.57,3.88,2627,3431,5029,216,187,106,72,100,0
2681,3513,5111,46,67,69,10240,-1.00,-1.00,2.57,3.88,2629,3434,5031,216,187,106,72,100,0
2669,3490,5080,46,67,66,10240,-1.00,-1.00,2.57,3.88,2630,3436,5033,216,187,125,72,100,0
2636,3433,5027,37,51,50,10240,-1.00,-1.00,2.19,3.31,2630,3436,5033,193,193,125,72,100,0
2564,3404,4984,8,24,18,10240,-1.00,-1.00,2.19,3.31,2628,3435,5031,193,193,125,72,100,0
2563,3322,4924,-20,-22,-27,10240,-1.00,-1.00,2.19,3.31,2626,3431,5028,193,193,125,72,100,0
2562,3306,4917,-45,-66,-66,10240,-1.00,-1.00,2.19,3.31,2624,3427,5024,193,193,125,72,100,0
2562,3297,4914,-62,-96,-91,10240,-1.00,-1.00,2.19,3.31,2622,3422,5020,193,193,125,72,100,0
2562,3295,4915,-60,-119,-104,10240,-1.00,-1.00,2.19,3.31,2620,3418,5017,193,193,125,72,100,0
2563,3314,4920,-58,-117,-102,10240,-1.00,-1.00,2.19,3.31,2618,3415,5014,193,193,125,72,100,0
2563,3330,4942,-56,-107,-92,10240,-1.00,-1.00,2.19,3.31,2616,3412,5011,193,193,125,72,100,0
2563,3339,4949,-54,-94,-81,10240,-1.00,-1.00,2.19,3.31,2614,3409,5009,193,193,125,72,100,0
2563,3345,4954,-52,-78,-69,10240,-1.00,-1.00,2.19,3.31,2612,3407,5007,193,193,125,72,100,0
2562,3348,4956,-50,-67,-58,10240,-1.00,-1.00,2.19,3.31,2611,3405,5006,193,193,125,72,100,0
2563,3363,4969,-48,-57,-49,10240,-1.00,-1.00,2.19,3.31,2609,3404,5004,193,193,125,72,100,0
2569,3374,4977,-45,-47,-41,10240,-1.00,-1.00,2.19,3.31,2608,3403,5003,193,193,125,72,100,0
2580,3395,4992,-40,-33,-30,10240,-1.00,-1.00,2.19,3.31,2607,3403,5003,193,193,125,72,100,0
2594,3416,5006,-31,-16,-17,10240,-1.00,-1.00,2.19,3.31,2606,3403,5003,193,193,125,72,100,0
2613,3416,5013,-18,-2,-6,10240,-1.00,-1.00,2.19,3.31,2607,3403,5003,193,193,125,72,100,0
2636,3427,5040,-1,10,9,10240,-1.00,-1.00,2.19,3.31,2608,3404,5005,193,193,125,72,100,0
2645,3452,5057,14,23,24,10240,-1.00,-1.00,2.19,3.31,2609,3406,5006,193,193,125,72,100,0
2654,3463,5064,28,34,38,10240,-1.00,-1.00,2.19,3.31,2610,3408,5008,193,193,125,72,100,0
2662,3479,5077,39,48,52,10240,-1.00,-1.00,2.19,3.31,2612,3410,5011,193,193,125,72,100,0
2668,3489,5087,46,61,61,10240,-1.00,-1.00,2.19,3.31,2614,3413,5013,193,193,125,72,100,0
2684,3519,5119,54,75,74,10240,-1.00,-1.00,2.19,3.31,2616,3416,5017,193,193,125,72,100,0
2692,3531,5123,61,89,86,10240,-1.00,-1.00,2.19,3.31,2619,3420,5020,193,193,125,72,100,0
2705,3550,5123,69,104,94,10240,-1.00,-1.00,2.19,3.31,2622,3424,5024,193,193,125,72,100,0
2714,3562,5123,78,118,100,10240,-1.00,-1.00,2.19,3.31,2625,3429,5027,193,193,125,72,100,0
2682,3558,5123,75,123,97,10240,-1.00,-1.00,2.19,3.31,2627,3433,5030,179,193,145,74,100,0
2640,3441,5027,60,97,71,10240,-6.90,0.22,1.95,2.36,2627,3434,5030,179,205,145,74,100,0
2592,3405,4980,30,59,34,10240,-6.90,0.22,1.95,2.36,2626,3433,5028,179,205,145,74,100,0
2563,3353,4941,-6,6,-10,10240,-6.90,0.22,1.95,2.36,2624,3430,5026,179,205,145,74,100,0
2563,3328,4924,-35,-49,-58,10240,-6.90,0.22,1.95,2.36,2622,3427,5022,179,205,145,74,100,0
2563,3304,4915,-52,-80,-83,10240,-6.90,0.22,1.95,2.36,2620,3422,5019,179,205,145,74,100,0
2563,3299,4915,-58,-103,-96,10240,-6.90,0.22,1.95,2.36,2618,3418,5015,179,205,145,74,100,0
2563,3301,4918,-56,-112,-99,10240,-6.90,0.22,1.95,2.36,2616,3414,5012,179,205,145,74,99,0
2563,3311,4926,-54,-112,-95,10240,-6.90,0.22,1.95,2.36,2614,3411,5009,179,205,145,74,99,0
2563,3326,4937,-52,-103,-86,10240,-6.90,0.22,1.95,2.36,2613,3408,5007,179,205,145,74,99,0
2563,3341,4950,-50,-90,-75,10240,-6.90,0.22,1.95,2.36,2611,3406,5005,179,205,145,74,99,0
2563,3345,4954,-48,-76,-64,10240,-6.90,0.22,1.95,2.36,2609,3404,5003,179,205,145,74,99,0
2563,3351,4958,-47,-64,-54,10240,-6.90,0.22,1.95,2.36,2608,3402,5002,179,205,145,74,99,0
2563,3361,4966,-45,-53,-45,10240,-6.90,0.22,1.95,2.36,2606,3401,5000,179,205,145,74,99,0
2566,3370,4974,-43,-45,-38,10240,-6.90,0.22,1.95,2.36,2605,3400,4999,179,205,145,74,99,0
2588,3413,5005,-35,-27,-24,10240,-6.90,0.22,1.95,2.36,2604,3400,5000,179,205,145,74,99,0
2607,3416,5012,-24,-10,-10,10240,-6.90,0.22,1.95,2.36,2605,3401,5000,179,205,145,74,99,0
2616,3416,5018,-10,3,2,10240,-6.90,0.22,1.95,2.36,2605,3401,5001,179,205,145,74,99,0
2628,3418,5032,4,14,16,10240,-6.90,0.22,1.95,2.36,2606,3402,5002,179,205,145,74,99,0
2639,3440,5049,16,20,26,10240,-6.90,0.22,1.95,2.36,2607,3403,5003,179,205,145,74,99,0
2657,3470,5072,28,33,39,10240,-6.90,0.22,1.95,2.36,2608,3405,5006,179,205,145,74,99,0
2663,3481,5081,39,47,53,10240,-6.90,0.22,1.95,2.36,2610,3408,5008,179,205,145,74,99,0
2668,3495,5096,47,64,67,10240,-6.90,0.22,1.95,2.36,2612,3411,5011,179,205,145,74,99,0
2677,3509,5114,55,79,81,10240,-6.90,0.22,1.95,2.36,2614,3414,5014,179,205,145,74,99,0
2688,3525,5123,60,89,90,10240,-6.90,0.22,1.95,2.36,2617,3418,5018,179,205,145,74,99,0
2706,3552,5123,69,104,97,10240,-6.90,0.22,1.95,2.36,2620,3422,5022,179,205,145,74,99,0
2702,3548,5123,74,113,101,10240,-6.90,0.22,1.95,2.36,2623,3426,5025,179,205,145,74,99,0
2678,3508,5103,72,109,94,10240,-6.90,0.22,1.95,2.36,2624,3429,5028,168,210,159,74,99,0
2637,3438,5035,57,85,70,10240,-6.90,0.22,1.94,2.02,2625,3429,5028,168,210,159,74,99,0
2563,3405,4990,21,46,36,10240,-6.90,0.22,1.94,2.02,2623,3429,5026,168,210,159,74,99,0
2563,3328,4938,-13,-8,-10,10240,-6.90,0.22,1.94,2.02,2621,3425,5024,168,210,159,74,99,0
2563,3311,4930,-40,-55,-51,10240,-6.90,0.22,1.94,2.02,2619,3421,5020,168,210,159,74,99,0
2561,3301,4928,-57,-86,-75,10240,-6.90,0.22,1.94,2.02,2617,3417,5017,168,210,159,74,99,0
2557,3295,4926,-57,-110,-88,10240,-6.90,0.22,1.94,2.02,2615,3413,5014,168,210,159,74,99,0
2563,3310,4931,-55,-111,-87,10240,-6.90,0.22,1.94,2.02,2613,3410,5012,168,210,159,74,99,0
2562,3325,4953,-53,-104,-78,10240,-6.90,0.22,1.94,2.02,2611,3407,5010,168,210,159,74,99,0
2563,3336,4962,-51,-92,-68,10240,-6.90,0.22,1.94,2.02,2610,3405,5008,168,210,159,74,99,0
2563,3341,4966,-47,-78,-56,10240,-6.90,0.22,1.94,2.02,2608,3403,5007,168,210,159,74,99,0
2563,3344,4969,-46,-67,-45,10240,-6.90,0.22,1.94,2.02,2607,3401,5005,168,210,159,74,99,0
2563,3358,4982,-44,-57,-36,10240,-6.90,0.22,1.94,2.02,2605,3399,5005,168,210,159,74,99,0
2563,3369,4992,-43,-47,-28,10240,-6.90,0.22,1.94,2.02,2604,3398,5004,168,210,159,74,99,0
2567,3382,5001,-40,-35,-18,10240,-6.90,0.22,1.94,2.02,2603,3398,5004,168,210,159,74,99,0
2578,3406,5017,-35,-19,-6,10240,-6.90,0.22,1.94,2.02,2602,3398,5004,168,210,159,74,99,0
2595,3416,5028,-27,-5,5,10240,-6.90,0.22,1.94,2.02,2602,3399,5005,168,210,159,74,99,0
2615,3416,5045,-13,6,17,10240,-6.90,0.22,1.94,2.02,2602,3399,5007,168,210,159,74,99,0
2631,3425,5061,2,16,31,10240,-6.90,0.22,1.94,2.02,2603,3400,5008,168,210,159,74,99,0
2639,3445,5074,17,25,44,10240,-6.90,0.22,1.94,2.02,2604,3401,5011,168,210,159,74,99,0
2645,3455,5083,28,34,56,10240,-6.90,0.22,1.94,2.02,2606,3403,5013,168,210,159,74,99,0
2652,3467,5096,36,45,66,10240,-6.90,0.22,1.94,2.02,2607,3405,5016,168,210,159,74,99,0
2667,3498,5123,44,62,79,10240,-6.90,0.22,1.94,2.02,2609,3408,5019,168,210,159,74,99,0
2680,3513,5123,52,76,88,10240,-6.90,0.22,1.94,2.02,2612,3412,5023,168,210,159,74,99,0
2689,3528,5123,61,91,95,10240,-6.90,0.22,1.94,2.02,2614,3416,5026,168,210,159,74,99,0
2691,3537,5123,68,105,98,10240,-6.90,0.22,1.94,2.02,2617,3420,5029,168,210,159,74,99,0
2683,3523,5123,70,107,95,10240,-6.90,0.22,1.94,2.02,2619,3423,5032,168,210,165,74,99,0
2602,3416,5031,49,80,70,10240,-6.90,0.22,1.87,1.96,2618,3423,5032,157,212,165,74,99,0
2564,3369,4992,17,39,36,10240,-6.90,0.22,1.87,1.96,2616,3421,5031,157,212,165,74,99,0
2562,3330,4967,-14,-11,-2,10240,-6.90,0.22,1.87,1.96,2615,3418,5029,157,212,165,74,99,0
2562,3309,4958,-43,-63,-42,10240,-6.90,0.22,1.87,1.96,2613,3415,5027,157,212,165,74,99,0
2549,3300,4955,-54,-89,-59,10240,-6.90,0.22,1.87,1.96,2611,3411,5024,157,212,165,74,99,0
2541,3293,4953,-58,-104,-67,10240,-6.90,0.22,1.87,1.96,2608,3407,5022,157,212,165,74,99,0
2553,3303,4965,-58,-107,-65,10240,-6.90,0.22,1.87,1.96,2607,3403,5020,157,212,165,74,99,0
2563,3321,4981,-56,-101,-57,10240,-6.90,0.22,1.87,1.96,2605,3401,5019,157,212,165,74,99,0
2563,3328,4982,-51,-91,-49,10240,-6.90,0.22,1.87,1.96,2604,3398,5017,157,212,165,74,99,0
2562,3331,4984,-44,-78,-40,10240,-6.90,0.22,1.87,1.96,2602,3396,5016,157,212,165,74,99,0
2563,3334,4989,-40,-68,-32,10240,-6.90,0.22,1.87,1.96,2601,3394,5015,157,212,165,74,99,0
2563,3341,4995,-39,-61,-28,10240,-6.90,0.22,1.87,1.96,2600,3392,5015,157,212,165,74,99,0
2563,3349,5002,-37,-54,-22,10240,-6.90,0.22,1.87,1.96,2599,3391,5014,157,212,165,74,99,0
2562,3361,5011,-36,-45,-15,10240,-6.90,0.22,1.87,1.96,2597,3390,5014,157,212,165,74,99,0
2565,3378,5025,-34,-33,-6,10240,-6.90,0.22,1.87,1.96,2596,3389,5015,157,212,165,74,99,0
2579,3415,5053,-29,-14,8,10240,-6.90,0.22,1.87,1.96,2596,3390,5016,157,212,165,74,99,0
2596,3416,5056,-20,2,20,10240,-6.90,0.22,1.87,1.96,2596,3391,5017,157,212,165,74,99,0
2603,3416,5066,-10,15,33,10240,-6.90,0.22,1.87,1.96,2596,3392,5019,157,212,165,74,99,0
2618,3416,5078,2,24,45,10240,-6.90,0.22,1.87,1.96,2597,3393,5021,157,212,165,74,99,0
2632,3437,5100,15,28,55,10240,-6.90,0.22,1.87,1.96,2598,3394,5023,157,212,165,74,99,0
2640,3452,5120,25,36,68,10240,-6.90,0.22,1.87,1.96,2599,3396,5027,157,212,165,74,99,0
2649,3472,5123,36,48,80,10240,-6.90,0.22,1.87,1.96,2601,3399,5030,157,212,165,74,99,0
2660,3489,5123,45,64,88,10240,-6.90,0.22,1.87,1.96,2603,3402,5033,157,212,165,74,99,0
2669,3506,5123,52,79,90,10240,-6.90,0.22,1.87,1.96,2605,3405,5036,157,212,165,74,99,0
2645,3462,5117,52,79,87,10240,-6.90,0.22,1.87,1.96,2606,3407,5039,157,212,163,74,99,0
2595,3415,5062,37,62,69,10240,-6.90,0.22,1.92,1.86,2606,3407,5039,146,206,163,74,99,0
2563,3361,5018,12,29,41,10240,-6.90,0.22,1.92,1.86,2605,3406,5039,146,206,163,74,99,0
2551,3308,4986,-16,-19,7,10240,-6.90,0.22,1.92,1.86,2603,3402,5037,146,206,163,74,99,0
2518,3269,4954,-46,-65,-32,10240,-6.90,0.22,1.92,1.86,2600,3398,5034,146,206,163,74,99,0
2494,3237,4931,-69,-106,-63,10240,-6.90,0.22,1.92,1.86,2596,3393,5031,146,206,163,74,99,0
2488,3229,4928,-85,-134,-82,10240,-6.90,0.22,1.92,1.86,2593,3387,5027,146,206,163,74,99,0
2488,3230,4931,-97,-148,-93,10240,-6.90,0.22,1.92,1.86,2589,3382,5024,146,206,163,74,99,0
2497,3242,4943,-99,-150,-92,10240,-6.90,0.22,1.92,1.86,2586,3377,5021,146,206,163,74,99,0
2507,3256,4957,-93,-140,-83,10240,-6.90,0.22,1.92,1.86,2584,3373,5019,146,206,163,74,99,0
2519,3274,4972,-82,-125,-69,10240,-6.90,0.22,1.92,1.86,2581,3370,5018,146,206,163,74,99,0
2521,3276,4974,-71,-109,-57,10240,-6.90,0.22,1.92,1.86,2579,3367,5016,146,206,163,74,99,0
2525,3282,4980,-62,-96,-46,10240,-6.90,0.22,1.92,1.86,2578,3364,5015,146,206,163,74,99,0
2533,3289,4988,-54,-85,-37,10240,-6.90,0.22,1.92,1.86,2576,3361,5014,146,206,163,74,99,0
2543,3302,5000,-46,-75,-29,10240,-6.90,0.22,1.92,1.86,2575,3360,5014,146,206,163,74,99,0
2563,3334,5026,-35,-59,-15,10240,-6.90,0.22,1.92,1.86,2575,3359,5014,146,206,163,74,99,0
2563,3352,5038,-24,-40,-1,10240,-6.90,0.22,1.92,1.86,2574,3358,5015,146,206,163,74,99,0
2563,3368,5050,-16,-20,13,10240,-6.90,0.22,1.92,1.86,2574,3359,5016,146,206,163,74,99,0
2563,3385,5062,-11,0,28,10240,-6.90,0.22,1.92,1.86,2574,3360,5018,146,206,163,74,99,0
2563,3406,5078,-10,18,39,10240,-6.90,0.22,1.92,1.86,2573,3361,5020,146,206,163,74,99,0
2581,3416,5085,-6,33,49,10240,-6.90,0.22,1.92,1.86,2573,3363,5022,146,206,163,74,99,0
2588,3416,5092,0,43,58,10240,-6.90,0.22,1.92,1.86,2574,3365,5024,146,206,163,74,99,0
2598,3416,5099,8,49,65,10240,-6.90,0.22,1.92,1.86,2575,3366,5027,146,206,163,74,99,0
2610,3416,5111,19,50,71,10240,-6.90,0.22,1.92,1.86,2576,3368,5029,146,206,163,74,99,0
2623,3422,5123,29,50,78,10240,-6.90,0.22,1.92,1.86,2577,3370,5033,146,206,163,74,99,0
2643,3469,5123,41,61,82,10240,-6.90,0.22,1.92,1.86,2580,3373,5036,146,206,163,74,99,0
2637,3457,5123,49,69,86,10240,-6.90,0.22,1.92,1.86,2582,3376,5038,146,206,163,74,99,0
2602,3416,5102,46,67,80,10240,-6.90,0.22,1.92,1.86,2582,3377,5041,146,209,167,74,99,0
2563,3379,5060,29,54,63,10240,-6.90,0.22,1.87,1.71,2582,3377,5041,146,209,167,74,99,0
2495,3300,5005,-7,11,32,10240,-6.90,0.22,1.87,1.71,2579,3375,5040,146,209,167,74,99,0
2471,3212,4932,-46,-47,-14,10240,-6.90,0.22,1.87,1.71,2575,3369,5036,146,209,167,74,99,0
2463,3190,4923,-78,-100,-57,10240,-6.90,0.22,1.87,1.71,2571,3363,5033,146,209,167,74,99,0
2463,3178,4923,-100,-146,-88,10240,-6.90,0.22,1.87,1.71,2568,3357,5029,146,209,167,74,99,0
2466,3175,4929,-103,-171,-104,10240,-6.90,0.22,1.87,1.71,2564,3351,5026,146,209,167,74,99,0
2469,3181,4936,-100,-173,-100,10240,-6.90,0.22,1.87,1.71,2561,3346,5023,146,209,167,74,99,0
2473,3198,4944,-95,-165,-91,10240,-6.90,0.22,1.87,1.71,2558,3341,5020,146,209,167,74,99,0
2474,3209,4946,-89,-152,-83,10240,-6.90,0.22,1.87,1.71,2555,3336,5018,146,209,167,74,99,0
2476,3215,4948,-83,-138,-75,10240,-6.90,0.22,1.87,1.71,2553,3332,5015,146,209,167,74,99,0
2477,3221,4952,-79,-123,-69,10240,-6.90,0.22,1.87,1.71,2550,3328,5013,146,209,167,74,99,0
2485,3239,4961,-73,-109,-62,10240,-6.90,0.22,1.87,1.71,2548,3326,5011,146,209,167,74,99,0
2498,3252,4974,-65,-95,-53,10240,-6.90,0.22,1.87,1.71,2546,3323,5010,146,209,167,74,99,0
2510,3269,4989,-54,-79,-41,10240,-6.90,0.22,1.87,1.71,2545,3321,5009,146,209,167,74,99,0
2526,3288,5006,-41,-60,-27,10240,-6.90,0.22,1.87,1.71,2545,3320,5009,146,209,167,74,99,0
2545,3309,5027,-25,-41,-10,10240,-6.90,0.22,1.87,1.71,2545,3320,5010,146,209,167,74,99,0
2563,3351,5060,-9,-16,10,10240,-6.90,0.22,1.87,1.71,2545,3321,5012,146,209,167,74,99,0
2563,3368,5073,4,8,30,10240,-6.90,0.22,1.87,1.71,2546,3322,5014,146,209,167,74,99,0
2562,3386,5087,12,31,48,10240,-6.90,0.22,1.87,1.71,2546,3325,5016,146,209,167,74,99,0
2563,3408,5107,16,54,66,10240,-6.90,0.22,1.87,1.71,2547,3327,5019,146,209,167,74,99,0
2563,3416,5113,16,68,77,10240,-6.90,0.22,1.87,1.71,2547,3330,5022,146,209,167,74,99,0
2578,3416,5119,19,77,86,10240,-6.90,0.22,1.87,1.71,2548,3333,5025,146,209,167,74,99,0
2596,3416,5122,27,82,91,10240,-6.90,0.22,1.87,1.71,2550,3336,5029,146,209,167,74,99,0
2613,3418,5123,38,82,92,10240,-6.90,0.22,1.87,1.71,2552,3339,5032,146,209,167,74,99,0
2626,3441,5123,52,85,91,10240,-6.90,0.22,1.87,1.71,2555,3342,5035,146,209,175,74,99,0
2631,3451,5123,63,90,89,10240,-6.90,0.22,1.80,1.64,2557,3346,5038,146,209,175,74,99,0
2567,3407,5097,53,85,80,10240,-6.90,0.22,1.80,1.64,2558,3348,5040,151,223,175,74,99,0
2556,3333,5044,38,62,58,10240,-6.90,0.22,1.80,1.64,2557,3347,5040,151,223,175,74,99,0
2509,3269,4988,8,18,24,10240,-6.90,0.22,1.80,1.64,2556,3345,5038,151,223,175,74,99,0
2482,3228,4960,-27,-36,-16,10240,-6.90,0.22,1.80,1.64,2553,3341,5036,151,223,175,74,99,0
2478,3205,4954,-48,-83,-50,10240,-6.90,0.22,1.80,1.64,2551,3336,5033,151,223,175,74,99,0
2471,3180,4944,-67,-117,-72,10240,-6.90,0.22,1.80,1.64,2548,3331,5030,151,223,175,74,99,0
2463,3179,4938,-75,-135,-82,10240,-6.90,0.22,1.80,1.64,2545,3326,5027,151,223,175,74,99,0
2471,3184,4946,-76,-141,-83,10240,-6.90,0.22,1.80,1.64,2543,3321,5024,151,223,175,74,99,0
2483,3200,4964,-72,-138,-77,10240,-6.90,0.22,1.80,1.64,2541,3317,5022,151,223,175,74,99,0
2487,3220,4967,-66,-123,-69,10240,-6.90,0.22,1.80,1.64,2539,3314,5020,151,223,175,74,99,0
2488,3224,4974,-57,-108,-58,10240,-6.90,0.22,1.80,1.64,2537,3311,5019,151,223,175,74,99,0
2487,3230,4971,-52,-94,-50,10240,-6.90,0.22,1.80,1.64,2536,3308,5017,151,223,175,74,99,0
2488,3237,4974,-49,-82,-46,10240,-6.90,0.22,1.80,1.64,2534,3306,5016,151,223,175,74,99,0
2491,3249,4978,-46,-72,-42,10240,-6.90,0.22,1.80,1.64,2533,3304,5014,151,223,175,74,99,0
2515,3279,5005,-38,-56,-33,10240,-6.90,0.22,1.80,1.64,2532,3303,5014,151,223,175,74,99,0
2532,3297,5022,-26,-38,-19,10240,-6.90,0.22,1.80,1.64,2532,3303,5014,151,223,175,74,99,0
2549,3316,5043,-10,-18,-2,10240,-6.90,0.22,1.80,1.64,2533,3303,5015,151,223,175,74,99,0
2561,3337,5060,6,4,17,10240,-6.90,0.22,1.80,1.64,2534,3304,5017,151,223,175,74,99,0
2562,3356,5071,17,22,32,10240,-6.90,0.22,1.80,1.64,2535,3306,5019,151,223,175,74,99,0
2563,3391,5101,24,44,50,10240,-6.90,0.22,1.80,1.64,2535,3309,5021,151,223,175,74,99,0
2563,3410,5120,27,65,67,10240,-6.90,0.22,1.80,1.64,2536,3312,5025,151,223,175,74,99,0
2563,3416,5123,27,82,80,10240,-6.90,0.22,1.80,1.64,2537,3316,5028,151,223,175,74,99,0
2564,3416,5120,26,94,89,10240,-6.90,0.22,1.80,1.64,2538,3319,5031,139,223,175,74,99,0
2577,3416,5123,29,97,92,10240,-6.90,0.22,1.80,1.64,2540,3322,5034,139,223,175,74,99,0
2610,3416,5123,39,95,89,10240,-6.90,0.22,1.80,1.64,2542,3326,5037,139,226,175,74,99,0
2609,3416,5123,49,92,86,10240,-6.90,0.22,1.96,1.57,2544,3329,5040,139,226,175,74,99,0
2574,3416,5118,49,89,83,10240,-6.90,0.22,1.96,1.57,2545,3331,5043,139,226,175,74,99,0
2563,3375,5080,44,76,70,10240,-6.90,0.22,1.96,1.57,2546,3333,5044,117,226,175,74,99,0
2539,3305,5027,26,46,44,10240,-6.90,0.22,1.96,1.57,2545,3332,5043,117,226,175,74,99,0
2486,3231,4969,-4,0,5,10240,-6.90,0.22,1.96,1.57,2543,3329,5041,117,226,175,74,99,0
2486,3219,4969,-25,-47,-30,10240,-6.90,0.22,1.96,1.57,2542,3325,5038,117,226,175,74,99,0
2484,3213,4966,-43,-84,-56,10240,-6.90,0.22,1.96,1.57,2540,3321,5036,117,226,175,74,99,0
2484,3211,4965,-55,-104,-70,10240,-6.90,0.22,1.96,1.57,2538,3318,5034,117,226,175,74,99,0
2487,3218,4971,-53,-104,-67,10240,-6.90,0.22,1.96,1.57,2536,3314,5031,117,226,175,74,99,0
2491,3248,4978,-50,-93,-62,10240,-6.90,0.22,1.96,1.57,2535,3312,5030,117,226,175,74,99,0
2498,3257,4986,-45,-80,-55,10240,-6.90,0.22,1.96,1.57,2533,3310,5028,117,226,175,74,99,0
2498,3258,4988,-40,-65,-48,10240,-6.90,0.22,1.96,1.57,2532,3308,5027,117,226,175,74,99,0
2500,3262,4990,-36,-53,-42,10240,-6.90,0.22,1.96,1.57,2531,3307,5026,117,226,175,74,99,0
2519,3271,4998,-28,-45,-36,10240,-6.90,0.22,1.96,1.57,2531,3306,5025,117,226,175,74,99,0
2532,3296,5023,-19,-34,-26,10240,-6.90,0.22,1.96,1.57,2531,3305,5025,117,226,175,74,99,0
2548,3315,5042,-6,-20,-12,10240,-6.90,0.22,1.96,1.57,2531,3306,5025,117,226,175,74,99,0
2561,3334,5061,8,-2,5,10240,-6.90,0.22,1.96,1.57,2532,3307,5026,117,226,175,74,99,0
2563,3353,5073,19,18,23,10240,-6.90,0.22,1.96,1.57,2533,3308,5028,117,226,175,74,99,0
2562,3397,5090,26,41,39,10240,-6.90,0.22,1.96,1.57,2534,3311,5030,117,226,175,74,99,0
2563,3416,5123,28,64,57,10240,-6.90,0.22,1.96,1.57,2535,3315,5033,117,226,175,74,99,0
2563,3416,5122,28,82,70,10240,-6.90,0.22,1.96,1.57,2536,3318,5036,117,226,175,74,99,0
2573,3416,5123,29,95,80,10240,-6.90,0.22,1.96,1.57,2537,3321,5039,117,226,175,74,99,0
2589,3416,5123,35,96,85,10240,-6.90,0.22,1.96,1.57,2539,3324,5042,117,226,175,74,99,0
2618,3422,5123,47,94,82,10240,-6.90,0.22,1.96,1.57,2542,3328,5045,117,220,170,74,99,0
2628,3449,5123,61,99,79,10240,-6.90,0.22,1.96,1.37,2545,3332,5047,117,220,170,74,99,0
2640,3468,5123,75,108,77,10240,-6.90,0.22,1.96,1.37,2548,3336,5050,117,220,170,74,99,0
2647,3481,5123,86,120,74,10240,-6.90,0.22,1.96,1.37,2551,3341,5052,117,220,170,74,99,0
2645,3479,5123,90,130,72,10240,-6.90,0.22,1.96,1.37,2554,3346,5054,117,220,170,74,99,0
2566,3408,5109,72,116,66,10240,-6.90,0.22,1.96,1.37,2555,3348,5056,124,197,170,74,99,0
2557,3338,5051,50,81,47,10240,-6.90,0.22,1.96,1.37,2555,3347,5056,124,197,170,74,99,0
2513,3275,4997,16,28,15,10240,-6.90,0.22,1.96,1.37,2553,3345,5054,124,197,170,74,99,0
2485,3236,4967,-23,-31,-23,10240,-6.90,0.22,1.96,1.37,2551,3341,5051,124,197,170,74,99,0
2484,3212,4965,-42,-77,-57,10240,-6.90,0.22,1.96,1.37,2549,3337,5048,124,197,170,74,99,0
2468,3184,4947,-62,-112,-80,10240,-6.90,0.22,1.96,1.37,2546,3332,5045,124,197,170,74,99,0
2466,3180,4944,-71,-131,-90,10240,-6.90,0.22,1.96,1.37,2543,3327,5042,124,197,170,74,99,0
2469,3187,4950,-73,-138,-92,10240,-6.90,0.22,1.96,1.37,2541,3322,5039,124,197,170,74,99,0
2487,3203,4972,-69,-136,-87,10240,-6.90,0.22,1.96,1.37,2539,3318,5036,124,197,170,74,99,0
2490,3216,4977,-62,-124,-77,10240,-6.90,0.22,1.96,1.37,2538,3315,5034,124,197,170,74,99,0
2491,3227,4979,-54,-108,-66,10240,-6.90,0.22,1.96,1.37,2536,3312,5033,124,197,170,74,99,0
2492,3234,4981,-47,-93,-56,10240,-6.90,0.22,1.96,1.37,2535,3309,5031,124,197,170,74,99,0
2491,3242,4980,-44,-81,-52,10240,-6.90,0.22,1.96,1.37,2533,3307,5029,124,197,170,74,99,0
2495,3253,4987,-41,-69,-48,10240,-6.90,0.22,1.96,1.37,2532,3305,5028,124,197,170,74,99,0
2505,3269,4997,-37,-56,-42,10240,-6.90,0.22,1.96,1.37,2531,3304,5027,124,197,170,74,99,0
2540,3306,5035,-24,-37,-28,10240,-6.90,0.22,1.96,1.37,2531,3304,5027,124,197,170,74,99,0
2555,3326,5054,-7,-16,-9,10240,-6.90,0.22,1.96,1.37,2532,3305,5028,124,197,170,74,99,0
2562,3346,5070,8,7,11,10240,-6.90,0.22,1.96,1.37,2533,3306,5029,124,197,170,74,99,0
2563,3365,5083,22,30,31,10240,-6.90,0.22,1.96,1.37,2534,3308,5031,124,197,170,74,99,0
2563,3381,5099,27,47,46,10240,-6.90,0.22,1.96,1.37,2535,3311,5033,124,197,170,74,99,0
2562,3415,5122,28,67,61,10240,-6.90,0.22,1.96,1.37,2536,3314,5036,124,197,170,74,99,0
2563,3416,5121,27,81,71,10240,-6.90,0.22,1.96,1.37,2537,3318,5039,118,197,170,74,99,0
2571,3416,5122,28,91,78,10240,-6.90,0.22,1.96,1.37,2538,3321,5042,118,197,170,74,99,0
2590,3416,5123,33,96,81,10240,-6.90,0.22,1.96,1.37,2540,3324,5045,118,197,170,74,99,0
2607,3416,5123,43,93,79,10240,-6.90,0.22,1.96,1.37,2542,3327,5047,118,207,170,74,99,0
2631,3455,5123,58,100,76,10240,-6.90,0.22,1.85,1.38,2545,3331,5050,118,207,170,74,99,0
2629,3449,5123,70,104,74,10240,-6.90,0.22,1.85,1.38,2548,3335,5052,118,207,170,74,99,0
2591,3416,5122,68,101,72,10240,-6.90,0.22,1.85,1.38,2549,3338,5054,106,181,170,74,99,0
2563,3384,5091,55,90,61,10240,-6.90,0.22,1.85,1.38,2550,3340,5056,106,181,170,74,99,0
2494,3250,5026,20,37,36,10240,-6.90,0.22,1.85,1.38,2548,3337,5055,106,181,170,74,99,0
2483,3217,4965,-15,-20,-3,10240,-6.90,0.22,1.85,1.38,2546,3333,5052,106,181,170,74,99,0
2480,3197,4959,-41,-72,-42,10240,-6.90,0.22,1.85,1.38,2543,3328,5049,106,181,170,74,99,0
2470,3184,4947,-62,-118,-76,10240,-6.90,0.22,1.85,1.38,2541,3323,5045,106,181,170,74,99,0
2465,3180,4943,-67,-131,-93,10240,-6.90,0.22,1.85,1.38,2538,3318,5042,106,181,170,74,99,0
2478,3191,4960,-66,-132,-91,10240,-6.90,0.22,1.85,1.38,2536,3314,5039,106,181,170,74,99,0
2487,3209,4972,-62,-125,-85,10240,-6.90,0.22,1.85,1.38,2535,3311,5037,106,181,170,74,99,0
2489,3220,4975,-55,-112,-75,10240,-6.90,0.22,1.85,1.38,2533,3308,5035,106,181,170,74,99,0
2491,3226,4979,-47,-98,-64,10240,-6.90,0.22,1.85,1.38,2532,3305,5033,106,181,170,74,99,0
2491,3233,4980,-43,-84,-57,10240,-6.90,0.22,1.85,1.38,2530,3303,5031,106,181,170,74,99,0
2495,3250,4985,-39,-72,-52,10240,-6.90,0.22,1.85,1.38,2529,3301,5030,106,181,170,74,99,0
2498,3259,4990,-36,-60,-47,10240,-6.90,0.22,1.85,1.38,2528,3299,5028,106,181,170,74,99,0
2515,3278,5006,-29,-45,-39,10240,-6.90,0.22,1.85,1.38,2528,3299,5028,106,181,170,74,99,0
2532,3297,5025,-18,-28,-26,10240,-6.90,0.22,1.85,1.38,2528,3299,5027,106,181,170,74,99,0
2548,3316,5044,-5,-11,-11,10240,-6.90,0.22,1.85,1.38,2529,3299,5028,106,181,170,74,99,0
2563,3355,5076,10,12,9,10240,-6.90,0.22,1.85,1.38,2530,3301,5030,106,181,170,74,99,0
2563,3374,5092,22,35,30,10240,-6.90,0.22,1.85,1.38,2531,3303,5032,106,181,170,74,99,0
2562,3394,5109,28,57,49,10240,-6.90,0.22,1.85,1.38,2532,3306,5034,106,181,170,74,99,0
2563,3414,5123,31,79,66,10240,-6.90,0.22,1.85,1.38,2533,3310,5037,106,181,170,74,99,0
2563,3416,5122,30,91,75,10240,-6.90,0.22,1.85,1.38,2534,3314,5040,104,181,170,74,99,0
2584,3416,5123,34,98,80,10240,-6.90,0.22,1.85,1.38,2536,3317,5043,104,181,170,74,99,0
2598,3416,5123,41,100,81,10240,-6.90,0.22,1.85,1.38,2538,3320,5045,104,181,170,74,99,0
2617,3422,5123,53,98,78,10240,-6.90,0.22,1.85,1.38,2540,3324,5048,104,194,171,74,99,0
2629,3451,5123,67,104,76,10240,-6.90,0.22,1.72,1.21,2543,3328,5051,104,194,171,74,99,0
2642,3469,5123,79,113,73,10240,-6.90,0.22,1.72,1.21,2547,3333,5053,104,194,171,74,99,0
2622,3434,5123,82,113,71,10240,-6.90,0.22,1.72,1.21,2549,3336,5055,104,194,171,74,99,0
2569,3412,5110,68,107,65,10240,-6.90,0.22,1.72,1.21,2550,3339,5057,98,173,171,74,99,0
2561,3346,5056,49,78,47,10240,-6.90,0.22,1.72,1.21,2550,3339,5057,98,173,171,74,99,0
2524,3286,5003,19,31,17,10240,-6.90,0.22,1.72,1.21,2549,3337,5055,98,173,171,74,99,0
2479,3230,4970,-15,-18,-20,10240,-6.90,0.22,1.72,1.21,2547,3333,5052,98,173,171,74,99,0
2481,3221,4958,-36,-64,-56,10240,-6.90,0.22,1.72,1.21,2545,3330,5049,98,173,171,74,99,0
2481,3216,4959,-54,-93,-78,10240,-6.90,0.22,1.72,1.21,2543,3326,5046,98,173,171,74,99,0
2482,3218,4962,-63,-106,-85,10240,-6.90,0.22,1.72,1.21,2540,3322,5044,98,173,171,74,99,0
2484,3228,4965,-59,-103,-84,10240,-6.90,0.22,1.72,1.21,2539,3319,5041,98,173,171,74,99,0
2497,3254,4979,-53,-92,-76,10240,-6.90,0.22,1.72,1.21,2537,3317,5039,98,173,171,74,99,0
2500,3259,4984,-47,-78,-67,10240,-6.90,0.22,1.72,1.21,2536,3315,5037,98,173,171,74,99,0
2505,3263,4987,-40,-65,-59,10240,-6.90,0.22,1.72,1.21,2535,3313,5035,98,173,171,74,99,0
2508,3269,4991,-33,-53,-51,10240,-6.90,0.22,1.72,1.21,2534,3312,5034,98,173,171,74,99,0
2516,3279,5001,-27,-45,-44,10240,-6.90,0.22,1.72,1.21,2533,3311,5033,98,173,171,74,99,0
2543,3307,5028,-16,-32,-32,10240,-6.90,0.22,1.72,1.21,2534,3311,5033,98,173,171,74,99,0
2556,3325,5045,-3,-16,-17,10240,-6.90,0.22,1.72,1.21,2535,3311,5033,98,173,171,74,99,0
2562,3346,5059,10,3,0,10240,-6.90,0.22,1.72,1.21,2535,3312,5034,98,173,171,74,99,0
2563,3366,5073,21,24,17,10240,-6.90,0.22,1.72,1.21,2536,3314,5035,98,173,171,74,99,0
2563,3385,5088,25,42,31,10240,-6.90,0.22,1.72,1.21,2537,3316,5037,98,173,171,74,99,0
2563,3416,5114,26,62,47,10240,-6.90,0.22,1.72,1.21,2538,3320,5040,98,173,171,74,99,0
2570,3416,5110,27,77,57,10240,-6.90,0.22,1.72,1.21,2539,3323,5042,98,173,171,74,99,0
2581,3416,5116,30,87,66,10240,-6.90,0.22,1.72,1.21,2541,3326,5044,98,173,171,74,99,0
2593,3416,5121,36,91,72,10240,-6.90,0.22,1.72,1.21,2542,3329,5047,98,173,171,74,99,0
2608,3416,5123,46,88,72,10240,-6.90,0.22,1.72,1.21,2545,3332,5049,98,179,171,74,99,0
2635,3458,5123,60,95,72,10240,-6.90,0.22,1.72,1.21,2548,3336,5052,98,179,171,74,99,0
2645,3474,5123,73,106,72,10240,-6.90,0.22,1.72,1.21,2551,3341,5054,98,179,171,74,99,0
2649,3482,5123,84,119,70,10240,-6.90,0.22,1.72,1.21,2554,3345,5057,98,179,168,74,99,0
2636,3458,5123,88,125,67,10240,0.54,-0.08,1.61,1.16,2557,3349,5059,98,179,168,74,99,0
2589,3416,5106,74,111,61,10240,0.54,-0.08,1.61,1.16,2558,3351,5060,112,166,168,74,99,0
2552,3318,5022,49,69,34,10240,0.54,-0.08,1.61,1.16,2558,3350,5059,112,166,168,74,99,0
2519,3279,4985,16,18,0,10240,0.54,-0.08,1.61,1.16,2556,3348,5057,112,166,168,74,99,0
2504,3259,4970,-15,-30,-36,10240,0.54,-0.08,1.61,1.16,2555,3345,5054,112,166,168,74,99,0
2499,3251,4964,-37,-69,-70,10240,0.54,-0.08,1.61,1.16,2553,3342,5051,112,166,168,74,99,0
2497,3249,4963,-49,-84,-82,10240,0.54,-0.08,1.61,1.16,2551,3339,5048,112,166,168,74,99,0
2506,3264,4976,-50,-84,-81,10240,0.54,-0.08,1.61,1.16,2549,3336,5045,112,166,168,74,99,0
2519,3280,4990,-45,-76,-73,10240,0.54,-0.08,1.61,1.16,2548,3334,5044,112,166,168,74,99,0
2531,3293,5001,-35,-64,-62,10240,0.54,-0.08,1.61,1.16,2548,3333,5042,112,166,168,74,99,0
2540,3302,5011,-24,-49,-48,10240,0.54,-0.08,1.61,1.16,2548,3332,5041,112,166,168,74,99,0
2545,3308,5017,-14,-36,-37,10240,0.54,-0.08,1.61,1.16,2547,3331,5040,112,166,168,74,99,0
2557,3324,5031,-4,-25,-25,10240,0.54,-0.08,1.61,1.16,2548,3331,5040,112,166,168,74,99,0
2562,3338,5039,3,-13,-15,10240,0.54,-0.08,1.61,1.16,2548,3331,5040,112,166,168,74,99,0
2563,3355,5049,8,0,-6,10240,0.54,-0.08,1.61,1.16,2549,3332,5040,112,166,168,74,99,0
2563,3373,5064,12,15,5,10240,0.54,-0.08,1.61,1.16,2549,3333,5041,112,166,168,74,99,0
2563,3392,5077,13,31,16,10240,0.54,-0.08,1.61,1.16,2550,3335,5042,112,166,168,74,99,0
2575,3416,5096,16,49,29,10240,0.54,-0.08,1.61,1.16,2550,3338,5044,112,166,168,74,99,0
2590,3416,5104,22,62,42,10240,0.54,-0.08,1.61,1.16,2552,3341,5046,112,166,168,74,99,0
2604,3416,5116,31,70,53,10240,0.54,-0.08,1.61,1.16,2554,3343,5048,112,166,168,74,99,0
2619,3420,5123,44,75,62,10240,0.54,-0.08,1.61,1.16,2556,3346,5051,112,166,168,74,99,0
2639,3445,5123,58,79,67,10240,0.54,-0.08,1.61,1.16,2558,3349,5053,112,166,168,74,99,0
2649,3477,5123,70,91,69,10240,0.54,-0.08,1.61,1.16,2562,3353,5056,112,166,168,74,99,0
2656,3491,5123,80,106,68,10240,0.54,-0.08,1.61,1.16,2565,3358,5058,112,166,164,74,99,0
2665,3507,5123,89,124,66,10240,0.54,-0.08,1.52,1.35,2568,3363,5060,112,166,164,74,99,0
2673,3522,5124,94,138,64,10240,0.54,-0.08,1.52,1.35,2571,3368,5062,112,166,164,74,99,0
2684,3541,5145,99,149,67,10240,0.54,-0.08,1.52,1.35,2575,3374,5065,112,166,164,74,99,0
2675,3524,5126,101,152,66,10240,0.54,-0.08,1.52,1.35,2579,3379,5067,112,166,164,74,99,0
2638,3457,5121,91,135,63,10240,0.54,-0.08,1.52,1.35,2581,3382,5069,121,183,164,74,99,0
2581,3414,5076,65,104,49,10240,0.54,-0.08,1.52,1.35,2581,3383,5069,121,183,164,74,99,0
2562,3363,5033,33,58,20,10240,0.54,-0.08,1.52,1.35,2580,3382,5068,121,183,164,74,99,0
2538,3296,4987,0,1,-13,10240,0.54,-0.08,1.52,1.35,2579,3379,5065,121,183,164,74,99,0
2524,3282,4974,-28,-41,-48,10240,0.54,-0.08,1.52,1.35,2577,3376,5062,121,183,164,74,99,0
2517,3275,4970,-42,-73,-72,10240,0.54,-0.08,1.52,1.35,2575,3372,5059,121,183,164,74,99,0
2514,3272,4968,-52,-92,-85,10240,0.54,-0.08,1.52,1.35,2573,3369,5056,121,183,164,74,99,0
2519,3278,4974,-55,-94,-86,10240,0.54,-0.08,1.52,1.35,2571,3366,5053,121,183,164,74,99,0
2549,3310,5006,-47,-84,-75,10240,0.54,-0.08,1.52,1.35,2570,3364,5052,121,183,164,74,99,0
2560,3323,5019,-35,-69,-61,10240,0.54,-0.08,1.52,1.35,2570,3363,5051,121,183,164,74,99,0
2563,3330,5021,-22,-53,-46,10240,0.54,-0.08,1.52,1.35,2570,3362,5050,121,183,164,74,99,0
2563,3338,5025,-11,-37,-32,10240,0.54,-0.08,1.52,1.35,2569,3361,5049,121,183,164,74,99,0
2563,3346,5030,-7,-27,-25,10240,0.54,-0.08,1.52,1.35,2569,3360,5048,121,183,164,74,99,0
2562,3369,5046,-6,-15,-18,10240,0.54,-0.08,1.52,1.35,2569,3361,5048,121,183,164,74,99,0
2563,3389,5058,-6,0,-8,10240,0.54,-0.08,1.52,1.35,2569,3362,5048,121,183,164,74,99,0
2563,3411,5075,-6,17,4,10240,0.54,-0.08,1.52,1.35,2568,3363,5049,121,183,164,74,99,0
2579,3416,5079,-2,33,15,10240,0.54,-0.08,1.52,1.35,2569,3365,5050,121,183,164,74,99,0
2590,3416,5087,4,43,25,10240,0.54,-0.08,1.52,1.35,2570,3367,5051,121,183,164,74,99,0
2620,3420,5115,18,49,38,10240,0.54,-0.08,1.52,1.35,2571,3369,5054,121,183,164,74,99,0
2632,3444,5123,34,56,48,10240,0.54,-0.08,1.52,1.35,2573,3371,5056,121,183,164,74,99,0
2640,3464,5123,48,65,57,10240,0.54,-0.08,1.52,1.35,2575,3374,5058,121,183,164,74,99,0
2651,3481,5123,61,79,64,10240,0.54,-0.08,1.52,1.35,2578,3378,5060,121,183,164,74,99,0
2659,3497,5123,68,95,64,10240,0.54,-0.08,1.52,1.35,2581,3382,5062,121,183,164,74,99,0
2677,3523,5123,77,111,62,10240,0.54,-0.08,1.52,1.35,2584,3386,5064,121,183,160,74,98,0
2685,3538,5126,85,125,60,10240,0.54,-0.08,1.71,1.48,2587,3391,5066,121,183,160,74,98,0
2694,3554,5143,93,139,63,10240,0.54,-0.08,1.71,1.48,2591,3397,5069,121,183,160,74,98,0
2702,3567,5154,100,151,68,10240,0.54,-0.08,1.71,1.48,2595,3403,5072,121,183,160,74,98,0
2674,3518,5123,96,145,66,10240,0.54,-0.08,1.71,1.48,2597,3406,5074,130,199,160,74,98,0
2630,3442,5104,79,116,58,10240,0.54,-0.08,1.71,1.48,2598,3408,5075,130,199,160,74,98,0
2579,3412,5053,49,78,34,10240,0.54,-0.08,1.71,1.48,2598,3408,5074,130,199,160,74,98,0
2563,3372,5022,14,28,1,10240,0.54,-0.08,1.71,1.48,2596,3407,5072,130,199,160,74,98,0
2563,3348,5006,-13,-13,-26,10240,0.54,-0.08,1.71,1.48,2595,3405,5070,130,199,160,74,98,0
2563,3334,5001,-28,-39,-50,10240,0.54,-0.08,1.71,1.48,2594,3402,5068,130,199,160,74,98,0
2563,3335,5003,-31,-56,-60,10240,0.54,-0.08,1.71,1.48,2593,3400,5065,130,199,160,74,98,0
2563,3339,5006,-30,-62,-62,10240,0.54,-0.08,1.71,1.48,2592,3398,5063,130,199,160,74,98,0
2563,3347,5010,-29,-60,-59,10240,0.54,-0.08,1.71,1.48,2591,3396,5062,130,199,160,74,98,0
2562,3363,5023,-28,-51,-52,10240,0.54,-0.08,1.71,1.48,2590,3395,5060,130,199,160,74,98,0
2563,3384,5037,-27,-37,-42,10240,0.54,-0.08,1.71,1.48,2589,3395,5060,130,199,160,74,98,0
2563,3388,5040,-27,-24,-32,10240,0.54,-0.08,1.71,1.48,2589,3395,5059,130,199,160,74,98,0
2563,3395,5045,-26,-12,-23,10240,0.54,-0.08,1.71,1.48,2588,3395,5059,130,199,160,74,98,0
2565,3411,5055,-24,0,-14,10240,0.54,-0.08,1.71,1.48,2587,3395,5058,130,199,160,74,98,0
2583,3416,5061,-19,7,-8,10240,0.54,-0.08,1.71,1.48,2587,3396,5058,130,199,160,74,98,0
2608,3416,5077,-7,14,1,10240,0.54,-0.08,1.71,1.48,2588,3396,5059,130,199,160,74,98,0
2623,3424,5093,7,20,12,10240,0.54,-0.08,1.71,1.48,2589,3397,5060,130,199,160,74,98,0
2634,3445,5116,23,28,27,10240,0.54,-0.08,1.71,1.48,2590,3399,5062,130,199,160,74,98,0
2648,3471,5123,38,40,41,10240,0.54,-0.08,1.71,1.48,2592,3401,5064,130,199,160,74,98,0
2660,3490,5123,50,57,50,10240,0.54,-0.08,1.71,1.48,2594,3404,5066,130,199,160,74,98,0
2676,3518,5123,61,78,56,10240,0.54,-0.08,1.71,1.48,2597,3408,5068,130,199,160,74,98,0
2684,3530,5123,71,96,56,10240,0.54,-0.08,1.71,1.48,2600,3412,5070,130,199,160,74,98,0
2687,3538,5123,78,109,54,10240,0.54,-0.08,1.71,1.48,2603,3416,5072,130,199,150,74,98,0
2695,3551,5123,84,120,52,10240,0.54,-0.08,1.97,1.69,2606,3421,5073,130,199,150,74,98,0
2703,3564,5128,87,127,51,10240,0.54,-0.08,1.97,1.69,2609,3426,5075,130,199,150,74,98,0
2723,3595,5166,94,138,60,10240,0.54,-0.08,1.97,1.69,2613,3431,5078,130,199,150,74,98,0
2727,3602,5168,100,149,69,10240,0.54,-0.08,1.97,1.69,2617,3437,5081,130,199,150,74,98,0
2715,3582,5139,102,151,71,10240,0.54,-0.08,1.97,1.69,2620,3442,5083,130,199,150,73,98,0
2686,3532,5123,94,139,67,10240,0.54,-0.08,1.97,1.69,2622,3445,5084,131,202,150,73,98,0
2645,3464,5102,72,102,49,10240,0.54,-0.08,1.97,1.69,2623,3445,5085,131,202,150,73,98,0
2593,3416,5036,38,54,16,10240,0.54,-0.08,1.97,1.69,2622,3445,5083,131,202,150,73,98,0
2574,3415,5032,2,12,-10,10240,0.54,-0.08,1.97,1.69,2620,3444,5082,131,202,150,73,98,0
2572,3411,5032,-25,-17,-32,10240,0.54,-0.08,1.97,1.69,2619,3442,5080,131,202,150,73,98,0
2572,3411,5032,-41,-29,-47,10240,0.54,-0.08,1.97,1.69,2617,3441,5078,131,202,150,73,98,0
2595,3416,5037,-40,-28,-46,10240,0.54,-0.08,1.97,1.69,2617,3441,5077,131,202,150,73,98,0
2602,3416,5047,-32,-27,-40,10240,0.54,-0.08,1.97,1.69,2616,3440,5076,131,202,150,73,98,0
2609,3416,5057,-22,-25,-33,10240,0.54,-0.08,1.97,1.69,2616,3439,5075,131,202,150,73,98,0
2615,3416,5060,-11,-23,-25,10240,0.54,-0.08,1.97,1.69,2616,3438,5075,131,202,150,73,98,0
2619,3416,5063,-4,-22,-18,10240,0.54,-0.08,1.97,1.69,2616,3437,5075,131,202,150,73,98,0
2629,3431,5078,2,-18,-10,10240,0.54,-0.08,1.97,1.69,2616,3437,5075,131,202,150,73,98,0
2637,3443,5087,8,-10,-3,10240,0.54,-0.08,1.97,1.69,2617,3437,5075,131,202,150,73,98,0
2644,3460,5106,15,0,8,10240,0.54,-0.08,1.97,1.69,2618,3438,5076,131,202,150,73,98,0
2655,3479,5123,23,15,22,10240,0.54,-0.08,1.97,1.69,2619,3440,5078,131,202,150,73,98,0
2667,3498,5123,32,31,32,10240,0.54,-0.08,1.97,1.69,2621,3441,5079,131,202,150,73,98,0
2687,3531,5123,43,51,40,10240,0.54,-0.08,1.97,1.69,2623,3444,5081,131,202,150,73,98,0
2695,3546,5123,54,70,43,10240,0.54,-0.08,1.97,1.69,2625,3448,5082,131,202,150,73,98,0
2704,3559,5123,64,87,41,10240,0.54,-0.08,1.97,1.69,2628,3452,5083,131,202,135,73,98,0
2711,3570,5123,72,101,40,10240,0.54,-0.08,2.20,1.88,2631,3456,5085,131,202,135,73,98,0
2717,3581,5127,77,110,40,10240,0.54,-0.08,2.20,1.88,2634,3460,5086,131,202,135,73,98,0
2730,3601,5151,83,119,45,10240,0.54,-0.08,2.20,1.88,2637,3464,5088,131,202,135,73,98,0
2736,3612,5162,88,128,53,10240,0.54,-0.08,2.20,1.88,2640,3469,5091,131,202,135,73,98,0
2746,3627,5174,93,138,63,10240,0.54,-0.08,2.20,1.88,2644,3475,5094,131,202,135,73,98,0
2753,3639,5183,99,147,75,10240,0.54,-0.08,2.20,1.88,2647,3480,5096,131,202,135,74,98,0
2752,3638,5179,101,151,79,10240,0.54,-0.08,2.20,1.88,2651,3485,5099,131,202,135,74,98,0
2695,3540,5123,88,129,67,10240,0.54,-0.08,2.20,1.88,2652,3487,5100,133,197,111,74,98,0
2652,3473,5087,62,87,44,10240,0.54,-0.08,2.60,2.30,2652,3487,5100,133,197,111,74,98,0
2620,3421,5038,28,32,7,10240,0.54,-0.08,2.60,2.30,2651,3484,5098,133,197,111,74,99,0
2604,3416,5022,-8,-22,-30,10240,0.54,-0.08,2.60,2.30,2650,3482,5095,133,197,111,74,99,0
2585,3416,5018,-34,-51,-55,10240,0.54,-0.08,2.60,2.30,2647,3480,5092,133,197,111,74,99,0
2576,3406,5014,-52,-66,-70,10240,0.54,-0.08,2.60,2.30,2645,3478,5090,133,197,111,74,99,0
2576,3408,5017,-61,-67,-73,10240,0.54,-0.08,2.60,2.30,2643,3475,5087,133,197,111,74,99,0
2586,3416,5025,-63,-65,-70,10240,0.54,-0.08,2.60,2.30,2641,3473,5085,133,197,111,74,99,0
2602,3416,5030,-57,-62,-65,10240,0.54,-0.08,2.60,2.30,2640,3471,5084,133,197,111,74,99,0
2606,3416,5033,-48,-58,-58,10240,0.54,-0.08,2.60,2.30,2638,3470,5082,133,197,111,74,99,0
2607,3416,5039,-38,-54,-51,10240,0.54,-0.08,2.60,2.30,2637,3468,5080,133,197,111,74,99,0
2615,3416,5046,-30,-52,-44,10240,0.54,-0.08,2.60,2.30,2637,3466,5079,133,197,111,74,99,0
2625,3418,5055,-23,-50,-36,10240,0.54,-0.08,2.60,2.30,2636,3464,5078,133,197,111,74,99,0
2633,3437,5069,-16,-43,-26,10240,0.54,-0.08,2.60,2.30,2636,3463,5078,133,197,111,74,99,0
2650,3449,5079,-5,-34,-16,10240,0.54,-0.08,2.60,2.30,2637,3463,5078,133,197,111,74,99,0
2659,3486,5120,5,-16,2,10240,0.54,-0.08,2.60,2.30,2637,3464,5080,133,197,111,74,99,0
2671,3504,5123,16,5,18,10240,0.54,-0.08,2.60,2.30,2639,3465,5081,133,197,111,74,99,0
2683,3521,5123,27,25,31,10240,0.54,-0.08,2.60,2.30,2640,3467,5082,133,197,111,74,99,0
2690,3534,5123,36,45,40,10240,0.54,-0.08,2.60,2.30,2642,3469,5084,133,197,111,74,99,0
2707,3559,5123,46,61,40,10240,0.54,-0.08,2.60,2.30,2644,3472,5085,133,197,111,74,99,0
2713,3570,5123,55,75,38,10240,0.54,-0.08,2.60,2.30,2646,3475,5086,133,197,111,74,99,0
2719,3582,5123,62,87,37,10240,0.54,-0.08,2.60,2.30,2649,3479,5088,133,197,111,74,99,0
2726,3591,5124,68,98,36,10240,0.54,-0.08,2.60,2.30,2651,3483,5089,133,197,111,74,99,0
2732,3601,5135,72,105,38,10240,0.54,-0.08,2.60,2.30,2654,3487,5090,133,197,111,74,99,0
2748,3629,5165,78,115,46,10240,0.54,-0.08,2.60,2.30,2657,3491,5093,133,197,111,74,99,0
2755,3639,5173,84,125,57,10240,0.54,-0.08,2.60,2.30,2660,3496,5095,133,197,111,74,99,0
2745,3624,5152,86,129,62,10240,0.54,-0.08,2.60,2.30,2663,3501,5097,133,197,111,74,99,0
2716,3574,5123,79,118,57,10240,0.54,-0.08,2.60,2.30,2665,3503,5098,137,197,90,73,99,0
2672,3505,5107,58,84,41,10240,0.54,-0.08,3.19,2.91,2665,3503,5099,137,197,90,73,99,0
2608,3416,5016,21,28,2,10240,0.54,-0.08,3.19,2.91,2663,3500,5096,137,197,90,73,99,0
2582,3413,5006,-18,-23,-33,10240,0.54,-0.08,3.19,2.91,2660,3497,5093,137,197,90,73,99,0
2575,3395,4998,-52,-66,-62,10240,0.54,-0.08,3.19,2.91,2658,3494,5090,137,197,90,73,99,0
2570,3388,4994,-75,-92,-87,10240,0.54,-0.08,3.19,2.91,2655,3490,5086,137,197,90,73,99,0
2568,3385,4994,-82,-96,-90,10240,0.54,-0.08,3.19,2.91,2652,3487,5083,137,197,90,73,99,0
2579,3411,5013,-80,-94,-85,10240,0.54,-0.08,3.19,2.91,2649,3484,5081,137,197,90,73,99,0
2593,3416,5022,-73,-85,-76,10240,0.54,-0.08,3.19,2.91,2647,3482,5079,137,197,90,73,99,0
2607,3416,5028,-61,-76,-65,10240,0.54,-0.08,3.19,2.91,2646,3480,5077,137,197,90,73,99,0
2610,3416,5029,-49,-66,-55,10240,0.54,-0.08,3.19,2.91,2645,3478,5076,137,197,90,73,99,0
2607,3416,5033,-41,-63,-48,10240,0.54,-0.08,3.19,2.91,2644,3476,5074,137,197,90,73,99,0
2616,3416,5043,-34,-61,-41,10240,0.54,-0.08,3.19,2.91,2643,3474,5073,137,197,90,73,99,0
2630,3425,5057,-27,-56,-33,10240,0.54,-0.08,3.19,2.91,2642,3472,5073,137,197,90,73,99,0
2637,3446,5071,-20,-47,-22,10240,0.54,-0.08,3.19,2.91,2642,3471,5073,137,197,90,73,99,0
2647,3461,5085,-9,-35,-9,10240,0.54,-0.08,3.19,2.91,2642,3471,5073,137,197,90,73,99,0
2655,3478,5106,0,-18,6,10240,0.54,-0.08,3.19,2.91,2643,3471,5074,137,197,90,73,99,0
2677,3513,5123,11,3,22,10240,0.54,-0.08,3.19,2.91,2644,3473,5076,137,197,90,73,99,0
2687,3525,5123,23,22,34,10240,0.54,-0.08,3.19,2.91,2645,3474,5077,137,197,90,73,99,0
2692,3538,5123,33,40,42,10240,0.54,-0.08,3.19,2.91,2647,3476,5079,137,197,90,73,99,0
2700,3550,5123,42,56,45,10240,0.54,-0.08,3.19,2.91,2649,3479,5080,137,197,90,73,99,0
2706,3559,5123,48,65,43,10240,0.54,-0.08,3.19,2.91,2651,3482,5082,137,197,101,73,99,0
2720,3579,5123,54,76,42,10240,0.54,-0.08,2.85,2.60,2653,3485,5083,137,197,101,73,99,0
2726,3590,5123,61,86,40,10240,0.54,-0.08,2.85,2.60,2655,3488,5085,137,197,101,73,99,0
2734,3604,5133,67,96,41,10240,0.54,-0.08,2.85,2.60,2658,3492,5086,137,197,101,73,99,0
2742,3618,5150,73,107,46,10240,0.54,-0.08,2.85,2.60,2661,3496,5088,137,197,101,73,99,0
2745,3623,5150,77,114,51,10240,0.54,-0.08,2.85,2.60,2664,3501,5090,137,197,101,73,99,0
2693,3537,5122,66,97,50,10240,0.54,-0.08,2.85,2.60,2664,3502,5091,143,200,101,73,99,0
2650,3466,5067,44,61,32,10240,0.54,-0.08,2.85,2.60,2664,3501,5091,143,200,101,73,99,0
2616,3417,5020,12,10,0,10240,0.54,-0.08,2.85,2.60,2662,3498,5088,143,200,101,73,99,0
2587,3416,5005,-26,-40,-35,10240,0.54,-0.08,2.85,2.60,2660,3495,5085,143,200,101,73,99,0
2574,3396,4995,-54,-72,-64,10240,0.54,-0.08,2.85,2.60,2657,3492,5082,143,200,101,73,99,0
2565,3382,4989,-72,-90,-81,10240,0.54,-0.08,2.85,2.60,2654,3488,5079,143,200,101,73,99,0
2567,3383,4991,-82,-95,-85,10240,0.54,-0.08,2.85,2.60,2651,3485,5076,143,200,101,73,99,0
2574,3394,5001,-82,-98,-83,10240,0.54,-0.08,2.85,2.60,2649,3482,5074,143,200,101,73,99,0
2583,3415,5016,-77,-90,-76,10240,0.54,-0.08,2.85,2.60,2646,3479,5072,143,200,101,73,99,0
2601,3416,5020,-66,-78,-66,10240,0.54,-0.08,2.85,2.60,2645,3477,5070,143,200,101,73,99,0
2601,3416,5023,-56,-68,-56,10240,0.54,-0.08,2.85,2.60,2643,3475,5069,143,200,101,73,99,0
2605,3416,5024,-46,-60,-48,10240,0.54,-0.08,2.85,2.60,2642,3473,5067,143,200,101,73,99,0
2611,3416,5025,-38,-58,-45,10240,0.54,-0.08,2.85,2.60,2641,3471,5066,143,200,101,73,99,0
2609,3416,5031,-35,-56,-41,10240,0.54,-0.08,2.85,2.60,2640,3469,5065,143,200,101,73,99,0
2632,3433,5043,-26,-50,-34,10240,0.54,-0.08,2.85,2.60,2640,3468,5064,143,200,101,73,99,0
2640,3450,5072,-17,-40,-22,10240,0.54,-0.08,2.85,2.60,2640,3468,5064,143,200,101,73,99,0
2650,3466,5086,-7,-27,-6,10240,0.54,-0.08,2.85,2.60,2640,3468,5065,143,200,101,73,99,0
2659,3484,5107,5,-9,12,10240,0.54,-0.08,2.85,2.60,2641,3468,5066,143,200,101,73,99,0
2667,3500,5122,13,6,31,10240,0.54,-0.08,2.85,2.60,2642,3469,5068,143,200,101,73,99,0
2685,3522,5123,23,24,42,10240,0.54,-0.08,2.85,2.60,2643,3471,5070,143,200,101,73,99,0
2688,3530,5123,32,38,49,10240,0.54,-0.08,2.85,2.60,2644,3473,5072,143,200,101,73,99,0
2694,3540,5123,39,51,52,10240,0.54,-0.08,2.85,2.60,2646,3475,5073,143,200,101,73,99,0
2702,3550,5123,47,61,50,10240,0.54,-0.08,2.85,2.60,2648,3478,5075,143,200,110,73,99,0
2709,3563,5123,51,69,48,10240,0.54,-0.08,2.65,2.49,2650,3480,5077,143,200,110,73,99,0
2725,3586,5123,58,80,47,10240,0.54,-0.08,2.65,2.49,2653,3484,5078,143,200,110,73,99,0
2719,3578,5123,62,87,45,10240,0.54,-0.08,2.65,2.49,2655,3487,5080,143,200,110,73,99,0
2691,3534,5122,57,80,43,10240,0.54,-0.08,2.65,2.49,2656,3489,5081,143,196,110,73,99,0
2650,3467,5067,41,54,28,10240,0.54,-0.08,2.65,2.49,2656,3488,5081,143,196,110,73,99,0
2614,3416,5016,13,11,1,10240,0.54,-0.08,2.65,2.49,2654,3486,5079,143,196,110,73,99,0
2569,3385,4985,-23,-35,-31,10240,0.54,-0.08,2.65,2.49,2652,3482,5075,143,196,110,73,99,0
2563,3376,4980,-53,-72,-64,10240,0.54,-0.08,2.65,2.49,2649,3479,5072,143,196,110,73,99,0
2563,3375,4981,-73,-92,-83,10240,0.54,-0.08,2.65,2.49,2646,3475,5069,143,196,110,73,99,0
2564,3380,4986,-82,-98,-87,10240,0.54,-0.08,2.65,2.49,2643,3472,5066,143,196,110,73,99,0
2574,3395,4999,-78,-92,-81,10240,0.54,-0.08,2.65,2.49,2641,3469,5064,143,196,110,73,99,0
2600,3416,5020,-67,-79,-69,10240,0.54,-0.08,2.65,2.49,2639,3468,5063,143,196,110,73,99,0
2609,3416,5021,-53,-67,-57,10240,0.54,-0.08,2.65,2.49,2638,3466,5061,143,196,110,73,99,0
2608,3416,5023,-41,-56,-46,10240,0.54,-0.08,2.65,2.49,2637,3464,5060,143,196,110,73,99,0
2612,3416,5023,-30,-49,-39,10240,0.54,-0.08,2.65,2.49,2636,3463,5059,143,196,110,73,99,0
2610,3416,5027,-27,-47,-36,10240,0.54,-0.08,2.65,2.49,2636,3461,5058,143,196,110,73,99,0
2627,3419,5045,-21,-45,-29,10240,0.54,-0.08,2.65,2.49,2635,3460,5057,143,196,110,73,99,0
2636,3442,5062,-14,-37,-18,10240,0.54,-0.08,2.65,2.49,2635,3459,5057,143,196,110,73,99,0
2645,3456,5073,-6,-26,-5,10240,0.54,-0.08,2.65,2.49,2636,3459,5058,143,196,110,73,99,0
2655,3473,5089,5,-12,9,10240,0.54,-0.08,2.65,2.49,2636,3460,5059,143,196,110,73,99,0
2663,3491,5109,13,5,24,10240,0.54,-0.08,2.65,2.49,2637,3461,5061,143,196,110,73,99,0
2684,3522,5123,24,24,38,10240,0.54,-0.08,2.65,2.49,2639,3463,5063,143,196,110,73,99,0
2689,3533,5123,34,42,49,10240,0.54,-0.08,2.65,2.49,2640,3465,5065,143,196,110,73,99,0
2697,3545,5123,43,58,55,10240,0.54,-0.08,2.65,2.49,2642,3468,5067,143,196,110,73,99,0
2704,3555,5123,52,72,57,10240,0.54,-0.08,2.65,2.49,2644,3470,5069,143,196,110,73,99,0
2719,3565,5123,59,80,55,10240,0.54,-0.08,2.65,2.49,2647,3474,5070,143,196,119,73,99,0
2726,3588,5123,65,91,53,10240,0.74,-0.08,2.40,2.30,2650,3477,5072,143,196,119,73,99,0
2732,3600,5123,72,101,51,10240,0.74,-0.08,2.40,2.30,2652,3482,5074,143,196,119,73,99,0
2738,3611,5124,77,111,50,10240,0.74,-0.08,2.40,2.30,2655,3486,5076,143,196,119,73,99,0
2732,3599,5123,78,115,48,10240,0.74,-0.08,2.40,2.30,2658,3490,5077,143,196,119,74,99,0
2657,3477,5068,59,85,33,10240,0.74,-0.08,2.40,2.30,2658,3489,5077,147,200,119,74,99,0
2617,3417,5009,29,38,4,10240,0.74,-0.08,2.40,2.30,2656,3487,5075,147,200,119,74,99,0
2578,3400,4982,-10,-14,-29,10240,0.74,-0.08,2.40,2.30,2654,3484,5071,147,200,119,74,99,0
2563,3365,4961,-51,-70,-67,10240,0.74,-0.08,2.40,2.30,2651,3480,5068,147,200,119,74,99,0
2563,3356,4955,-72,-97,-92,10240,0.74,-0.08,2.40,2.30,2648,3476,5064,147,200,119,74,99,0
2562,3342,4949,-83,-112,-104,10240,0.74,-0.08,2.40,2.30,2645,3471,5060,147,200,119,74,99,0
2562,3341,4951,-84,-122,-108,10240,0.74,-0.08,2.40,2.30,2642,3467,5057,147,200,119,74,99,0
2562,3353,4961,-81,-121,-104,10240,0.74,-0.08,2.40,2.30,2639,3463,5053,147,200,119,74,99,0
2562,3366,4972,-78,-114,-97,10240,0.74,-0.08,2.40,2.30,2637,3460,5051,147,200,119,74,99,0
2563,3373,4980,-75,-103,-86,10240,0.74,-0.08,2.40,2.30,2634,3457,5048,147,200,119,74,99,0
2569,3386,4991,-71,-89,-73,10240,0.74,-0.08,2.40,2.30,2632,3455,5046,147,200,119,74,99,0
2574,3395,4996,-66,-76,-62,10240,0.74,-0.08,2.40,2.30,2630,3453,5045,147,200,119,74,99,0
2580,3409,5006,-59,-63,-52,10240,0.74,-0.08,2.40,2.30,2629,3451,5043,147,200,119,74,99,0
2589,3416,5013,-51,-50,-42,10240,0.74,-0.08,2.40,2.30,2627,3450,5042,147,200,119,74,99,0
2610,3416,5020,-40,-41,-34,10240,0.74,-0.08,2.40,2.30,2627,3449,5042,147,200,119,74,99,0
2627,3419,5040,-26,-34,-22,10240,0.74,-0.08,2.40,2.30,2627,3448,5042,147,200,119,74,99,0
2636,3444,5058,-11,-25,-9,10240,0.74,-0.08,2.40,2.30,2627,3448,5042,147,200,119,74,99,0
2647,3456,5068,2,-14,4,10240,0.74,-0.08,2.40,2.30,2628,3448,5043,147,200,119,74,99,0
2655,3473,5083,13,0,19,10240,0.74,-0.08,2.40,2.30,2629,3449,5044,147,200,119,74,99,0
2662,3489,5098,21,16,33,10240,0.74,-0.08,2.40,2.30,2630,3450,5046,147,200,119,74,99,0
2677,3513,5123,30,33,47,10240,0.74,-0.08,2.40,2.30,2631,3452,5049,147,200,119,74,99,0
2685,3524,5123,39,48,59,10240,0.74,-0.08,2.40,2.30,2633,3455,5051,147,200,119,74,99,0
2690,3534,5123,46,61,66,10240,0.74,-0.08,2.40,2.30,2635,3457,5054,147,200,119,74,99,0
2699,3548,5123,53,73,70,10240,0.74,-0.08,2.40,2.30,2637,3460,5056,147,200,119,74,99,0
2719,3577,5123,62,86,68,10240,0.74,-0.08,2.40,2.30,2640,3464,5058,147,200,133,74,99,0
2719,3578,5123,68,97,66,10240,0.74,-0.08,2.20,2.12,2642,3468,5060,147,200,133,74,99,0
2700,3548,5123,68,97,64,10240,0.74,-0.08,2.20,2.12,2644,3471,5062,147,200,133,74,99,0
2659,3482,5071,56,77,49,10240,0.74,-0.08,2.20,2.12,2645,3471,5063,149,205,133,74,99,0
2618,3419,5009,30,37,20,10240,0.74,-0.08,2.20,2.12,2644,3469,5061,149,205,133,74,99,0
2563,3357,4951,-8,-17,-22,10240,0.74,-0.08,2.20,2.12,2641,3466,5057,149,205,133,74,99,0
2563,3342,4942,-41,-67,-65,10240,0.74,-0.08,2.20,2.12,2639,3462,5053,149,205,133,74,99,0
2563,3335,4939,-63,-100,-95,10240,0.74,-0.08,2.20,2.12,2636,3457,5050,149,205,133,74,99,0
2563,3329,4936,-74,-118,-109,10240,0.74,-0.08,2.20,2.12,2634,3453,5046,149,205,133,74,99,0
2563,3329,4939,-72,-121,-108,10240,0.74,-0.08,2.20,2.12,2631,3449,5042,149,205,133,74,99,0
2562,3351,4960,-69,-115,-100,10240,0.74,-0.08,2.20,2.12,2629,3446,5039,149,205,133,74,99,0
2563,3364,4970,-67,-104,-89,10240,0.74,-0.08,2.20,2.12,2627,3443,5037,149,205,133,74,99,0
2563,3367,4974,-65,-91,-77,10240,0.74,-0.08,2.20,2.12,2625,3440,5035,149,205,133,74,99,0
2563,3371,4977,-63,-78,-65,10240,0.74,-0.08,2.20,2.12,2623,3438,5033,149,205,133,74,99,0
2563,3376,4983,-61,-69,-58,10240,0.74,-0.08,2.20,2.12,2621,3436,5031,149,205,133,74,99,0
2578,3405,5002,-55,-57,-48,10240,0.74,-0.08,2.20,2.12,2619,3435,5030,149,205,133,74,99,0
2590,3416,5011,-46,-43,-37,10240,0.74,-0.08,2.20,2.12,2618,3434,5030,149,205,133,74,99,0
2609,3416,5018,-34,-31,-26,10240,0.74,-0.08,2.20,2.12,2618,3434,5029,149,205,133,74,99,0
2613,3416,5023,-20,-20,-16,10240,0.74,-0.08,2.20,2.12,2618,3433,5029,149,205,133,74,99,0
2628,3424,5041,-8,-15,-6,10240,0.74,-0.08,2.20,2.12,2618,3433,5030,149,205,133,74,99,0
2648,3458,5065,6,-5,7,10240,0.74,-0.08,2.20,2.12,2619,3434,5031,149,205,133,74,99,0
2656,3476,5081,17,9,22,10240,0.74,-0.08,2.20,2.12,2620,3435,5032,149,205,133,74,99,0
2663,3488,5093,29,26,38,10240,0.74,-0.08,2.20,2.12,2622,3437,5035,149,205,133,74,99,0
2668,3500,5106,37,44,52,10240,0.74,-0.08,2.20,2.12,2623,3439,5037,149,205,133,74,99,0
2674,3510,5117,42,55,63,10240,0.74,-0.08,2.20,2.12,2625,3441,5040,149,205,133,74,99,0
2689,3533,5123,49,67,71,10240,0.74,-0.08,2.20,2.12,2627,3444,5042,149,205,133,74,99,0
2700,3549,5123,56,80,76,10240,0.74,-0.08,2.20,2.12,2630,3448,5045,149,205,133,74,99,0
2709,3562,5123,64,92,77,10240,0.74,-0.08,2.20,2.12,2632,3452,5048,149,205,133,74,99,0
2709,3564,5123,70,102,76,10240,0.74,-0.08,2.20,2.12,2635,3455,5050,149,205,147,74,99,0
2689,3532,5116,68,98,72,10240,0.74,-0.08,2.04,1.94,2637,3458,5052,147,210,147,74,99,0
2612,3416,5000,44,63,40,10240,0.74,-0.08,2.04,1.94,2636,3457,5051,147,210,147,74,99,0
2573,3389,4969,10,19,1,10240,0.74,-0.08,2.04,1.94,2634,3454,5048,147,210,147,74,99,0
2563,3361,4950,-25,-30,-40,10240,0.74,-0.08,2.04,1.94,2631,3451,5045,147,210,147,74,99,0
2562,3351,4945,-55,-73,-80,10240,0.74,-0.08,2.04,1.94,2629,3448,5041,147,210,147,74,99,0
2563,3349,4945,-65,-87,-90,10240,0.74,-0.08,2.04,1.94,2627,3445,5038,147,210,147,74,99,0
2563,3352,4953,-65,-93,-91,10240,0.74,-0.08,2.04,1.94,2625,3441,5035,147,210,147,74,99,0
2563,3365,4963,-63,-89,-85,10240,0.74,-0.08,2.04,1.94,2623,3439,5033,147,210,147,74,99,0
2567,3381,4978,-60,-78,-74,10240,0.74,-0.08,2.04,1.94,2621,3437,5031,147,210,147,74,99,0
2575,3393,4986,-55,-65,-62,10240,0.74,-0.08,2.04,1.94,2619,3436,5029,147,210,147,74,99,0
2578,3401,4990,-49,-51,-51,10240,0.74,-0.08,2.04,1.94,2618,3434,5028,147,210,147,74,99,0
2581,3413,4998,-43,-38,-40,10240,0.74,-0.08,2.04,1.94,2617,3434,5027,147,210,147,74,99,0
2589,3416,5002,-36,-28,-33,10240,0.74,-0.08,2.04,1.94,2616,3433,5026,147,210,147,74,99,0
2603,3416,5007,-28,-21,-27,10240,0.74,-0.08,2.04,1.94,2615,3432,5026,147,210,147,74,99,0
2616,3416,5015,-18,-17,-20,10240,0.74,-0.08,2.04,1.94,2615,3432,5025,147,210,147,74,99,0
2637,3442,5046,-4,-9,-8,10240,0.74,-0.08,2.04,1.94,2616,3432,5026,147,210,147,74,99,0
2647,3461,5058,10,1,5,10240,0.74,-0.08,2.04,1.94,2617,3433,5027,147,210,147,74,99,0
2658,3477,5073,23,16,21,10240,0.74,-0.08,2.04,1.94,2618,3435,5029,147,210,147,74,99,0
2666,3495,5089,34,34,38,10240,0.74,-0.08,2.04,1.94,2620,3437,5031,147,210,147,74,99,0
2674,3509,5106,42,49,51,10240,0.74,-0.08,2.04,1.94,2622,3439,5033,147,210,147,74,99,0
2688,3532,5123,50,65,65,10240,0.74,-0.08,2.04,1.94,2624,3442,5036,147,210,147,74,99,0
2695,3544,5123,57,79,75,10240,0.74,-0.08,2.04,1.94,2626,3446,5039,147,210,147,74,99,0
2706,3559,5123,65,92,81,10240,0.74,-0.08,2.04,1.94,2629,3449,5042,147,210,147,74,99,0
2716,3573,5123,73,104,82,10240,0.74,-0.08,2.04,1.94,2632,3454,5045,147,210,147,74,99,0
2725,3585,5123,80,113,79,10240,0.74,-0.08,2.04,1.94,2635,3458,5047,147,210,153,74,99,0
2698,3546,5117,78,110,75,10240,0.74,-0.08,2.00,1.84,2637,3461,5049,147,209,153,75,99,0
2660,3482,5055,64,87,56,10240,0.74,-0.08,2.00,1.84,2638,3462,5050,147,209,153,75,99,0
2623,3421,5001,39,48,25,10240,0.74,-0.08,2.00,1.84,2637,3460,5048,147,209,153,75,99,0
2588,3413,4978,5,5,-10,10240,0.74,-0.08,2.00,1.84,2636,3459,5046,147,209,153,75,98,0
2570,3384,4960,-26,-34,-48,10240,0.74,-0.08,2.00,1.84,2634,3456,5043,147,209,153,75,98,0
2563,3369,4951,-48,-60,-71,10240,0.74,-0.08,2.00,1.84,2631,3453,5040,147,209,153,75,98,0
2562,3369,4953,-61,-70,-81,10240,0.74,-0.08,2.00,1.84,2629,3450,5037,147,209,153,75,98,0
2564,3375,4959,-65,-77,-82,10240,0.74,-0.08,2.00,1.84,2627,3448,5034,147,209,153,75,98,0
2575,3395,4974,-62,-72,-76,10240,0.74,-0.08,2.00,1.84,2625,3446,5032,147,209,153,75,98,0
2587,3416,4990,-54,-58,-64,10240,0.74,-0.08,2.00,1.84,2624,3445,5031,147,209,153,75,98,0
2600,3416,4995,-43,-45,-52,10240,0.74,-0.08,2.00,1.84,2623,3444,5030,147,209,153,75,98,0
2605,3416,4998,-31,-33,-41,10240,0.74,-0.08,2.00,1.84,2622,3443,5029,147,209,153,75,98,0
2616,3416,5002,-20,-27,-33,10240,0.74,-0.08,2.00,1.84,2622,3442,5028,147,209,153,75,98,0
2621,3416,5006,-11,-26,-28,10240,0.74,-0.08,2.00,1.84,2622,3441,5027,147,209,153,75,98,0
2624,3419,5015,-5,-25,-22,10240,0.74,-0.08,2.00,1.84,2622,3441,5027,147,209,153,75,98,0
2645,3463,5048,4,-12,-9,10240,0.74,-0.08,2.00,1.84,2623,3441,5027,147,209,153,75,98,0
2656,3477,5058,13,2,4,10240,0.74,-0.08,2.00,1.84,2624,3443,5028,147,209,153,75,98,0
2666,3494,5075,24,21,21,10240,0.74,-0.08,2.00,1.84,2625,3444,5030,147,209,153,75,98,0
2675,3511,5093,35,42,39,10240,0.74,-0.08,2.00,1.84,2627,3447,5032,147,209,153,75,98,0
2684,3528,5111,44,56,53,10240,0.74,-0.08,2.00,1.84,2629,3449,5035,147,209,153,75,98,0
2701,3551,5123,53,72,66,10240,0.74,-0.08,2.00,1.84,2631,3453,5038,147,209,153,75,98,0
2708,3561,5123,61,86,76,10240,0.74,-0.08,2.00,1.84,2634,3456,5040,147,209,153,75,98,0
2715,3572,5123,69,98,81,10240,0.74,-0.08,2.00,1.84,2637,3460,5043,147,209,153,75,98,0
2723,3583,5123,76,108,81,10240,0.74,-0.08,2.00,1.84,2640,3464,5046,147,209,153,75,98,0
2731,3594,5123,80,115,78,10240,0.74,-0.08,2.00,1.84,2643,3469,5048,147,209,156,75,98,0
2747,3621,5123,87,125,76,10240,0.74,-0.08,1.95,1.80,2646,3474,5051,147,209,156,75,98,0
2747,3621,5123,92,133,73,10240,0.74,-0.08,1.95,1.80,2649,3479,5053,147,209,156,74,98,0
2728,3591,5123,90,130,71,10240,0.74,-0.08,1.95,1.80,2652,3482,5056,149,209,156,74,98,0
2686,3528,5084,77,110,59,10240,0.74,-0.08,1.95,1.80,2653,3484,5057,149,209,156,74,98,0
2609,3416,5016,41,57,31,10240,0.74,-0.08,1.95,1.80,2652,3482,5055,149,209,156,74,98,0
2578,3399,4957,-1,1,-10,10240,0.74,-0.08,1.95,1.80,2649,3479,5052,149,209,156,74,98,0
2564,3374,4942,-40,-50,-53,10240,0.74,-0.08,1.95,1.80,2646,3475,5048,149,209,156,74,98,0
2562,3363,4936,-69,-89,-87,10240,0.74,-0.08,1.95,1.80,2644,3472,5045,149,209,156,74,98,0
2562,3358,4933,-78,-100,-104,10240,0.74,-0.08,1.95,1.80,2641,3468,5041,149,209,156,74,98,0
2562,3364,4943,-79,-105,-104,10240,0.74,-0.08,1.95,1.80,2638,3464,5038,149,209,156,74,98,0
2567,3381,4958,-76,-100,-97,10240,0.74,-0.08,1.95,1.80,2636,3462,5035,149,209,156,74,98,0
2575,3397,4969,-70,-88,-86,10240,0.74,-0.08,1.95,1.80,2634,3459,5033,149,209,156,74,98,0
2581,3410,4977,-63,-72,-72,10240,0.74,-0.08,1.95,1.80,2632,3458,5031,149,209,156,74,98,0
2586,3416,4983,-56,-57,-60,10240,0.74,-0.08,1.95,1.80,2631,3456,5029,149,209,156,74,98,0
2599,3416,4989,-46,-47,-50,10240,0.74,-0.08,1.95,1.80,2629,3455,5028,149,209,156,74,98,0
2614,3416,4998,-35,-41,-42,10240,0.74,-0.08,1.95,1.80,2629,3454,5027,149,209,156,74,98,0
2621,3416,5004,-24,-38,-34,10240,0.74,-0.08,1.95,1.80,2629,3452,5026,149,209,156,74,98,0
2629,3429,5020,-13,-34,-24,10240,0.74,-0.08,1.95,1.80,2629,3452,5026,149,209,156,74,98,0
2641,3455,5038,-2,-23,-11,10240,0.74,-0.08,1.95,1.80,2629,3452,5026,149,209,156,74,98,0
2660,3486,5064,8,-5,5,10240,0.74,-0.08,1.95,1.80,2630,3453,5028,149,209,156,74,98,0
2670,3502,5078,20,15,22,10240,0.74,-0.08,1.95,1.80,2631,3455,5029,149,209,156,74,98,0
2680,3519,5095,32,36,40,10240,0.74,-0.08,1.95,1.80,2633,3457,5031,149,209,156,74,98,0
2686,3531,5110,41,53,56,10240,0.74,-0.08,1.95,1.80,2635,3459,5034,149,209,156,74,98,0
2691,3539,5122,47,64,68,10240,0.74,-0.08,1.95,1.80,2637,3462,5037,149,209,156,74,98,0
2708,3561,5122,55,76,76,10240,0.74,-0.08,1.95,1.80,2639,3465,5040,149,209,156,74,98,0
2716,3574,5123,62,87,80,10240,0.74,-0.08,1.95,1.80,2642,3469,5043,149,209,156,74,98,0
2725,3586,5123,69,97,81,10240,0.74,-0.08,1.95,1.80,2644,3473,5045,149,209,156,74,98,0
2733,3599,5123,77,109,78,10240,0.74,-0.08,1.95,1.80,2647,3477,5048,149,209,163,74,98,0
2738,3607,5123,82,116,76,10240,0.74,-0.08,1.86,1.74,2650,3481,5050,149,209,163,74,98,0
2690,3534,5095,73,103,67,10240,0.74,-0.08,1.86,1.74,2652,3483,5052,152,212,163,74,98,0
2647,3461,5024,51,69,41,10240,0.74,-0.08,1.86,1.74,2652,3482,5051,152,212,163,74,98,0
2611,3416,4980,20,23,5,10240,0.74,-0.08,1.86,1.74,2650,3480,5049,152,212,163,74,98,0
2576,3397,4955,-19,-28,-35,10240,0.74,-0.08,1.86,1.74,2648,3477,5045,152,212,163,74,98,0
2563,3370,4938,-49,-67,-72,10240,0.74,-0.08,1.86,1.74,2645,3474,5042,152,212,163,74,98,0
2563,3353,4928,-68,-91,-93,10240,0.74,-0.08,1.86,1.74,2642,3470,5038,152,212,163,74,98,0
2563,3352,4929,-77,-103,-102,10240,0.74,-0.08,1.86,1.74,2640,3466,5034,152,212,163,74,98,0
2563,3358,4938,-78,-109,-103,10240,0.74,-0.08,1.86,1.74,2637,3462,5031,152,212,163,74,98,0
2563,3372,4952,-75,-105,-96,10240,0.74,-0.08,1.86,1.74,2635,3459,5029,152,212,163,74,98,0
2571,3388,4965,-71,-93,-84,10240,0.74,-0.08,1.86,1.74,2632,3457,5026,152,212,163,74,98,0
2577,3401,4974,-65,-78,-70,10240,0.74,-0.08,1.86,1.74,2631,3455,5025,152,212,163,74,98,0
2579,3408,4978,-59,-63,-58,10240,0.74,-0.08,1.86,1.74,2629,3453,5023,152,212,163,74,98,0
2582,3416,4982,-52,-51,-49,10240,0.74,-0.08,1.86,1.74,2627,3452,5022,152,212,163,74,98,0
2593,3416,4988,-45,-42,-42,10240,0.74,-0.08,1.86,1.74,2626,3451,5021,152,212,163,74,98,0
2622,3416,4995,-33,-37,-35,10240,0.74,-0.08,1.86,1.74,2626,3450,5020,152,212,163,74,98,0
2624,3421,5013,-21,-33,-26,10240,0.74,-0.08,1.86,1.74,2626,3449,5020,152,212,163,74,98,0
2635,3443,5030,-7,-25,-13,10240,0.74,-0.08,1.86,1.74,2626,3449,5020,152,212,163,74,98,0
2645,3463,5045,5,-13,0,10240,0.74,-0.08,1.86,1.74,2627,3449,5021,152,212,163,74,98,0
2655,3473,5054,13,0,14,10240,0.74,-0.08,1.86,1.74,2628,3450,5022,152,212,163,74,98,0
2669,3499,5076,23,19,29,10240,0.74,-0.08,1.86,1.74,2629,3451,5024,152,212,163,74,98,0
2674,3508,5084,32,35,41,10240,0.74,-0.08,1.86,1.74,2631,3453,5026,152,212,163,74,98,0
2681,3519,5095,39,47,52,10240,0.74,-0.08,1.86,1.74,2632,3456,5028,152,212,163,74,98,0
2687,3531,5111,46,59,64,10240,0.74,-0.08,1.86,1.74,2634,3458,5031,152,212,163,74,98,0
2694,3544,5123,50,68,73,10240,0.74,-0.08,1.86,1.74,2636,3461,5034,152,212,163,74,98,0
2713,3570,5123,58,81,80,10240,0.74,-0.08,1.86,1.74,2639,3465,5037,152,212,163,74,98,0
2707,3563,5123,62,89,84,10240,0.74,-0.08,1.86,1.74,2641,3468,5040,152,212,163,74,98,0
2681,3520,5084,59,83,75,10240,0.74,-0.08,1.86,1.74,2642,3470,5041,149,208,169,74,98,0
2641,3451,5020,44,58,48,10240,0.74,-0.08,1.79,1.68,2642,3469,5040,149,208,169,74,98,0
2603,3416,4976,16,19,11,10240,0.74,-0.08,1.79,1.68,2641,3467,5038,149,208,169,74,98,0
2562,3359,4933,-19,-31,-35,10240,0.74,-0.08,1.79,1.68,2638,3464,5035,149,208,169,74,98,0
2563,3352,4930,-47,-70,-71,10240,0.74,-0.08,1.79,1.68,2636,3460,5031,149,208,169,74,98,0
2563,3350,4929,-64,-92,-91,10240,0.74,-0.08,1.79,1.68,2633,3456,5028,149,208,169,74,98,0
2563,3352,4933,-71,-105,-98,10240,0.74,-0.08,1.79,1.68,2631,3453,5025,149,208,169,74,98,0
2562,3360,4942,-69,-101,-93,10240,0.74,-0.08,1.79,1.68,2629,3450,5022,149,208,169,74,98,0
2576,3398,4974,-64,-86,-79,10240,0.74,-0.08,1.79,1.68,2627,3448,5020,149,208,169,74,98,0
2579,3408,4979,-58,-69,-64,10240,0.74,-0.08,1.79,1.68,2625,3446,5019,149,208,169,74,98,0
2580,3411,4980,-52,-53,-51,10240,0.74,-0.08,1.79,1.68,2624,3445,5018,149,208,169,74,98,0
2584,3416,4984,-45,-37,-39,10240,0.74,-0.08,1.79,1.68,2623,3444,5016,149,208,169,74,98,0
2590,3416,4987,-40,-31,-34,10240,0.74,-0.08,1.79,1.68,2621,3443,5016,149,208,169,74,98,0
2617,3416,5000,-29,-29,-28,10240,0.74,-0.08,1.79,1.68,2621,3443,5015,149,208,169,74,98,0
2621,3416,5008,-18,-27,-20,10240,0.74,-0.08,1.79,1.68,2621,3442,5015,149,208,169,74,98,0
2632,3433,5024,-6,-22,-10,10240,0.74,-0.08,1.79,1.68,2622,3441,5015,149,208,169,74,98,0
2641,3455,5040,6,-12,2,10240,0.74,-0.08,1.79,1.68,2622,3442,5016,149,208,169,74,98,0
2652,3469,5050,14,1,14,10240,0.74,-0.08,1.79,1.68,2623,3443,5017,149,208,169,74,98,0
2669,3500,5077,25,21,31,10240,0.74,-0.08,1.79,1.68,2625,3445,5019,149,208,169,74,98,0
2676,3512,5088,35,39,45,10240,0.74,-0.08,1.79,1.68,2627,3447,5021,149,208,169,74,98,0
2683,3524,5100,44,55,58,10240,0.74,-0.08,1.79,1.68,2628,3449,5024,149,208,169,74,98,0
2687,3532,5113,51,68,71,10240,0.74,-0.08,1.79,1.68,2630,3452,5027,149,208,169,74,98,0
2693,3541,5123,55,76,80,10240,0.74,-0.08,1.79,1.68,2633,3455,5030,149,208,169,74,98,0
2711,3567,5123,62,87,86,10240,0.74,-0.08,1.79,1.68,2635,3459,5033,149,208,169,74,98,0
2720,3579,5123,68,97,89,10240,0.74,-0.08,1.79,1.68,2638,3463,5036,149,208,169,74,98,0
2724,3585,5123,75,107,88,10240,0.74,-0.08,1.79,1.68,2641,3467,5039,149,208,173,74,98,0
2705,3559,5119,75,107,84,10240,0.74,-0.08,1.75,1.64,2643,3470,5042,149,208,173,74,98,0
2625,3424,5056,52,69,65,10240,0.74,-0.08,1.75,1.64,2642,3468,5042,149,209,173,74,98,0
2575,3394,4952,15,22,22,10240,0.74,-0.08,1.75,1.64,2640,3466,5039,149,209,173,74,98,0
2563,3352,4923,-23,-34,-27,10240,0.74,-0.08,1.75,1.64,2638,3462,5035,149,209,173,74,98,0
2562,3334,4911,-57,-87,-76,10240,0.74,-0.08,1.75,1.64,2635,3458,5031,149,209,173,74,98,0
2563,3321,4905,-70,-109,-110,10240,0.74,-0.08,1.75,1.64,2633,3453,5027,149,209,173,74,98,0
2563,3308,4903,-71,-126,-118,10240,0.74,-0.08,1.75,1.64,2630,3449,5023,149,209,173,74,98,0
2563,3311,4907,-68,-132,-118,10240,0.74,-0.08,1.75,1.64,2628,3444,5019,149,209,173,74,98,0
2562,3324,4918,-66,-130,-113,10240,0.74,-0.08,1.75,1.64,2626,3440,5016,149,209,173,74,98,0
2563,3338,4928,-64,-122,-103,10240,0.74,-0.08,1.75,1.64,2624,3437,5013,149,209,173,74,98,0
2563,3347,4935,-62,-108,-92,10240,0.74,-0.08,1.75,1.64,2622,3434,5010,149,209,173,74,98,0
2563,3356,4942,-60,-94,-81,10240,0.74,-0.08,1.75,1.64,2620,3431,5008,149,209,173,74,98,0
2563,3360,4948,-58,-82,-71,10240,0.74,-0.08,1.75,1.64,2618,3429,5006,149,209,173,74,98,0
2563,3370,4956,-56,-72,-61,10240,0.74,-0.08,1.75,1.64,2616,3427,5004,149,209,173,74,98,0
2571,3388,4969,-52,-59,-51,10240,0.74,-0.08,1.75,1.64,2615,3425,5003,149,209,173,74,98,0
2580,3411,4983,-46,-44,-39,10240,0.74,-0.08,1.75,1.64,2613,3425,5002,149,209,173,74,98,0
2617,3416,5002,-31,-29,-25,10240,0.74,-0.08,1.75,1.64,2613,3425,5002,149,209,173,74,98,0
2621,3416,5011,-16,-17,-11,10240,0.74,-0.08,1.75,1.64,2614,3424,5003,149,209,173,74,98,0
2632,3433,5026,-1,-5,3,10240,0.74,-0.08,1.75,1.64,2614,3425,5003,149,209,173,74,98,0
2641,3453,5039,13,4,16,10240,0.74,-0.08,1.75,1.64,2615,3425,5005,149,209,173,74,98,0
2648,3466,5047,20,16,26,10240,0.74,-0.08,1.75,1.64,2616,3427,5006,149,209,173,74,98,0
2662,3489,5065,30,33,38,10240,0.74,-0.08,1.75,1.64,2618,3429,5008,149,209,173,74,98,0
2670,3500,5076,38,49,49,10240,0.74,-0.08,1.75,1.64,2620,3431,5010,149,209,173,74,98,0
2677,3514,5087,45,62,59,10240,0.74,-0.08,1.75,1.64,2622,3434,5013,149,209,173,74,98,0
2686,3529,5105,52,75,71,10240,0.74,-0.08,1.75,1.64,2624,3437,5016,149,209,173,74,98,0
2692,3542,5121,58,85,82,10240,0.74,-0.08,1.75,1.64,2626,3441,5019,149,209,173,74,98,0
2701,3553,5122,64,95,91,10240,0.74,-0.08,1.75,1.64,2628,3444,5023,149,209,173,74,98,0
2678,3515,5076,62,92,85,10240,0.74,-0.08,1.75,1.64,2630,3447,5025,145,214,182,74,98,0
2637,3444,5012,48,68,60,10240,0.74,-0.08,1.71,1.52,2630,3447,5024,145,214,182,74,98,0
2587,3406,4961,21,33,19,10240,0.74,-0.08,1.71,1.52,2629,3445,5022,145,214,182,74,98,0
2563,3356,4924,-12,-15,-29,10240,0.74,-0.08,1.71,1.52,2627,3442,5019,145,214,182,74,98,0
2563,3318,4900,-40,-62,-70,10240,0.74,-0.08,1.71,1.52,2625,3438,5015,145,214,182,74,98,0
2563,3311,4898,-56,-92,-96,10240,0.74,-0.08,1.71,1.52,2622,3434,5011,145,214,182,74,98,0
2563,3306,4898,-60,-113,-108,10240,0.74,-0.08,1.71,1.52,2621,3430,5007,145,214,182,74,98,0
2561,3306,4898,-59,-121,-110,10240,0.74,-0.08,1.71,1.52,2619,3426,5004,145,214,182,74,98,0
2563,3317,4908,-57,-118,-105,10240,0.74,-0.08,1.71,1.52,2617,3422,5000,145,214,182,74,98,0
2562,3345,4931,-55,-105,-93,10240,0.74,-0.08,1.71,1.52,2615,3419,4998,145,214,182,74,98,0
2563,3350,4934,-53,-91,-81,10240,0.74,-0.08,1.71,1.52,2613,3417,4996,145,214,182,74,98,0
2563,3353,4937,-51,-77,-69,10240,0.74,-0.08,1.71,1.52,2611,3415,4994,145,214,182,74,98,0
2563,3357,4942,-49,-64,-59,10240,0.74,-0.08,1.71,1.52,2610,3413,4992,145,214,182,74,98,0
2564,3378,4959,-47,-54,-50,10240,0.74,-0.08,1.71,1.52,2608,3412,4991,145,214,182,74,98,0
2575,3398,4973,-42,-41,-39,10240,0.74,-0.08,1.71,1.52,2607,3411,4991,145,214,182,74,98,0
2588,3416,4985,-35,-24,-26,10240,0.74,-0.08,1.71,1.52,2607,3412,4990,145,214,182,74,98,0
2606,3416,4992,-24,-9,-13,10240,0.74,-0.08,1.71,1.52,2607,3412,4990,145,214,182,74,98,0
2621,3416,5003,-9,0,-2,10240,0.74,-0.08,1.71,1.52,2607,3412,4991,145,214,182,74,98,0
2636,3445,5027,5,11,11,10240,0.74,-0.08,1.71,1.52,2608,3413,4992,145,214,182,74,98,0
2645,3463,5041,19,22,24,10240,0.74,-0.08,1.71,1.52,2609,3415,4994,145,214,182,74,98,0
2651,3469,5045,29,34,36,10240,0.74,-0.08,1.71,1.52,2611,3416,4995,145,214,182,74,98,0
2659,3480,5054,37,48,47,10240,0.74,-0.08,1.71,1.52,2612,3419,4997,145,214,182,74,98,0
2664,3494,5062,43,58,54,10240,0.74,-0.08,1.71,1.52,2614,3421,4999,145,214,182,74,98,0
2680,3520,5088,50,70,64,10240,0.74,-0.08,1.71,1.52,2616,3424,5002,145,214,182,74,98,0
2687,3535,5106,57,84,76,10240,0.74,-0.08,1.71,1.52,2618,3428,5006,145,214,182,74,98,0
2697,3549,5122,64,98,90,10240,0.74,-0.08,1.71,1.52,2621,3432,5010,145,214,182,74,98,0
2697,3550,5120,70,108,101,10240,0.74,-0.08,1.71,1.52,2624,3436,5013,145,214,182,74,98,0
2679,3518,5074,68,104,94,10240,0.74,-0.08,1.71,1.52,2625,3439,5015,141,218,190,74,98,0
2596,3413,4965,43,71,57,10240,0.74,-0.08,1.67,1.42,2625,3438,5014,141,218,190,74,98,0
2564,3370,4931,10,25,9,10240,0.74,-0.08,1.67,1.42,2622,3436,5011,141,218,190,74,98,0
2563,3346,4913,-22,-24,-41,10240,0.74,-0.08,1.67,1.42,2621,3433,5008,141,218,190,74,98,0
2563,3337,4908,-50,-67,-80,10240,0.74,-0.08,1.67,1.42,2619,3429,5004,141,218,190,74,98,0
2562,3332,4907,-56,-84,-91,10240,0.74,-0.08,1.67,1.42,2617,3426,5001,141,218,190,74,98,0
2563,3335,4914,-55,-90,-92,10240,0.74,-0.08,1.67,1.42,2615,3423,4998,141,218,190,74,98,0
2563,3347,4925,-53,-87,-86,10240,0.74,-0.08,1.67,1.42,2613,3421,4996,141,218,190,74,98,0
2562,3361,4936,-51,-78,-76,10240,0.74,-0.08,1.67,1.42,2611,3419,4994,141,218,190,74,98,0
2562,3371,4944,-49,-66,-65,10240,0.74,-0.08,1.67,1.42,2610,3417,4992,141,218,190,74,98,0
2563,3372,4947,-48,-55,-55,10240,0.74,-0.08,1.67,1.42,2608,3415,4991,141,218,190,74,98,0
2565,3380,4952,-46,-45,-46,10240,0.74,-0.08,1.67,1.42,2607,3414,4989,141,218,190,74,98,0
2571,3392,4959,-42,-36,-39,10240,0.74,-0.08,1.67,1.42,2606,3414,4988,141,218,190,74,98,0
2579,3409,4971,-37,-25,-31,10240,0.74,-0.08,1.67,1.42,2605,3413,4988,141,218,190,74,98,0
2593,3416,4979,-28,-14,-23,10240,0.74,-0.08,1.67,1.42,2604,3414,4988,141,218,190,74,98,0
2624,3416,4989,-13,-5,-13,10240,0.74,-0.08,1.67,1.42,2605,3414,4988,141,218,190,74,98,0
2627,3428,5008,0,3,-1,10240,0.74,-0.08,1.67,1.42,2606,3414,4988,141,218,190,74,98,0
2638,3450,5025,15,13,12,10240,0.74,-0.08,1.67,1.42,2607,3415,4989,141,218,190,74,98,0
2647,3468,5038,27,25,26,10240,0.74,-0.08,1.67,1.42,2608,3417,4991,141,218,190,74,98,0
2655,3472,5040,34,38,37,10240,0.74,-0.08,1.67,1.42,2610,3419,4993,141,218,190,74,98,0
2667,3497,5049,42,53,46,10240,0.74,-0.08,1.67,1.42,2612,3421,4995,141,218,190,74,98,0
2675,3510,5071,50,66,55,10240,0.74,-0.08,1.67,1.42,2614,3424,4997,141,218,190,74,98,0
2684,3525,5084,57,78,64,10240,0.74,-0.08,1.67,1.42,2616,3428,5000,141,218,190,74,98,0
2689,3535,5098,63,90,76,10240,0.74,-0.08,1.67,1.42,2618,3431,5003,141,218,190,74,98,0
2698,3551,5117,69,100,90,10240,0.74,-0.08,1.67,1.42,2621,3435,5007,141,218,190,74,98,0
2691,3538,5123,71,104,100,10240,0.74,-0.08,1.67,1.42,2623,3439,5011,141,218,190,74,98,0
2660,3486,5034,62,91,84,10240,0.74,-0.08,1.67,1.42,2625,3440,5012,138,212,190,74,98,0
2624,3421,4981,44,60,53,10240,0.54,-0.09,1.63,1.39,2625,3440,5011,138,212,190,74,98,0
2579,3399,4945,14,21,10,10240,0.54,-0.09,1.63,1.39,2623,3438,5009,138,212,190,74,98,0
2563,3364,4922,-17,-21,-39,10240,0.54,-0.09,1.63,1.39,2621,3436,5006,138,212,190,74,98,0
2563,3347,4912,-39,-54,-67,10240,0.54,-0.09,1.63,1.39,2619,3433,5002,138,212,190,74,98,0
2562,3348,4914,-53,-69,-81,10240,0.54,-0.09,1.63,1.39,2617,3430,5000,138,212,190,74,98,0
2563,3353,4920,-55,-78,-84,10240,0.54,-0.09,1.63,1.39,2615,3428,4997,138,212,190,74,98,0
2563,3365,4932,-53,-75,-79,10240,0.54,-0.09,1.63,1.39,2614,3425,4995,138,212,190,74,98,0
2569,3386,4949,-50,-63,-67,10240,0.54,-0.09,1.63,1.39,2612,3424,4993,138,212,190,74,98,0
2580,3411,4964,-44,-46,-53,10240,0.54,-0.09,1.63,1.39,2611,3424,4992,138,212,190,74,98,0
2582,3414,4965,-38,-30,-40,10240,0.54,-0.09,1.63,1.39,2610,3423,4991,138,212,190,74,98,0
2586,3416,4968,-31,-16,-30,10240,0.54,-0.09,1.63,1.39,2609,3423,4991,138,212,190,74,98,0
2596,3416,4972,-23,-9,-23,10240,0.54,-0.09,1.63,1.39,2609,3423,4990,138,212,190,74,98,0
2606,3416,4978,-16,-7,-19,10240,0.54,-0.09,1.63,1.39,2609,3423,4990,138,212,190,74,98,0
2626,3421,5000,-5,-5,-10,10240,0.54,-0.09,1.63,1.39,2609,3423,4990,138,212,190,74,98,0
2637,3448,5017,7,2,1,10240,0.54,-0.09,1.63,1.39,2610,3423,4991,138,212,190,74,98,0
2647,3469,5033,19,15,16,10240,0.54,-0.09,1.63,1.39,2612,3425,4992,138,212,190,74,98,0
2659,3479,5039,31,29,30,10240,0.54,-0.09,1.63,1.39,2613,3427,4994,138,212,190,74,98,0
2667,3497,5055,40,47,42,10240,0.54,-0.09,1.63,1.39,2615,3429,4996,138,212,190,74,98,0
2684,3523,5079,50,63,56,10240,0.54,-0.09,1.63,1.39,2617,3432,4999,138,212,190,74,98,0
2688,3532,5088,58,76,67,10240,0.54,-0.09,1.63,1.39,2620,3436,5001,138,212,190,74,98,0
2692,3541,5097,64,89,79,10240,0.54,-0.09,1.63,1.39,2622,3439,5005,138,212,190,74,98,0
2699,3553,5111,69,99,90,10240,0.54,-0.09,1.63,1.39,2625,3443,5008,138,212,190,74,98,0
2708,3566,5123,73,106,98,10240,0.54,-0.09,1.63,1.39,2627,3447,5012,138,212,190,74,98,0
2728,3590,5123,80,117,103,10240,0.54,-0.09,1.63,1.39,2631,3452,5016,138,212,190,74,98,0
2733,3602,5123,87,128,106,10240,0.54,-0.09,1.63,1.39,2634,3457,5019,138,212,190,74,98,0
2730,3596,5123,92,134,105,10240,0.54,-0.09,1.63,1.39,2637,3461,5023,138,212,190,74,98,0
2699,3551,5089,87,126,93,10240,0.54,-0.09,1.62,1.38,2639,3464,5025,140,212,190,74,98,0
2613,3476,5015,56,94,64,10240,0.54,-0.09,1.62,1.38,2639,3465,5025,140,212,190,74,98,0
2571,3387,4928,15,39,15,10240,0.54,-0.09,1.62,1.38,2636,3462,5021,140,212,190,74,98,0
2562,3356,4905,-25,-20,-38,10240,0.54,-0.09,1.62,1.38,2634,3459,5018,140,212,190,74,98,0
2562,3343,4898,-58,-69,-83,10240,0.54,-0.09,1.62,1.38,2631,3455,5014,140,212,190,74,98,0
2563,3336,4894,-68,-101,-109,10240,0.54,-0.09,1.62,1.38,2629,3451,5010,140,212,190,74,98,0
2563,3330,4894,-67,-111,-114,10240,0.54,-0.09,1.62,1.38,2627,3447,5006,140,212,190,74,98,0
2563,3338,4903,-65,-112,-110,10240,0.54,-0.09,1.62,1.38,2625,3443,5002,140,212,190,74,98,0
2563,3348,4913,-63,-107,-103,10240,0.54,-0.09,1.62,1.38,2623,3440,4999,140,212,190,74,98,0
2562,3360,4924,-61,-97,-92,10240,0.54,-0.09,1.62,1.38,2621,3437,4997,140,212,190,74,98,0
2562,3367,4931,-59,-85,-80,10240,0.54,-0.09,1.62,1.38,2619,3435,4995,140,212,190,74,98,0
2563,3377,4940,-57,-73,-69,10240,0.54,-0.09,1.62,1.38,2617,3433,4993,140,212,190,74,98,0
2572,3389,4949,-53,-61,-58,10240,0.54,-0.09,1.62,1.38,2615,3432,4991,140,212,190,74,98,0
2579,3408,4961,-47,-47,-47,10240,0.54,-0.09,1.62,1.38,2614,3431,4990,140,212,190,74,98,0
2593,3416,4971,-38,-34,-35,10240,0.54,-0.09,1.62,1.38,2613,3430,4990,140,212,190,74,98,0
2609,3416,4980,-25,-23,-24,10240,0.54,-0.09,1.62,1.38,2613,3430,4989,140,212,190,74,98,0
2628,3430,5002,-11,-12,-11,10240,0.54,-0.09,1.62,1.38,2614,3430,4990,140,212,190,74,98,0
2640,3454,5018,3,-1,2,10240,0.54,-0.09,1.62,1.38,2615,3431,4991,140,212,190,74,98,0
2649,3471,5033,17,12,17,10240,0.54,-0.09,1.62,1.38,2616,3432,4992,140,212,190,74,98,0
2657,3479,5037,28,27,30,10240,0.54,-0.09,1.62,1.38,2617,3433,4994,140,212,190,74,98,0
2665,3496,5050,36,42,41,10240,0.54,-0.09,1.62,1.38,2619,3436,4995,140,212,190,74,98,0
2681,3519,5069,44,56,52,10240,0.54,-0.09,1.62,1.38,2621,3438,4998,140,212,190,74,98,0
2687,3530,5080,52,69,62,10240,0.54,-0.09,1.62,1.38,2623,3441,5001,140,212,190,74,98,0
2690,3539,5092,58,81,73,10240,0.54,-0.09,1.62,1.38,2625,3445,5004,140,212,190,74,98,0
2699,3554,5107,65,92,84,10240,0.54,-0.09,1.62,1.38,2628,3448,5007,140,212,190,74,98,0
2710,3570,5123,69,101,94,10240,0.54,-0.09,1.62,1.38,2631,3452,5011,140,212,190,74,98,0
2720,3583,5123,75,111,102,10240,0.54,-0.09,1.62,1.38,2633,3457,5015,140,212,190,74,98,0
2696,3548,5086,74,109,97,10240,0.54,-0.09,1.62,1.38,2636,3460,5017,141,214,197,74,98,0
2655,3480,5017,61,88,72,10240,0.54,-0.09,1.58,1.36,2636,3460,5017,141,214,197,74,98,0
2613,3417,4961,36,48,30,10240,0.54,-0.09,1.58,1.36,2635,3459,5015,141,214,197,74,98,0
2563,3383,4923,-3,-1,-18,10240,0.54,-0.09,1.58,1.36,2633,3456,5012,141,214,197,74,98,0
2563,3340,4894,-35,-52,-64,10240,0.54,-0.09,1.58,1.36,2631,3453,5008,141,214,197,74,98,0
2563,3331,4891,-56,-86,-92,10240,0.54,-0.09,1.58,1.36,2628,3449,5004,141,214,197,74,98,0
2563,3330,4891,-66,-104,-106,10240,0.54,-0.09,1.58,1.36,2626,3445,5001,141,214,197,74,98,0
2562,3329,4893,-64,-114,-110,10240,0.54,-0.09,1.58,1.36,2624,3441,4997,141,214,197,74,98,0
2562,3350,4913,-62,-108,-102,10240,0.54,-0.09,1.58,1.36,2622,3438,4994,141,214,197,74,98,0
2563,3363,4926,-60,-96,-90,10240,0.54,-0.09,1.58,1.36,2620,3435,4992,141,214,197,74,98,0
2563,3369,4931,-58,-84,-77,10240,0.54,-0.09,1.58,1.36,2618,3433,4990,141,214,197,74,98,0
2563,3376,4936,-56,-69,-64,10240,0.54,-0.09,1.58,1.36,2616,3431,4988,141,214,197,74,98,0
2564,3379,4939,-54,-60,-56,10240,0.54,-0.09,1.58,1.36,2615,3429,4986,141,214,197,74,98,0
2577,3406,4958,-48,-48,-46,10240,0.54,-0.09,1.58,1.36,2613,3429,4985,141,214,197,74,98,0
2592,3416,4969,-40,-35,-35,10240,0.54,-0.09,1.58,1.36,2613,3428,4985,141,214,197,74,98,0
2606,3416,4977,-28,-24,-24,10240,0.54,-0.09,1.58,1.36,2612,3428,4985,141,214,197,74,98,0
2626,3416,4989,-12,-14,-11,10240,0.54,-0.09,1.58,1.36,2613,3427,4985,141,214,197,74,98,0
2626,3424,4999,0,-9,-1,10240,0.54,-0.09,1.58,1.36,2613,3427,4985,141,214,197,74,98,0
2647,3470,5030,13,3,13,10240,0.54,-0.09,1.58,1.36,2614,3429,4987,141,214,197,74,98,0
2656,3477,5033,24,18,26,10240,0.54,-0.09,1.58,1.36,2616,3430,4988,141,214,197,74,98,0
2663,3491,5044,33,36,39,10240,0.54,-0.09,1.58,1.36,2617,3432,4990,141,214,197,74,98,0
2668,3504,5054,42,54,51,10240,0.54,-0.09,1.58,1.36,2619,3435,4992,141,214,197,74,98,0
2676,3513,5062,47,62,57,10240,0.54,-0.09,1.58,1.36,2621,3437,4995,141,214,197,74,98,0
2687,3534,5084,53,74,67,10240,0.54,-0.09,1.58,1.36,2623,3441,4998,141,214,197,74,98,0
2695,3548,5098,59,85,78,10240,0.54,-0.09,1.58,1.36,2626,3444,5001,141,214,197,74,98,0
2705,3565,5118,66,97,90,10240,0.54,-0.09,1.58,1.36,2628,3448,5005,141,214,197,74,98,0
2716,3581,5123,73,110,102,10240,0.54,-0.09,1.58,1.36,2631,3453,5009,141,214,197,74,98,0
2719,3584,5123,79,119,108,10240,0.54,-0.09,1.58,1.36,2634,3457,5013,141,214,197,74,98,0
2662,3490,5025,68,101,87,10240,0.54,-0.09,1.58,1.36,2635,3458,5013,142,219,202,74,98,0
2622,3422,4968,46,63,48,10240,0.54,-0.09,1.57,1.34,2635,3457,5011,142,219,202,74,98,0
2577,3399,4933,10,17,0,10240,0.54,-0.09,1.57,1.34,2633,3455,5009,142,219,202,74,98,0
2563,3366,4913,-27,-36,-50,10240,0.54,-0.09,1.57,1.34,2630,3452,5006,142,219,202,74,98,0
2562,3352,4904,-50,-68,-77,10240,0.54,-0.09,1.57,1.34,2628,3449,5002,142,219,202,74,98,0
2563,3343,4902,-63,-85,-91,10240,0.54,-0.09,1.57,1.34,2626,3445,4999,142,219,202,74,98,0
2563,3348,4906,-64,-94,-94,10240,0.54,-0.09,1.57,1.34,2624,3442,4996,142,219,202,74,98,0
2563,3359,4918,-62,-93,-90,10240,0.54,-0.09,1.57,1.34,2622,3439,4993,142,219,202,74,98,0
2562,3372,4931,-60,-85,-80,10240,0.54,-0.09,1.57,1.34,2620,3437,4991,142,219,202,74,98,0
2570,3385,4941,-56,-72,-68,10240,0.54,-0.09,1.57,1.34,2618,3435,4990,142,219,202,74,98,0
2572,3392,4946,-52,-59,-56,10240,0.54,-0.09,1.57,1.34,2617,3434,4988,142,219,202,74,98,0
2574,3395,4948,-48,-48,-47,10240,0.54,-0.09,1.57,1.34,2615,3432,4987,142,219,202,74,98,0
2577,3407,4956,-42,-38,-40,10240,0.54,-0.09,1.57,1.34,2614,3432,4986,142,219,202,74,98,0
2587,3416,4963,-37,-29,-33,10240,0.54,-0.09,1.57,1.34,2613,3431,4985,142,219,202,74,98,0
2622,3416,4971,-23,-23,-26,10240,0.54,-0.09,1.57,1.34,2613,3431,4984,142,219,202,74,98,0
2628,3419,4992,-10,-16,-14,10240,0.54,-0.09,1.57,1.34,2614,3430,4985,142,219,202,74,98,0
2630,3440,5003,3,-7,-2,10240,0.54,-0.09,1.57,1.34,2614,3430,4985,142,219,202,74,98,0
2641,3461,5019,16,3,11,10240,0.54,-0.09,1.57,1.34,2615,3431,4986,142,219,202,74,98,0
2651,3476,5032,22,18,25,10240,0.54,-0.09,1.57,1.34,2616,3433,4988,142,219,202,74,98,0
2666,3497,5048,31,36,38,10240,0.54,-0.09,1.57,1.34,2618,3435,4990,142,219,202,74,98,0
2670,3506,5055,39,51,49,10240,0.54,-0.09,1.57,1.34,2620,3437,4992,142,219,202,74,98,0
2677,3515,5064,47,62,58,10240,0.54,-0.09,1.57,1.34,2622,3440,4995,142,219,202,74,98,0
2685,3528,5074,53,72,66,10240,0.54,-0.09,1.57,1.34,2624,3443,4997,142,219,202,74,98,0
2689,3538,5087,57,80,74,10240,0.54,-0.09,1.57,1.34,2626,3446,5000,142,219,202,74,98,0
2708,3570,5122,64,93,87,10240,0.54,-0.09,1.57,1.34,2629,3450,5004,142,219,202,74,98,0
2710,3573,5121,70,104,98,10240,0.54,-0.09,1.57,1.34,2631,3454,5008,142,219,202,74,98,0
2690,3540,5076,69,103,96,10240,0.54,-0.09,1.57,1.34,2633,3457,5010,140,214,199,74,98,0
2654,3479,5016,58,85,75,10240,0.54,-0.09,1.56,1.34,2634,3458,5011,140,214,199,73,98,0
2618,3419,4965,35,46,35,10240,0.54,-0.09,1.56,1.34,2634,3457,5009,140,214,199,73,98,0
2563,3373,4918,-1,-3,-15,10240,0.54,-0.09,1.56,1.34,2631,3454,5006,140,214,199,73,98,0
2563,3363,4912,-32,-46,-54,10240,0.54,-0.09,1.56,1.34,2629,3451,5003,140,214,199,73,98,0
2563,3362,4913,-53,-73,-77,10240,0.54,-0.09,1.56,1.34,2627,3448,5000,140,214,199,73,98,0
2563,3364,4917,-65,-84,-86,10240,0.54,-0.09,1.56,1.34,2625,3445,4997,140,214,199,73,98,0
2563,3372,4924,-63,-81,-82,10240,0.54,-0.09,1.56,1.34,2623,3443,4995,140,214,199,73,98,0
2582,3413,4957,-56,-66,-68,10240,0.54,-0.09,1.56,1.34,2621,3442,4993,140,214,199,73,98,0
2591,3416,4961,-47,-51,-54,10240,0.54,-0.09,1.56,1.34,2620,3441,4992,140,214,199,73,98,0
2594,3416,4962,-38,-37,-41,10240,0.54,-0.09,1.56,1.34,2619,3440,4991,140,214,199,73,98,0
2598,3416,4964,-28,-25,-30,10240,0.54,-0.09,1.56,1.34,2619,3439,4990,140,214,199,73,98,0
2603,3416,4967,-22,-23,-27,10240,0.54,-0.09,1.56,1.34,2618,3438,4990,140,214,199,73,98,0
2630,3416,4984,-12,-22,-21,10240,0.54,-0.09,1.56,1.34,2618,3438,4990,140,214,199,73,98,0
2628,3430,4991,-3,-18,-13,10240,0.54,-0.09,1.56,1.34,2619,3437,4990,140,214,199,73,98,0
2637,3452,5009,6,-9,-2,10240,0.54,-0.09,1.56,1.34,2619,3438,4990,140,214,199,73,98,0
2648,3473,5026,16,4,12,10240,0.54,-0.09,1.56,1.34,2620,3439,4991,140,214,199,73,98,0
2659,3483,5032,23,20,23,10240,0.54,-0.09,1.56,1.34,2622,3441,4993,140,214,199,73,98,0
2675,3513,5058,33,40,39,10240,0.54,-0.09,1.56,1.34,2623,3443,4995,140,214,199,73,98,0
2685,3528,5073,44,57,53,10240,0.54,-0.09,1.56,1.34,2626,3446,4998,140,214,199,73,98,0
2688,3538,5084,52,70,65,10240,0.54,-0.09,1.56,1.34,2628,3449,5000,140,214,199,73,98,0
2695,3550,5094,59,84,78,10240,0.54,-0.09,1.56,1.34,2630,3452,5004,140,214,199,73,98,0
2709,3559,5105,65,93,86,10240,0.54,-0.09,1.56,1.34,2632,3456,5007,140,214,199,73,98,0
2717,3583,5123,71,103,96,10240,0.54,-0.09,1.56,1.34,2635,3460,5011,140,214,199,73,98,0
2727,3593,5123,78,113,102,10240,0.54,-0.09,1.56,1.34,2638,3464,5014,140,214,199,73,98,0
2734,3609,5123,85,123,106,10240,0.54,-0.09,1.56,1.34,2642,3469,5018,140,214,199,74,98,0
2741,3618,5123,89,134,106,10240,0.54,-0.09,1.56,1.34,2645,3474,5022,140,214,199,74,98,0
2710,3571,5100,85,126,97,10240,0.54,-0.09,1.56,1.34,2647,3477,5024,143,215,198,74,98,0
2666,3499,5024,67,99,70,10240,0.54,-0.09,1.57,1.37,2648,3478,5024,143,215,198,74,98,0
2626,3426,4965,39,52,30,10240,0.54,-0.09,1.57,1.37,2647,3476,5022,143,215,198,74,98,0
2582,3407,4931,0,0,-17,10240,0.54,-0.09,1.57,1.37,2645,3474,5019,143,215,198,74,98,0
2564,3375,4912,-36,-48,-62,10240,0.54,-0.09,1.57,1.37,2642,3471,5016,143,215,198,74,98,0
2562,3352,4897,-59,-82,-91,10240,0.54,-0.09,1.57,1.37,2639,3467,5012,143,215,198,74,98,0
2563,3348,4896,-73,-98,-104,10240,0.54,-0.09,1.57,1.37,2637,3463,5008,143,215,198,74,98,0
2563,3349,4899,-75,-109,-109,10240,0.54,-0.09,1.57,1.37,2634,3459,5004,143,215,198,74,98,0
2563,3358,4908,-72,-109,-106,10240,0.54,-0.09,1.57,1.37,2632,3456,5001,143,215,198,74,98,0
2562,3372,4922,-70,-101,-96,10240,0.54,-0.09,1.57,1.37,2630,3453,4998,143,215,198,74,98,0
2574,3396,4941,-65,-86,-82,10240,0.54,-0.09,1.57,1.37,2628,3451,4996,143,215,198,74,98,0
2575,3402,4944,-60,-70,-68,10240,0.54,-0.09,1.57,1.37,2626,3449,4995,143,215,198,74,98,0
2578,3414,4951,-54,-54,-56,10240,0.54,-0.09,1.57,1.37,2624,3448,4993,143,215,198,74,98,0
2589,3416,4957,-46,-41,-45,10240,0.54,-0.09,1.57,1.37,2623,3447,4992,143,215,198,74,98,0
2602,3416,4963,-38,-35,-39,10240,0.54,-0.09,1.57,1.37,2623,3446,4991,143,215,198,74,98,0
2630,3421,4986,-23,-29,-27,10240,0.54,-0.09,1.57,1.37,2623,3445,4991,143,215,198,74,98,0
2630,3444,4998,-10,-21,-15,10240,0.54,-0.09,1.57,1.37,2623,3445,4991,143,215,198,74,98,0
2643,3463,5013,3,-9,-1,10240,0.54,-0.09,1.57,1.37,2624,3446,4992,143,215,198,74,98,0
2652,3480,5026,15,6,14,10240,0.54,-0.09,1.57,1.37,2625,3447,4993,143,215,198,74,98,0
2662,3491,5034,22,22,25,10240,0.54,-0.09,1.57,1.37,2626,3449,4994,143,215,198,74,98,0
2680,3521,5060,33,40,39,10240,0.54,-0.09,1.57,1.37,2628,3451,4997,143,215,198,74,98,0
2685,3531,5069,42,55,51,10240,0.54,-0.09,1.57,1.37,2630,3454,4999,143,215,198,74,98,0
2689,3541,5079,50,68,62,10240,0.54,-0.09,1.57,1.37,2632,3456,5002,143,215,198,74,99,0
2698,3554,5092,57,81,74,10240,0.54,-0.09,1.57,1.37,2634,3460,5005,143,215,198,74,99,0
2715,3582,5104,63,93,82,10240,0.54,-0.09,1.57,1.37,2636,3464,5008,143,215,198,74,99,0
2726,3593,5123,71,105,92,10240,0.54,-0.09,1.57,1.37,2639,3468,5012,143,215,198,74,99,0
2735,3608,5123,80,118,100,10240,0.54,-0.09,1.57,1.37,2643,3473,5015,143,215,198,74,99,0
2733,3607,5123,86,127,104,10240,0.54,-0.09,1.57,1.37,2646,3477,5019,143,215,198,74,99,0
2708,3571,5098,81,120,99,10240,0.54,-0.09,1.57,1.37,2648,3480,5022,148,220,201,73,99,0
2629,3431,4968,55,77,59,10240,0.54,-0.09,1.58,1.40,2647,3479,5020,148,220,201,73,99,0
2588,3413,4935,18,27,11,10240,0.54,-0.09,1.58,1.40,2645,3477,5017,148,220,201,73,99,0
2565,3383,4914,-23,-27,-39,10240,0.54,-0.09,1.58,1.40,2642,3473,5014,148,220,201,73,99,0
2563,3368,4904,-57,-76,-85,10240,0.54,-0.09,1.58,1.40,2640,3470,5010,148,220,201,73,99,0
2562,3362,4902,-71,-90,-98,10240,0.54,-0.09,1.58,1.40,2637,3466,5006,148,220,201,73,99,0
2562,3362,4905,-75,-99,-102,10240,0.54,-0.09,1.58,1.40,2635,3463,5003,148,220,201,73,99,0
2562,3373,4917,-73,-98,-97,10240,0.54,-0.09,1.58,1.40,2632,3460,5000,148,220,201,73,99,0
2569,3389,4930,-69,-90,-88,10240,0.54,-0.09,1.58,1.40,2630,3457,4998,148,220,201,73,99,0
2575,3408,4942,-64,-76,-75,10240,0.54,-0.09,1.58,1.40,2628,3456,4996,148,220,201,73,99,0
2582,3416,4949,-57,-60,-62,10240,0.54,-0.09,1.58,1.40,2627,3455,4994,148,220,201,73,99,0
2594,3416,4954,-47,-48,-51,10240,0.54,-0.09,1.58,1.40,2626,3453,4993,148,220,201,73,99,0
2599,3416,4958,-39,-40,-43,10240,0.54,-0.09,1.58,1.40,2625,3452,4992,148,220,201,73,99,0
2612,3416,4965,-28,-36,-36,10240,0.54,-0.09,1.58,1.40,2624,3451,4991,148,220,201,73,99,0
2628,3417,4978,-16,-35,-28,10240,0.54,-0.09,1.58,1.40,2625,3450,4991,148,220,201,73,99,0
2631,3438,4987,-7,-28,-19,10240,0.54,-0.09,1.58,1.40,2625,3449,4990,148,220,201,73,99,0
2650,3478,5019,5,-12,-3,10240,0.54,-0.09,1.58,1.40,2626,3450,4991,148,220,201,73,99,0
2661,3488,5026,16,5,11,10240,0.54,-0.09,1.58,1.40,2627,3451,4993,148,220,201,73,99,0
2669,3506,5040,26,26,26,10240,0.54,-0.09,1.58,1.40,2628,3453,4994,148,220,201,73,99,0
2677,3518,5050,36,45,40,10240,0.54,-0.09,1.58,1.40,2630,3455,4996,148,220,201,73,99,0
2684,3530,5062,43,56,49,10240,0.54,-0.09,1.58,1.40,2632,3458,4998,148,220,201,73,99,0
2695,3550,5081,50,69,61,10240,0.54,-0.09,1.58,1.40,2634,3461,5001,148,220,201,73,99,0
2700,3559,5088,56,79,70,10240,0.54,-0.09,1.58,1.40,2636,3464,5004,148,220,201,73,99,0
2707,3571,5100,61,89,80,10240,0.54,-0.09,1.58,1.40,2638,3468,5007,148,220,201,73,99,0
2715,3584,5118,67,99,91,10240,0.54,-0.09,1.58,1.40,2641,3472,5011,148,220,201,73,99,0
2727,3597,5123,72,107,98,10240,0.54,-0.09,1.58,1.40,2644,3476,5014,148,220,201,73,99,0
2733,3607,5123,78,115,103,10240,0.54,-0.09,1.58,1.40,2647,3480,5018,148,220,201,73,99,0
2707,3568,5085,75,111,96,10240,0.54,-0.09,1.58,1.40,2649,3483,5020,149,219,202,74,99,0
2667,3502,5018,61,87,69,10240,0.54,-0.09,1.56,1.40,2649,3484,5020,149,219,202,74,99,0
2629,3432,4967,35,45,29,10240,0.54,-0.09,1.56,1.40,2649,3482,5019,149,219,202,74,99,0
2596,3416,4935,1,-2,-17,10240,0.54,-0.09,1.56,1.40,2647,3480,5016,149,219,202,74,99,0
2566,3385,4915,-32,-47,-58,10240,0.54,-0.09,1.56,1.40,2644,3477,5012,149,219,202,74,99,0
2563,3381,4914,-56,-74,-81,10240,0.54,-0.09,1.56,1.40,2641,3474,5009,149,219,202,74,99,0
2564,3382,4917,-70,-84,-90,10240,0.54,-0.09,1.56,1.40,2639,3470,5006,149,219,202,74,99,0
2570,3391,4926,-74,-87,-89,10240,0.54,-0.09,1.56,1.40,2637,3468,5003,149,219,202,74,99,0
2597,3416,4939,-64,-77,-80,10240,0.54,-0.09,1.56,1.40,2635,3466,5001,149,219,202,74,99,0
2604,3416,4955,-52,-65,-68,10240,0.54,-0.09,1.56,1.40,2634,3464,5000,149,219,202,74,99,0
2605,3416,4955,-40,-55,-56,10240,0.54,-0.09,1.56,1.40,2633,3463,4998,149,219,202,74,99,0
2606,3416,4956,-30,-47,-47,10240,0.54,-0.09,1.56,1.40,2632,3461,4997,149,219,202,74,99,0
2610,3416,4958,-26,-46,-41,10240,0.54,-0.09,1.56,1.40,2632,3460,4995,149,219,202,74,99,0
2630,3419,4977,-19,-43,-34,10240,0.54,-0.09,1.56,1.40,2631,3458,4995,149,219,202,74,99,0
2630,3438,4989,-12,-37,-25,10240,0.54,-0.09,1.56,1.40,2631,3458,4995,149,219,202,74,99,0
2638,3459,4997,-4,-25,-14,10240,0.54,-0.09,1.56,1.40,2632,3458,4995,149,219,202,74,99,0
2650,3478,5015,5,-9,0,10240,0.54,-0.09,1.56,1.40,2632,3458,4995,149,219,202,74,99,0
2662,3487,5021,13,7,10,10240,0.54,-0.09,1.56,1.40,2633,3459,4996,149,219,202,74,99,0
2680,3521,5050,24,27,24,10240,0.54,-0.09,1.56,1.40,2635,3461,4998,149,219,202,74,99,0
2686,3533,5061,35,44,39,10240,0.54,-0.09,1.56,1.40,2637,3464,5000,149,219,202,74,99,0
2690,3541,5071,43,58,51,10240,0.54,-0.09,1.56,1.40,2638,3466,5003,149,219,202,74,99,0
2697,3551,5077,50,71,63,10240,0.54,-0.09,1.56,1.40,2640,3469,5005,149,219,202,74,99,0
2703,3562,5088,54,79,70,10240,0.54,-0.09,1.56,1.40,2642,3472,5008,149,219,202,74,99,0
2720,3587,5119,61,89,82,10240,0.54,-0.09,1.56,1.40,2645,3476,5011,149,219,202,74,99,0
2730,3601,5123,68,101,92,10240,0.54,-0.09,1.56,1.40,2648,3480,5015,149,219,202,74,99,0
2735,3610,5123,75,111,100,10240,0.54,-0.09,1.56,1.40,2651,3485,5019,149,219,202,74,99,0
2723,3593,5113,77,115,102,10240,0.54,-0.09,1.56,1.40,2653,3488,5022,149,219,202,74,99,0
2690,3538,5050,68,99,82,10240,0.54,-0.09,1.56,1.40,2654,3490,5023,150,214,200,73,99,0
2612,3416,4945,37,51,36,10240,0.54,-0.09,1.54,1.42,2653,3488,5020,150,214,200,73,99,0
2577,3405,4921,-2,0,-13,10240,0.54,-0.09,1.54,1.42,2650,3485,5017,150,214,200,73,99,0
2565,3381,4909,-40,-51,-62,10240,0.54,-0.09,1.54,1.42,2648,3481,5013,150,214,200,73,99,0
2563,3372,4904,-69,-89,-95,10240,0.54,-0.09,1.54,1.42,2645,3478,5010,150,214,200,73,99,0
2562,3370,4904,-79,-97,-102,10240,0.54,-0.09,1.54,1.42,2642,3474,5006,150,214,200,73,99,0
2563,3379,4918,-80,-100,-99,10240,0.54,-0.09,1.54,1.42,2639,3471,5003,150,214,200,73,99,0
2574,3398,4932,-75,-93,-90,10240,0.54,-0.09,1.54,1.42,2637,3468,5001,150,214,200,73,99,0
2582,3416,4944,-68,-79,-77,10240,0.54,-0.09,1.54,1.42,2635,3467,4999,150,214,200,73,99,0
2588,3416,4946,-59,-65,-65,10240,0.54,-0.09,1.54,1.42,2634,3465,4997,150,214,200,73,99,0
2594,3416,4947,-50,-54,-56,10240,0.54,-0.09,1.54,1.42,2632,3463,4996,150,214,200,73,99,0
2600,3416,4954,-42,-48,-48,10240,0.54,-0.09,1.54,1.42,2631,3462,4994,150,214,200,73,99,0
2609,3416,4960,-34,-46,-43,10240,0.54,-0.09,1.54,1.42,2631,3460,4993,150,214,200,73,99,0
2622,3416,4970,-24,-45,-36,10240,0.54,-0.09,1.54,1.42,2630,3459,4992,150,214,200,73,99,0
2632,3430,4983,-14,-40,-26,10240,0.54,-0.09,1.54,1.42,2630,3458,4992,150,214,200,73,99,0
2646,3471,4994,-3,-25,-15,10240,0.54,-0.09,1.54,1.42,2631,3458,4992,150,214,200,73,99,0
2655,3483,5021,8,-8,0,10240,0.54,-0.09,1.54,1.42,2632,3459,4993,150,214,200,73,99,0
2664,3494,5028,17,10,13,10240,0.54,-0.09,1.54,1.42,2633,3460,4994,150,214,200,73,99,0
2672,3511,5043,26,30,27,10240,0.54,-0.09,1.54,1.42,2634,3462,4996,150,214,200,73,99,0
2680,3521,5051,34,41,40,10240,0.54,-0.09,1.54,1.42,2636,3464,4998,150,214,200,73,99,0
2687,3537,5061,40,52,48,10240,0.54,-0.09,1.54,1.42,2637,3466,5000,150,214,200,73,99,0
2693,3548,5076,46,64,58,10240,0.54,-0.09,1.54,1.42,2639,3469,5002,150,214,200,73,99,0
2699,3558,5084,51,73,66,10240,0.54,-0.09,1.54,1.42,2641,3472,5005,150,214,200,73,99,0
2706,3570,5099,56,82,76,10240,0.54,-0.09,1.54,1.42,2643,3475,5008,150,214,200,73,99,0
2715,3585,5118,61,91,87,10240,0.54,-0.09,1.54,1.42,2646,3479,5012,150,214,200,73,99,0
2717,3585,5122,64,97,95,10240,0.54,-0.09,1.54,1.42,2648,3483,5015,150,214,200,73,99,0
2689,3540,5054,60,89,85,10240,0.54,-0.09,1.54,1.42,2650,3484,5017,148,210,199,73,99,0
2645,3467,4990,43,61,56,10240,0.54,-0.09,1.52,1.41,2649,3484,5016,148,210,199,74,99,0
2597,3415,4936,13,18,10,10240,0.54,-0.09,1.52,1.41,2648,3482,5013,148,210,199,74,99,0
2564,3374,4901,-24,-33,-43,10240,0.54,-0.09,1.52,1.41,2645,3478,5009,148,210,199,74,99,0
2562,3332,4875,-54,-82,-85,10240,0.54,-0.09,1.52,1.41,2642,3473,5005,148,210,199,74,99,0
2562,3325,4873,-72,-113,-110,10240,0.54,-0.09,1.52,1.41,2639,3468,5001,148,210,199,74,99,0
2563,3320,4874,-78,-132,-122,10240,0.54,-0.09,1.52,1.41,2637,3463,4996,148,210,199,74,99,0
2563,3320,4876,-75,-141,-124,10240,0.54,-0.09,1.52,1.41,2634,3458,4992,148,210,199,74,99,0
2563,3328,4883,-72,-137,-118,10240,0.54,-0.09,1.52,1.41,2632,3454,4989,148,210,199,74,99,0
2563,3352,4904,-70,-126,-106,10240,0.54,-0.09,1.52,1.41,2630,3451,4986,148,210,199,74,99,0
2562,3357,4909,-68,-113,-94,10240,0.54,-0.09,1.52,1.41,2627,3448,4983,148,210,199,74,99,0
2562,3360,4912,-66,-100,-82,10240,0.54,-0.09,1.52,1.41,2625,3445,4981,148,210,199,74,99,0
2563,3365,4915,-63,-88,-72,10240,0.54,-0.09,1.52,1.41,2623,3442,4979,148,210,199,74,99,0
2562,3373,4922,-61,-80,-65,10240,0.54,-0.09,1.52,1.41,2621,3440,4977,148,210,199,74,99,0
2574,3406,4946,-57,-65,-54,10240,0.54,-0.09,1.52,1.41,2620,3439,4976,148,210,199,74,99,0
2590,3416,4958,-48,-49,-41,10240,0.54,-0.09,1.52,1.41,2619,3438,4975,148,210,199,74,99,0
2604,3416,4966,-37,-35,-27,10240,0.54,-0.09,1.52,1.41,2618,3437,4975,148,210,199,74,99,0
2623,3416,4977,-21,-24,-13,10240,0.54,-0.09,1.52,1.41,2618,3436,4975,148,210,199,74,99,0
2630,3425,4987,-6,-18,-3,10240,0.54,-0.09,1.52,1.41,2619,3436,4975,148,210,199,74,99,0
2640,3462,5010,5,-6,9,10240,0.54,-0.09,1.52,1.41,2619,3437,4977,148,210,199,74,99,0
2648,3478,5022,16,8,22,10240,0.54,-0.09,1.52,1.41,2620,3438,4978,148,210,199,74,99,0
2655,3482,5024,23,24,33,10240,0.54,-0.09,1.52,1.41,2622,3440,4980,148,210,199,74,99,0
2661,3489,5028,30,38,42,10240,0.54,-0.09,1.52,1.41,2623,3441,4981,148,210,199,74,99,0
2667,3503,5040,35,47,48,10240,0.54,-0.09,1.52,1.41,2624,3443,4983,148,210,199,74,99,0
2684,3531,5065,43,58,56,10240,0.54,-0.09,1.52,1.41,2626,3446,4986,148,210,199,74,99,0
2688,3541,5075,49,71,67,10240,0.54,-0.09,1.52,1.41,2628,3450,4989,148,210,199,74,99,0
2690,3546,5076,55,82,76,10240,0.54,-0.09,1.52,1.41,2630,3453,4992,148,210,199,74,99,0
2677,3520,5046,55,83,75,10240,0.54,-0.09,1.52,1.41,2632,3455,4994,148,210,199,74,99,0
2585,3454,4990,30,62,54,10240,0.40,-0.09,1.53,1.41,2630,3455,4993,144,214,199,74,99,0
2563,3356,4893,-1,15,9,10240,0.40,-0.09,1.53,1.41,2628,3452,4990,144,214,199,74,99,0
2562,3323,4871,-32,-39,-40,10240,0.40,-0.09,1.53,1.41,2626,3447,4986,144,214,199,74,99,0
2550,3302,4860,-61,-90,-84,10240,0.40,-0.09,1.53,1.41,2623,3442,4982,144,214,199,73,99,0
2538,3290,4854,-71,-126,-114,10240,0.40,-0.09,1.53,1.41,2621,3437,4978,144,214,199,73,99,0
2533,3284,4854,-76,-139,-120,10240,0.40,-0.09,1.53,1.41,2618,3432,4974,144,214,199,73,99,0
2538,3290,4863,-79,-143,-118,10240,0.40,-0.09,1.53,1.41,2615,3428,4970,144,214,199,73,99,0
2555,3306,4878,-75,-137,-110,10240,0.40,-0.09,1.53,1.41,2613,3424,4967,144,214,199,73,99,0
2563,3321,4890,-67,-125,-97,10240,0.40,-0.09,1.53,1.41,2611,3420,4964,144,214,199,73,99,0
2563,3329,4895,-57,-110,-84,10240,0.40,-0.09,1.53,1.41,2610,3417,4962,144,214,199,73,99,0
2563,3334,4899,-49,-96,-72,10240,0.40,-0.09,1.53,1.41,2608,3414,4960,144,214,199,73,99,0
2563,3341,4903,-46,-84,-64,10240,0.40,-0.09,1.53,1.41,2607,3412,4958,144,214,199,73,99,0
2563,3348,4909,-44,-75,-57,10240,0.40,-0.09,1.53,1.41,2605,3410,4956,144,214,199,73,99,0
2563,3361,4921,-43,-65,-49,10240,0.40,-0.09,1.53,1.41,2604,3408,4955,144,214,199,73,99,0
2563,3375,4932,-41,-53,-39,10240,0.40,-0.09,1.53,1.41,2602,3407,4954,144,214,199,73,99,0
2577,3413,4958,-36,-33,-24,10240,0.40,-0.09,1.53,1.41,2602,3407,4954,144,214,199,73,99,0
2593,3416,4966,-28,-16,-10,10240,0.40,-0.09,1.53,1.41,2601,3407,4955,144,214,199,73,99,0
2611,3416,4976,-15,-2,3,10240,0.40,-0.09,1.53,1.41,2602,3408,4956,144,214,199,73,99,0
2625,3416,4986,0,7,16,10240,0.40,-0.09,1.53,1.41,2602,3408,4957,144,214,199,73,99,0
2628,3424,4991,12,10,23,10240,0.40,-0.09,1.53,1.41,2603,3409,4958,144,214,199,73,99,0
2632,3453,5006,21,18,32,10240,0.40,-0.09,1.53,1.41,2604,3410,4959,144,214,199,73,99,0
2640,3465,5015,27,29,40,10240,0.40,-0.09,1.53,1.41,2605,3412,4961,144,214,199,73,99,0
2648,3479,5027,32,44,49,10240,0.40,-0.09,1.53,1.41,2607,3414,4963,144,214,199,73,99,0
2659,3488,5034,38,58,58,10240,0.40,-0.09,1.53,1.41,2609,3417,4966,144,214,199,73,99,0
2666,3507,5047,45,69,66,10240,0.40,-0.09,1.53,1.41,2611,3420,4968,144,214,199,73,99,0
2633,3446,4995,42,62,59,10240,0.40,-0.09,1.53,1.41,2611,3420,4969,139,213,196,73,99,0
2583,3408,4943,25,43,37,10240,0.40,-0.09,1.58,1.35,2610,3420,4968,139,213,196,73,99,0
2563,3355,4901,1,9,3,10240,0.40,-0.09,1.58,1.35,2609,3418,4966,139,213,196,73,99,0
2562,3325,4880,-24,-34,-36,10240,0.40,-0.09,1.58,1.35,2607,3415,4963,139,213,196,73,99,0
2551,3305,4868,-43,-67,-66,10240,0.40,-0.09,1.58,1.35,2605,3411,4960,139,213,196,73,99,0
2543,3296,4866,-51,-92,-82,10240,0.40,-0.09,1.58,1.35,2603,3407,4957,139,213,196,73,99,0
2548,3301,4872,-53,-102,-87,10240,0.40,-0.09,1.58,1.35,2601,3404,4954,139,213,196,73,99,0
2561,3315,4884,-51,-101,-83,10240,0.40,-0.09,1.58,1.35,2600,3401,4952,139,213,196,73,99,0
2563,3334,4899,-47,-91,-73,10240,0.40,-0.09,1.58,1.35,2599,3399,4950,139,213,196,73,99,0
2563,3349,4907,-40,-75,-60,10240,0.40,-0.09,1.58,1.35,2598,3397,4949,139,213,196,73,99,0
2563,3350,4911,-35,-61,-49,10240,0.40,-0.09,1.58,1.35,2596,3395,4947,139,213,196,73,99,0
2563,3351,4911,-34,-50,-41,10240,0.40,-0.09,1.58,1.35,2595,3394,4946,139,213,196,73,99,0
2563,3357,4917,-32,-43,-35,10240,0.40,-0.09,1.58,1.35,2594,3393,4945,139,213,196,73,99,0
2563,3367,4924,-31,-37,-30,10240,0.40,-0.09,1.58,1.35,2593,3392,4945,139,213,196,73,99,0
2567,3398,4947,-29,-24,-20,10240,0.40,-0.09,1.58,1.35,2592,3392,4945,139,213,196,73,99,0
2580,3416,4960,-24,-8,-8,10240,0.40,-0.09,1.58,1.35,2592,3393,4945,139,213,196,73,99,0
2599,3416,4968,-15,6,4,10240,0.40,-0.09,1.58,1.35,2592,3394,4946,139,213,196,73,99,0
2618,3416,4979,-1,18,17,10240,0.40,-0.09,1.58,1.35,2593,3394,4947,139,213,196,73,99,0
2629,3421,4990,13,23,27,10240,0.40,-0.09,1.58,1.35,2594,3395,4948,139,213,196,73,99,0
2630,3452,5004,25,31,37,10240,0.40,-0.09,1.58,1.35,2596,3397,4950,139,213,196,73,99,0
2639,3464,5014,34,42,47,10240,0.40,-0.09,1.58,1.35,2597,3399,4952,139,213,196,73,99,0
2646,3478,5023,39,55,56,10240,0.40,-0.09,1.58,1.35,2599,3402,4955,139,213,196,73,99,0
2655,3483,5027,44,68,63,10240,0.40,-0.09,1.58,1.35,2600,3405,4957,139,213,196,73,99,0
2663,3499,5039,51,77,69,10240,0.40,-0.09,1.58,1.35,2603,3408,4960,139,213,196,73,99,0
2672,3515,5050,57,87,76,10240,0.40,-0.09,1.58,1.35,2605,3411,4963,139,213,196,73,99,0
2654,3485,5019,57,86,72,10240,0.40,-0.09,1.58,1.35,2606,3414,4965,139,207,188,74,99,0
2619,3425,4969,46,69,56,10240,0.40,-0.09,1.60,1.41,2607,3414,4965,132,207,188,74,99,0
2570,3397,4928,22,42,27,10240,0.40,-0.09,1.60,1.41,2606,3414,4964,132,207,188,74,99,0
2563,3357,4896,-4,2,-10,10240,0.40,-0.09,1.60,1.41,2604,3412,4961,132,207,188,74,99,0
2562,3322,4878,-26,-37,-44,10240,0.40,-0.09,1.60,1.41,2603,3409,4959,132,207,188,74,99,0
2563,3317,4875,-39,-62,-65,10240,0.40,-0.09,1.60,1.41,2602,3406,4956,132,207,188,74,99,0
2562,3318,4878,-39,-79,-75,10240,0.40,-0.09,1.60,1.41,2600,3403,4953,132,207,188,74,99,0
2563,3328,4886,-38,-83,-75,10240,0.40,-0.09,1.60,1.41,2599,3400,4951,132,207,188,74,99,0
2562,3343,4899,-37,-75,-67,10240,0.40,-0.09,1.60,1.41,2598,3398,4949,132,207,188,74,99,0
2562,3364,4916,-36,-61,-55,10240,0.40,-0.09,1.60,1.41,2597,3397,4948,132,207,188,74,99,0
2563,3366,4916,-34,-47,-44,10240,0.40,-0.09,1.60,1.41,2595,3396,4947,132,207,188,74,99,0
2563,3366,4915,-33,-36,-36,10240,0.40,-0.09,1.60,1.41,2594,3395,4946,132,207,188,74,99,0
2563,3368,4917,-32,-29,-30,10240,0.40,-0.09,1.60,1.41,2593,3394,4945,132,207,188,74,99,0
2563,3375,4922,-30,-26,-28,10240,0.40,-0.09,1.60,1.41,2592,3394,4944,132,207,188,74,99,0
2569,3402,4942,-28,-16,-20,10240,0.40,-0.09,1.60,1.41,2592,3394,4944,132,207,188,74,99,0
2582,3416,4953,-22,-4,-11,10240,0.40,-0.09,1.60,1.41,2591,3395,4945,132,207,188,74,99,0
2599,3416,4961,-13,7,0,10240,0.40,-0.09,1.60,1.41,2591,3395,4945,132,207,188,74,99,0
2612,3416,4970,-1,17,11,10240,0.40,-0.09,1.60,1.41,2592,3396,4946,132,207,188,74,99,0
2626,3418,4980,13,20,20,10240,0.40,-0.09,1.60,1.41,2593,3397,4947,132,207,188,74,99,0
2627,3440,4993,23,26,29,10240,0.40,-0.09,1.60,1.41,2594,3398,4949,132,207,188,74,99,0
2629,3450,4993,29,33,36,10240,0.40,-0.09,1.60,1.41,2596,3400,4950,132,207,188,74,99,0
2637,3463,5002,34,43,42,10240,0.40,-0.09,1.60,1.41,2597,3402,4952,132,207,188,74,99,0
2647,3481,5018,38,57,50,10240,0.40,-0.09,1.60,1.41,2599,3405,4954,132,207,188,74,99,0
2657,3486,5019,44,66,55,10240,0.40,-0.09,1.60,1.41,2601,3407,4956,132,207,188,74,99,0
2659,3493,5022,50,74,60,10240,0.40,-0.09,1.60,1.41,2602,3410,4958,132,207,188,74,99,0
2639,3463,4993,49,72,56,10240,0.40,-0.09,1.60,1.41,2604,3412,4960,121,195,175,74,99,0
2601,3416,4949,36,54,37,10240,0.40,-0.09,1.62,1.32,2604,3412,4959,121,195,175,74,99,0
2563,3375,4904,12,25,8,10240,0.40,-0.09,1.62,1.32,2602,3411,4957,121,195,175,74,99,0
2563,3338,4877,-11,-12,-27,10240,0.40,-0.09,1.62,1.32,2601,3408,4955,121,195,175,74,99,0
2548,3304,4857,-32,-50,-58,10240,0.40,-0.09,1.62,1.32,2599,3405,4951,121,195,175,74,99,0
2542,3298,4855,-45,-77,-79,10240,0.40,-0.09,1.62,1.32,2597,3401,4948,121,195,175,74,99,0
2542,3298,4857,-49,-93,-88,10240,0.40,-0.09,1.62,1.32,2595,3398,4945,121,195,175,74,99,0
2552,3308,4867,-50,-97,-87,10240,0.40,-0.09,1.62,1.32,2594,3395,4943,121,195,175,74,99,0
2563,3329,4884,-45,-88,-78,10240,0.40,-0.09,1.62,1.32,2593,3393,4941,121,195,175,74,99,0
2563,3358,4905,-38,-71,-63,10240,0.40,-0.09,1.62,1.32,2592,3392,4939,121,195,175,74,99,0
2562,3362,4907,-32,-53,-49,10240,0.40,-0.09,1.62,1.32,2591,3391,4938,121,195,175,74,99,0
2563,3367,4912,-28,-37,-36,10240,0.40,-0.09,1.62,1.32,2590,3390,4937,121,195,175,74,99,0
2562,3371,4915,-28,-26,-28,10240,0.40,-0.09,1.62,1.32,2589,3389,4937,121,195,175,74,99,0
2565,3395,4922,-26,-16,-23,10240,0.40,-0.09,1.62,1.32,2588,3389,4936,121,195,175,74,99,0
2578,3415,4947,-21,-2,-12,10240,0.40,-0.09,1.62,1.32,2588,3390,4937,121,195,175,74,99,0
2598,3416,4957,-12,9,-1,10240,0.40,-0.09,1.62,1.32,2588,3391,4937,121,195,175,74,99,0
2615,3416,4968,0,20,11,10240,0.40,-0.09,1.62,1.32,2589,3392,4938,121,195,175,74,99,0
2629,3431,4983,16,28,25,10240,0.40,-0.09,1.62,1.32,2591,3393,4940,121,195,175,74,99,0
2641,3471,5007,30,40,39,10240,0.40,-0.09,1.62,1.32,2592,3396,4942,121,195,175,74,99,0
2649,3485,5019,42,55,53,10240,0.40,-0.09,1.62,1.32,2594,3399,4945,121,195,175,74,99,0
2657,3488,5019,50,71,63,10240,0.40,-0.09,1.62,1.32,2596,3402,4947,121,195,175,74,99,0
2663,3502,5029,57,86,72,10240,0.40,-0.09,1.62,1.32,2598,3405,4950,121,195,175,74,99,0
2671,3516,5041,62,94,78,10240,0.40,-0.09,1.62,1.32,2601,3409,4953,121,195,175,74,99,0
2686,3542,5066,69,104,87,10240,0.40,-0.09,1.62,1.32,2604,3413,4957,121,195,175,74,99,0
2688,3546,5067,74,115,95,10240,0.40,-0.09,1.62,1.32,2607,3418,4960,121,195,175,74,99,0
2674,3519,5036,74,115,94,10240,0.40,-0.09,1.62,1.32,2609,3421,4963,121,195,177,74,99,0
2637,3457,4987,63,97,78,10240,0.40,-0.09,1.60,1.30,2610,3422,4964,122,199,177,74,99,0
2586,3411,4933,37,62,43,10240,0.40,-0.09,1.60,1.30,2609,3422,4963,122,199,177,74,99,0
2563,3333,4873,6,9,-5,10240,0.40,-0.09,1.60,1.30,2607,3419,4960,122,199,177,74,99,0
2556,3313,4864,-22,-41,-46,10240,0.40,-0.09,1.60,1.30,2606,3415,4956,122,199,177,74,99,0
2545,3302,4858,-44,-77,-76,10240,0.40,-0.09,1.60,1.30,2604,3412,4953,122,199,177,74,99,0
2540,3297,4857,-53,-102,-91,10240,0.40,-0.09,1.60,1.30,2601,3408,4950,122,199,177,74,99,0
2539,3298,4861,-57,-107,-91,10240,0.40,-0.09,1.60,1.30,2599,3404,4947,122,199,177,74,99,0
2563,3329,4889,-53,-100,-82,10240,0.40,-0.09,1.60,1.30,2598,3402,4945,122,199,177,74,99,0
2562,3341,4898,-47,-87,-70,10240,0.40,-0.09,1.60,1.30,2597,3400,4943,122,199,177,74,99,0
2563,3351,4906,-40,-71,-55,10240,0.40,-0.09,1.60,1.30,2596,3398,4942,122,199,177,74,99,0
2563,3359,4912,-33,-54,-41,10240,0.40,-0.09,1.60,1.30,2595,3397,4941,122,199,177,74,99,0
2563,3367,4919,-32,-43,-32,10240,0.40,-0.09,1.60,1.30,2594,3396,4940,122,199,177,74,99,0
2563,3388,4938,-31,-30,-22,10240,0.40,-0.09,1.60,1.30,2593,3395,4940,122,199,177,74,99,0
2569,3409,4951,-29,-15,-10,10240,0.40,-0.09,1.60,1.30,2592,3396,4941,122,199,177,74,99,0
2590,3416,4964,-21,0,2,10240,0.40,-0.09,1.60,1.30,2592,3396,4942,122,199,177,74,99,0
2611,3416,4978,-9,11,16,10240,0.40,-0.09,1.60,1.30,2592,3397,4943,122,199,177,74,99,0
2626,3425,4993,6,19,29,10240,0.40,-0.09,1.60,1.30,2594,3398,4944,122,199,177,74,99,0
2641,3475,5025,23,35,46,10240,0.40,-0.09,1.60,1.30,2595,3401,4947,122,199,177,74,99,0
2651,3483,5032,37,50,61,10240,0.40,-0.09,1.60,1.30,2597,3403,4950,122,199,177,74,99,0
2661,3501,5048,48,68,76,10240,0.40,-0.09,1.60,1.30,2599,3407,4953,122,199,177,74,99,0
2667,3512,5058,57,87,89,10240,0.40,-0.09,1.60,1.30,2601,3410,4957,122,199,177,74,99,0
2682,3527,5072,65,97,97,10240,0.40,-0.09,1.60,1.30,2604,3414,4961,122,199,177,74,99,0
2688,3551,5101,71,110,110,10240,0.40,-0.09,1.60,1.30,2607,3419,4965,122,199,177,74,99,0
2701,3569,5120,79,123,124,10240,0.40,-0.09,1.60,1.30,2610,3424,4970,122,199,177,74,99,0
2713,3586,5123,87,136,136,10240,0.40,-0.09,1.60,1.30,2613,3429,4975,122,199,177,75,99,0
2717,3591,5123,93,147,144,10240,0.40,-0.09,1.60,1.30,2617,3434,4980,122,199,177,75,99,0
2663,3505,5052,84,131,127,10240,0.40,-0.09,1.60,1.30,2618,3437,4983,129,213,191,75,99,0
2616,3428,4993,60,93,92,10240,0.40,-0.09,1.62,1.29,2618,3436,4983,129,213,191,75,99,0
2565,3392,4951,22,43,47,10240,0.40,-0.09,1.62,1.29,2617,3435,4982,129,213,191,75,99,0
2562,3347,4924,-15,-17,-2,10240,0.40,-0.09,1.62,1.29,2615,3432,4980,129,213,191,75,99,0
2557,3319,4911,-40,-61,-36,10240,0.40,-0.09,1.62,1.29,2613,3428,4978,129,213,191,75,99,0
2530,3288,4895,-60,-93,-58,10240,0.40,-0.09,1.62,1.29,2610,3424,4975,129,213,191,75,99,0
2524,3282,4894,-68,-116,-70,10240,0.40,-0.09,1.62,1.29,2607,3419,4972,129,213,191,75,99,0
2525,3284,4899,-74,-128,-74,10240,0.40,-0.09,1.62,1.29,2605,3414,4970,129,213,191,75,99,0
2536,3298,4914,-77,-129,-70,10240,0.40,-0.09,1.62,1.29,2602,3411,4968,129,213,191,75,99,0
2552,3316,4931,-69,-117,-59,10240,0.40,-0.09,1.62,1.29,2601,3407,4967,129,213,191,75,99,0
2563,3330,4945,-57,-102,-45,10240,0.40,-0.09,1.62,1.29,2599,3405,4966,129,213,191,75,99,0
2563,3335,4949,-46,-86,-32,10240,0.40,-0.09,1.62,1.29,2598,3402,4966,129,213,191,75,99,0
2563,3342,4955,-38,-72,-21,10240,0.40,-0.09,1.62,1.29,2597,3400,4965,129,213,191,75,99,0
2563,3351,4962,-34,-62,-12,10240,0.40,-0.09,1.62,1.29,2596,3399,4965,129,213,191,75,99,0
2562,3364,4973,-33,-51,-5,10240,0.40,-0.09,1.62,1.29,2595,3398,4965,129,213,191,75,99,0
2563,3398,5001,-32,-35,7,10240,0.40,-0.09,1.62,1.29,2594,3398,4967,129,213,191,75,99,0
2567,3416,5014,-30,-16,21,10240,0.40,-0.09,1.62,1.29,2593,3398,4968,129,213,191,75,99,0
2589,3416,5022,-23,0,35,10240,0.40,-0.09,1.62,1.29,2593,3399,4970,129,213,191,75,99,0
2606,3416,5032,-12,13,48,10240,0.40,-0.09,1.62,1.29,2593,3399,4972,129,213,191,75,99,0
2611,3422,5044,0,18,57,10240,0.40,-0.09,1.62,1.29,2594,3400,4974,129,213,191,75,99,0
2631,3455,5072,15,27,69,10240,0.40,-0.09,1.62,1.29,2595,3402,4978,129,213,191,75,99,0
2638,3470,5089,27,39,83,10240,0.40,-0.09,1.62,1.29,2596,3404,4981,129,213,191,75,99,0
2645,3485,5108,35,54,98,10240,0.40,-0.09,1.62,1.29,2598,3407,4986,129,213,191,75,99,0
2655,3501,5123,45,72,114,10240,0.40,-0.09,1.62,1.29,2600,3410,4990,129,213,191,75,99,0
2678,3518,5123,55,84,122,10240,0.40,-0.09,1.62,1.29,2602,3414,4995,129,213,191,75,98,0
2684,3547,5123,64,100,126,10240,0.40,-0.09,1.62,1.29,2605,3418,4999,129,213,191,75,98,0
2684,3546,5123,71,112,126,10240,0.40,-0.09,1.62,1.29,2608,3422,5003,129,213,191,75,98,0
2661,3511,5123,70,110,122,10240,0.40,-0.09,1.62,1.29,2610,3425,5007,134,220,193,75,98,0
2614,3434,5071,52,86,105,10240,0.40,-0.09,1.67,1.33,2610,3426,5009,134,220,193,75,98,0
2558,3340,5000,20,33,72,10240,0.40,-0.09,1.67,1.33,2608,3423,5009,134,220,193,75,98,0
2526,3295,4971,-18,-28,33,10240,0.40,-0.09,1.67,1.33,2605,3419,5008,134,220,193,75,98,0
2505,3270,4953,-55,-85,-9,10240,0.40,-0.09,1.67,1.33,2602,3414,5006,134,220,193,75,98,0
2492,3252,4941,-83,-126,-40,10240,0.40,-0.09,1.67,1.33,2598,3408,5004,134,220,193,75,98,0
2483,3241,4935,-98,-146,-54,10240,0.40,-0.09,1.67,1.33,2594,3403,5001,134,220,193,75,98,0
2483,3242,4941,-105,-154,-60,10240,0.40,-0.09,1.67,1.33,2591,3397,4999,134,220,193,75,98,0
2492,3254,4952,-105,-153,-58,10240,0.40,-0.09,1.67,1.33,2587,3393,4998,134,220,193,75,98,0
2498,3263,4962,-100,-145,-51,10240,0.40,-0.09,1.67,1.33,2584,3388,4996,134,220,193,75,98,0
2503,3271,4969,-92,-133,-41,10240,0.40,-0.09,1.67,1.33,2582,3384,4996,134,220,193,75,98,0
2503,3273,4972,-84,-121,-32,10240,0.40,-0.09,1.67,1.33,2579,3381,4995,134,220,193,75,98,0
2513,3285,4985,-76,-109,-23,10240,0.40,-0.09,1.67,1.33,2577,3377,4994,134,220,193,75,98,0
2523,3298,4998,-67,-97,-14,10240,0.40,-0.09,1.67,1.33,2575,3375,4995,134,220,193,75,98,0
2538,3315,5015,-57,-83,-2,10240,0.40,-0.09,1.67,1.33,2574,3373,4995,134,220,193,75,98,0
2550,3334,5030,-43,-66,12,10240,0.40,-0.09,1.67,1.33,2573,3371,4996,134,220,193,75,98,0
2563,3354,5047,-30,-47,26,10240,0.40,-0.09,1.67,1.33,2573,3371,4998,134,220,193,75,98,0
2563,3392,5075,-19,-23,44,10240,0.40,-0.09,1.67,1.33,2572,3372,5001,134,220,193,75,98,0
2563,3413,5093,-12,1,61,10240,0.40,-0.09,1.67,1.33,2572,3373,5004,134,220,193,75,98,0
2562,3416,5095,-9,21,75,10240,0.40,-0.09,1.67,1.33,2572,3374,5007,134,220,193,75,98,0
