3279,1451,894,826
3279,1451,894,826
3279,1451,894,826
3279,1451,894,826
3278,1450,894,826
3277,1450,894,826
3276,1449,894,825
3276,1449,894,825
3274,1449,893,825
3273,1448,893,825
3274,1448,893,825
3272,1448,893,824
3270,1447,892,823
3270,1447,892,823
3271,1447,893,824
3271,1447,893,823
3272,1447,893,824
3273,1447,893,824
3271,1446,893,823
3269,1446,893,823
3269,1446,893,823
3269,1445,892,822
3267,1444,891,822
3265,1444,891,822
3266,1444,891,822
3264,1444,891,821
3263,1443,891,821
3263,1443,891,821
3263,1443,891,821
3260,1442,890,821
3261,1442,890,821
3261,1442,890,821
3259,1441,890,820
3259,1441,890,820
3259,1441,890,820
3258,1440,890,820
3256,1439,889,819
3258,1440,890,819
3257,1439,890,819
3256,1439,890,819
3258,1440,890,820
3257,1439,890,819
3254,1438,889,818
3253,1438,889,818
3252,1437,889,818
3250,1436,888,817
3250,1436,888,817
3249,1436,888,817
3247,1435,887,816
3246,1435,887,816
3247,1435,888,817
3246,1434,887,816
3245,1434,887,816
3246,1434,887,816
3245,1433,887,816
3244,1433,887,816
3244,1433,887,816
3245,1433,887,816
3244,1432,887,815
3244,1433,887,816
3245,1433,888,816
3244,1432,887,815
3244,1432,888,815
3245,1432,888,816
3244,1432,888,815
3244,1431,888,815
3243,1431,888,815
3241,1430,887,814
3239,1430,887,814
3239,1430,887,814
3239,1429,886,814
3238,1429,886,814
3238,1429,886,814
3237,1428,886,814
3237,1428,886,814
3236,1428,886,814
3236,1428,886,813
3235,1427,886,813
3235,1427,886,813
3235,1427,886,813
3235,1427,886,813
3235,1427,886,813
3235,1427,886,813
3237,1428,886,813
3239,1428,887,814
3240,1429,887,814
3240,1429,887,814
3241,1429,888,814
3241,1429,888,814
3242,1430,888,814
3242,1430,888,814
3242,1430,888,814
3244,1431,888,815
3244,1431,888,815
3245,1431,889,815
3245,1432,889,815
3245,1432,889,815
3246,1432,889,816
3247,1432,889,816
3247,1432,889,816
3248,1433,890,816
3249,1433,890,816
3249,1433,890,816
3252,1434,891,817
3252,1435,891,817
3252,1434,891,817
3253,1435,891,817
3256,1436,892,818
3256,1436,892,818
3257,1436,892,818
3259,1437,893,818
3259,1437,893,818
3257,1437,892,818
3257,1437,892,818
3258,1437,892,818
3256,1437,892,817
3256,1437,892,817
3258,1438,892,818
3257,1437,892,818
3258,1438,892,818
3260,1438,893,818
3261,1439,893,819
3260,1439,893,818
3262,1439,894,819
3263,1440,894,819
3263,1440,894,819
3264,1440,894,819
3266,1441,895,820
3266,1441,895,820
3266,1441,895,820
3269,1442,896,820
3270,1442,896,821
3271,1442,896,821
3273,1443,897,821
3274,1444,897,822
3272,1443,897,821
3272,1443,897,821
3273,1444,897,821
3272,1444,897,821
3272,1443,897,821
3275,1444,897,822
3276,1445,898,822
3276,1445,898,822
3278,1446,898,823
3279,1446,899,823
3279,1446,898,823
3280,1446,899,823
3282,1447,899,824
3282,1447,899,824
3283,1447,900,824
3285,1448,900,825
3286,1449,901,825
3286,1449,901,825
3288,1449,901,826
3289,1450,902,826
3290,1450,902,826
3292,1450,902,826
3293,1451,903,827
3292,1451,902,826
3291,1450,902,826
3291,1451,902,826
3291,1451,902,826
3291,1451,902,826
3291,1451,902,826
3292,1451,902,827
3292,1451,902,827
3293,1451,902,827
3293,1452,902,827
3293,1452,902,827
3293,1451,902,827
3292,1452,902,827
3293,1452,902,827
3292,1451,902,826
3291,1451,902,826
3290,1451,901,826
3290,1451,901,826
3290,1451,901,826
3291,1451,902,826
3292,1451,902,827
3293,1452,902,827
3293,1452,902,827
3294,1452,903,827
3292,1452,902,826
3291,1451,902,826
3290,1451,901,826
3290,1451,901,826
3289,1451,901,826
3289,1451,901,826
3288,1450,901,826
3288,1450,901,826
3288,1450,900,826
3288,1450,901,826
3288,1450,900,825
3287,1450,900,825
3287,1450,900,825
3286,1449,900,825
3285,1449,900,825
3284,1449,900,825
3283,1448,899,824
3283,1448,899,824
3283,1448,899,824
3283,1448,899,824
3282,1447,899,824
3281,1447,899,823
3279,1446,898,823
3276,1445,897,822
3274,1444,897,822
3273,1444,896,822
3271,1443,896,821
3270,1443,895,821
3269,1442,895,821
3269,1442,895,821
3267,1441,894,820
3266,1441,894,820
3266,1441,894,820
3264,1440,894,820
3263,1440,893,819
3264,1440,894,819
3263,1440,894,819
3262,1439,893,819
3262,1439,893,819
3261,1438,893,819
3259,1437,892,818
3259,1437,893,818
3260,1437,893,818
3257,1436,892,818
3255,1435,892,817
3255,1435,892,817
3252,1434,891,816
3248,1432,890,815
3248,1433,890,816
3245,1431,889,815
3241,1430,888,814
3242,1430,888,814
3241,1429,888,814
3237,1428,887,813
3238,1428,887,813
3238,1428,887,813
3234,1426,886,812
3233,1426,885,812
3234,1426,886,812
3230,1425,885,811
3227,1423,884,810
3227,1424,884,810
3228,1424,883,810
3225,1422,882,809
3221,1421,882,809
3223,1421,883,809
3222,1421,882,809
3218,1419,881,808
3217,1419,881,808
3216,1419,881,807
3210,1416,879,806
3208,1416,878,805
3208,1416,878,805
3204,1414,877,804
3201,1413,876,804
3203,1413,877,804
3202,1413,877,804
3197,1411,875,803
3198,1411,875,803
3197,1411,875,803
3192,1409,874,801
3192,1409,874,801
3192,1409,874,801
3189,1407,873,800
3186,1406,872,800
3187,1407,873,800
3185,1406,872,800
3183,1404,872,799
3184,1405,872,799
3183,1404,872,799
3180,1403,871,798
3178,1402,870,798
3178,1402,870,797
3174,1400,869,797
3172,1400,869,796
3172,1400,869,796
3170,1399,868,796
3167,1398,867,795
3168,1397,867,795
3161,1396,866,794
3151,1392,862,790
3143,1390,860,788
3139,1389,859,787
3134,1388,857,786
3132,1387,857,785
3131,1386,856,785
3125,1384,855,783
3121,1383,853,782
3121,1383,853,782
3121,1383,854,782
3122,1382,854,783
3125,1383,855,783
3126,1383,856,784
3123,1382,855,783
3123,1382,855,783
3125,1382,855,784
3128,1383,856,785
3132,1384,858,786
3137,1385,859,788
3142,1387,861,789
3150,1389,863,792
3159,1392,866,795
3170,1395,869,798
3174,1396,871,799
3178,1397,872,800
3182,1398,873,801
3185,1399,874,802
3186,1400,874,802
3191,1402,876,804
3196,1403,877,805
3201,1405,879,806
3207,1407,881,808
3214,1409,883,810
3219,1410,884,812
3219,1411,885,812
3221,1411,886,813
3223,1412,886,812
3222,1412,886,811
3218,1411,884,811
3218,1411,884,811
3219,1412,884,811
3216,1411,883,811
3215,1411,883,810
3216,1412,883,811
3215,1412,882,810
3211,1411,881,809
3209,1411,880,808
3205,1411,879,807
3196,1408,876,804
3189,1407,874,802
3189,1408,874,802
3189,1408,873,802
3189,1408,874,802
3195,1410,875,803
3201,1412,877,805
3204,1413,878,806
3211,1415,880,808
3220,1418,883,811
3219,1418,883,810
3217,1417,882,810
3219,1418,883,810
3221,1419,883,810
3220,1419,883,810
3226,1420,884,812
3232,1423,886,814
3238,1424,888,816
3246,1426,891,818
3255,1429,893,821
3258,1430,894,822
3257,1429,894,821
3258,1430,894,822
3259,1431,894,822
3257,1430,894,821
3260,1432,895,822
3266,1434,896,824
3268,1434,897,824
3266,1434,896,824
3267,1435,896,824
3266,1435,896,823
3264,1434,895,823
3266,1435,896,823
3269,1436,897,824
3270,1437,897,824
3276,1438,899,826
3283,1441,901,828
3286,1441,902,829
3286,1441,902,829
3287,1442,902,829
3288,1443,902,830
3288,1443,902,830
3291,1444,903,831
3294,1445,904,831
3296,1446,904,832
3299,1446,905,833
3302,1448,906,834
3302,1448,906,834
3302,1448,906,834
3303,1448,906,834
3302,1448,906,833
3299,1447,905,833
3299,1447,905,833
3301,1448,906,833
3302,1449,906,833
3303,1449,906,834
3305,1450,907,834
3304,1450,907,834
3301,1449,906,833
3301,1449,905,832
3299,1449,905,832
3299,1448,904,832
3297,1448,904,832
3296,1448,904,832
3296,1448,903,832
3295,1448,903,832
3295,1448,903,832
3294,1448,903,831
3288,1446,901,829
3280,1444,898,827
3271,1442,895,824
3265,1441,893,822
3263,1440,892,822
3263,1441,893,822
3266,1441,893,822
3270,1442,895,824
3274,1443,896,825
3278,1444,898,826
3281,1445,899,827
3283,1445,899,828
3285,1446,900,828
3285,1446,900,828
3283,1445,899,828
3284,1445,900,828
3285,1445,900,828
3284,1445,899,828
3283,1444,899,828
3282,1444,899,828
3282,1444,899,828
3282,1444,899,828
3284,1444,899,828
3283,1444,899,828
3282,1444,899,828
3281,1443,899,828
3280,1443,898,827
3278,1442,898,826
3278,1442,898,826
3278,1442,898,827
3277,1442,898,826
3278,1442,898,827
3280,1442,899,827
3278,1442,898,827
3276,1441,898,826
3275,1441,897,825
3272,1440,896,825
3270,1439,896,824
3269,1439,895,824
3267,1438,895,823
3264,1437,894,823
3263,1437,893,822
3262,1437,893,822
3260,1436,893,822
3259,1435,892,821
3258,1435,892,821
3257,1434,892,821
3256,1434,891,820
3257,1434,892,820
3256,1434,892,820
3256,1433,892,820
3256,1433,892,820
3256,1433,892,820
3254,1432,891,820
3254,1433,892,820
3254,1432,891,819
3250,1431,890,818
3248,1430,890,818
3247,1430,889,817
3246,1429,889,817
3247,1430,890,818
3249,1430,890,818
3247,1429,890,818
3244,1428,889,817
3244,1429,889,817
3245,1429,889,817
3245,1428,889,817
3244,1428,889,818
3246,1428,890,818
3246,1428,890,818
3244,1427,889,817
3244,1427,889,817
3242,1427,889,817
3238,1425,887,815
3236,1424,887,815
3237,1425,887,815
3237,1425,887,815
3238,1424,888,816
3240,1425,888,816
3239,1425,888,816
3236,1423,887,815
3234,1423,887,814
3230,1422,885,813
3224,1420,883,811
3222,1419,883,811
3225,1420,884,812
3228,1420,885,813
3235,1422,887,815
3240,1423,889,817
3239,1422,889,816
3237,1421,888,816
3238,1422,889,816
3240,1422,889,817
3243,1423,890,818
3245,1423,891,818
3245,1423,891,818
3241,1422,890,817
3240,1421,890,817
3240,1421,890,817
3239,1421,890,816
3239,1420,890,816
3239,1420,890,816
3238,1420,890,816
3236,1419,889,816
3236,1419,889,816
3236,1419,889,816
3236,1419,889,816
3237,1419,890,816
3239,1419,890,817
3240,1419,891,817
3243,1420,891,818
3246,1420,893,819
3249,1421,894,820
3251,1421,894,821
3252,1421,895,821
3253,1421,895,821
3251,1421,894,820
3247,1420,893,819
3243,1419,892,818
3241,1418,891,817
3242,1419,892,818
3244,1420,892,818
3247,1421,893,819
3249,1421,894,820
3250,1422,894,820
3250,1422,894,820
3250,1422,894,820
3251,1422,894,820
3252,1423,895,820
3252,1422,895,820
3252,1423,894,820
3253,1423,895,820
3253,1424,895,820
3252,1423,894,820
3252,1424,894,820
3252,1424,894,820
3252,1424,894,820
3252,1424,894,819
3251,1424,894,819
3250,1424,894,818
3247,1423,893,817
3243,1422,891,817
3242,1422,891,816
3243,1423,891,817
3242,1422,891,816
3240,1422,890,815
3239,1422,890,815
3238,1422,890,815
3237,1422,889,814
3237,1422,889,814
3236,1422,889,814
3234,1421,888,814
3235,1422,888,814
3234,1422,888,813
3231,1421,887,812
3231,1421,887,812
3234,1422,888,813
3236,1423,888,814
3237,1423,889,814
3240,1424,890,815
3242,1425,890,815
3242,1425,890,815
3242,1425,890,815
3245,1426,891,816
3245,1426,891,816
3248,1427,892,817
3252,1428,893,818
3255,1429,894,819
3255,1429,895,819
3258,1430,895,819
3259,1431,896,820
3259,1430,896,820
3260,1431,896,820
3261,1432,896,820
3261,1431,896,820
3259,1431,895,820
3261,1431,896,820
3261,1432,896,820
3261,1432,896,820
3263,1432,896,821
3266,1434,897,822
3267,1434,898,822
3269,1434,898,822
3271,1435,899,823
3272,1436,899,823
3272,1435,899,823
3273,1436,900,824
3274,1436,900,824
3274,1436,900,824
3275,1437,900,824
3278,1438,901,825
3277,1438,901,824
3277,1438,901,824
3279,1438,901,825
3280,1439,902,825
3279,1438,901,825
3280,1439,902,825
3281,1439,902,826
3280,1439,902,825
3280,1439,902,825
3281,1439,902,826
3280,1439,901,825
3280,1439,901,825
3282,1439,902,826
3285,1440,903,827
3287,1441,904,827
3289,1441,904,828
3290,1442,905,828
3290,1442,905,828
3290,1442,905,828
3290,1442,905,828
3290,1442,905,828
3290,1442,905,828
3290,1442,905,828
3290,1442,905,828
3290,1442,905,828
3289,1442,904,828
3288,1441,904,827
3288,1441,904,827
3288,1441,904,827
3287,1441,904,827
3287,1441,904,828
3287,1441,904,828
3287,1441,903,827
3287,1441,903,828
3287,1441,903,828
3286,1441,903,827
3286,1441,903,827
3285,1440,903,827
3284,1440,903,827
3283,1440,902,827
3282,1440,902,826
3281,1439,902,826
3280,1439,901,826
3280,1439,901,826
3279,1439,901,825
3280,1439,901,826
3280,1439,901,826
3279,1438,901,825
3279,1438,901,825
3277,1438,901,825
3277,1437,901,825
3276,1437,900,825
3276,1437,900,825
3275,1437,900,825
3274,1436,900,824
3273,1436,899,824
3272,1436,899,824
3272,1436,899,824
3271,1435,899,824
3271,1435,899,824
3271,1435,898,824
3270,1435,898,823
3269,1435,898,823
3269,1435,898,823
3268,1434,898,823
3267,1434,897,823
3267,1434,897,823
3267,1434,897,823
3266,1433,897,822
3267,1433,897,823
3266,1433,897,823
3265,1433,897,822
3263,1432,897,822
3262,1432,896,821
3261,1431,896,821
3260,1431,895,821
3260,1431,895,821
3260,1431,895,821
3258,1430,895,821
3259,1430,895,821
3258,1430,895,821
3258,1429,894,821
3258,1429,895,821
3259,1430,895,821
3260,1430,895,822
3262,1430,896,822
3265,1431,897,823
3265,1431,897,823
3262,1430,896,822
3258,1429,895,821
3258,1427,893,819
3251,1426,891,818
3246,1426,891,817
3245,1425,891,818
3247,1426,891,818
3249,1426,892,818
3252,1427,893,820
3255,1427,894,820
3255,1427,894,820
3255,1427,894,821
3255,1427,894,821
3253,1426,894,820
3252,1426,893,820
3250,1425,893,820
3248,1425,892,819
3245,1424,891,818
3245,1424,891,818
3243,1423,891,818
3241,1422,890,817
3239,1422,889,817
3239,1422,889,816
3237,1421,889,816
3236,1420,888,816
3236,1421,888,816
3235,1420,888,815
3235,1420,888,815
3236,1420,888,816
3237,1420,889,816
3237,1420,889,816
3236,1420,888,816
3235,1420,888,815
3233,1419,888,815
3231,1418,887,814
3229,1418,886,814
3227,1417,886,813
3226,1417,886,813
3226,1416,885,813
3225,1416,885,813
3224,1416,885,813
3224,1415,885,813
3222,1415,884,813
3221,1414,884,812
3220,1414,884,812
3219,1414,883,812
3219,1414,883,812
3219,1414,883,812
3218,1413,883,812
3217,1413,883,811
3215,1412,882,811
3214,1412,882,810
3213,1412,882,810
3214,1412,882,810
3214,1412,882,810
3214,1412,882,810
3213,1412,882,810
3211,1411,881,809
3210,1411,881,809
3209,1411,880,809
3209,1411,880,809
3209,1411,880,809
3210,1411,880,809
3210,1411,880,809
3210,1411,880,809
3211,1412,881,809
3211,1412,881,809
3211,1412,880,809
3211,1412,881,809
3211,1412,881,809
3212,1413,881,810
3213,1413,881,810
3214,1413,882,810
3215,1414,882,810
3216,1414,882,811
3216,1415,882,811
3218,1415,883,811
3218,1415,883,811
3220,1415,883,812
3222,1416,884,812
3222,1416,884,812
3223,1416,884,812
3224,1416,884,812
3224,1417,885,813
3224,1416,884,813
3223,1416,884,813
3225,1417,885,813
3225,1417,885,813
3226,1417,885,813
3227,1418,885,814
3228,1418,885,814
3228,1418,886,814
3229,1418,886,814
3229,1419,886,814
3230,1419,886,814
3230,1419,886,815
3232,1420,887,815
3233,1420,887,815
3233,1420,887,815
3235,1420,888,816
3237,1421,888,816
3237,1421,888,816
3237,1421,888,816
3238,1422,889,817
3238,1421,888,816
3237,1421,888,816
3236,1421,888,816
3235,1421,888,816
3233,1421,887,815
3232,1420,886,815
3230,1420,886,814
3225,1419,884,813
3221,1418,883,812
3221,1418,883,811
3224,1419,884,813
3232,1421,886,815
3242,1423,889,818
3248,1425,891,820
3250,1425,892,820
3244,1424,890,819
3235,1422,887,816
3228,1420,885,813
3227,1420,884,813
3235,1422,887,816
3247,1425,891,819
3254,1427,893,821
3257,1428,894,822
3254,1427,893,821
3248,1426,891,819
3242,1424,889,818
3238,1423,888,816
3233,1422,886,815
3229,1421,885,814
3228,1421,884,814
3228,1421,884,814
3228,1421,884,814
3226,1420,884,813
3224,1420,883,813
3221,1419,882,812
3219,1419,882,811
3216,1418,881,810
3214,1417,880,810
3214,1418,880,810
3218,1419,881,811
3222,1420,882,812
3224,1420,883,813
3226,1421,884,813
3226,1420,883,812
3223,1420,881,811
3218,1419,880,810
3215,1418,880,809
3211,1417,879,809
3210,1417,878,808
3208,1416,877,808
3206,1416,877,807
3203,1415,876,807
3202,1415,875,807
3201,1414,875,807
3203,1415,876,808
3204,1415,876,808
3202,1415,875,808
3202,1414,875,808
3202,1414,875,807
3197,1413,873,806
3192,1412,872,805
3189,1411,871,804
3191,1412,871,804
3194,1412,872,805
3195,1412,873,806
3196,1412,873,806
3197,1413,873,806
3199,1413,874,807
3199,1413,874,807
3194,1412,873,805
3188,1410,871,804
3185,1410,870,803
3187,1410,870,803
3190,1411,871,804
3190,1411,871,804
3187,1410,870,803
3181,1408,868,802
3180,1408,868,801
3184,1409,869,803
3189,1410,871,804
3193,1411,872,806
3196,1412,873,806
3196,1412,873,807
3194,1411,872,806
3192,1411,872,805
3192,1411,872,805
3194,1411,872,806
3195,1411,873,806
3194,1411,873,806
3189,1410,871,805
3183,1408,869,803
3179,1407,868,801
3180,1407,868,802
3184,1408,870,803
3188,1409,871,804
3191,1410,872,805
3191,1410,872,805
3189,1409,871,804
3188,1409,871,804
3190,1409,872,805
3191,1409,872,805
3190,1409,871,805
3188,1409,871,805
3187,1408,871,804
3186,1408,870,804
3187,1408,870,804
3189,1409,871,805
3189,1408,871,805
3186,1408,870,804
3186,1407,870,804
3185,1407,870,803
3184,1407,870,803
3185,1407,870,803
3188,1408,871,804
3190,1408,872,805
3190,1408,872,805
3190,1408,871,804
3188,1408,871,804
3187,1407,871,803
3184,1406,870,803
3184,1406,870,803
3185,1407,871,803
3185,1406,871,803
3185,1406,870,803
3184,1406,870,803
3180,1405,869,802
3178,1404,868,802
3176,1404,868,801
3176,1404,867,801
3175,1403,867,801
3176,1403,868,801
3177,1404,868,801
3178,1404,868,802
3178,1404,868,802
3179,1404,869,802
3179,1404,869,802
3180,1404,869,802
3181,1404,869,802
3180,1404,869,802
3181,1404,869,802
3182,1404,870,803
3182,1404,870,803
3182,1404,870,802
3181,1404,870,802
3181,1404,870,802
3181,1404,870,802
3183,1404,871,803
3187,1405,872,804
3189,1405,872,805
3190,1406,873,806
3192,1406,873,806
3193,1406,873,806
3193,1406,874,806
3193,1406,874,806
3193,1406,873,806
3192,1406,873,806
3194,1406,874,806
3196,1407,875,807
3196,1407,875,807
3197,1407,875,807
3197,1407,875,807
3197,1407,875,808
3198,1407,876,808
3199,1407,876,808
3198,1407,876,808
3199,1407,876,808
3200,1407,876,808
3201,1407,877,809
3201,1407,877,809
3201,1407,876,809
3200,1407,876,809
3200,1407,876,809
3200,1407,876,809
3200,1407,876,809
3201,1408,876,809
3201,1408,876,809
3200,1407,876,809
3201,1408,876,809
3201,1408,876,809
3201,1408,876,809
3202,1408,876,809
3203,1408,877,809
3203,1408,877,809
3204,1409,877,809
3204,1409,877,809
3204,1409,877,809
3204,1409,877,809
3204,1409,877,809
3203,1409,876,808
3201,1408,876,808
3201,1408,876,809
3201,1408,876,809
3201,1408,876,809
3201,1408,876,809
3202,1408,876,809
3203,1409,877,810
3204,1409,877,810
3204,1409,877,810
3205,1410,877,810
3205,1410,877,810
3205,1409,877,810
3205,1410,877,810
3205,1410,877,810
3204,1410,877,810
3204,1409,877,810
3204,1410,877,810
3204,1410,877,810
3202,1409,876,809
3201,1409,876,809
3201,1409,876,809
3200,1409,875,809
3200,1409,875,809
3200,1409,875,809
3199,1409,875,809
3199,1408,875,809
3198,1408,874,809
3198,1408,874,808
3197,1408,874,808
3198,1408,874,808
3198,1409,874,809
3198,1408,874,809
3199,1408,874,809
3199,1409,874,809
3199,1409,875,809
3199,1409,875,809
3200,1409,875,809
3202,1410,875,810
3203,1410,876,810
3204,1410,876,810
3205,1411,877,810
3205,1411,876,810
3205,1410,876,811
3205,1411,876,811
3205,1410,876,811
3205,1410,876,811
3205,1410,876,811
3206,1411,876,812
3206,1411,876,812
3205,1411,876,811
3205,1411,876,811
3204,1410,875,811
3202,1410,875,811
3202,1410,875,811
3202,1410,875,811
3201,1410,875,810
3201,1410,875,810
3202,1410,875,810
3204,1410,875,811
3204,1410,876,811
3204,1411,875,811
3203,1410,875,810
3201,1410,874,810
3199,1409,874,810
3200,1410,874,810
3199,1410,874,810
3198,1409,873,810
3197,1409,873,810
3198,1409,873,810
3197,1409,873,810
3197,1409,872,809
3196,1409,872,809
3196,1408,872,809
3195,1408,872,809
3194,1408,872,809
3194,1408,872,809
3193,1408,871,809
3192,1407,871,808
3191,1407,871,808
3191,1407,871,808
3192,1407,871,808
3193,1408,871,808
3193,1408,872,809
3195,1408,872,809
3195,1408,872,809
3195,1408,872,809
3193,1408,872,808
3192,1408,871,808
3191,1407,871,808
3191,1407,871,808
3190,1407,870,808
3189,1407,870,808
3189,1406,870,808
3188,1406,870,808
3187,1406,870,808
3187,1406,869,808
3187,1405,869,807
3186,1405,869,807
3186,1405,869,807
3186,1405,869,807
3185,1404,869,807
3184,1404,869,807
3184,1404,869,807
3183,1404,869,806
3184,1404,869,807
3185,1404,869,807
3186,1404,870,807
3187,1404,870,807
3189,1405,871,808
3190,1405,871,808
3188,1404,870,808
3185,1403,870,807
3182,1402,869,806
3178,1401,867,805
3174,1400,866,804
3174,1400,866,804
3175,1400,866,804
3175,1399,866,805
3175,1399,866,805
3174,1399,866,805
3172,1398,865,804
3170,1397,865,804
3171,1397,865,804
3169,1397,865,803
3168,1396,864,803
3168,1396,865,803
3167,1395,864,803
3164,1394,863,802
3162,1394,863,801
3161,1393,863,801
3158,1392,862,800
3158,1392,862,800
3161,1393,863,801
3161,1392,863,801
3159,1391,862,800
3160,1392,863,801
3158,1391,862,800
3153,1389,861,799
3152,1389,860,799
3150,1388,860,798
3146,1387,859,797
3146,1386,858,797
3145,1386,858,797
3145,1386,857,796
3141,1385,857,795
3138,1383,856,795
3139,1384,856,795
3136,1383,856,795
3133,1381,855,794
3134,1382,855,794
3133,1381,855,794
3130,1380,854,793
3131,1380,854,793
3133,1381,855,794
3130,1379,854,793
3129,1379,854,793
3133,1380,855,794
3132,1379,855,794
3126,1377,853,792
3123,1376,852,791
3118,1375,851,789
3113,1373,849,788
3114,1374,850,788
3119,1375,852,790
3120,1374,852,790
3120,1374,852,791
3122,1375,853,791
3116,1373,851,790
3109,1370,848,788
3105,1369,847,787
3103,1369,847,786
3099,1367,845,785
3098,1367,845,785
3101,1367,846,786
3100,1367,846,786
3100,1366,846,785
3100,1366,846,785
3098,1365,845,785
3095,1364,845,784
3095,1364,845,784
3094,1364,845,784
3094,1363,845,784
3095,1364,845,784
3097,1364,846,785
3097,1364,846,785
3097,1363,846,785
3097,1363,846,785
3096,1363,846,784
3095,1362,846,784
3095,1362,846,784
3091,1361,845,783
3087,1359,843,782
3082,1358,842,781
3078,1357,840,779
3076,1356,840,779
3075,1356,839,779
3075,1356,839,779
3074,1355,839,778
3074,1355,839,778
3076,1356,839,779
3078,1357,840,780
3079,1358,840,780
3081,1358,841,780
3083,1359,842,781
3086,1360,842,782
3088,1361,843,782
3092,1362,844,783
3093,1363,844,783
3089,1362,843,782
3086,1362,842,781
3086,1362,842,781
3085,1362,842,780
3085,1362,842,780
3085,1364,843,781
3089,1364,844,782
3093,1365,844,782
3094,1365,845,782
3094,1365,844,782
3092,1365,844,782
3088,1364,843,780
3086,1364,842,780
3088,1365,843,781
3093,1367,844,782
3097,1368,845,784
3102,1369,847,785
3105,1370,848,786
3104,1370,847,785
3103,1370,847,785
3106,1371,848,786
3107,1371,848,786
3108,1372,848,786
3112,1373,849,787
3117,1375,851,789
3118,1375,851,789
3120,1376,852,790
3123,1377,853,790
3122,1377,852,790
3120,1376,852,789
3122,1378,852,790
3125,1379,853,791
3125,1378,853,790
3128,1380,854,791
3133,1381,856,793
3135,1382,856,793
3137,1382,857,794
3140,1384,858,794
3140,1384,858,794
3137,1383,857,793
3136,1383,857,793
3137,1384,857,794
3137,1384,856,793
3138,1384,857,794
3141,1386,858,795
3142,1386,858,795
3142,1386,858,795
3145,1387,859,796
3148,1388,860,797
3147,1388,859,796
3148,1388,860,796
3150,1389,860,797
3149,1389,860,796
3148,1389,860,796
3151,1390,860,797
3154,1391,861,798
3154,1391,861,798
3156,1392,862,798
3158,1393,862,799
3158,1393,863,799
3159,1393,863,799
3162,1394,864,799
3164,1395,864,800
3166,1396,865,800
3171,1397,866,802
3173,1398,867,802
3172,1398,867,802
3171,1398,867,802
3173,1398,867,802
3173,1398,867,802
3172,1398,867,802
3172,1398,867,802
3173,1399,867,802
3174,1399,867,803
3177,1400,868,804
3180,1401,869,804
3180,1401,869,805
3181,1401,870,805
3183,1401,871,806
3185,1402,871,806
3185,1402,871,806
3186,1403,871,806
3186,1403,871,806
3187,1403,871,806
3187,1403,871,806
3189,1404,872,807
3190,1404,872,807
3191,1404,873,807
3192,1405,873,807
3192,1405,873,807
3193,1405,873,807
3193,1405,873,807
3193,1405,873,807
3192,1405,873,807
3192,1405,873,807
3191,1405,873,807
3189,1404,872,806
3187,1404,871,806
3186,1403,871,805
3188,1404,871,806
3189,1404,872,806
3190,1404,872,807
3190,1404,872,807
3190,1404,872,807
3189,1404,872,806
3188,1403,872,806
3186,1403,871,806
3185,1403,871,805
3185,1402,871,805
3186,1403,871,805
3187,1403,872,805
3187,1402,872,805
3189,1403,872,806
3190,1403,873,806
3190,1403,873,806
3189,1403,873,806
3188,1402,873,806
3186,1402,872,805
3186,1401,872,805
3186,1401,872,805
3185,1401,872,805
3184,1400,871,805
3184,1400,871,805
3183,1400,871,805
3183,1400,871,805
3184,1400,871,805
3184,1400,871,805
3182,1399,871,804
3181,1399,871,804
3180,1398,870,804
3178,1398,870,803
3175,1397,869,803
3175,1397,869,802
3175,1396,869,802
3174,1396,869,802
3175,1396,869,803
3176,1396,869,803
3174,1395,869,802
3176,1395,870,803
3177,1396,870,803
3178,1396,871,804
3178,1395,871,804
3179,1396,871,804
3177,1395,870,803
3174,1394,870,803
3174,1394,869,803
3170,1393,868,802
3165,1391,866,800
3165,1390,866,800
3164,1390,866,800
3163,1390,866,800
3161,1389,866,799
3160,1389,865,799
3160,1389,865,799
3158,1387,865,799
3158,1387,865,799
3160,1388,865,800
3159,1387,865,799
3157,1386,865,799
3159,1387,865,800
3160,1387,866,800
3156,1385,865,799
3155,1385,865,798
3158,1386,865,799
3156,1385,865,799
3154,1384,864,798
3152,1384,864,797
3148,1383,863,796
3144,1381,861,795
3143,1381,861,795
3142,1380,861,795
3139,1379,860,794
3137,1378,859,794
3137,1378,859,794
3134,1377,858,793
3134,1377,858,793
3135,1377,858,793
3133,1377,858,793
3131,1375,857,792
3129,1375,857,792
3127,1374,856,791
3126,1373,856,791
3126,1373,856,791
3125,1373,856,790
3122,1372,855,790
3121,1371,855,789
3121,1372,855,789
3120,1371,855,789
3119,1370,854,789
3118,1370,854,788
3116,1370,854,788
3113,1369,853,787
3112,1368,852,787
3111,1367,852,787
3108,1367,851,786
3107,1366,851,786
3106,1366,850,786
3104,1365,850,785
3103,1364,849,785
3101,1364,849,784
3099,1363,848,784
3097,1362,848,783
3096,1362,847,783
3096,1362,847,783
3096,1362,847,783
3096,1362,847,783
3095,1362,847,783
3095,1362,847,783
3097,1363,848,783
3100,1363,849,784
3103,1365,849,785
3104,1365,850,785
3105,1365,850,785
3107,1366,851,785
3108,1367,851,786
3108,1367,851,786
3109,1367,851,786
3110,1368,851,786
3110,1368,851,787
3111,1368,852,787
3111,1369,852,787
3112,1369,851,787
3111,1369,851,787
3110,1369,851,787
3111,1369,851,787
3112,1370,851,787
3112,1370,851,787
3113,1370,852,787
3116,1371,852,788
3116,1371,853,788
3119,1372,853,789
3123,1374,855,790
3127,1375,856,791
3127,1375,856,791
3130,1376,857,792
3133,1377,858,793
3133,1377,858,793
3135,1377,858,793
3138,1379,859,794
3138,1379,859,794
3137,1379,859,794
3139,1380,860,794
3141,1380,860,795
3140,1380,860,794
3141,1380,860,795
3145,1382,861,796
3144,1382,861,796
3143,1381,860,796
3145,1382,861,796
3148,1383,861,797
3147,1383,861,797
3148,1384,862,797
3152,1385,863,798
3151,1385,862,798
3150,1384,862,798
3151,1385,862,798
3152,1386,862,798
3152,1385,862,798
3154,1386,863,799
3157,1388,864,799
3157,1388,864,799
3157,1388,864,799
3161,1389,865,800
3162,1389,865,801
3161,1389,865,800
3162,1390,865,800
3164,1391,866,801
3162,1390,865,800
3162,1390,865,800
3164,1391,866,801
3165,1391,866,802
3164,1391,865,801
3164,1391,865,801
3164,1392,865,801
3162,1391,864,801
3161,1391,864,800
3163,1392,865,801
3163,1392,865,801
3164,1392,865,801
3167,1393,866,802
3170,1394,866,803
3170,1394,867,803
3170,1394,867,803
3171,1395,867,803
3172,1395,867,803
3172,1396,867,803
3174,1396,868,804
3175,1397,868,804
3175,1397,868,804
3174,1397,868,804
3173,1397,868,803
3173,1396,867,803
3172,1396,867,803
3171,1396,867,803
3171,1396,867,803
3171,1396,866,803
3169,1395,866,803
3168,1395,865,803
3169,1395,866,803
3169,1395,866,803
3169,1396,866,803
3170,1396,866,803
3170,1396,866,803
3169,1396,866,803
3168,1396,865,802
3168,1396,865,802
3168,1396,865,802
3169,1396,865,802
3169,1396,865,803
3169,1396,866,803
3170,1396,866,803
3170,1397,866,803
3171,1397,866,803
3173,1397,867,803
3172,1397,867,803
3172,1397,866,803
3171,1397,866,803
3170,1396,866,803
3169,1396,866,803
3169,1396,865,803
3168,1396,865,803
3167,1395,865,802
3165,1395,864,802
3164,1394,864,802
3164,1394,863,802
3163,1394,863,801
3162,1394,863,801
3162,1393,863,801
3162,1393,863,801
3161,1393,863,801
3161,1393,863,801
3162,1393,863,801
3165,1394,864,802
3167,1394,865,803
3169,1394,865,804
3169,1394,866,804
3167,1394,865,803
3165,1393,864,802
3161,1392,863,801
3158,1391,862,800
3156,1391,861,799
3155,1391,861,799
3153,1390,861,798
3151,1389,860,798
3149,1389,859,797
3146,1388,858,797
3143,1387,857,796
3140,1386,856,795
3137,1385,855,794
3135,1384,855,794
3135,1384,855,794
3136,1384,855,794
3134,1384,855,794
3134,1383,855,794
3134,1383,855,794
3132,1383,854,793
3129,1382,853,793
3128,1382,853,792
3127,1381,852,792
3124,1380,852,791
3124,1380,852,791
3124,1380,852,791
3123,1380,851,791
3123,1379,852,791
3123,1379,852,791
3125,1380,851,790
3122,1379,851,790
3120,1378,851,790
3119,1378,851,790
3118,1377,850,789
3115,1376,849,789
3116,1376,849,789
3115,1376,849,789
3112,1375,848,788
3111,1374,848,788
3111,1374,848,788
3109,1373,847,788
3107,1373,847,787
3107,1373,847,787
3106,1372,846,787
3104,1371,846,786
3105,1372,846,787
3104,1372,846,786
3102,1371,845,786
3101,1370,845,786
3102,1371,845,786
3101,1370,845,785
3100,1370,845,785
3100,1370,845,785
3099,1369,844,785
3098,1369,844,784
3098,1369,844,784
3097,1369,844,784
3095,1368,844,784
3094,1367,843,783
3093,1367,843,783
3090,1366,842,783
3089,1365,842,783
3088,1365,841,782
3086,1364,840,782
3084,1364,840,781
3084,1363,840,781
3083,1363,839,781
3081,1362,839,781
3081,1362,839,781
3080,1362,839,781
3078,1361,838,780
3076,1361,838,780
3076,1360,838,779
3075,1360,837,779
3074,1360,837,779
3074,1360,837,779
3075,1359,837,779
3074,1359,837,779
3074,1359,837,779
3074,1359,837,779
3074,1359,838,779
3074,1359,838,779
3074,1358,838,779
3073,1358,837,778
3047,1352,829,770
3010,1342,817,759
2996,1338,812,754
2991,1337,811,753
2993,1338,811,754
3000,1340,813,756
3003,1341,814,757
3004,1341,814,757
3002,1341,814,756
3002,1341,814,757
3007,1343,815,758
3007,1343,815,758
3001,1342,813,756
2997,1341,812,754
2997,1340,812,754
2996,1340,810,753
2991,1340,807,749
2980,1337,807,744
2964,1333,802,744
2944,1328,796,738
2922,1322,789,731
2904,1318,783,725
2900,1317,782,724
2895,1316,780,722
2885,1313,777,719
2877,1311,775,717
2877,1312,775,717
2878,1312,775,717
2873,1310,773,715
2865,1309,771,713
2865,1309,771,713
2867,1310,771,713
2866,1309,771,713
2866,1310,771,713
2857,1307,768,711
2848,1305,765,708
2835,1301,761,704
2826,1299,758,701
2829,1300,758,702
2836,1302,761,704
2843,1304,763,706
2847,1305,764,707
2847,1305,764,707
2848,1306,764,707
2845,1305,763,706
2842,1305,763,705
2847,1306,764,707
2855,1308,767,709
2862,1310,769,711
2867,1312,771,712
2874,1314,773,714
2877,1315,774,715
2883,1316,776,717
2889,1318,778,719
2895,1320,780,720
2893,1320,779,720
2886,1318,777,717
2881,1317,775,716
2880,1316,775,715
2880,1316,775,716
2888,1319,777,719
2900,1322,781,722
2912,1325,785,726
2919,1327,787,728
2922,1328,788,729
2927,1329,789,731
2932,1331,791,732
2938,1332,793,734
2940,1333,793,734
2939,1333,793,734
2939,1333,793,734
2942,1334,794,735
2944,1335,794,736
2946,1335,795,736
2948,1336,796,737
2949,1336,796,737
2949,1336,796,737
2952,1337,797,737
2954,1338,797,738
2953,1338,797,738
2953,1338,797,738
2953,1338,797,738
2952,1338,797,737
2947,1337,795,736
2943,1336,794,734
2943,1335,793,733
2939,1333,790,731
2931,1333,789,730
2927,1332,789,730
2927,1332,789,730
2925,1331,788,730
2926,1331,789,730
2925,1331,788,729
2917,1329,786,727
2907,1326,782,724
2896,1323,779,721
2876,1318,773,714
2839,1309,761,703
2811,1301,752,694
2799,1298,748,690
2790,1296,746,688
2786,1295,745,687
2792,1297,746,688
2796,1298,748,689
2793,1297,747,689
2793,1297,747,688
2800,1299,749,691
2811,1301,753,694
2819,1303,755,696
2826,1305,758,698
2832,1307,760,700
2842,1309,763,703
2853,1312,766,707
2864,1315,769,710
2876,1318,773,714
2883,1320,776,717
2894,1323,779,720
2907,1326,784,724
2916,1328,787,727
2925,1331,790,730
2936,1333,793,733
2951,1337,798,738
2963,1340,802,742
2970,1341,804,744
2971,1342,805,744
2981,1344,808,747
2994,1347,812,751
3005,1350,816,755
3011,1351,818,756
3020,1353,820,759
3031,1356,824,763
3041,1358,827,766
3048,1360,829,768
3051,1361,830,768
3041,1358,827,766
3024,1353,822,760
3011,1350,818,756
3003,1348,815,754
2995,1345,812,752
2985,1343,809,749
2966,1338,803,744
2958,1335,801,741
2953,1334,799,740
2948,1333,798,739
2944,1331,796,737
2941,1330,796,737
2941,1330,795,736
2944,1331,796,737
2950,1332,798,739
2959,1334,801,742
2969,1336,805,745
2986,1340,810,750
3000,1344,815,755
3022,1349,821,761
3041,1353,828,767
3061,1358,834,774
3061,1361,838,777
3072,1362,841,780
3082,1362,842,781
3083,1361,842,782
3087,1362,844,780
3082,1360,842,780
3080,1359,842,780
3094,1362,846,784
3102,1364,849,787
3091,1361,845,784
3071,1355,838,778
3052,1351,832,772
3042,1348,829,770
3046,1348,831,771
3041,1347,829,769
3032,1344,826,767
3014,1339,821,761
2998,1335,816,757
2998,1335,816,757
2994,1333,815,755
2993,1333,815,755
3008,1337,819,760
3012,1337,821,761
3009,1336,820,760
3006,1336,819,759
2994,1332,815,755
2986,1330,813,753
2985,1329,813,753
2987,1330,813,753
2974,1326,809,749
2957,1321,804,744
2937,1316,798,738
2903,1307,787,728
2886,1302,782,723
2886,1303,782,723
2870,1298,777,719
2859,1295,774,716
2847,1292,770,712
2833,1288,765,708
2823,1285,763,705
2814,1282,760,703
2802,1279,756,699
2782,1274,749,693
2774,1271,747,690
2769,1270,745,689
2757,1266,741,685
2738,1261,735,679
2723,1257,730,674
2712,1254,727,671
2705,1251,724,668
2701,1250,723,667
2697,1249,722,666
2690,1247,720,664
2685,1245,718,662
2683,1244,718,661
2678,1243,716,660
2674,1241,715,658
2671,1241,714,658
2671,1240,714,658
2671,1240,714,658
2672,1240,714,658
2681,1242,717,661
2694,1246,721,665
2707,1250,725,669
2713,1251,727,670
2714,1251,727,671
2715,1252,728,671
2713,1252,727,670
2711,1252,726,670
2710,1252,726,669
2709,1252,726,669
2709,1252,726,669
2709,1252,726,668
2709,1252,724,667
2704,1251,724,665
2699,1250,723,665
2696,1250,721,664
2694,1250,721,663
2696,1250,721,663
2700,1252,723,665
2702,1253,723,665
2703,1253,724,665
2704,1254,724,665
2707,1255,725,666
2704,1254,724,666
2702,1254,723,665
2700,1254,722,664
2700,1254,722,664
2700,1254,722,664
2704,1255,723,665
2710,1257,725,667
2712,1258,725,667
2711,1258,725,667
2713,1259,726,668
2715,1260,726,668
2716,1260,726,668
2718,1261,727,669
2720,1262,727,669
2720,1262,728,669
2720,1262,727,669
2721,1263,728,669
2720,1263,727,668
2719,1263,727,668
2723,1265,728,669
2727,1266,730,670
2725,1265,729,669
2718,1264,727,667
2714,1263,725,666
2714,1263,725,666
2714,1263,725,666
2719,1265,727,667
2723,1267,728,668
2722,1266,727,668
2722,1267,727,668
2726,1268,728,669
2727,1269,729,669
2728,1269,729,670
2732,1270,730,671
2732,1271,730,671
2730,1270,729,670
2731,1271,730,670
2734,1272,730,671
2732,1272,730,670
2733,1272,730,670
2738,1274,732,672
2740,1275,732,672
2740,1275,732,672
2741,1275,733,672
2742,1276,733,672
2741,1276,733,672
2740,1276,732,672
2742,1276,732,672
2741,1277,732,672
2740,1276,732,672
2743,1277,732,673
2743,1278,732,673
2743,1278,732,673
2743,1278,732,673
2746,1279,733,673
2747,1280,733,674
2748,1280,734,674
2750,1281,734,674
2750,1282,735,675
2752,1282,735,675
2753,1282,735,675
2753,1282,735,675
2753,1282,735,675
2753,1282,735,675
2753,1282,735,675
2754,1283,735,675
2755,1283,736,675
2756,1283,736,675
2757,1284,736,675
2756,1284,736,675
2755,1283,736,675
2756,1284,736,675
2756,1284,736,676
2753,1283,735,675
2752,1283,734,675
2753,1283,735,675
2753,1283,735,675
2753,1284,735,675
2753,1284,735,675
2754,1284,735,675
2756,1284,735,676
2756,1285,736,676
2757,1285,736,676
2758,1285,736,676
2757,1285,736,676
2756,1285,736,676
2756,1285,735,676
2757,1285,736,676
2758,1285,736,676
2759,1285,737,676
2759,1286,737,676
2759,1286,737,676
2758,1285,737,676
2757,1285,736,675
2755,1284,736,675
2753,1283,735,675
2751,1283,734,674
2751,1283,734,674
2750,1282,733,674
2750,1282,734,675
2752,1283,734,675
2751,1282,734,675
2749,1282,733,674
2748,1281,733,674
2745,1281,732,673
2744,1280,732,673
2745,1281,732,673
2746,1281,732,674
2744,1280,732,673
2744,1280,732,673
2744,1280,732,673
2743,1279,731,673
2742,1279,731,672
2740,1279,731,672
2741,1279,731,672
2743,1279,732,672
2741,1279,731,672
2737,1277,730,671
2733,1276,728,670
2728,1275,727,669
2725,1273,725,668
2722,1273,725,667
2723,1273,725,668
2724,1273,725,668
2723,1272,725,668
2722,1272,725,667
2721,1272,724,667
2719,1271,724,667
2719,1271,724,667
2719,1271,723,666
2718,1271,723,666
2717,1270,723,666
2716,1270,723,666
2718,1270,724,666
2718,1270,724,666
2717,1269,723,666
2716,1269,723,666
2716,1269,723,665
2715,1268,723,665
2716,1269,724,665
2715,1268,723,665
2711,1267,722,664
2708,1266,721,663
2706,1266,720,663
2705,1265,720,663
2703,1264,719,663
2703,1264,719,663
2701,1263,719,662
2700,1263,718,662
2701,1263,718,662
2702,1263,719,663
2699,1262,718,662
2698,1262,718,661
2698,1262,718,661
2696,1261,717,661
2694,1260,717,660
2694,1260,717,660
2695,1260,717,661
2694,1260,717,660
2695,1260,717,661
2695,1260,717,661
2694,1259,717,660
2693,1259,717,660
2694,1260,717,660
2693,1259,717,660
2690,1258,716,659
2690,1258,716,659
2688,1257,715,659
2685,1256,714,658
2684,1256,714,658
2682,1255,713,657
2680,1254,713,657
2682,1255,713,658
2685,1255,714,659
2683,1255,714,658
2682,1254,713,658
2680,1254,713,657
2677,1253,712,656
2672,1251,710,655
2669,1250,709,654
2669,1250,709,654
2668,1249,709,653
2669,1250,710,654
2671,1250,710,654
2672,1250,711,655
2674,1251,711,655
2675,1251,712,655
2674,1251,712,655
2673,1250,711,655
2670,1249,710,654
2667,1248,709,653
2664,1247,708,653
2663,1247,708,652
2661,1246,707,652
2661,1246,707,652
2663,1247,708,653
2665,1247,708,653
2664,1247,708,653
2665,1247,708,653
2665,1247,708,653
2665,1248,708,653
2666,1248,708,653
2665,1248,708,653
2666,1248,708,653
2667,1248,709,653
2666,1248,708,653
2665,1248,708,653
2665,1249,708,653
2668,1249,709,653
2670,1250,710,654
2673,1251,711,655
2676,1252,712,655
2674,1252,711,655
2672,1251,710,654
2671,1251,710,654
2669,1251,709,654
2667,1250,708,653
2667,1250,708,653
2669,1251,709,654
2671,1251,709,655
2673,1252,710,655
2675,1253,711,656
2677,1254,711,656
2678,1254,711,657
2678,1254,712,657
2678,1254,711,657
2678,1254,711,656
2678,1254,711,656
2679,1255,712,657
2681,1255,712,657
2680,1255,712,657
2682,1256,713,657
2687,1258,714,659
2689,1258,715,659
2690,1258,715,659
2688,1258,714,659
2684,1257,713,657
2679,1256,711,656
2676,1255,710,655
2674,1255,709,655
2673,1254,709,654
2673,1254,709,655
2676,1256,710,656
2680,1257,711,657
2682,1257,712,658
2683,1258,712,658
2684,1258,712,658
2683,1258,712,658
2685,1258,712,658
2688,1260,713,659
2689,1260,714,659
2689,1260,714,659
2691,1261,714,660
2693,1262,715,660
2695,1262,715,661
2696,1262,716,661
2697,1263,716,661
2697,1263,716,661
2695,1263,716,661
2695,1263,715,660
2694,1263,715,660
2694,1263,715,660
2691,1262,714,659
2690,1262,713,659
2689,1262,713,659
2689,1262,713,659
2692,1263,714,660
2693,1263,714,660
2695,1264,714,661
2697,1264,715,662
2697,1265,715,662
2697,1265,716,662
2699,1265,716,663
2701,1266,716,663
2702,1266,717,663
2703,1266,717,663
2703,1266,717,663
2703,1267,717,663
2703,1267,717,663
2702,1266,717,663
2701,1266,716,662
2702,1267,717,663
2702,1267,717,662
2701,1266,717,662
2701,1266,717,662
2702,1266,716,663
2702,1267,717,663
2703,1267,717,664
2706,1268,718,665
2708,1268,718,665
2709,1269,719,666
2710,1269,719,666
2710,1269,719,666
2711,1269,719,666
2712,1270,720,667
2712,1270,720,667
2712,1270,719,667
2711,1270,719,667
2712,1270,720,667
2714,1270,720,667
2716,1271,721,668
2721,1272,722,669
2724,1273,724,670
2725,1273,724,670
2723,1273,723,670
2720,1272,722,669
2718,1271,722,668
2716,1271,721,668
2712,1270,720,667
2708,1269,718,666
2708,1268,718,666
2707,1268,718,666
2707,1268,718,666
2707,1268,718,666
2705,1267,717,666
2704,1267,717,665
2703,1267,716,665
2703,1267,717,665
2703,1267,717,665
2702,1266,716,665
2702,1266,716,665
2702,1266,716,665
2702,1266,716,664
2702,1266,716,664
2704,1266,717,665
2706,1267,718,665
2707,1267,718,666
2708,1267,719,666
2709,1268,719,666
2710,1268,719,666
2709,1267,719,666
2707,1267,718,665
2705,1266,718,665
2703,1266,717,665
2702,1265,717,665
2701,1265,716,665
2700,1265,716,664
2699,1264,715,664
2701,1265,716,665
2702,1265,716,665
2702,1264,716,665
2700,1264,715,664
2698,1263,715,664
2697,1263,715,664
2697,1263,715,664
2695,1262,714,663
2695,1262,714,663
2694,1262,714,663
2691,1261,713,662
2691,1261,713,662
2690,1261,713,661
2689,1260,713,661
2688,1260,713,661
2689,1260,713,661
2688,1260,713,660
2686,1259,712,660
2684,1259,711,659
2680,1257,710,658
2676,1256,708,657
2674,1255,708,657
2673,1255,707,657
2670,1254,707,656
2669,1254,706,656
2670,1254,706,656
2670,1254,707,656
2669,1253,706,656
2669,1253,706,656
2670,1254,707,656
2670,1253,707,656
2669,1253,707,656
2669,1253,707,656
2669,1253,707,656
2669,1253,707,656
2668,1253,706,655
2667,1252,706,655
2666,1252,706,655
2667,1252,706,655
2666,1252,706,655
2664,1251,705,654
2661,1250,705,653
2660,1250,704,652
2654,1248,702,651
2647,1246,700,649
2644,1245,699,648
2643,1245,698,648
2643,1244,698,648
2644,1245,699,648
2643,1244,698,648
2643,1244,698,648
2644,1244,699,649
2645,1245,699,649
2646,1245,700,649
2648,1245,700,650
2652,1246,702,651
2652,1246,702,651
2650,1245,701,650
2650,1246,701,651
2652,1246,702,651
2653,1246,702,651
2653,1246,702,651
2653,1246,702,651
2654,1246,703,651
2655,1246,703,651
2654,1246,703,651
2651,1245,702,650
2649,1245,701,649
2647,1244,701,649
2645,1243,700,649
2644,1243,699,648
2643,1242,699,648
2643,1243,699,649
2644,1243,700,649
2645,1243,700,649
2645,1243,700,650
2646,1243,700,650
2647,1243,700,650
2645,1243,700,649
2643,1242,699,649
2644,1243,699,649
2645,1243,700,649
2646,1244,700,649
2648,1244,701,650
2648,1244,701,650
2647,1244,700,649
2647,1244,700,649
2648,1244,701,649
2648,1245,701,649
2649,1245,701,649
2650,1245,701,649
2650,1245,701,649
2647,1244,700,648
2644,1244,699,648
2643,1243,699,648
2641,1243,698,647
2640,1243,698,647
2640,1243,698,647
2639,1243,697,647
2639,1242,697,647
2639,1243,697,647
2641,1243,698,647
2641,1244,698,647
2642,1244,698,647
2643,1244,698,648
2644,1244,699,648
2644,1244,699,648
2644,1245,699,648
2645,1245,699,648
2646,1245,700,648
2647,1246,700,648
2649,1247,701,649
2651,1247,701,649
2652,1247,702,649
2652,1247,702,649
2650,1247,701,649
2647,1246,700,648
2643,1245,698,647
2642,1245,698,647
2640,1244,697,647
2640,1244,697,647
2639,1244,697,646
2639,1244,696,646
2640,1244,697,646
2641,1245,697,647
2642,1245,697,647
2643,1245,698,647
2645,1246,699,648
2647,1247,699,648
2648,1247,699,649
2648,1247,699,649
2647,1247,699,648
2647,1247,699,648
2648,1247,700,648
2649,1248,700,649
2650,1248,700,649
2652,1249,701,649
2650,1248,700,648
2649,1248,700,648
2646,1247,699,647
2644,1247,698,647
2645,1247,698,647
2645,1247,698,647
2644,1247,697,647
2642,1246,697,647
2642,1246,697,647
2643,1247,697,647
2644,1247,698,648
2645,1247,698,648
2645,1248,698,648
2646,1248,698,648
2646,1248,698,648
2647,1248,698,648
2647,1248,698,648
2647,1248,698,648
2648,1248,699,648
2650,1249,699,649
2652,1250,700,649
2652,1250,700,649
2653,1250,701,649
2655,1250,701,650
2656,1251,701,650
2656,1251,701,650
2656,1251,702,650
2653,1250,701,649
2651,1249,700,649
2649,1249,699,649
2647,1248,698,648
2646,1248,698,648
2645,1248,697,648
2645,1248,697,648
2644,1247,697,647
2643,1247,697,647
2644,1248,697,648
2644,1248,697,648
2644,1248,697,647
2645,1248,697,648
2645,1248,697,648
2646,1248,698,648
2645,1248,697,648
2645,1248,697,647
2646,1248,698,648
2647,1249,698,648
2647,1248,698,648
2647,1249,698,648
2646,1248,698,647
2644,1248,697,647
2642,1247,696,646
2640,1246,696,646
2638,1246,695,646
2635,1245,694,645
2634,1245,693,645
2633,1244,693,645
2634,1244,693,645
2634,1244,693,645
2634,1244,693,645
2633,1244,693,645
2634,1244,694,645
2636,1245,694,646
2638,1245,695,646
2639,1246,695,646
2638,1245,695,646
2637,1245,695,646
2636,1245,694,645
2637,1245,695,645
2637,1245,695,645
2639,1246,696,646
2642,1246,697,647
2642,1247,697,647
2640,1246,696,646
2637,1245,695,646
2636,1245,694,646
2636,1244,694,646
2636,1244,694,645
2634,1244,693,645
2633,1243,693,645
2631,1243,693,645
2631,1243,693,645
2632,1243,693,645
2632,1243,693,645
2631,1243,693,645
2631,1243,693,645
2631,1243,693,645
2631,1242,693,645
2630,1242,693,644
2631,1242,693,645
2631,1242,693,645
2631,1242,693,645
2632,1242,693,645
2634,1243,694,645
2634,1243,694,645
2633,1243,694,645
2632,1242,694,644
2628,1241,693,643
2624,1240,691,642
2622,1239,690,642
2621,1239,690,642
2621,1239,690,642
2621,1239,690,642
2622,1239,690,642
2621,1239,690,642
2620,1238,689,642
2621,1238,690,642
2622,1239,690,643
2621,1238,690,642
2618,1237,689,641
2610,1235,686,638
2596,1231,682,634
2588,1229,679,631
2589,1229,679,631
2592,1230,681,632
2593,1230,681,633
2596,1231,682,633
2599,1232,683,634
2599,1232,683,634
2593,1230,681,632
2585,1228,679,629
2579,1226,677,627
2575,1225,675,627
2573,1225,675,626
2573,1225,674,626
2572,1224,674,626
2572,1224,674,626
2573,1224,674,627
2571,1224,674,626
2569,1223,673,625
2569,1223,673,625
2568,1223,673,625
2567,1223,673,625
2567,1223,673,625
2567,1223,673,625
2566,1222,672,624
2563,1221,672,623
2561,1221,671,622
2560,1221,671,622
2564,1221,672,623
2568,1223,673,624
2570,1223,674,625
2570,1223,674,625
2566,1222,673,624
2564,1221,672,623
2563,1221,672,623
2563,1221,672,624
2564,1221,671,624
2562,1220,671,623
2559,1219,670,623
2559,1219,670,623
2560,1219,670,623
2560,1219,671,623
2559,1219,670,623
2559,1219,670,623
2560,1219,671,623
2562,1220,671,624
2563,1220,672,624
2561,1219,671,623
2560,1219,671,623
2562,1220,671,623
2564,1221,672,624
2564,1221,672,624
2566,1221,673,624
2568,1222,674,625
2570,1223,674,625
2570,1223,674,625
2568,1222,674,625
2564,1221,672,623
2561,1220,671,623
2560,1220,671,622
2561,1220,671,623
2559,1219,670,623
2551,1217,668,620
2548,1217,667,619
2546,1216,666,618
2545,1216,666,618
2547,1217,667,619
2550,1217,667,620
2552,1218,668,620
2554,1219,669,621
2556,1219,669,621
2557,1220,670,622
2557,1220,670,622
2557,1220,670,621
2556,1219,669,621
2557,1220,670,621
2559,1220,670,621
2559,1220,670,621
2558,1220,670,621
2558,1220,670,620
2557,1220,670,620
2555,1219,669,619
2550,1218,668,618
2547,1217,667,617
2547,1217,667,618
2546,1217,666,618
2545,1217,666,617
2546,1217,666,617
2550,1218,667,619
2552,1219,668,619
2551,1218,668,619
2551,1219,668,619
2553,1219,668,619
2553,1219,668,619
2553,1219,668,619
2556,1220,669,620
2559,1221,670,621
2562,1222,671,622
2565,1223,672,623
2568,1223,673,623
2568,1224,673,624
2567,1223,673,623
2564,1223,672,622
2560,1222,671,620
2554,1220,669,618
2554,1218,667,616
2547,1218,665,615
2543,1217,664,614
2540,1216,664,614
2539,1216,664,614
2538,1216,663,614
2538,1215,663,614
2539,1216,664,614
2540,1216,664,615
2542,1217,665,615
2542,1217,665,615
2543,1217,665,615
2544,1218,666,616
2547,1218,666,616
2549,1219,667,617
2550,1219,667,617
2550,1220,668,617
2550,1219,668,617
2552,1220,668,617
2555,1221,669,618
2556,1221,670,618
2557,1221,670,618
2558,1222,670,619
2558,1222,670,619
2557,1221,670,618
2555,1221,669,618
2552,1220,668,617
2550,1219,668,617
2550,1219,668,617
2550,1219,668,617
2550,1220,668,617
2554,1220,669,618
2556,1221,669,619
2556,1221,670,619
2557,1221,670,619
2560,1222,671,620
2561,1223,671,620
2561,1223,671,620
2561,1223,671,620
2561,1223,671,620
2561,1223,671,620
2563,1223,672,620
2566,1224,673,621
2570,1225,674,622
2572,1226,675,623
2572,1226,675,622
2571,1225,675,622
2568,1225,674,621
2568,1224,674,621
2569,1225,674,622
2570,1225,674,623
2569,1225,674,623
2570,1225,674,623
2572,1225,675,623
2573,1226,675,624
2576,1226,676,625
2576,1226,676,625
2575,1226,676,624
2575,1226,676,625
2576,1226,676,625
2575,1225,676,624
2573,1225,676,624
2573,1225,676,624
2572,1225,675,624
2572,1224,675,623
2572,1224,675,623
2573,1225,676,623
2574,1225,676,624
2574,1225,676,624
2569,1223,675,622
2569,1222,673,621
2564,1222,673,620
2562,1221,672,620
2561,1220,672,620
2559,1220,671,620
2557,1219,671,619
2556,1219,671,619
2560,1219,672,621
2561,1220,672,621
2558,1219,671,620
2555,1218,670,619
2554,1217,670,619
2550,1216,669,618
2548,1215,668,617
2549,1216,669,617
2550,1216,669,618
2547,1214,669,617
2548,1214,669,617
2551,1215,670,618
2549,1215,669,617
2547,1214,669,616
2547,1214,669,616
2545,1213,668,616
2542,1211,668,615
2541,1211,667,615
2539,1211,666,615
2535,1209,665,614
2532,1208,664,613
2531,1208,664,613
2530,1207,663,613
2529,1206,663,613
2531,1207,664,613
2530,1206,664,613
2527,1205,663,612
2527,1205,663,612
2529,1206,664,613
2527,1205,663,612
2526,1204,663,612
2528,1205,664,613
2527,1204,664,612
2527,1204,664,612
2529,1205,664,613
2529,1204,664,613
2527,1204,664,612
2529,1204,665,613
2530,1204,665,613
2527,1203,664,612
2524,1202,663,612
2525,1202,663,612
2523,1201,663,612
2519,1199,661,611
2515,1198,660,610
2515,1198,660,610
2512,1197,659,609
2511,1197,659,609
2513,1197,660,610
2513,1197,660,610
2511,1196,659,609
2511,1196,659,609
2510,1195,659,609
2507,1194,658,608
2505,1194,658,608
2504,1193,657,607
2502,1192,657,606
2501,1192,657,606
2502,1192,657,606
2503,1193,657,607
2502,1192,657,606
2500,1191,657,606
2500,1190,656,605
2497,1188,654,604
2492,1188,653,603
2488,1187,653,602
2486,1186,652,602
2482,1185,651,602
2480,1184,650,601
2477,1183,649,600
2477,1183,649,601
2478,1183,650,601
2477,1182,649,601
2473,1181,648,599
2471,1180,648,599
2469,1180,647,598
2466,1179,646,597
2465,1178,646,597
2467,1179,647,598
2470,1180,648,598
2473,1180,648,599
2472,1180,648,599
2471,1180,648,598
2474,1181,649,599
2476,1182,650,600
2477,1182,650,600
2475,1182,649,599
2474,1182,649,599
2472,1181,648,598
2469,1181,647,598
2469,1181,647,598
2471,1182,647,598
2473,1182,648,599
2475,1183,648,600
2478,1184,649,601
2479,1185,649,601
2479,1185,649,601
2481,1186,650,601
2485,1187,651,602
2485,1187,651,602
2485,1187,651,602
2486,1188,651,602
2486,1188,651,602
2484,1188,651,601
2485,1188,651,601
2486,1189,651,601
2486,1189,651,601
2487,1190,652,601
2489,1191,652,602
2487,1190,652,601
2483,1189,650,600
2482,1189,650,600
2482,1189,649,600
2481,1189,649,600
2482,1189,649,600
2486,1191,650,601
2489,1192,651,602
2490,1192,652,603
2494,1193,653,604
2498,1195,654,605
2498,1195,654,605
2498,1195,654,605
2500,1196,654,605
2500,1197,655,605
2500,1196,655,605
2503,1198,655,606
2507,1199,656,607
2508,1200,657,607
2507,1199,657,606
2509,1200,657,607
2513,1202,658,608
2515,1202,659,608
2515,1203,660,609
2517,1203,660,609
2516,1203,658,607
2512,1202,658,607
2510,1201,657,607
2510,1202,657,607
2511,1202,657,608
2510,1202,657,608
2511,1202,657,608
2514,1203,658,608
2514,1204,658,608
2515,1204,658,609
2519,1205,659,610
2521,1206,660,610
2521,1206,660,611
2521,1207,660,610
2522,1207,660,610
2523,1207,660,610
2523,1207,660,610
2526,1209,661,611
2527,1209,662,611
2529,1210,662,612
2533,1211,663,613
2536,1212,665,614
2538,1213,665,614
2539,1213,665,614
2538,1213,665,614
2536,1213,664,614
2534,1212,664,613
2535,1212,664,614
2535,1213,664,614
2535,1213,663,614
2535,1213,664,614
2538,1214,664,615
2539,1214,665,615
2539,1214,665,615
2539,1214,665,615
2537,1214,664,614
2536,1214,664,614
2537,1214,664,614
2534,1213,663,613
2534,1213,663,613
2535,1214,663,613
2537,1214,664,614
2536,1214,664,613
2536,1214,664,613
2537,1215,664,613
2537,1215,664,613
2534,1214,663,612
2529,1213,662,611
2524,1211,660,609
2522,1211,659,609
2521,1210,659,609
2520,1210,658,609
2520,1210,658,609
2520,1210,658,609
2521,1210,659,609
2523,1211,659,610
2523,1211,659,610
2520,1210,658,609
2520,1210,658,609
2521,1210,659,609
2520,1210,658,609
2520,1209,658,608
2520,1210,659,609
2522,1210,659,609
2524,1211,660,610
2526,1211,661,610
2527,1211,661,610
2528,1212,661,611
2528,1212,663,612
2531,1212,664,612
2534,1213,663,612
2534,1213,663,611
2530,1211,662,611
2525,1210,660,610
2521,1209,659,609
2517,1207,658,608
2514,1206,657,608
2516,1207,657,608
2518,1207,658,609
2519,1208,659,609
2520,1208,659,609
2519,1207,658,609
2519,1207,658,609
2519,1207,659,609
2519,1207,659,609
2519,1207,659,609
2521,1207,659,610
2523,1208,660,610
2523,1207,660,610
2522,1207,660,610
2521,1207,660,610
2519,1206,659,609
2516,1205,658,608
2514,1204,658,607
2511,1204,657,607
2507,1202,656,606
2503,1201,654,605
2501,1200,653,604
2499,1199,653,604
2499,1199,653,604
2500,1199,653,605
2500,1199,653,605
2499,1198,653,605
2501,1199,654,605
2503,1199,654,606
2501,1198,654,605
2500,1198,653,605
2501,1198,654,605
2499,1197,653,605
2495,1196,652,603
2492,1195,651,602
2492,1195,651,602
2491,1194,651,602
2492,1195,651,602
2492,1195,652,602
2490,1194,651,602
2489,1193,651,602
2490,1193,651,602
2486,1192,650,601
2483,1191,649,600
2484,1191,649,601
2486,1191,649,602
2484,1190,649,602
2484,1190,649,602
2486,1191,650,602
2486,1191,650,602
2486,1190,650,602
2490,1191,651,604
2492,1192,652,605
2493,1191,652,605
2494,1192,653,605
2496,1192,653,606
2496,1192,653,606
2497,1192,654,606
2499,1193,654,607
2500,1193,655,607
2500,1193,655,607
2500,1193,656,608
2502,1193,656,607
2502,1193,654,606
2497,1191,654,605
2492,1189,653,604
2489,1189,652,604
2486,1187,651,604
2483,1186,650,603
2485,1187,650,604
2487,1187,651,605
2485,1186,650,604
2485,1186,650,604
2485,1186,650,605
2484,1185,650,604
2482,1185,649,603
2482,1184,649,604
2482,1184,649,604
2480,1184,649,603
2479,1183,649,603
2478,1183,648,602
2478,1183,649,603
2479,1183,649,603
2478,1182,649,603
2477,1182,649,602
2476,1182,648,602
2473,1181,647,600
2469,1180,646,599
2464,1179,645,598
2462,1178,643,597
2461,1178,643,597
2462,1178,643,598
2465,1179,644,599
2468,1180,645,600
2471,1181,646,601
2474,1182,647,602
2477,1183,648,603
2480,1184,648,603
2480,1184,648,603
2479,1184,648,603
2479,1185,648,603
2483,1186,649,604
2486,1187,650,605
2489,1188,651,606
2494,1189,653,607
2497,1190,654,608
2497,1191,654,608
2497,1191,654,607
2499,1192,654,608
2500,1192,655,608
2499,1192,655,608
2499,1192,654,608
2495,1191,653,607
2492,1190,652,606
2492,1190,651,606
2493,1191,652,607
2493,1191,652,607
2491,1190,651,606
2492,1191,651,606
2493,1192,651,606
2492,1191,651,606
2495,1192,652,607
2500,1194,653,608
2500,1194,654,608
2497,1193,653,607
2496,1193,652,607
2497,1194,653,607
2499,1195,653,607
2500,1195,654,608
2503,1196,654,608
2503,1196,654,608
2502,1196,654,607
2502,1196,655,607
2503,1197,655,607
2503,1197,655,606
2500,1196,654,606
2499,1196,653,606
2499,1196,653,606
2498,1196,653,606
2497,1196,652,606
2500,1197,653,607
2503,1198,654,608
2504,1198,654,608
2504,1198,654,608
2506,1199,655,609
2506,1199,655,608
2505,1199,655,608
2507,1200,655,609
2510,1201,656,610
2509,1201,656,609
2508,1200,655,609
2511,1202,656,609
2514,1203,657,610
2514,1203,657,610
2516,1204,658,610
2521,1205,659,612
2524,1206,660,612
2526,1207,661,613
2526,1207,661,613
2523,1206,660,612
2522,1206,660,612
2521,1206,659,612
2520,1206,659,612
2521,1206,659,612
2522,1206,659,612
2526,1208,660,613
2527,1208,661,614
2527,1208,661,614
2530,1209,662,615
2532,1210,662,615
2532,1210,662,615
2532,1210,662,615
2535,1211,663,616
2537,1211,664,616
2536,1211,664,616
2537,1211,664,616
2539,1212,664,617
2539,1212,665,617
2540,1213,665,617
2543,1213,666,618
2544,1214,666,618
2540,1213,665,617
2537,1212,664,616
2535,1212,663,615
2535,1211,663,615
2535,1211,663,616
2533,1211,662,615
2533,1211,662,615
2534,1211,663,615
2535,1212,663,616
2536,1212,663,616
2537,1212,663,616
2536,1212,663,616
2535,1212,663,616
2535,1212,663,616
2537,1212,664,616
2540,1213,664,617
2542,1214,665,617
2542,1214,665,617
2543,1214,666,618
2543,1214,666,617
2543,1214,665,617
2540,1213,664,615
2537,1212,664,615
2535,1212,664,615
2531,1210,662,614
2527,1209,661,613
2526,1208,660,612
2526,1208,660,613
2525,1208,660,613
2524,1208,660,613
2523,1207,659,612
2522,1207,659,612
2519,1206,658,611
2515,1205,657,609
2516,1205,657,610
2519,1206,658,611
2520,1206,659,611
2518,1206,658,611
2517,1205,658,610
2516,1205,658,610
2517,1205,658,610
2518,1206,658,610
2519,1206,659,610
2523,1207,660,611
2526,1208,661,613
2527,1207,661,613
2524,1207,661,612
2520,1205,659,611
2515,1204,657,609
2511,1202,656,609
2510,1202,656,609
2512,1202,656,609
2515,1203,657,611
2518,1204,658,612
2520,1204,659,612
2517,1203,658,612
2515,1203,658,611
2517,1203,658,611
2518,1203,658,612
2518,1203,658,612
2519,1203,659,612
2521,1204,660,613
2522,1204,660,613
2521,1203,660,613
2521,1204,660,613
2521,1203,660,612
2520,1203,660,612
2522,1203,660,612
2520,1203,660,612
2514,1201,658,610
2512,1200,657,610
2513,1200,657,610
2510,1199,657,610
2509,1199,656,610
2511,1199,657,611
2512,1199,657,611
2511,1199,657,611
2509,1198,656,610
2508,1198,656,610
2507,1197,656,610
2507,1197,656,609
2505,1197,655,609
2503,1196,654,608
2501,1195,654,608
2503,1196,654,608
2503,1196,654,608
2500,1195,654,607
2499,1195,653,607
2499,1195,654,607
2499,1195,654,606
2499,1194,653,606
2496,1193,653,604
2492,1192,652,604
2488,1191,650,603
2484,1189,649,602
2482,1189,648,602
2483,1189,648,603
2481,1188,648,602
2479,1187,647,602
2479,1187,647,602
2477,1187,647,601
2477,1186,646,601
2477,1187,647,601
2479,1187,647,602
2478,1186,647,602
2477,1186,647,601
2477,1186,647,601
2477,1186,647,601
2474,1185,646,600
2473,1185,646,599
2473,1185,646,600
2474,1185,646,600
2475,1185,647,600
2477,1185,648,601
2475,1185,647,600
2471,1183,646,599
2467,1182,644,598
2462,1180,643,597
2460,1180,642,596
2460,1179,642,596
2461,1180,642,597
2463,1180,643,598
2464,1181,643,598
2465,1181,643,598
2466,1181,644,599
2467,1182,644,599
2465,1181,643,598
2465,1181,644,598
2468,1182,645,599
2471,1183,645,600
2472,1184,646,600
2474,1184,646,600
2476,1185,647,601
2478,1186,648,601
2479,1186,648,601
2481,1187,649,602
2483,1187,649,602
2484,1188,650,602
2483,1188,649,602
2479,1187,648,601
2478,1186,647,601
2478,1187,647,601
2477,1186,647,601
2478,1187,647,602
2480,1187,647,602
2480,1188,647,602
2479,1187,647,602
2481,1188,648,602
2482,1189,648,602
2480,1188,648,602
2481,1188,648,602
2482,1189,648,602
2482,1189,648,602
2483,1189,648,602
2485,1190,649,603
2487,1191,649,603
2486,1191,649,603
2486,1190,649,602
2485,1190,649,602
2485,1191,649,602
2486,1191,649,602
2485,1191,649,602
2483,1190,648,601
2480,1190,647,600
2479,1189,647,600
2476,1189,646,600
2474,1188,645,599
2472,1188,644,598
2472,1188,644,599
2475,1189,645,599
2476,1189,645,600
2476,1189,645,600
2475,1189,645,599
2474,1189,645,599
2475,1189,645,599
2475,1189,645,599
2476,1190,645,599
2479,1191,646,600
2480,1191,646,600
2479,1191,646,600
2483,1192,648,601
2486,1193,649,601
2488,1194,649,602
2491,1195,650,603
2493,1196,651,603
2491,1195,650,602
2489,1195,649,602
2488,1194,649,602
2488,1195,649,602
2489,1195,649,603
2492,1196,650,604
2495,1197,651,605
2495,1197,651,605
2495,1197,651,605
2495,1197,651,605
2495,1197,650,605
2494,1197,650,604
2494,1197,650,604
2496,1198,651,605
2497,1198,651,605
2497,1198,651,605
2497,1198,651,605
2497,1198,651,605
2496,1198,651,604
2496,1198,651,604
2498,1199,652,605
2500,1199,652,605
2501,1200,653,605
2499,1199,652,605
2495,1198,651,604
2492,1197,650,603
2488,1196,648,602
2486,1196,647,602
2487,1196,648,602
2489,1196,648,603
2491,1197,649,604
2495,1198,650,605
2497,1199,651,605
2498,1199,651,606
2499,1199,651,606
2499,1200,651,606
2499,1199,651,606
2500,1200,652,606
2500,1200,652,606
2501,1200,652,606
2501,1201,652,606
2502,1201,653,606
2503,1201,653,607
2504,1201,653,607
2505,1201,653,607
2505,1201,654,607
2505,1201,654,607
2501,1200,652,605
2497,1199,651,604
2491,1197,649,602
2487,1196,648,601
2485,1195,647,601
2483,1195,646,601
2480,1194,645,600
2479,1193,645,600
2479,1193,645,600
2479,1193,645,600
2477,1193,644,599
2476,1192,644,599
2478,1193,645,599
2477,1192,645,599
2475,1191,644,598
2476,1192,644,599
2477,1192,645,599
2477,1192,645,599
2479,1192,645,599
2481,1193,646,600
2483,1193,647,601
2484,1193,647,601
2485,1194,648,601
2482,1193,647,600
2475,1190,645,598
2470,1189,643,597
2464,1187,641,595
2459,1185,639,594
2457,1184,638,593
2455,1184,638,593
2453,1183,637,592
2453,1183,637,593
2456,1183,638,593
2456,1183,638,594
2454,1182,638,593
2453,1182,638,593
2454,1182,638,593
2451,1181,637,592
2448,1180,636,591
2448,1180,637,591
2447,1179,636,591
2445,1178,636,590
2446,1178,636,591
2448,1179,637,591
2449,1179,637,591
2450,1179,638,592
2450,1179,638,592
2445,1177,637,590
2440,1175,635,589
2435,1174,633,588
2431,1173,632,587
2426,1170,630,586
2422,1169,629,585
2422,1169,629,585
2420,1168,629,584
2418,1167,628,584
2418,1167,628,583
2414,1166,627,582
2410,1165,626,581
2411,1165,626,581
2411,1165,626,581
2407,1163,625,580
2405,1162,624,579
2405,1163,625,580
2407,1163,625,579
2406,1162,624,578
2402,1161,624,578
2403,1161,624,578
2404,1162,625,579
2403,1161,625,579
2402,1160,625,578
2404,1160,625,579
2400,1159,624,578
2393,1156,622,576
2387,1155,620,574
2384,1154,618,573
2381,1152,618,573
2377,1151,617,572
2379,1152,617,572
2379,1151,617,572
2378,1151,617,572
2377,1150,617,571
2375,1150,616,571
2373,1149,616,570
2373,1149,616,570
2373,1149,616,570
2371,1148,615,569
2370,1147,615,569
2373,1148,616,570
2376,1148,617,571
2376,1148,618,571
2375,1147,617,570
2372,1147,616,569
2367,1145,615,568
2365,1144,614,568
2364,1144,614,568
2362,1143,613,567
2360,1142,613,567
2359,1141,612,567
2360,1141,613,567
2360,1141,613,567
2359,1141,613,567
2357,1140,612,566
2355,1139,612,566
2353,1138,611,565
2352,1138,611,565
2352,1138,611,564
2352,1138,611,565
2353,1139,611,565
2354,1139,611,565
2356,1140,612,565
2359,1141,613,566
2361,1141,614,566
2360,1141,613,566
2357,1141,612,565
2356,1141,612,564
2357,1142,612,565
2358,1142,612,565
2355,1141,611,565
2356,1142,611,565
2360,1143,612,566
2362,1144,613,567
2363,1145,613,567
2364,1145,613,567
2365,1146,614,567
2365,1146,614,567
2368,1147,615,568
2371,1148,615,568
2372,1149,616,568
2373,1149,616,569
2376,1151,617,570
2380,1152,618,571
2380,1152,618,571
2381,1152,619,571
2383,1153,619,572
2387,1155,620,572
2387,1155,620,572
2384,1154,619,571
2380,1153,618,570
2380,1154,617,570
2378,1153,617,570
2376,1152,616,569
2377,1153,616,570
2381,1155,617,571
2382,1155,618,571
2385,1156,619,572
2389,1158,620,573
2389,1158,619,573
2390,1158,620,573
2394,1160,621,574
2396,1161,621,575
2395,1160,621,575
2395,1160,621,575
2397,1162,622,575
2399,1162,622,575
2401,1163,623,576
2405,1164,624,577
2408,1166,625,578
2406,1165,624,577
2404,1165,624,576
2406,1166,624,577
2401,1164,623,576
2396,1163,621,574
2397,1163,621,575
2398,1164,621,575
2397,1164,620,575
2397,1164,621,575
2398,1165,621,575
2395,1164,620,574
2393,1164,619,573
2395,1164,619,574
2399,1166,621,575
2399,1166,621,575
2398,1166,620,574
2402,1168,622,575
2404,1168,622,576
2404,1169,622,576
2409,1170,624,577
2416,1173,626,579
2420,1174,627,580
2420,1174,627,580
2420,1174,627,580
2419,1174,627,580
2415,1173,625,578
2412,1172,624,578
2410,1172,623,577
2409,1172,623,577
2409,1172,623,578
2413,1173,624,579
2416,1174,625,580
2419,1175,626,581
2424,1176,627,583
2429,1178,629,584
2428,1177,628,583
2426,1177,628,583
2426,1177,628,583
2427,1178,628,583
2427,1178,628,583
2430,1179,629,584
2434,1180,630,585
2436,1181,631,585
2436,1181,632,586
2438,1181,632,587
2440,1182,633,587
2441,1182,633,586
2440,1182,633,586
2439,1182,632,586
2436,1181,631,585
2432,1180,630,584
2432,1180,629,584
2435,1181,630,586
2437,1181,631,587
2437,1181,631,587
2436,1181,630,586
2436,1181,630,586
2436,1181,630,586
2437,1181,631,587
2439,1182,632,587
2442,1183,632,588
2443,1183,633,589
2444,1183,633,589
2444,1183,633,589
2445,1184,634,589
2448,1184,634,590
2449,1184,635,590
2448,1184,635,590
2450,1185,635,590
2455,1186,637,592
2457,1187,638,593
2456,1186,638,592
2452,1185,636,591
2447,1183,635,589
2443,1182,633,588
2439,1181,632,588
2438,1180,631,587
2438,1180,631,588
2441,1181,632,589
2441,1181,632,589
2439,1180,632,588
2438,1180,631,588
2438,1180,631,588
2437,1180,631,588
2437,1180,631,588
2437,1179,631,587
2436,1179,631,587
2436,1179,631,587
2436,1179,631,587
2437,1179,631,587
2437,1179,632,587
2436,1179,631,587
2436,1178,631,587
2437,1179,632,587
2436,1178,632,587
2431,1177,630,585
2426,1175,628,584
2422,1174,627,583
2419,1173,626,582
2415,1172,625,581
2412,1171,624,580
2411,1170,623,580
2412,1170,624,581
2413,1170,624,581
2414,1171,624,581
2413,1170,624,581
2412,1170,624,581
2412,1170,624,581
2411,1169,624,580
2409,1169,623,580
2411,1169,624,580
2412,1170,624,580
2412,1169,624,581
2412,1169,624,580
2412,1169,625,581
2413,1170,625,580
2412,1169,625,580
2411,1168,624,580
2413,1169,625,580
2414,1169,626,581
2412,1168,625,580
2408,1167,624,579
2403,1166,622,578
2400,1164,621,577
2399,1164,621,577
2400,1164,621,578
2400,1164,621,578
2400,1164,621,578
2403,1164,622,579
2403,1164,622,579
2401,1163,621,578
2401,1164,621,579
2400,1163,621,578
2397,1162,620,577
2398,1162,620,577
2400,1163,621,578
2400,1163,621,578
2398,1162,621,577
2398,1162,621,577
2399,1162,621,577
2399,1162,621,577
2399,1162,622,578
2402,1163,622,578
2402,1162,622,578
2400,1162,622,578
2395,1160,620,576
2387,1158,618,574
2383,1156,616,573
2381,1156,615,573
2378,1155,614,572
2377,1154,614,572
2377,1154,614,572
2376,1154,614,572
2374,1153,613,571
2371,1152,613,570
2370,1152,612,570
2369,1151,612,569
2367,1151,611,569
2369,1151,612,569
