9109,4163,2730,1810
9113,4164,2731,1810
9117,4165,2733,1811
9114,4165,2732,1811
9108,4163,2729,1809
9104,4162,2727,1809
9105,4163,2727,1810
9100,4162,2725,1809
9097,4161,2724,1809
9096,4161,2723,1809
9095,4161,2722,1809
9092,4160,2721,1808
9092,4160,2721,1808
9092,4161,2721,1808
9091,4160,2720,1808
9093,4161,2721,1808
9093,4161,2721,1808
9095,4162,2721,1809
9094,4162,2721,1809
9093,4161,2721,1808
9097,4162,2722,1809
9099,4163,2723,1810
9103,4164,2725,1811
9109,4166,2727,1812
9113,4167,2728,1813
9115,4167,2729,1813
9119,4169,2731,1814
9121,4169,2732,1814
9125,4170,2733,1815
9132,4172,2736,1816
9138,4174,2738,1817
9140,4175,2739,1818
9143,4176,2740,1818
9142,4175,2739,1818
9137,4174,2737,1817
9126,4171,2732,1815
9115,4169,2728,1812
9115,4167,2725,1811
9107,4165,2721,1809
9098,4165,2718,1807
9090,4163,2717,1806
9088,4162,2717,1806
9084,4161,2716,1805
9083,4161,2716,1805
9084,4161,2716,1805
9082,4161,2716,1805
9079,4160,2714,1804
9079,4160,2714,1804
9079,4160,2714,1804
9078,4160,2714,1804
9080,4160,2715,1804
9081,4160,2715,1804
9083,4161,2717,1805
9085,4161,2717,1805
9083,4160,2717,1804
9083,4160,2717,1804
9083,4160,2717,1804
9081,4159,2717,1803
9080,4158,2717,1803
9080,4158,2717,1802
9077,4156,2717,1802
9076,4156,2717,1801
9072,4154,2716,1800
9065,4152,2713,1798
9057,4150,2711,1796
9049,4147,2708,1795
9043,4145,2705,1794
9035,4142,2702,1792
9031,4141,2700,1792
9030,4140,2699,1792
9022,4137,2697,1791
9020,4136,2696,1790
9019,4136,2696,1790
9015,4134,2695,1789
9012,4133,2694,1789
9014,4133,2695,1789
9011,4132,2694,1789
9005,4129,2692,1787
9008,4130,2693,1788
9008,4129,2693,1788
9002,4126,2692,1787
8999,4124,2691,1787
9001,4125,2692,1787
9002,4124,2693,1788
8996,4120,2691,1787
8999,4121,2693,1787
8999,4120,2693,1787
8992,4116,2691,1786
8991,4115,2691,1786
8994,4116,2693,1786
8987,4112,2691,1785
8979,4108,2689,1783
8977,4109,2688,1783
8963,4104,2683,1780
8949,4098,2678,1777
8948,4098,2677,1777
8944,4097,2675,1777
8933,4092,2672,1775
8927,4089,2670,1774
8927,4090,2670,1774
8919,4086,2667,1772
8909,4081,2664,1770
8912,4083,2665,1771
8907,4080,2664,1770
8892,4074,2659,1767
8890,4074,2659,1766
8891,4074,2659,1766
8876,4068,2655,1763
8871,4066,2653,1762
8876,4067,2655,1763
8871,4064,2654,1762
8865,4061,2652,1761
8869,4062,2654,1762
8869,4061,2654,1762
8861,4057,2652,1760
8860,4055,2652,1760
8867,4058,2655,1761
8859,4054,2653,1760
8852,4051,2651,1758
8855,4052,2652,1759
8847,4049,2650,1757
8829,4042,2644,1753
8825,4041,2642,1752
8818,4039,2639,1751
8801,4033,2633,1748
8790,4029,2629,1746
8790,4029,2629,1746
8779,4025,2625,1744
8772,4021,2623,1743
8772,4022,2623,1743
8766,4020,2621,1741
8753,4014,2617,1738
8748,4012,2615,1737
8749,4013,2615,1737
8741,4009,2613,1736
8733,4006,2611,1734
8732,4006,2610,1734
8732,4003,2608,1732
8726,4000,2606,1730
8718,4000,2606,1730
8715,3999,2606,1729
8715,3998,2606,1727
8706,3994,2603,1727
8704,3993,2603,1727
8703,3992,2603,1726
8696,3989,2601,1725
8692,3987,2600,1724
8692,3986,2601,1724
8688,3984,2600,1723
8688,3983,2600,1723
8686,3982,2599,1722
8681,3980,2598,1721
8670,3976,2594,1719
8663,3974,2592,1717
8653,3970,2588,1716
8647,3969,2586,1715
8640,3966,2583,1714
8641,3967,2583,1714
8640,3967,2582,1714
8640,3966,2582,1714
8649,3970,2585,1716
8652,3972,2586,1716
8658,3975,2588,1718
8665,3977,2590,1719
8666,3978,2590,1719
8674,3982,2593,1721
8678,3984,2594,1722
8680,3984,2595,1722
8691,3989,2598,1724
8699,3992,2601,1726
8701,3992,2602,1726
8711,3996,2605,1728
8719,4000,2607,1729
8722,4001,2609,1730
8728,4003,2611,1731
8740,4008,2615,1733
8747,4011,2617,1735
8752,4013,2619,1736
8761,4016,2622,1737
8773,4021,2626,1739
8777,4023,2628,1740
8779,4024,2629,1740
8785,4027,2630,1741
8786,4029,2629,1741
8772,4024,2624,1738
8774,4027,2624,1739
8780,4030,2625,1740
8778,4030,2624,1740
8779,4031,2624,1740
8786,4033,2626,1742
8796,4038,2629,1744
8797,4038,2629,1744
8803,4040,2631,1746
8813,4045,2634,1748
8817,4047,2636,1748
8813,4045,2634,1748
8825,4051,2638,1750
8833,4055,2640,1751
8830,4053,2640,1751
8836,4056,2641,1752
8850,4061,2646,1754
8853,4063,2647,1755
8855,4063,2648,1755
8867,4068,2652,1757
8878,4073,2656,1760
8879,4072,2656,1760
8885,4075,2659,1761
8900,4081,2663,1763
8903,4082,2664,1764
8902,4081,2664,1764
8916,4087,2669,1766
8924,4091,2671,1767
8922,4090,2671,1767
8924,4091,2672,1767
8931,4096,2673,1768
8925,4094,2671,1767
8918,4092,2668,1766
8923,4096,2669,1767
8927,4098,2669,1768
8924,4097,2668,1768
8927,4098,2668,1768
8937,4103,2671,1770
8942,4105,2673,1772
8942,4104,2673,1772
8953,4109,2676,1774
8960,4112,2679,1776
8960,4112,2679,1776
8968,4115,2681,1778
8981,4120,2685,1781
8984,4121,2686,1781
8991,4124,2688,1783
9002,4128,2692,1785
9011,4131,2695,1787
9017,4134,2697,1788
9026,4136,2701,1791
9037,4140,2704,1793
9037,4143,2708,1796
9048,4144,2711,1798
9054,4144,2715,1801
9067,4148,2718,1802
9074,4150,2718,1803
9077,4150,2719,1804
9083,4152,2721,1804
9088,4155,2723,1805
9086,4154,2723,1804
9084,4154,2722,1804
9083,4154,2721,1804
9077,4153,2718,1803
9071,4152,2716,1802
9070,4152,2715,1802
9071,4153,2715,1803
9073,4154,2715,1803
9075,4155,2715,1804
9082,4157,2717,1806
9087,4159,2719,1807
9087,4159,2719,1807
9088,4160,2719,1807
9091,4161,2720,1808
9090,4161,2720,1807
9090,4161,2720,1807
9090,4161,2719,1807
9089,4161,2719,1807
9092,4162,2720,1807
9092,4162,2721,1807
9094,4162,2722,1808
9102,4164,2725,1810
9109,4165,2728,1812
9115,4166,2730,1813
9122,4169,2732,1815
9126,4169,2734,1816
9128,4169,2735,1816
9131,4170,2736,1817
9130,4169,2737,1816
9131,4169,2737,1817
9131,4168,2738,1817
9132,4168,2738,1816
9130,4167,2738,1816
9123,4165,2736,1815
9113,4162,2732,1812
9105,4159,2729,1811
9099,4157,2726,1810
9094,4155,2724,1810
9089,4154,2722,1809
9083,4151,2720,1808
9080,4151,2719,1808
9078,4150,2718,1808
9073,4147,2717,1807
9072,4147,2716,1806
9069,4146,2715,1805
9063,4144,2713,1804
9061,4143,2713,1804
9061,4143,2713,1804
9059,4142,2712,1804
9056,4140,2712,1803
9059,4141,2713,1804
9059,4140,2713,1804
9057,4138,2713,1804
9057,4137,2713,1804
9060,4138,2714,1804
9057,4136,2714,1804
9054,4133,2714,1803
9060,4135,2716,1804
9060,4134,2716,1805
9055,4131,2715,1804
9060,4132,2717,1805
9063,4132,2719,1806
9060,4130,2719,1805
9065,4130,2721,1806
9072,4132,2724,1808
9067,4129,2723,1807
9059,4126,2720,1806
9055,4125,2718,1805
9042,4121,2714,1802
9025,4115,2708,1799
9018,4113,2705,1798
9014,4112,2703,1797
9002,4107,2699,1795
8994,4104,2697,1793
8998,4105,2698,1794
8994,4103,2697,1793
8985,4099,2694,1792
8989,4100,2695,1793
8987,4099,2695,1792
8976,4094,2692,1790
8976,4094,2692,1790
8978,4094,2693,1791
8972,4091,2691,1789
8967,4089,2690,1788
8972,4091,2691,1789
8969,4089,2691,1789
8963,4086,2689,1787
8964,4086,2690,1787
8967,4087,2691,1788
8961,4083,2689,1786
8961,4081,2688,1785
8957,4082,2689,1785
8960,4082,2690,1785
8959,4082,2686,1783
8946,4076,2686,1783
8950,4077,2688,1783
8948,4076,2688,1783
8945,4073,2687,1782
8944,4072,2687,1782
8941,4072,2686,1781
8928,4067,2682,1778
8916,4063,2677,1776
8910,4062,2675,1774
8899,4058,2671,1772
8889,4054,2667,1770
8880,4051,2664,1768
8881,4052,2664,1768
8874,4049,2662,1767
8866,4045,2660,1765
8869,4046,2661,1766
8865,4044,2660,1765
8852,4039,2656,1762
8856,4040,2657,1763
8853,4039,2656,1762
8842,4035,2653,1760
8843,4035,2653,1760
8837,4033,2652,1758
8837,4032,2652,1758
8834,4030,2651,1757
8832,4029,2651,1757
8834,4030,2652,1758
8836,4029,2653,1758
8833,4027,2653,1757
8838,4029,2654,1758
8835,4026,2654,1758
8832,4025,2654,1757
8833,4024,2654,1757
8836,4025,2655,1758
8841,4027,2657,1759
8841,4027,2657,1758
8837,4026,2656,1757
8834,4026,2654,1757
8832,4026,2653,1756
8830,4026,2652,1756
8834,4028,2653,1757
8835,4029,2653,1757
8840,4031,2654,1758
8847,4034,2656,1760
8850,4034,2657,1761
8850,4034,2657,1761
8859,4039,2660,1763
8863,4040,2662,1763
8865,4041,2662,1764
8871,4044,2664,1765
8877,4046,2666,1766
8884,4049,2668,1767
8887,4050,2669,1768
8893,4053,2671,1769
8901,4056,2674,1770
8906,4058,2676,1771
8913,4060,2678,1773
8926,4065,2683,1775
8933,4068,2685,1777
8935,4068,2686,1777
8945,4072,2690,1779
8957,4076,2694,1781
8959,4076,2695,1782
8965,4078,2697,1783
8975,4083,2700,1784
8977,4084,2701,1784
8973,4083,2699,1784
8974,4085,2699,1784
8976,4087,2698,1784
8969,4085,2696,1783
8967,4085,2695,1783
8975,4088,2697,1785
8977,4089,2697,1785
8973,4088,2695,1785
8983,4092,2698,1787
8992,4096,2701,1788
8986,4094,2699,1787
8988,4095,2700,1787
8997,4099,2703,1789
9000,4100,2703,1790
8999,4100,2703,1790
9005,4103,2705,1791
9015,4107,2708,1793
9016,4107,2708,1793
9019,4108,2709,1793
9032,4113,2714,1796
9040,4116,2717,1798
9040,4116,2717,1798
9051,4120,2721,1800
9063,4125,2725,1802
9064,4125,2725,1802
9070,4127,2728,1804
9084,4132,2732,1806
9089,4134,2734,1807
9090,4135,2734,1807
9090,4136,2735,1807
9092,4138,2735,1807
9093,4138,2731,1805
9085,4136,2729,1805
9080,4134,2729,1806
9085,4137,2730,1806
9084,4138,2729,1806
9080,4136,2727,1806
9085,4139,2728,1807
9089,4141,2729,1808
9090,4141,2730,1808
9094,4143,2731,1809
9101,4147,2733,1810
9102,4148,2733,1810
9102,4147,2733,1810
9107,4150,2734,1811
9113,4152,2736,1812
9115,4154,2737,1813
9116,4154,2737,1813
9123,4157,2739,1815
9128,4158,2741,1815
9128,4158,2742,1816
9136,4161,2745,1817
9142,4162,2747,1819
9145,4163,2748,1819
9151,4165,2750,1820
9156,4167,2752,1821
9160,4168,2754,1822
9164,4169,2755,1823
9169,4171,2757,1824
9173,4173,2758,1824
9172,4173,2758,1824
9168,4172,2757,1823
9164,4172,2754,1822
9159,4171,2752,1822
9152,4169,2749,1820
9151,4169,2748,1821
9148,4169,2747,1820
9147,4169,2746,1820
9150,4170,2746,1821
9152,4170,2747,1821
9154,4171,2748,1822
9156,4172,2748,1822
9154,4171,2748,1822
9152,4171,2747,1822
9151,4170,2746,1821
9150,4170,2746,1821
9150,4170,2746,1821
9150,4170,2746,1821
9152,4171,2747,1822
9155,4171,2748,1822
9156,4171,2749,1822
9158,4172,2750,1823
9161,4172,2751,1823
9162,4172,2752,1824
9163,4172,2752,1824
9165,4172,2753,1824
9166,4172,2754,1824
9168,4172,2755,1825
9169,4172,2756,1825
9169,4172,2756,1825
9168,4171,2756,1824
9162,4169,2753,1823
9152,4167,2750,1821
9142,4164,2746,1819
9133,4161,2742,1817
9124,4158,2739,1816
9119,4157,2736,1815
9115,4155,2734,1814
9109,4154,2733,1813
9109,4153,2732,1813
9105,4152,2731,1813
9102,4151,2730,1812
9102,4151,2730,1812
9100,4150,2730,1812
9097,4148,2729,1811
9093,4147,2727,1810
9093,4147,2727,1810
9089,4146,2727,1809
9084,4143,2725,1808
9082,4142,2725,1808
9083,4142,2725,1808
9079,4140,2724,1807
9079,4139,2725,1807
9083,4140,2726,1808
9083,4139,2726,1808
9080,4137,2726,1807
9084,4139,2728,1808
9084,4138,2728,1808
9081,4136,2727,1807
9082,4136,2728,1807
9083,4136,2728,1807
9073,4133,2725,1805
9063,4129,2721,1803
9057,4128,2719,1802
9051,4126,2716,1801
9040,4122,2713,1800
9039,4121,2712,1800
9036,4120,2711,1799
9036,4117,2708,1798
9029,4115,2707,1798
9024,4116,2708,1798
9028,4116,2706,1797
9022,4113,2705,1796
9015,4110,2705,1796
9017,4111,2705,1796
9013,4109,2704,1796
9005,4106,2701,1794
9006,4106,2702,1794
9007,4106,2702,1794
9002,4103,2701,1793
9001,4102,2701,1793
9004,4103,2702,1794
9004,4102,2703,1794
9002,4100,2702,1793
9004,4101,2704,1794
9008,4102,2705,1794
9003,4099,2704,1793
9005,4099,2705,1794
9011,4101,2708,1795
9008,4098,2707,1794
9004,4096,2706,1793
9002,4096,2705,1793
8991,4093,2701,1791
8979,4089,2697,1789
8972,4087,2694,1787
8968,4086,2692,1787
8960,4083,2689,1785
8952,4080,2686,1784
8950,4080,2685,1784
8947,4078,2685,1783
8941,4075,2683,1782
8941,4075,2683,1782
8940,4075,2683,1782
8932,4071,2680,1780
8932,4071,2680,1780
8933,4071,2680,1781
8926,4068,2679,1779
8927,4068,2679,1779
8928,4068,2679,1780
8927,4067,2680,1779
8926,4066,2680,1779
8928,4065,2681,1780
8928,4065,2681,1780
8928,4064,2682,1780
8927,4064,2682,1779
8929,4064,2683,1780
8929,4063,2683,1780
8928,4062,2683,1779
8929,4062,2684,1779
8929,4062,2684,1779
8925,4060,2683,1778
8921,4058,2682,1777
8912,4056,2678,1776
8904,4054,2675,1774
8898,4053,2672,1773
8892,4051,2669,1772
8887,4049,2668,1771
8888,4050,2667,1772
8891,4051,2668,1773
8895,4053,2669,1774
8900,4055,2671,1775
8900,4055,2671,1775
8904,4057,2672,1776
8907,4058,2673,1776
8904,4058,2672,1775
8905,4059,2672,1775
8910,4061,2673,1776
8911,4062,2674,1776
8918,4064,2676,1777
8925,4067,2679,1779
8932,4069,2681,1780
8939,4071,2684,1782
8947,4074,2687,1784
8957,4077,2691,1786
8963,4079,2693,1787
8968,4080,2695,1788
8977,4084,2698,1790
8984,4086,2701,1791
8985,4086,2701,1791
8991,4088,2703,1792
8997,4091,2705,1793
8991,4090,2703,1792
8985,4089,2700,1790
8982,4089,2699,1790
8981,4090,2697,1790
8976,4088,2695,1789
8976,4089,2695,1789
8981,4091,2696,1791
8983,4092,2696,1791
8983,4092,2696,1791
8991,4096,2699,1793
8997,4098,2701,1794
8996,4098,2700,1794
8999,4099,2701,1795
9007,4103,2704,1796
9006,4103,2704,1796
9006,4102,2704,1796
9006,4106,2706,1797
9014,4108,2708,1798
9020,4108,2709,1799
9021,4108,2711,1800
9026,4109,2711,1801
9035,4113,2714,1803
9043,4115,2716,1803
9045,4115,2718,1803
9054,4119,2721,1805
9064,4122,2724,1807
9065,4122,2725,1808
9072,4125,2728,1809
9084,4129,2732,1811
9085,4130,2733,1811
9087,4130,2733,1811
9092,4133,2735,1812
9089,4133,2733,1811
9082,4131,2730,1810
9078,4131,2728,1809
9078,4131,2728,1810
9077,4132,2727,1809
9071,4130,2725,1808
9073,4131,2725,1809
9076,4133,2725,1809
9074,4133,2725,1809
9077,4134,2725,1809
9083,4137,2727,1810
9080,4137,2726,1810
9079,4137,2726,1809
9083,4139,2727,1810
9085,4140,2728,1810
9086,4140,2728,1810
9090,4142,2730,1811
9097,4144,2732,1812
9102,4146,2734,1813
9106,4147,2735,1814
9112,4150,2737,1815
9119,4152,2740,1816
9121,4152,2741,1817
9126,4153,2743,1817
9133,4156,2745,1819
9136,4157,2747,1819
9139,4158,2748,1820
9143,4159,2750,1820
9147,4161,2751,1821
9148,4161,2752,1821
9144,4160,2750,1820
9138,4159,2748,1819
9133,4158,2745,1817
9126,4156,2742,1816
9123,4156,2741,1815
9122,4156,2740,1815
9119,4155,2739,1815
9121,4156,2739,1815
9124,4157,2740,1816
9126,4158,2741,1816
9127,4159,2742,1817
9130,4159,2743,1817
9130,4160,2743,1817
9131,4160,2743,1818
9132,4160,2743,1818
9132,4160,2743,1818
9135,4161,2744,1818
9137,4162,2745,1819
9141,4163,2747,1819
9145,4164,2748,1820
9148,4164,2750,1821
9152,4166,2752,1822
9156,4166,2753,1822
9158,4167,2754,1823
9162,4167,2756,1823
9164,4167,2757,1824
9163,4166,2757,1824
9164,4166,2758,1824
9164,4165,2758,1824
9159,4163,2757,1823
9150,4160,2753,1821
9139,4157,2750,1819
9131,4155,2746,1817
9125,4153,2744,1816
9117,4150,2741,1815
9114,4148,2740,1814
9111,4147,2739,1814
9106,4145,2737,1813
9105,4144,2737,1813
9106,4145,2738,1813
9098,4141,2736,1812
9098,4140,2735,1811
9098,4141,2735,1811
9094,4139,2734,1811
9090,4137,2734,1810
9094,4138,2735,1811
9093,4137,2735,1810
9092,4136,2735,1810
9095,4136,2736,1811
9099,4138,2738,1812
9094,4135,2737,1811
9091,4132,2736,1810
9095,4133,2738,1811
9095,4132,2738,1810
9093,4127,2736,1809
9084,4127,2737,1809
9087,4128,2737,1809
9086,4126,2737,1806
9076,4121,2735,1806
9072,4119,2734,1806
9071,4119,2733,1805
9054,4113,2728,1802
9037,4107,2722,1798
9033,4106,2720,1798
9022,4102,2716,1796
9006,4095,2710,1793
9005,4095,2710,1793
9002,4094,2709,1793
8991,4089,2705,1791
8985,4086,2703,1789
8991,4089,2705,1790
8986,4086,2704,1789
8984,4086,2703,1789
9024,4104,2715,1797
9036,4110,2719,1799
9040,4112,2720,1800
9053,4117,2724,1802
9097,4137,2738,1811
9117,4145,2744,1814
9130,4151,2748,1817
9145,4157,2753,1820
9150,4158,2755,1821
9150,4157,2756,1821
9160,4161,2759,1823
9169,4164,2762,1825
9164,4161,2761,1824
9166,4161,2762,1824
9175,4165,2766,1826
9172,4162,2765,1825
9165,4159,2763,1824
9171,4162,2765,1825
9163,4160,2762,1823
9146,4154,2756,1820
9142,4153,2754,1819
9140,4153,2752,1819
9126,4147,2748,1817
9119,4144,2745,1815
9119,4145,2745,1816
9115,4143,2743,1815
9106,4139,2741,1813
9106,4139,2741,1813
9104,4138,2740,1813
9092,4133,2736,1810
9088,4132,2735,1810
9092,4133,2736,1810
9085,4130,2734,1809
9079,4127,2733,1808
9082,4128,2734,1808
9081,4127,2734,1808
9076,4124,2733,1807
9078,4124,2734,1808
9080,4125,2735,1808
9076,4122,2734,1807
9077,4122,2735,1808
9081,4122,2736,1809
9082,4122,2737,1809
9080,4121,2737,1809
9080,4120,2738,1808
9081,4120,2738,1808
9075,4117,2736,1807
9066,4114,2733,1805
9057,4112,2730,1803
9045,4108,2725,1801
9033,4104,2721,1799
9022,4100,2717,1797
9081,4127,2734,1808
9114,4143,2744,1815
9118,4145,2744,1816
9120,4147,2745,1816
9123,4148,2746,1817
9128,4150,2747,1818
9131,4152,2748,1818
9134,4154,2749,1819
9139,4157,2750,1819
9141,4158,2751,1820
9146,4161,2752,1820
9149,4162,2753,1821
9153,4164,2755,1822
9161,4167,2757,1823
9168,4170,2760,1824
9172,4171,2761,1825
9181,4174,2764,1826
9191,4178,2768,1829
9199,4181,2770,1830
9204,4183,2772,1831
9213,4186,2776,1833
9222,4190,2779,1835
9227,4191,2780,1835
9233,4193,2782,1836
9241,4197,2785,1838
9238,4197,2784,1837
9238,4194,2780,1835
9229,4196,2779,1835
9229,4196,2778,1835
9228,4197,2775,1834
9221,4195,2775,1834
9222,4196,2775,1835
9226,4198,2776,1835
9227,4199,2776,1836
9226,4198,2776,1835
9233,4201,2778,1837
9241,4205,2780,1838
9238,4203,2779,1838
9240,4204,2780,1838
9250,4209,2783,1840
9251,4210,2783,1840
9249,4209,2783,1840
9258,4212,2785,1842
9270,4217,2789,1844
9270,4217,2790,1845
9277,4219,2792,1846
9292,4225,2797,1849
9299,4227,2800,1851
9302,4227,2801,1851
9313,4232,2805,1854
9325,4236,2809,1856
9325,4236,2809,1856
9331,4238,2811,1857
9345,4244,2816,1860
9347,4244,2817,1860
9339,4242,2814,1858
9340,4244,2813,1859
9342,4246,2813,1859
9333,4243,2810,1857
9333,4243,2809,1858
9339,4246,2810,1859
9339,4247,2810,1859
9338,4247,2809,1859
9347,4250,2812,1861
9355,4253,2815,1863
9354,4253,2814,1863
9356,4254,2815,1863
9367,4259,2818,1865
9368,4260,2819,1865
9366,4259,2818,1865
9374,4262,2821,1867
9381,4265,2823,1868
9382,4265,2823,1868
9389,4268,2826,1870
9399,4272,2829,1871
9404,4273,2831,1873
9408,4274,2833,1873
9417,4278,2836,1875
9426,4281,2839,1877
9431,4283,2841,1878
9437,4284,2843,1879
9446,4287,2846,1881
9448,4288,2847,1881
9443,4286,2846,1880
9439,4286,2844,1879
9433,4285,2841,1877
9421,4282,2837,1875
9417,4281,2834,1874
9414,4281,2833,1873
9410,4281,2831,1873
9407,4280,2829,1872
9408,4281,2829,1872
9409,4282,2830,1873
9408,4281,2829,1872
9408,4282,2830,1872
9410,4283,2830,1872
9409,4283,2829,1872
9409,4283,2829,1872
9413,4285,2830,1873
9416,4286,2831,1874
9416,4287,2832,1874
9416,4287,2831,1873
9419,4288,2832,1873
9424,4290,2834,1875
9434,4292,2838,1877
9443,4295,2842,1880
9450,4296,2844,1881
9458,4298,2847,1883
9465,4300,2850,1885
9472,4301,2853,1887
9482,4303,2856,1890
9488,4305,2859,1891
9493,4306,2861,1893
9492,4305,2860,1893
9486,4304,2858,1892
9481,4302,2855,1892
9475,4301,2853,1891
9467,4298,2849,1889
9463,4297,2847,1889
9454,4294,2844,1887
9449,4293,2842,1886
9449,4293,2842,1886
9451,4293,2843,1887
9450,4292,2843,1887
9450,4292,2843,1887
9450,4290,2840,1885
9443,4290,2837,1882
9432,4287,2832,1878
9418,4283,2832,1876
9410,4281,2829,1875
9407,4280,2828,1875
9404,4279,2827,1874
9402,4279,2827,1873
9404,4279,2828,1873
9403,4279,2828,1873
9412,4280,2831,1875
9424,4283,2835,1878
9428,4284,2837,1879
9429,4283,2838,1879
9431,4284,2839,1879
9431,4284,2839,1879
9431,4284,2839,1878
9432,4283,2840,1879
9435,4284,2841,1880
9434,4283,2841,1880
9429,4281,2839,1880
9425,4279,2837,1880
9423,4279,2836,1880
9413,4275,2832,1878
9406,4273,2829,1877
9401,4272,2828,1876
9396,4270,2826,1875
9393,4268,2825,1875
9395,4269,2826,1875
9391,4267,2825,1874
9388,4265,2823,1873
9385,4265,2823,1873
9385,4264,2823,1873
9382,4262,2822,1872
9382,4262,2822,1872
9384,4263,2823,1873
9380,4261,2821,1871
9374,4259,2820,1870
9375,4259,2821,1870
9374,4259,2821,1869
9372,4257,2821,1869
9377,4258,2823,1870
9385,4260,2825,1871
9384,4259,2826,1871
9387,4259,2827,1872
9394,4261,2830,1873
9391,4260,2830,1873
9389,4258,2829,1872
9391,4259,2830,1873
9385,4257,2827,1872
9376,4254,2824,1871
9369,4252,2821,1870
9364,4250,2819,1869
9358,4248,2817,1868
9353,4246,2815,1868
9355,4246,2815,1869
9351,4245,2814,1868
9346,4242,2812,1867
9346,4243,2812,1866
9344,4242,2811,1866
9336,4239,2809,1864
9333,4238,2808,1864
9332,4238,2808,1863
9328,4236,2806,1862
9328,4235,2807,1863
9330,4236,2808,1863
9329,4235,2808,1863
9329,4234,2808,1863
9330,4234,2809,1863
9333,4235,2810,1863
9334,4234,2811,1864
9334,4234,2812,1864
9339,4235,2813,1865
9342,4235,2815,1865
9342,4234,2815,1865
9345,4235,2817,1866
9346,4235,2817,1866
9343,4234,2817,1865
9340,4233,2816,1865
9335,4231,2813,1863
9323,4227,2809,1861
9315,4225,2806,1860
9307,4223,2803,1858
9300,4221,2800,1857
9295,4219,2798,1856
9293,4218,2797,1856
9292,4217,2797,1856
9290,4216,2796,1855
9288,4215,2796,1855
9287,4215,2795,1855
9284,4214,2794,1854
9283,4214,2794,1854
9282,4214,2794,1853
9284,4214,2794,1853
9284,4214,2794,1853
9288,4215,2796,1854
9288,4217,2798,1855
9294,4219,2800,1856
9299,4219,2803,1858
9306,4221,2805,1859
9313,4223,2805,1861
9320,4225,2808,1862
9328,4227,2811,1862
9336,4229,2814,1864
9344,4232,2817,1866
9348,4233,2819,1866
9351,4234,2820,1867
9355,4236,2821,1867
9359,4238,2823,1868
9358,4237,2823,1868
9358,4238,2822,1868
9354,4238,2820,1867
9347,4236,2817,1865
9343,4235,2815,1865
9345,4237,2815,1866
9346,4237,2815,1866
9348,4238,2815,1867
9351,4239,2816,1868
9359,4242,2819,1870
9361,4242,2819,1870
9359,4242,2819,1870
9365,4244,2821,1871
9369,4246,2822,1871
9365,4245,2820,1871
9366,4246,2821,1870
9372,4248,2822,1871
9374,4249,2823,1872
9374,4249,2824,1871
9377,4250,2825,1872
9384,4253,2827,1873
9388,4254,2829,1874
9390,4255,2830,1873
9396,4258,2832,1874
9404,4260,2835,1876
9410,4261,2838,1878
9418,4264,2841,1879
9427,4267,2844,1881
9429,4267,2845,1881
9431,4268,2846,1881
9433,4270,2846,1881
9422,4267,2842,1878
9412,4264,2838,1875
9411,4265,2837,1876
9407,4265,2834,1874
9402,4264,2832,1874
9400,4263,2832,1874
9403,4265,2832,1874
9407,4266,2833,1875
9414,4268,2836,1878
9424,4271,2839,1880
9427,4273,2840,1880
9428,4273,2840,1881
9428,4273,2840,1881
9431,4275,2841,1881
9433,4276,2842,1882
9438,4277,2843,1883
9445,4279,2846,1884
9449,4280,2847,1885
9448,4281,2847,1885
9446,4281,2847,1883
9452,4283,2848,1884
9456,4284,2850,1885
9459,4285,2851,1885
9467,4287,2854,1887
9477,4291,2858,1889
9477,4291,2858,1888
9470,4289,2856,1886
9474,4292,2857,1886
9481,4293,2859,1888
9485,4294,2860,1890
9497,4298,2864,1895
9507,4300,2867,1898
9505,4300,2866,1898
9496,4297,2862,1896
9487,4296,2859,1893
9480,4295,2856,1891
9469,4292,2852,1888
9462,4291,2850,1885
9459,4290,2848,1884
9457,4289,2848,1884
9455,4289,2847,1883
9459,4291,2848,1884
9460,4291,2848,1884
9465,4292,2850,1886
9475,4295,2853,1888
9482,4297,2856,1890
9488,4299,2858,1892
9499,4302,2862,1894
9503,4303,2864,1895
9510,4305,2866,1896
9520,4307,2870,1899
9531,4310,2874,1902
9534,4311,2876,1902
9534,4311,2877,1903
9536,4312,2879,1904
9541,4312,2880,1905
9545,4313,2881,1905
9546,4313,2881,1906
9549,4314,2882,1905
9542,4312,2879,1905
9531,4309,2874,1903
9525,4307,2872,1902
9522,4307,2870,1901
9508,4303,2865,1898
9524,4307,2870,1903
9539,4310,2875,1908
9545,4311,2877,1910
9546,4311,2878,1910
9558,4314,2882,1914
9561,4314,2883,1915
9552,4312,2880,1912
9538,4308,2875,1908
9531,4307,2872,1906
9523,4305,2869,1904
9509,4301,2864,1899
9499,4299,2861,1896
9499,4299,2861,1896
9500,4299,2861,1896
9497,4299,2861,1895
9496,4298,2861,1894
9501,4299,2863,1895
9508,4301,2866,1897
9509,4301,2866,1897
9511,4301,2867,1897
9515,4302,2869,1898
9514,4302,2869,1899
9507,4300,2866,1897
9498,4298,2862,1895
9487,4295,2858,1893
9477,4292,2854,1890
9467,4290,2850,1888
9461,4288,2847,1886
9464,4289,2849,1888
9472,4290,2851,1890
9479,4291,2854,1892
9485,4292,2856,1894
9490,4293,2858,1896
9493,4293,2859,1897
9490,4292,2858,1896
9481,4290,2855,1894
9471,4287,2851,1890
9459,4285,2847,1887
9450,4282,2844,1884
9452,4282,2845,1885
9460,4284,2848,1887
9466,4285,2851,1889
9469,4285,2852,1889
9470,4286,2853,1889
9467,4284,2852,1889
9463,4283,2850,1887
9460,4282,2850,1886
9456,4282,2849,1884
9444,4278,2844,1882
9421,4272,2836,1876
9390,4265,2824,1867
9363,4258,2814,1861
9348,4254,2809,1857
9336,4251,2804,1854
9325,4248,2800,1851
9317,4245,2797,1849
9316,4245,2797,1849
9317,4245,2797,1849
9319,4245,2798,1850
9323,4246,2800,1852
9329,4247,2801,1854
9336,4248,2804,1856
9343,4249,2807,1859
9352,4251,2809,1861
9354,4251,2810,1862
9348,4250,2809,1860
9348,4249,2809,1860
9348,4250,2809,1859
9342,4248,2807,1857
9337,4246,2806,1856
9339,4247,2806,1856
9343,4248,2808,1857
9347,4248,2810,1858
9362,4252,2815,1862
9368,4253,2817,1864
9365,4251,2816,1864
9361,4250,2814,1863
9360,4250,2813,1864
9358,4249,2812,1864
9361,4250,2813,1866
9365,4250,2814,1868
9368,4251,2815,1869
9367,4250,2815,1869
9367,4250,2815,1869
9366,4250,2815,1869
9366,4249,2814,1868
9364,4249,2813,1867
9360,4247,2814,1868
9362,4247,2814,1868
9361,4246,2813,1867
9356,4244,2812,1867
9357,4245,2813,1867
9365,4246,2816,1869
9376,4248,2820,1873
9390,4251,2825,1876
9396,4252,2828,1878
9399,4253,2829,1879
9399,4252,2830,1879
9399,4252,2830,1878
9398,4251,2830,1878
9398,4251,2830,1878
9396,4250,2830,1877
9388,4248,2827,1875
9379,4245,2823,1874
9372,4243,2820,1873
9367,4242,2818,1872
9364,4242,2817,1872
9365,4241,2816,1873
9370,4242,2818,1874
9372,4243,2819,1875
9372,4243,2819,1875
9373,4244,2819,1875
9372,4244,2819,1875
9370,4244,2818,1874
9369,4244,2818,1874
9369,4244,2817,1874
9370,4245,2818,1874
9369,4245,2817,1873
9370,4245,2818,1873
9375,4247,2819,1874
9379,4248,2821,1875
9382,4248,2823,1876
9389,4251,2825,1878
9396,4253,2828,1879
9401,4254,2830,1880
9406,4255,2832,1881
9405,4255,2831,1881
9404,4255,2831,1880
9399,4254,2829,1880
9387,4252,2824,1877
9377,4250,2820,1875
9373,4249,2818,1874
9369,4248,2816,1874
9367,4248,2815,1873
9367,4248,2814,1873
9368,4248,2815,1873
9373,4250,2817,1875
9375,4251,2817,1875
9373,4250,2817,1874
9373,4250,2817,1874
9375,4251,2817,1874
9377,4253,2818,1875
9379,4253,2819,1875
9383,4254,2820,1876
9389,4256,2823,1877
9393,4257,2824,1878
9397,4258,2826,1879
9406,4261,2829,1881
9414,4263,2832,1883
9417,4263,2833,1883
9421,4265,2835,1884
9425,4266,2836,1884
9420,4265,2835,1883
9412,4263,2832,1882
9405,4262,2828,1880
9399,4261,2826,1879
9392,4259,2823,1878
9384,4257,2819,1877
9383,4257,2818,1876
9380,4257,2817,1876
9380,4257,2817,1876
9385,4259,2819,1877
9387,4260,2820,1877
9385,4258,2819,1877
9385,4259,2819,1877
9388,4260,2820,1877
9387,4260,2820,1877
9389,4261,2820,1878
9392,4262,2821,1878
9395,4263,2823,1879
9399,4264,2824,1879
9404,4265,2826,1880
9412,4268,2829,1882
9417,4270,2831,1883
9421,4271,2833,1884
9430,4274,2836,1885
9435,4276,2838,1886
9439,4277,2840,1887
9440,4278,2840,1887
9437,4278,2838,1886
9428,4275,2835,1884
9428,4272,2831,1883
9418,4271,2828,1882
9412,4271,2825,1881
9407,4270,2823,1880
9402,4269,2823,1880
9400,4268,2822,1880
9400,4268,2822,1880
9401,4268,2823,1880
9399,4267,2822,1880
9403,4269,2824,1881
9404,4268,2824,1881
9403,4268,2824,1881
9404,4269,2824,1881
9405,4269,2824,1881
9405,4269,2825,1881
9407,4270,2825,1881
9408,4270,2826,1882
9411,4271,2828,1882
9417,4272,2830,1883
9422,4273,2832,1884
9425,4274,2833,1885
9433,4276,2836,1886
9436,4277,2838,1887
9440,4279,2839,1888
9442,4279,2840,1888
9442,4279,2840,1887
9438,4278,2839,1886
9431,4276,2836,1885
9421,4274,2832,1883
9414,4272,2829,1882
9408,4270,2826,1881
9402,4269,2824,1880
9399,4268,2822,1879
9397,4267,2822,1879
9396,4267,2821,1879
9398,4268,2822,1879
9397,4267,2822,1879
9398,4267,2822,1879
9397,4267,2822,1879
9395,4266,2821,1879
9396,4267,2822,1879
9396,4266,2822,1879
9397,4266,2822,1879
9401,4267,2824,1879
9403,4268,2825,1880
9407,4269,2827,1881
9413,4270,2829,1882
9419,4271,2831,1884
9424,4272,2834,1885
9429,4274,2836,1886
9433,4274,2837,1886
9435,4275,2839,1887
9439,4276,2840,1887
9436,4274,2839,1887
9432,4274,2838,1886
9425,4272,2835,1884
9414,4269,2831,1882
9408,4267,2828,1881
9404,4266,2826,1880
9399,4265,2824,1880
9398,4264,2824,1880
9399,4265,2824,1880
9399,4265,2824,1880
9399,4264,2824,1880
9401,4265,2825,1881
9402,4264,2825,1881
9401,4264,2825,1881
9401,4263,2825,1881
9403,4264,2826,1881
9403,4264,2826,1881
9403,4264,2827,1881
9407,4265,2828,1882
9411,4265,2830,1883
9413,4266,2831,1883
9416,4267,2833,1883
9420,4267,2834,1884
9423,4268,2836,1885
9426,4268,2837,1885
9430,4269,2839,1886
9432,4269,2840,1886
9435,4270,2841,1887
9436,4270,2842,1887
9435,4270,2842,1887
9428,4268,2839,1886
9418,4265,2835,1884
9412,4263,2832,1883
9405,4262,2829,1882
9398,4259,2827,1881
9397,4260,2826,1880
9393,4258,2824,1880
9391,4257,2823,1879
9391,4258,2823,1880
9393,4258,2824,1880
9390,4257,2823,1879
9389,4257,2823,1879
9389,4256,2822,1879
9389,4256,2822,1879
9387,4255,2821,1879
9386,4255,2822,1879
9387,4255,2822,1879
9388,4255,2822,1879
9388,4255,2823,1879
9389,4254,2823,1879
9394,4256,2825,1880
9396,4256,2827,1880
9400,4257,2828,1881
9407,4258,2831,1883
9409,4259,2832,1883
9409,4258,2833,1883
9415,4260,2835,1884
9417,4260,2836,1884
9418,4260,2837,1885
9418,4260,2837,1884
9415,4259,2836,1884
9407,4257,2833,1882
9399,4254,2830,1880
9391,4252,2826,1879
9385,4251,2824,1878
9378,4249,2821,1877
9374,4247,2819,1876
9372,4247,2818,1876
9368,4246,2817,1876
9367,4245,2817,1875
9368,4246,2817,1875
9366,4245,2816,1875
9364,4244,2816,1875
9363,4244,2816,1874
9361,4243,2815,1874
9358,4242,2814,1873
9358,4242,2814,1873
9358,4242,2815,1873
9362,4242,2816,1874
9366,4243,2818,1874
9370,4244,2819,1875
9374,4245,2821,1876
9377,4245,2822,1876
9379,4246,2824,1877
9384,4247,2826,1878
9386,4247,2827,1878
9388,4248,2828,1878
9390,4249,2829,1879
9391,4249,2830,1879
9394,4249,2831,1879
9399,4251,2833,1880
9401,4251,2834,1880
9400,4251,2833,1880
9394,4250,2831,1879
9386,4248,2827,1877
9379,4246,2824,1876
9372,4245,2821,1874
9368,4244,2819,1874
9368,4244,2819,1874
9367,4244,2819,1874
9368,4244,2819,1875
9373,4245,2821,1876
9376,4246,2821,1877
9379,4247,2823,1878
9382,4248,2823,1879
9383,4248,2824,1879
9383,4248,2824,1879
9384,4248,2824,1879
9384,4249,2824,1879
9388,4250,2826,1880
9391,4250,2827,1881
9393,4251,2828,1881
9398,4253,2830,1882
9400,4253,2831,1882
9402,4253,2832,1882
9407,4255,2834,1883
9407,4255,2834,1883
9409,4256,2835,1883
9414,4257,2837,1884
9420,4259,2839,1885
9425,4260,2841,1886
9429,4261,2843,1887
9430,4262,2844,1887
9428,4262,2842,1887
9419,4259,2839,1885
9410,4257,2835,1884
9406,4256,2833,1883
9400,4255,2830,1882
9396,4254,2829,1881
9398,4255,2829,1882
9397,4254,2828,1882
9397,4254,2828,1882
9397,4254,2829,1882
9398,4255,2829,1882
9399,4256,2829,1882
9399,4256,2829,1882
9400,4256,2829,1882
9403,4257,2830,1883
9404,4257,2831,1883
9404,4258,2832,1883
9406,4259,2834,1884
9411,4259,2836,1885
9416,4260,2837,1886
9418,4261,2837,1887
9424,4262,2839,1888
9429,4263,2841,1888
9433,4265,2843,1889
9436,4265,2844,1889
9441,4267,2846,1890
9446,4268,2848,1891
9451,4269,2850,1892
9453,4270,2851,1892
9459,4272,2853,1893
9461,4272,2854,1894
9457,4271,2853,1893
9452,4270,2851,1892
9445,4268,2848,1891
9436,4266,2844,1889
9432,4266,2842,1889
9429,4265,2841,1888
9426,4264,2839,1888
9425,4264,2839,1888
9426,4264,2839,1888
9428,4265,2839,1889
9429,4265,2840,1889
9428,4265,2840,1889
9428,4265,2840,1889
9428,4265,2840,1889
9427,4265,2839,1889
9428,4265,2840,1889
9428,4265,2840,1889
9429,4265,2840,1889
9434,4267,2842,1890
9436,4267,2843,1890
9439,4268,2844,1890
9444,4269,2846,1891
9448,4270,2848,1892
9452,4271,2850,1893
9457,4273,2852,1894
9459,4273,2853,1894
9462,4274,2854,1894
9467,4275,2856,1895
9469,4275,2857,1895
9472,4277,2858,1896
9476,4278,2860,1896
9475,4277,2860,1896
9471,4276,2858,1895
9463,4274,2855,1894
9453,4272,2851,1892
9448,4270,2848,1891
9443,4269,2846,1891
9440,4268,2845,1890
9439,4268,2844,1890
9438,4268,2844,1890
9440,4268,2844,1891
9443,4269,2845,1892
9444,4269,2846,1892
9445,4269,2846,1892
9445,4269,2846,1893
9445,4269,2846,1893
9445,4269,2846,1893
9444,4268,2846,1893
9444,4268,2846,1893
9446,4268,2847,1893
9448,4268,2848,1894
9449,4268,2849,1894
9452,4268,2850,1895
9455,4269,2851,1895
9457,4269,2853,1896
9459,4269,2854,1896
9458,4268,2854,1896
9460,4268,2855,1895
9460,4268,2855,1895
9458,4267,2855,1895
9459,4267,2855,1895
9459,4267,2855,1895
9449,4264,2852,1893
9440,4261,2848,1891
9432,4259,2845,1890
9424,4256,2841,1889
9417,4254,2839,1888
9414,4253,2837,1887
9411,4252,2836,1887
9407,4251,2835,1886
9404,4249,2834,1886
9405,4250,2834,1886
9402,4248,2834,1885
9396,4246,2832,1884
9398,4246,2832,1884
9396,4245,2832,1884
9388,4242,2829,1883
9390,4242,2830,1883
9391,4242,2830,1883
9387,4240,2830,1882
9388,4239,2830,1882
9388,4241,2832,1883
9393,4241,2832,1883
9391,4239,2832,1883
9389,4237,2832,1884
9393,4238,2834,1884
9394,4238,2835,1884
9389,4235,2834,1883
9390,4235,2834,1883
9394,4236,2836,1883
9391,4234,2836,1883
9386,4231,2834,1881
9387,4232,2835,1882
9378,4229,2832,1880
9361,4223,2825,1877
9352,4220,2821,1875
9346,4219,2819,1874
9331,4214,2813,1871
9321,4210,2810,1870
9320,4210,2809,1869
9316,4208,2808,1869
9308,4205,2806,1867
9309,4205,2806,1867
9310,4205,2807,1868
9302,4202,2804,1866
9296,4199,2802,1865
9298,4200,2803,1865
9292,4198,2801,1864
9283,4194,2798,1862
9288,4196,2800,1863
9290,4196,2801,1863
9283,4192,2799,1862
9286,4192,2800,1862
9292,4194,2803,1864
9289,4192,2802,1863
9288,4191,2802,1863
9293,4192,2804,1864
9293,4192,2805,1864
9289,4189,2804,1863
9290,4189,2805,1863
9294,4190,2806,1863
9288,4187,2805,1862
9280,4184,2803,1860
9277,4184,2801,1859
9263,4180,2795,1857
9246,4174,2789,1854
9239,4172,2786,1852
9231,4170,2783,1851
9219,4165,2779,1849
9214,4164,2777,1848
9213,4163,2777,1848
9209,4161,2775,1847
9204,4159,2774,1846
9199,4157,2772,1845
9193,4156,2770,1843
9182,4152,2767,1840
9172,4149,2763,1838
9168,4148,2762,1837
9165,4146,2761,1836
9165,4145,2761,1836
9173,4147,2765,1838
9185,4149,2769,1842
9192,4149,2772,1844
9198,4151,2775,1846
9200,4150,2776,1846
9204,4150,2778,1847
9210,4151,2780,1849
9217,4153,2783,1851
9223,4154,2786,1852
9224,4154,2786,1852
9223,4154,2786,1851
9220,4154,2785,1850
9212,4152,2782,1848
9202,4150,2778,1846
9200,4150,2776,1846
9201,4151,2776,1847
9196,4150,2773,1846
9194,4150,2772,1845
9193,4151,2772,1845
9191,4151,2771,1844
9194,4153,2772,1845
9200,4155,2773,1846
9202,4156,2774,1846
9200,4156,2773,1845
9202,4157,2774,1846
9211,4161,2777,1848
9215,4162,2778,1849
9217,4163,2779,1849
9224,4166,2781,1850
9233,4169,2784,1852
9235,4170,2785,1852
9239,4172,2787,1852
9248,4175,2790,1854
9256,4178,2792,1855
9257,4178,2793,1855
9262,4180,2795,1856
9262,4184,2798,1857
9270,4185,2799,1857
9273,4185,2800,1858
9274,4185,2800,1859
9282,4188,2802,1859
9283,4189,2802,1859
9273,4186,2798,1857
9266,4185,2795,1856
9267,4187,2794,1857
9262,4186,2792,1856
9259,4185,2790,1855
9261,4187,2790,1856
9265,4189,2791,1857
9263,4188,2791,1856
9262,4188,2790,1856
9269,4192,2792,1857
9273,4194,2794,1858
9269,4192,2792,1857
9270,4194,2792,1857
9275,4197,2793,1857
9272,4196,2792,1856
9270,4195,2792,1856
9281,4200,2796,1858
9289,4203,2798,1859
9294,4204,2801,1860
9305,4207,2805,1863
9321,4213,2810,1866
9329,4215,2813,1868
9335,4216,2816,1870
9349,4221,2820,1872
9359,4224,2824,1874
9359,4224,2824,1874
9365,4226,2827,1875
9373,4230,2829,1876
9367,4228,2827,1875
9358,4226,2823,1873
9357,4227,2822,1873
9353,4227,2819,1872
9346,4225,2817,1871
9346,4226,2816,1871
9350,4228,2817,1872
9349,4228,2816,1872
9349,4228,2816,1872
9356,4231,2818,1874
9363,4234,2821,1875
9363,4234,2821,1875
9367,4235,2822,1876
9374,4238,2824,1877
9377,4239,2825,1878
9379,4240,2826,1879
9387,4243,2829,1880
9392,4245,2830,1881
9393,4245,2831,1881
9398,4247,2833,1882
9406,4249,2836,1883
9411,4251,2838,1884
9415,4252,2839,1885
9420,4253,2841,1886
9428,4256,2844,1887
9431,4256,2846,1888
9435,4258,2847,1888
9442,4260,2850,1890
9445,4261,2851,1890
9444,4261,2850,1890
9441,4260,2849,1890
9434,4259,2846,1889
9425,4257,2842,1887
9421,4256,2840,1886
9419,4256,2839,1886
9419,4256,2838,1887
9419,4256,2838,1887
9423,4257,2839,1888
9428,4259,2841,1889
9431,4260,2842,1890
9431,4260,2842,1890
9432,4260,2842,1890
9431,4260,2842,1890
9430,4260,2841,1890
9429,4259,2841,1889
9430,4260,2842,1889
9431,4260,2842,1889
9432,4260,2843,1889
9434,4261,2844,1890
9439,4262,2846,1891
9441,4263,2847,1891
9446,4263,2849,1892
9451,4265,2851,1893
9457,4266,2853,1894
9458,4266,2854,1894
9462,4267,2856,1895
9460,4266,2856,1894
9456,4265,2854,1894
9448,4263,2850,1892
9437,4260,2846,1890
9427,4257,2842,1889
9427,4255,2839,1888
9421,4252,2836,1886
9413,4252,2834,1885
9407,4251,2832,1885
9402,4249,2832,1884
9400,4248,2831,1884
9399,4247,2831,1884
9398,4247,2831,1884
9398,4247,2830,1884
9397,4247,2830,1884
9392,4245,2829,1883
9391,4244,2828,1883
9394,4245,2830,1884
9395,4245,2830,1884
9395,4244,2831,1884
9401,4245,2833,1885
9402,4245,2834,1885
9403,4245,2834,1885
9405,4245,2835,1886
9407,4245,2836,1886
9406,4244,2837,1886
9406,4243,2837,1885
9409,4244,2839,1886
9410,4244,2839,1886
9406,4241,2839,1885
9405,4241,2838,1885
9397,4239,2835,1883
9379,4233,2829,1880
9367,4230,2824,1878
9362,4228,2821,1877
9350,4224,2817,1875
9340,4221,2813,1873
9337,4220,2812,1873
9331,4218,2810,1872
9325,4215,2808,1870
9324,4215,2808,1870
9325,4216,2808,1870
9318,4213,2806,1869
9313,4210,2804,1868
9314,4211,2805,1868
9311,4210,2804,1867
9305,4207,2802,1866
9307,4207,2803,1866
9311,4209,2805,1867
9306,4206,2804,1866
9309,4206,2805,1866
9317,4208,2808,1868
9317,4207,2809,1868
9317,4206,2810,1868
9323,4208,2812,1870
9325,4208,2813,1870
9320,4205,2812,1869
9319,4204,2812,1868
9322,4206,2813,1868
9319,4204,2813,1868
9310,4201,2810,1866
9303,4199,2807,1864
9291,4196,2802,1862
9270,4189,2794,1858
9261,4186,2790,1856
9256,4186,2788,1855
9244,4181,2784,1853
9237,4178,2782,1852
9237,4179,2782,1852
9236,4178,2781,1851
9232,4175,2780,1851
9232,4175,2780,1851
9230,4175,2780,1851
9224,4172,2778,1849
9220,4170,2777,1848
9219,4170,2776,1848
9217,4169,2776,1847
9212,4167,2775,1846
9214,4167,2776,1847
9219,4168,2777,1847
9216,4166,2777,1847
9219,4166,2779,1848
9224,4168,2781,1849
9223,4166,2781,1849
9224,4166,2782,1849
9229,4167,2784,1850
9229,4166,2785,1850
9230,4166,2785,1850
9232,4166,2787,1850
9234,4166,2788,1851
9228,4164,2785,1850
9217,4161,2781,1848
9205,4157,2777,1845
9196,4155,2773,1844
9187,4152,2769,1843
9182,4150,2767,1842
9177,4148,2765,1841
9175,4148,2765,1841
9178,4148,2766,1841
9178,4149,2766,1841
9179,4148,2766,1841
9178,4148,2766,1841
9177,4148,2766,1841
9177,4148,2766,1842
9180,4150,2766,1842
9183,4151,2767,1842
9186,4152,2769,1843
9191,4154,2770,1844
9198,4156,2773,1845
9203,4158,2775,1846
9210,4160,2777,1847
9218,4163,2780,1849
9224,4165,2783,1850
9231,4167,2785,1852
9239,4170,2788,1853
9245,4172,2791,1854
9251,4174,2793,1855
9258,4176,2795,1857
9266,4179,2798,1858
9272,4181,2800,1859
9272,4181,2801,1859
9270,4181,2800,1859
9266,4181,2797,1858
9255,4178,2793,1856
9248,4177,2789,1855
9246,4178,2788,1855
9242,4177,2786,1854
9237,4176,2784,1854
9240,4177,2784,1854
9244,4179,2785,1855
9243,4179,2785,1855
9244,4179,2785,1855
9248,4182,2786,1856
9251,4183,2787,1856
9247,4182,2786,1856
9249,4183,2787,1856
9257,4186,2789,1858
9255,4185,2788,1857
9259,4187,2790,1858
9269,4191,2793,1860
9276,4193,2796,1862
9279,4194,2797,1862
9287,4197,2800,1864
9298,4201,2804,1866
9302,4202,2806,1867
9304,4202,2807,1867
9313,4205,2810,1868
9322,4209,2813,1870
9323,4208,2814,1870
9328,4210,2816,1871
9339,4215,2819,1873
9337,4214,2819,1873
9330,4212,2816,1871
9326,4213,2814,1871
9319,4212,2810,1870
9309,4209,2806,1868
9304,4208,2804,1867
9306,4210,2803,1868
9303,4209,2802,1867
9299,4208,2800,1867
9302,4210,2801,1868
9307,4212,2802,1868
9305,4212,2802,1868
9304,4212,2801,1868
9309,4214,2803,1868
9307,4214,2802,1868
9305,4214,2801,1868
9310,4216,2803,1868
9315,4218,2804,1869
9317,4219,2805,1869
9322,4221,2807,1870
9331,4224,2810,1872
9337,4226,2812,1873
9340,4227,2814,1874
9347,4229,2816,1875
9356,4232,2819,1876
9360,4234,2821,1877
9363,4234,2823,1878
9369,4237,2825,1879
9373,4238,2827,1879
9375,4239,2827,1880
9382,4241,2830,1881
9384,4242,2831,1881
9380,4241,2829,1880
9370,4238,2825,1879
9362,4237,2822,1877
9354,4235,2818,1876
9350,4234,2816,1876
9347,4234,2814,1875
9347,4234,2814,1876
9346,4234,2814,1876
9349,4235,2814,1876
9353,4237,2815,1877
9355,4237,2816,1878
9354,4237,2816,1878
9354,4238,2816,1878
9356,4237,2815,1877
9353,4237,2814,1877
9351,4237,2814,1876
9350,4237,2814,1876
9350,4237,2814,1877
9354,4238,2815,1877
9358,4239,2817,1877
9363,4241,2819,1879
9368,4242,2821,1880
9374,4243,2824,1881
9379,4245,2826,1882
9384,4246,2828,1883
9388,4247,2830,1884
9391,4247,2831,1885
9396,4249,2833,1886
9399,4249,2835,1886
9403,4250,2836,1887
9403,4250,2836,1887
9395,4248,2833,1885
9384,4245,2829,1883
9373,4242,2824,1881
9361,4239,2819,1879
9353,4237,2816,1878
9345,4234,2813,1877
9339,4233,2810,1876
9336,4232,2809,1875
9334,4231,2808,1875
9330,4230,2807,1874
9329,4230,2807,1874
9326,4229,2806,1873
9323,4227,2805,1873
9322,4227,2804,1873
9320,4226,2803,1872
9317,4225,2802,1871
9318,4226,2803,1871
9318,4225,2803,1871
9320,4226,2804,1872
9322,4226,2805,1872
9326,4227,2807,1873
9330,4228,2809,1874
9333,4228,2810,1875
9335,4228,2811,1875
9339,4230,2813,1876
9340,4229,2814,1876
9340,4229,2814,1875
9343,4230,2816,1876
9344,4229,2816,1876
9341,4227,2816,1875
9338,4227,2814,1875
9327,4224,2810,1873
9312,4219,2804,1870
9297,4215,2798,1867
9289,4213,2794,1866
9280,4211,2791,1864
9269,4207,2787,1863
9264,4205,2785,1862
9262,4205,2784,1861
9257,4203,2782,1861
9255,4202,2782,1860
9256,4202,2782,1860
9251,4200,2780,1859
9245,4198,2779,1858
9246,4199,2779,1858
9243,4198,2778,1858
9240,4195,2777,1857
9242,4196,2778,1857
9244,4196,2779,1858
9245,4196,2779,1858
9246,4196,2781,1858
9252,4197,2783,1859
9254,4197,2784,1860
9254,4196,2784,1860
9258,4197,2786,1861
9262,4198,2788,1861
9259,4196,2787,1861
9261,4196,2788,1861
9267,4199,2791,1862
9264,4197,2790,1861
9256,4194,2787,1860
9249,4193,2784,1858
9233,4188,2778,1855
9218,4184,2772,1853
9208,4181,2768,1851
9200,4179,2764,1849
9189,4175,2760,1847
9182,4173,2758,1846
9181,4173,2757,1845
9177,4172,2756,1845
9175,4171,2755,1844
9175,4171,2755,1844
9173,4170,2755,1844
9168,4168,2753,1843
9164,4167,2752,1842
9166,4168,2752,1842
9166,4165,2751,1840
9160,4164,2751,1840
9159,4164,2752,1841
9162,4165,2753,1841
9163,4165,2753,1841
9162,4164,2753,1841
9166,4164,2755,1841
9167,4164,2756,1841
9168,4164,2757,1841
9169,4163,2757,1841
9173,4164,2759,1842
9174,4164,2760,1842
9174,4164,2760,1842
9176,4164,2762,1842
9179,4164,2763,1843
9173,4162,2761,1841
9165,4160,2758,1840
9153,4157,2753,1837
9139,4153,2748,1835
9128,4150,2743,1833
9121,4148,2740,1832
9113,4145,2737,1830
9110,4144,2736,1830
9108,4143,2735,1830
9109,4143,2736,1830
9112,4144,2737,1831
9112,4144,2737,1831
9112,4144,2737,1831
9112,4144,2737,1831
9112,4144,2737,1831
9114,4145,2738,1831
9117,4146,2739,1832
9122,4148,2740,1833
9128,4150,2743,1834
9135,4152,2745,1835
9141,4154,2747,1836
9148,4156,2750,1838
9155,4158,2753,1839
9161,4160,2755,1840
9166,4162,2757,1841
9171,4163,2759,1842
9179,4166,2762,1844
9186,4168,2765,1845
9187,4168,2765,1845
9187,4169,2765,1845
9184,4169,2763,1844
9172,4166,2758,1842
9162,4163,2754,1840
9158,4163,2752,1840
9154,4162,2749,1840
9150,4161,2748,1839
9148,4161,2747,1839
9151,4163,2747,1840
9155,4164,2749,1840
9155,4164,2749,1841
9159,4166,2750,1842
9164,4168,2752,1842
9162,4167,2751,1842
9162,4167,2751,1842
9169,4170,2753,1843
9171,4171,2754,1844
9173,4171,2755,1844
9181,4174,2758,1846
9189,4177,2760,1847
9193,4178,2762,1848
9199,4179,2765,1849
9208,4182,2768,1851
9215,4184,2771,1852
9217,4184,2772,1853
9225,4187,2774,1854
9235,4191,2778,1856
9237,4191,2779,1856
9239,4192,2780,1857
9248,4195,2783,1858
9244,4194,2782,1857
9233,4191,2777,1855
9223,4189,2773,1853
9216,4188,2769,1852
9207,4186,2765,1851
9201,4185,2762,1850
9200,4185,2761,1850
9199,4185,2760,1850
9196,4184,2759,1850
9198,4185,2760,1850
9204,4188,2762,1851
9203,4187,2762,1851
9202,4187,2761,1851
9207,4190,2763,1852
9208,4190,2763,1852
9210,4191,2764,1852
9213,4192,2765,1853
9220,4195,2767,1854
9226,4196,2769,1855
9232,4198,2772,1857
9240,4200,2775,1858
9247,4203,2778,1860
9247,4204,2779,1861
9251,4205,2781,1861
9256,4205,2785,1863
9265,4208,2786,1864
9269,4209,2786,1864
9273,4210,2788,1864
9281,4213,2791,1866
9286,4214,2793,1867
9288,4215,2794,1867
9286,4214,2794,1867
9281,4213,2791,1866
9268,4210,2785,1863
9257,4207,2781,1861
9249,4206,2777,1860
9243,4204,2774,1859
9236,4202,2772,1858
9232,4201,2770,1857
9232,4202,2770,1858
9233,4202,2770,1858
9235,4203,2771,1858
9238,4203,2772,1859
9238,4204,2772,1859
9239,4204,2772,1859
9240,4204,2772,1859
9240,4205,2772,1859
9242,4205,2773,1859
9246,4206,2775,1860
9250,4208,2776,1861
9256,4209,2779,1862
9262,4211,2781,1863
9266,4212,2783,1864
9273,4214,2786,1865
9279,4215,2788,1866
9284,4217,2790,1867
9288,4218,2792,1868
9291,4218,2793,1868
9295,4219,2795,1869
9300,4221,2797,1870
9302,4221,2798,1870
9302,4221,2798,1870
9296,4220,2796,1869
9284,4216,2791,1866
9271,4213,2785,1864
9258,4210,2780,1861
9247,4206,2776,1859
9239,4204,2772,1858
9233,4202,2770,1857
9227,4200,2768,1856
9227,4200,2768,1856
9225,4199,2767,1856
9223,4198,2767,1855
9223,4197,2767,1855
9221,4197,2767,1855
9217,4195,2765,1854
9214,4194,2765,1853
9214,4194,2765,1853
9214,4193,2765,1853
9213,4192,2765,1853
9214,4192,2766,1853
9219,4194,2768,1853
9221,4193,2769,1854
9224,4194,2770,1855
9230,4196,2773,1856
9231,4195,2774,1856
9231,4194,2774,1856
9237,4196,2777,1857
9238,4196,2778,1857
9237,4195,2778,1857
9239,4195,2779,1857
9239,4195,2779,1857
9229,4191,2776,1855
9215,4186,2771,1852
9204,4183,2766,1850
9192,4180,2762,1848
9179,4174,2757,1846
9174,4173,2755,1845
9171,4172,2754,1845
9169,4169,2753,1845
9166,4167,2753,1845
9163,4167,2751,1844
9138,4160,2743,1837
9112,4153,2734,1830
9109,4152,2733,1829
9123,4155,2738,1833
9141,4157,2745,1840
9161,4161,2752,1846
9165,4162,2754,1846
9145,4156,2748,1841
9118,4149,2739,1833
9110,4148,2736,1829
9116,4149,2739,1831
9126,4149,2743,1834
9144,4153,2750,1839
9159,4157,2755,1843
9157,4154,2755,1842
9157,4152,2754,1841
9152,4153,2755,1840
9152,4153,2752,1837
9142,4149,2752,1835
9133,4144,2750,1837
9140,4147,2752,1837
9137,4146,2751,1837
9117,4139,2744,1834
9103,4134,2738,1831
9096,4133,2735,1830
9078,4127,2728,1826
9061,4121,2722,1823
9057,4120,2721,1822
9055,4120,2720,1822
9048,4115,2718,1821
9051,4116,2719,1821
9053,4117,2720,1822
9043,4112,2717,1819
9035,4109,2714,1818
9037,4110,2715,1818
9035,4109,2714,1818
9029,4105,2713,1817
9033,4106,2715,1817
9037,4107,2717,1818
9033,4104,2716,1818
9035,4104,2717,1818
9040,4105,2719,1819
9041,4105,2720,1819
9038,4102,2720,1818
9043,4103,2722,1819
9046,4104,2724,1820
9042,4101,2723,1819
9042,4100,2724,1819
9046,4102,2725,1819
9043,4100,2725,1818
9036,4097,2723,1817
9027,4094,2719,1815
9012,4090,2713,1812
8995,4084,2707,1809
8983,4081,2702,1807
8973,4078,2698,1805
8963,4074,2694,1803
8954,4071,2691,1802
8949,4069,2689,1800
8945,4068,2688,1800
8941,4066,2687,1799
8937,4064,2686,1798
8934,4063,2685,1797
8930,4061,2684,1796
8929,4061,2683,1796
8929,4061,2684,1796
8927,4060,2683,1795
8929,4061,2684,1795
8934,4063,2686,1796
8943,4066,2689,1798
8952,4069,2693,1799
8961,4072,2696,1801
8971,4075,2700,1803
8982,4079,2703,1805
8988,4081,2706,1806
8996,4084,2709,1807
9005,4087,2712,1809
9014,4090,2715,1810
9018,4092,2717,1811
9027,4095,2720,1813
9032,4097,2722,1814
9027,4097,2719,1813
9019,4095,2716,1811
9014,4096,2713,1810
9009,4095,2710,1809
9002,4093,2707,1808
9000,4093,2706,1808
9006,4097,2707,1809
9007,4097,2707,1809
9009,4098,2708,1810
9018,4101,2711,1812
9027,4105,2714,1813
9026,4105,2714,1813
9032,4107,2715,1815
9040,4110,2718,1816
9045,4112,2720,1817
9047,4113,2720,1818
9058,4117,2724,1820
9069,4121,2728,1822
9073,4122,2730,1823
9079,4124,2732,1824
9098,4130,2739,1828
9111,4135,2743,1831
9113,4135,2744,1831
9120,4138,2747,1832
9132,4143,2751,1835
9137,4144,2753,1835
9142,4146,2755,1837
9155,4151,2759,1839
9155,4153,2761,1840
9159,4148,2755,1837
9144,4148,2751,1835
9135,4147,2750,1836
9136,4149,2750,1835
9132,4148,2747,1833
9119,4144,2743,1833
9122,4146,2743,1834
9127,4149,2744,1835
9123,4147,2742,1834
9125,4148,2743,1835
9137,4153,2747,1837
9139,4154,2747,1838
9138,4154,2747,1838
9143,4156,2748,1838
9149,4159,2750,1840
9150,4159,2750,1840
9152,4160,2751,1840
9162,4164,2755,1842
9170,4167,2757,1843
9174,4168,2759,1845
9193,4173,2766,1849
9207,4179,2771,1852
9209,4179,2772,1852
9213,4180,2774,1853
9226,4185,2778,1855
9233,4188,2780,1856
9237,4189,2782,1857
9243,4191,2784,1858
9254,4195,2788,1859
9256,4197,2789,1860
9251,4195,2787,1858
9246,4195,2784,1858
9240,4195,2780,1857
9228,4191,2775,1855
9221,4190,2772,1854
9220,4191,2771,1854
9217,4190,2769,1854
9213,4189,2767,1854
9214,4190,2767,1854
9215,4190,2767,1854
9216,4191,2768,1854
9219,4192,2768,1855
9220,4192,2769,1855
9220,4193,2769,1855
9219,4192,2768,1855
9225,4195,2770,1856
9230,4196,2772,1857
9231,4197,2772,1857
9236,4198,2774,1858
9243,4200,2777,1859
9248,4202,2779,1860
9253,4203,2781,1861
9261,4206,2784,1863
9265,4207,2786,1863
9272,4209,2788,1864
9280,4212,2791,1866
9285,4213,2793,1867
9292,4215,2796,1868
9296,4216,2797,1869
9296,4217,2798,1869
9290,4215,2795,1868
9276,4211,2789,1865
9261,4208,2783,1862
9248,4205,2778,1860
9236,4201,2773,1857
9227,4199,2769,1856
9221,4198,2766,1855
9216,4196,2764,1854
9215,4196,2764,1853
9216,4196,2764,1854
9215,4195,2764,1854
9216,4195,2764,1854
9214,4195,2764,1854
9213,4194,2764,1853
9213,4194,2763,1853
9211,4193,2763,1853
9210,4193,2763,1852
9210,4193,2763,1852
9211,4192,2763,1852
9214,4193,2765,1852
9217,4194,2766,1853
9220,4194,2768,1853
9222,4195,2769,1853
9228,4196,2771,1854
9231,4197,2773,1855
9235,4197,2774,1855
9239,4198,2776,1856
9244,4200,2778,1857
9245,4200,2779,1857
9239,4198,2776,1856
9223,4194,2770,1853
9212,4192,2765,1851
9202,4188,2761,1850
9192,4185,2757,1848
9192,4183,2753,1846
9183,4183,2750,1845
9176,4180,2749,1844
9171,4178,2749,1844
9172,4179,2749,1844
9171,4177,2749,1844
9169,4176,2749,1844
9170,4176,2749,1844
9168,4175,2748,1844
9164,4174,2747,1843
9164,4173,2747,1843
9165,4173,2748,1843
9165,4173,2748,1843
9164,4172,2748,1843
9171,4174,2750,1845
9174,4174,2752,1845
9173,4173,2752,1845
9177,4173,2754,1846
9183,4175,2756,1847
9182,4174,2756,1847
9182,4173,2757,1846
9187,4175,2759,1847
9187,4174,2759,1847
9180,4172,2757,1846
9171,4169,2753,1844
9157,4166,2747,1841
9141,4161,2741,1838
9128,4157,2736,1836
9122,4156,2733,1835
9115,4153,2730,1834
9107,4150,2727,1832
9108,4151,2727,1833
9109,4151,2728,1833
9105,4148,2727,1832
9106,4149,2727,1832
9108,4149,2728,1833
9102,4147,2726,1831
9100,4146,2725,1831
9102,4147,2726,1831
9099,4146,2725,1830
9097,4144,2725,1830
9102,4145,2727,1831
9108,4147,2729,1832
9108,4146,2730,1832
9110,4146,2731,1832
9118,4148,2734,1834
9121,4148,2736,1835
9119,4147,2735,1834
9124,4148,2737,1834
9127,4149,2739,1835
9126,4148,2739,1835
9125,4147,2738,1834
9119,4146,2736,1833
9102,4141,2729,1830
9086,4136,2723,1827
9073,4133,2717,1825
9060,4129,2712,1822
9050,4126,2708,1820
9042,4123,2705,1819
9040,4123,2704,1819
9036,4121,2702,1818
9033,4120,2702,1817
9035,4120,2702,1818
9035,4120,2703,1818
9029,4117,2701,1816
9027,4117,2700,1816
9027,4116,2700,1816
9026,4116,2700,1815
9026,4115,2700,1815
9027,4116,2701,1815
9028,4115,2702,1815
9033,4116,2704,1816
9038,4117,2706,1818
9041,4117,2708,1818
9042,4117,2708,1818
9046,4118,2710,1819
9052,4119,2713,1820
9056,4121,2714,1820
9058,4121,2716,1820
9063,4123,2718,1821
9067,4124,2719,1822
9065,4124,2718,1821
9056,4122,2714,1819
9045,4119,2709,1818
9034,4117,2705,1816
9027,4116,2701,1814
9022,4115,2698,1814
9018,4115,2696,1813
9018,4116,2696,1813
9018,4116,2696,1813
9021,4117,2697,1813
9027,4120,2698,1814
9028,4120,2699,1814
9028,4121,2700,1815
9031,4122,2700,1815
9032,4122,2700,1814
9032,4122,2700,1814
9032,4122,2700,1815
9038,4124,2702,1816
9043,4126,2704,1816
9049,4128,2706,1817
9053,4129,2708,1818
9063,4132,2712,1820
9071,4134,2715,1821
9075,4136,2717,1822
9082,4138,2720,1823
9093,4142,2724,1825
9097,4143,2725,1825
9101,4144,2727,1826
9112,4148,2731,1828
9119,4150,2734,1829
9117,4149,2733,1829
9111,4148,2730,1827
9102,4147,2727,1826
9092,4145,2722,1824
9079,4142,2717,1822
9076,4142,2715,1821
9076,4143,2714,1821
9070,4141,2712,1820
9069,4141,2711,1820
9078,4144,2714,1822
9082,4145,2716,1822
9083,4145,2716,1823
9088,4147,2718,1824
9093,4149,2720,1825
9094,4150,2720,1825
9096,4150,2721,1825
9103,4153,2723,1827
9111,4155,2726,1828
9115,4156,2727,1829
9123,4158,2730,1831
9135,4163,2735,1833
9142,4164,2737,1834
9146,4165,2739,1835
9157,4169,2743,1837
9165,4171,2746,1839
9167,4172,2748,1839
9175,4174,2750,1840
9184,4177,2754,1842
9188,4179,2755,1843
9186,4178,2755,1842
9179,4177,2752,1841
9171,4176,2748,1839
9159,4173,2742,1837
9151,4171,2739,1836
9151,4172,2738,1837
9149,4171,2737,1836
9147,4171,2736,1836
9153,4173,2738,1838
9159,4175,2740,1839
9161,4176,2741,1839
9164,4177,2742,1839
9168,4178,2744,1840
9170,4179,2744,1841
9171,4180,2745,1841
9175,4181,2746,1841
9178,4182,2747,1842
9181,4183,2749,1842
9186,4184,2751,1844
9197,4188,2755,1846
9203,4189,2757,1847
9208,4190,2760,1848
9216,4192,2763,1850
9224,4195,2766,1851
9229,4196,2768,1852
9235,4197,2771,1853
9241,4199,2773,1854
9246,4200,2775,1855
9250,4202,2777,1856
9250,4202,2777,1855
9243,4200,2774,1854
9232,4198,2769,1852
9216,4193,2762,1849
9205,4191,2757,1847
9195,4189,2753,1846
9189,4187,2750,1845
9186,4187,2749,1845
9184,4187,2748,1845
9185,4187,2748,1845
9187,4188,2749,1846
9190,4188,2750,1846
9190,4189,2750,1846
9191,4189,2751,1847
9193,4190,2751,1847
9191,4189,2751,1847
9192,4190,2751,1847
9191,4190,2751,1846
9193,4190,2752,1846
9193,4191,2753,1846
9195,4191,2753,1846
9195,4191,2755,1846
9198,4191,2757,1847
9201,4192,2757,1847
9205,4193,2758,1849
9211,4194,2761,1849
9213,4194,2762,1849
9216,4195,2763,1849
9218,4195,2764,1849
9220,4196,2766,1849
9223,4196,2767,1850
9225,4197,2768,1850
9216,4194,2764,1849
9201,4190,2758,1846
9184,4187,2751,1843
9169,4182,2745,1841
9160,4180,2740,1839
9152,4178,2737,1838
9144,4175,2734,1837
9142,4175,2733,1837
9142,4175,2733,1837
9141,4174,2733,1837
9141,4174,2733,1837
9140,4174,2733,1837
9137,4173,2732,1836
9136,4173,2731,1836
9134,4172,2731,1835
9134,4172,2731,1835
9135,4172,2732,1835
9134,4171,2732,1835
9140,4173,2734,1836
9148,4175,2738,1838
9152,4175,2740,1839
9158,4177,2742,1840
9161,4177,2744,1840
9163,4177,2745,1841
9167,4178,2747,1842
9172,4180,2749,1843
9174,4180,2750,1843
9175,4179,2751,1843
9177,4180,2752,1843
9173,4179,2751,1842
9160,4175,2746,1839
9142,4170,2739,1836
9129,4167,2733,1834
9116,4164,2727,1832
9104,4160,2723,1830
9100,4159,2721,1829
9095,4158,2719,1828
9090,4156,2717,1828
9094,4156,2718,1829
9097,4157,2720,1830
9094,4156,2719,1829
9090,4155,2718,1828
9088,4154,2717,1827
9085,4154,2716,1826
9083,4152,2716,1826
9086,4153,2717,1827
9092,4154,2719,1828
9094,4155,2720,1828
9096,4154,2721,1828
9103,4156,2724,1830
9109,4158,2727,1831
9112,4157,2729,1832
9119,4159,2732,1833
9125,4161,2734,1834
9127,4161,2735,1835
9131,4161,2737,1835
9137,4163,2740,1836
9138,4163,2741,1836
9140,4163,2742,1837
9140,4163,2742,1837
9133,4161,2739,1835
9116,4156,2732,1833
9099,4152,2725,1829
9087,4149,2720,1827
9076,4146,2715,1825
9067,4143,2712,1824
9064,4142,2711,1823
9063,4142,2710,1823
9062,4141,2710,1823
9065,4142,2711,1824
9068,4143,2713,1824
9068,4142,2712,1824
9068,4142,2713,1824
9069,4142,2713,1824
9071,4142,2714,1825
9072,4142,2714,1825
9073,4142,2715,1825
9079,4144,2718,1826
9084,4145,2720,1827
9088,4146,2722,1828
9088,4147,2725,1830
9095,4148,2727,1830
9099,4148,2728,1830
9099,4147,2729,1830
9103,4148,2729,1831
9107,4149,2731,1831
9109,4149,2732,1831
9113,4150,2734,1832
9113,4149,2735,1831
9115,4150,2736,1831
9113,4149,2736,1831
9106,4147,2733,1829
9091,4143,2727,1826
9076,4140,2721,1822
9058,4135,2714,1818
9046,4133,2709,1816
9037,4131,2706,1814
9033,4130,2704,1813
9031,4130,2703,1812
9034,4131,2704,1813
9038,4132,2705,1814
9045,4134,2708,1815
9051,4136,2710,1817
9057,4137,2712,1819
9061,4138,2714,1820
9065,4140,2715,1821
9071,4141,2717,1822
9077,4143,2719,1823
9083,4145,2722,1825
9090,4147,2725,1826
9096,4149,2727,1827
9100,4150,2729,1828
9106,4152,2731,1828
9111,4153,2733,1829
9115,4154,2735,1829
9120,4156,2737,1830
9127,4158,2740,1831
9135,4160,2743,1833
9140,4162,2745,1834
9138,4161,2745,1833
9133,4160,2742,1832
9122,4158,2738,1831
9110,4155,2732,1829
9103,4154,2729,1828
9099,4153,2727,1827
9094,4152,2725,1826
9094,4152,2725,1826
9099,4154,2726,1827
9102,4154,2728,1828
9103,4155,2728,1828
9107,4156,2730,1828
9110,4157,2731,1829
9112,4158,2731,1830
9111,4158,2732,1830
9115,4159,2733,1830
9120,4161,2735,1831
9122,4161,2736,1831
9130,4164,2739,1833
9141,4167,2743,1835
9147,4168,2745,1836
9152,4170,2748,1837
9161,4172,2751,1839
9169,4175,2754,1841
9173,4176,2756,1841
9179,4177,2759,1842
9186,4180,2761,1843
9190,4181,2763,1844
9187,4180,2762,1843
9179,4178,2758,1842
9169,4177,2754,1840
9155,4173,2748,1837
9144,4170,2743,1836
9139,4170,2740,1835
9133,4168,2738,1834
9129,4167,2736,1833
9132,4168,2737,1834
9137,4170,2739,1835
9140,4171,2740,1835
9142,4171,2741,1835
9144,4172,2742,1836
9147,4173,2743,1836
9147,4173,2743,1836
9150,4174,2744,1837
9155,4176,2745,1838
9160,4177,2747,1839
9165,4178,2749,1840
9174,4181,2753,1841
9181,4183,2756,1843
9189,4185,2759,1844
9197,4188,2762,1846
9203,4190,2764,1847
9207,4191,2766,1847
9213,4192,2769,1848
9216,4193,2770,1848
9220,4195,2772,1849
9220,4194,2772,1849
9220,4192,2769,1847
9213,4192,2764,1845
9200,4189,2764,1842
9186,4186,2758,1840
9172,4182,2752,1840
9166,4181,2749,1839
9159,4179,2746,1838
9156,4178,2745,1837
9156,4178,2745,1838
9157,4178,2745,1838
9161,4179,2747,1838
9165,4181,2748,1839
9167,4181,2749,1840
9167,4181,2749,1840
9167,4181,2748,1839
9167,4181,2749,1839
9169,4182,2750,1840
9173,4183,2751,1840
9177,4184,2753,1841
9184,4186,2756,1842
9189,4187,2758,1843
9194,4189,2760,1844
9199,4190,2762,1845
9205,4191,2764,1845
9209,4193,2766,1846
9214,4194,2769,1847
9218,4195,2771,1847
9221,4195,2772,1848
9219,4195,2771,1847
9210,4193,2768,1845
9196,4189,2762,1843
9184,4186,2756,1840
9172,4183,2752,1838
9168,4182,2750,1838
9165,4181,2748,1838
9165,4180,2748,1838
9170,4182,2750,1839
9175,4183,2752,1840
9178,4184,2754,1841
9180,4184,2755,1841
9179,4184,2754,1841
9179,4184,2754,1841
9179,4183,2754,1841
9180,4184,2755,1841
9182,4184,2755,1841
9185,4185,2757,1842
9189,4185,2759,1843
9195,4187,2761,1844
9200,4188,2763,1845
9203,4189,2765,1846
9208,4191,2767,1846
9212,4191,2769,1847
9217,4192,2771,1848
9223,4194,2773,1849
9227,4195,2775,1850
9224,4193,2774,1849
9212,4190,2769,1847
9196,4186,2762,1844
9181,4182,2756,1841
9166,4179,2750,1838
9157,4176,2746,1837
9153,4175,2744,1836
9150,4174,2743,1836
9150,4174,2743,1836
9152,4175,2744,1836
9153,4174,2745,1836
9151,4174,2744,1836
9152,4174,2745,1836
9151,4174,2744,1836
9148,4173,2743,1835
9150,4173,2744,1835
9151,4173,2745,1835
9153,4173,2746,1836
9156,4174,2747,1836
9161,4175,2749,1837
9165,4176,2751,1838
9167,4176,2752,1838
9169,4177,2753,1838
9174,4178,2755,1838
9175,4178,2756,1838
9177,4179,2758,1839
9180,4179,2759,1839
9174,4177,2756,1838
9161,4173,2751,1835
9146,4170,2745,1833
9131,4166,2738,1830
9118,4163,2733,1828
9109,4160,2729,1826
9103,4159,2726,1826
9099,4158,2724,1825
9097,4157,2724,1825
9099,4158,2724,1826
9102,4159,2725,1826
9102,4157,2724,1825
9099,4157,2724,1825
9097,4157,2723,1825
9095,4156,2722,1824
9092,4155,2722,1824
9090,4154,2721,1824
9093,4155,2722,1824
9091,4154,2722,1823
9093,4154,2723,1824
9100,4156,2726,1825
9104,4157,2728,1826
9109,4157,2730,1827
9116,4159,2733,1828
9122,4160,2735,1830
9123,4160,2736,1829
9130,4162,2739,1831
9133,4162,2740,1832
9125,4160,2738,1830
9110,4156,2731,1827
9094,4152,2725,1824
9080,4149,2719,1821
9061,4144,2711,1818
9048,4140,2705,1815
9038,4138,2701,1813
9031,4136,2698,1812
9031,4135,2698,1812
9036,4137,2700,1814
9037,4137,2701,1814
9037,4136,2701,1814
9036,4136,2701,1814
9036,4136,2701,1814
9035,4136,2700,1814
9035,4135,2700,1814
9036,4136,2701,1814
9041,4137,2703,1815
9045,4138,2705,1816
9049,4139,2707,1816
9055,4140,2709,1817
9063,4142,2712,1819
9070,4143,2715,1820
9076,4145,2717,1822
9081,4146,2719,1823
9088,4148,2722,1824
9094,4150,2725,1825
9098,4151,2726,1826
9100,4151,2727,1826
9098,4151,2726,1826
9086,4148,2721,1824
9070,4144,2714,1821
9053,4140,2707,1818
9040,4137,2701,1816
9030,4135,2697,1814
9020,4132,2693,1812
9016,4131,2691,1812
9017,4132,2691,1812
9018,4132,2691,1813
9020,4133,2692,1813
9024,4134,2693,1814
9025,4134,2694,1814
9026,4134,2694,1815
9026,4135,2694,1815
9028,4135,2695,1815
9029,4136,2695,1815
9028,4136,2695,1814
9029,4136,2695,1814
9034,4138,2698,1814
9035,4138,2698,1814
9041,4139,2701,1815
9053,4143,2705,1818
9067,4146,2710,1821
9077,4148,2714,1824
9087,4151,2718,1826
9091,4153,2720,1826
9090,4153,2720,1825
9088,4152,2719,1824
9088,4153,2720,1823
9086,4153,2719,1823
9079,4151,2716,1822
9065,4147,2710,1820
9054,4145,2704,1818
9040,4141,2699,1815
9030,4139,2694,1814
9027,4138,2693,1814
9025,4138,2691,1814
9025,4138,2691,1814
9030,4139,2693,1815
9031,4140,2693,1814
9024,4139,2691,1812
9015,4137,2688,1809
9012,4136,2687,1808
9018,4138,2689,1810
9026,4140,2692,1812
9032,4141,2694,1814
9041,4144,2697,1816
9041,4145,2699,1816
9045,4145,2699,1816
9044,4145,2699,1815
9044,4145,2701,1815
9048,4146,2701,1816
9051,4147,2703,1818
9060,4149,2706,1818
9070,4152,2710,1820
9080,4154,2714,1822
9085,4155,2716,1823
9089,4157,2718,1824
9093,4158,2719,1824
9097,4159,2721,1825
9094,4158,2720,1824
9087,4157,2717,1823
9074,4153,2711,1821
9060,4150,2705,1818
9046,4147,2699,1815
9038,4145,2696,1814
9030,4143,2693,1812
9028,4143,2691,1812
9030,4144,2692,1812
9036,4145,2695,1814
9041,4146,2696,1815
9043,4147,2697,1815
9044,4147,2698,1816
9046,4148,2698,1816
9044,4147,2698,1816
9046,4148,2698,1816
9048,4149,2699,1816
9050,4149,2700,1816
9054,4150,2702,1817
9060,4152,2704,1818
9064,4153,2706,1819
9070,4154,2709,1820
9078,4156,2712,1822
9086,4158,2715,1824
9092,4160,2718,1825
9098,4161,2720,1826
9103,4163,2722,1827
9108,4164,2724,1828
9105,4163,2723,1827
9097,4161,2719,1826
9083,4158,2714,1823
9069,4154,2708,1821
9058,4152,2703,1819
9053,4150,2701,1818
9047,4149,2698,1817
9047,4149,2698,1817
9049,4150,2699,1818
9052,4150,2700,1819
9057,4152,2702,1819
9059,4152,2703,1820
9060,4152,2704,1820
9062,4153,2704,1820
9062,4153,2704,1820
9064,4153,2705,1821
9067,4154,2706,1821
9070,4155,2708,1822
9075,4156,2710,1823
9080,4157,2712,1824
9084,4157,2714,1824
9090,4158,2717,1825
9094,4159,2719,1826
9097,4160,2720,1827
9100,4160,2722,1827
9102,4160,2723,1827
9106,4161,2725,1828
9110,4162,2727,1829
9112,4162,2728,1829
9110,4161,2728,1828
9102,4159,2724,1827
9085,4154,2718,1824
9063,4148,2709,1819
9051,4145,2703,1818
9040,4142,2699,1816
9026,4138,2694,1813
9021,4136,2691,1812
9020,4136,2691,1812
9018,4135,2691,1812
9018,4135,2691,1812
9022,4136,2692,1813
9020,4135,2692,1812
9017,4133,2691,1812
9015,4133,2691,1811
9014,4132,2690,1811
9009,4130,2689,1810
9010,4130,2690,1810
9016,4131,2692,1811
9017,4131,2693,1811
9018,4130,2694,1811
9027,4132,2698,1813
9030,4133,2699,1813
9030,4131,2700,1813
9030,4131,2701,1813
9031,4132,2703,1814
9035,4132,2703,1813
9032,4130,2703,1813
9030,4128,2703,1813
9035,4130,2705,1813
9037,4130,2706,1813
9032,4126,2705,1812
9029,4126,2704,1812
9020,4123,2700,1810
8997,4116,2691,1806
8975,4109,2683,1802
8964,4107,2678,1800
8950,4103,2672,1797
8937,4098,2668,1795
8932,4097,2665,1794
8931,4097,2665,1794
8925,4094,2663,1793
8922,4092,2663,1792
8927,4094,2665,1793
8926,4093,2664,1793
8919,4089,2662,1792
8918,4089,2662,1792
8918,4089,2662,1791
8913,4086,2661,1790
8913,4085,2661,1790
8920,4087,2664,1791
8919,4086,2665,1791
8921,4085,2666,1792
8928,4087,2669,1793
8933,4088,2671,1794
8929,4086,2671,1793
8931,4085,2672,1793
8940,4088,2675,1795
8939,4087,2676,1795
8939,4085,2676,1795
8942,4086,2678,1795
8943,4087,2679,1795
8942,4085,2679,1794
8946,4085,2681,1795
8941,4084,2679,1794
8924,4078,2673,1791
8905,4073,2665,1788
8888,4068,2658,1784
8873,4064,2652,1782
8857,4059,2646,1779
8846,4055,2641,1776
8842,4054,2640,1776
8836,4052,2638,1775
8828,4049,2635,1773
8829,4049,2636,1773
8830,4049,2637,1773
8827,4047,2636,1772
8823,4045,2634,1771
8821,4045,2634,1771
8816,4042,2633,1770
8814,4041,2632,1769
8816,4041,2633,1769
8817,4041,2634,1769
8819,4040,2635,1770
8822,4041,2637,1770
8825,4041,2639,1771
8827,4041,2640,1771
8830,4041,2641,1771
8830,4040,2642,1771
8834,4041,2644,1772
8838,4042,2646,1772
8842,4043,2648,1773
8847,4045,2649,1774
8851,4045,2651,1774
8856,4047,2654,1775
8866,4051,2657,1777
8871,4052,2659,1778
8870,4053,2659,1777
8861,4051,2655,1776
8850,4049,2649,1774
8840,4048,2644,1772
8830,4046,2640,1770
8825,4045,2637,1769
8825,4046,2637,1770
8824,4046,2636,1770
8829,4048,2637,1771
8838,4051,2640,1773
8844,4053,2643,1774
8847,4054,2643,1774
8852,4056,2645,1776
8858,4059,2647,1777
8861,4060,2647,1778
8864,4061,2648,1778
8872,4064,2651,1780
8881,4068,2654,1782
8886,4069,2657,1782
8893,4071,2659,1784
8893,4076,2664,1786
8907,4078,2667,1788
8915,4078,2669,1789
8919,4079,2673,1791
8930,4082,2673,1793
8941,4086,2677,1793
8943,4086,2678,1793
8950,4089,2681,1795
8961,4093,2685,1797
8971,4096,2688,1799
8974,4096,2690,1799
8982,4099,2693,1801
8991,4103,2696,1802
8985,4102,2693,1801
8969,4098,2687,1798
8962,4097,2683,1797
8952,4096,2678,1795
8938,4092,2672,1793
8934,4092,2670,1793
8936,4094,2670,1793
8934,4093,2669,1793
8934,4093,2669,1793
8943,4096,2671,1795
8951,4100,2674,1796
8949,4099,2673,1796
8949,4099,2673,1796
8956,4102,2675,1797
8959,4104,2676,1798
8955,4102,2675,1797
8964,4106,2678,1798
8974,4110,2681,1800
8979,4110,2683,1802
8986,4113,2686,1803
8999,4117,2690,1805
9005,4120,2693,1806
9008,4120,2694,1807
9017,4123,2698,1809
9031,4128,2703,1811
9036,4129,2705,1812
9040,4130,2706,1813
9049,4134,2710,1815
9058,4137,2712,1816
9061,4137,2714,1816
9070,4140,2717,1819
9083,4145,2722,1821
9078,4144,2720,1820
9064,4140,2714,1818
9051,4138,2708,1815
9036,4135,2701,1813
9020,4131,2694,1810
9011,4129,2690,1809
9010,4130,2688,1809
9009,4130,2687,1809
9008,4130,2687,1809
9014,4131,2689,1811
9020,4134,2691,1812
9020,4134,2691,1812
9018,4133,2690,1812
9017,4134,2690,1812
9014,4133,2688,1811
9012,4132,2687,1810
9014,4134,2688,1811
9015,4134,2688,1811
9020,4136,2690,1811
9027,4138,2693,1813
9037,4140,2697,1815
9046,4143,2700,1817
9051,4144,2702,1818
9057,4146,2704,1819
9062,4148,2706,1820
9067,4149,2708,1821
9071,4150,2710,1822
9078,4153,2713,1823
9081,4154,2714,1824
9087,4156,2717,1825
9094,4158,2719,1826
9098,4159,2721,1826
9100,4160,2722,1827
9091,4157,2718,1825
9073,4152,2711,1821
9055,4148,2703,1818
9036,4143,2696,1815
9021,4140,2689,1812
9010,4137,2685,1810
9004,4135,2682,1809
8999,4134,2680,1808
8998,4134,2680,1808
8999,4134,2680,1808
8999,4134,2680,1808
8998,4134,2680,1808
8996,4133,2679,1807
8992,4132,2678,1806
8989,4131,2677,1806
8987,4130,2676,1805
8988,4130,2677,1805
8988,4129,2677,1805
8987,4130,2678,1805
8989,4130,2679,1806
8992,4130,2681,1806
8994,4130,2681,1807
8998,4131,2683,1808
9004,4132,2685,1808
9005,4132,2686,1808
9007,4132,2687,1808
9011,4133,2689,1809
9013,4133,2690,1809
9012,4132,2690,1809
9015,4133,2692,1809
9017,4133,2693,1810
9020,4134,2694,1810
9018,4133,2694,1809
9010,4131,2690,1808
8993,4126,2683,1805
8972,4120,2675,1801
8954,4116,2668,1797
8943,4113,2663,1796
8929,4108,2658,1793
8922,4106,2655,1792
8920,4105,2654,1792
8917,4104,2654,1791
8914,4102,2653,1790
8916,4103,2654,1791
8913,4101,2653,1790
8906,4098,2651,1789
8902,4097,2649,1788
8900,4096,2649,1788
8897,4095,2647,1787
8893,4093,2646,1786
8896,4094,2648,1787
8900,4094,2650,1788
8898,4092,2650,1787
8903,4093,2652,1788
8910,4095,2655,1790
8910,4094,2655,1790
8909,4093,2656,1790
8916,4095,2658,1791
8915,4094,2658,1791
8912,4092,2658,1790
8918,4094,2660,1791
8919,4094,2661,1791
8907,4089,2656,1789
8890,4084,2650,1786
8874,4080,2643,1783
8857,4076,2636,1780
8839,4070,2630,1777
8833,4068,2627,1776
8829,4067,2625,1775
8821,4064,2622,1774
8820,4063,2623,1774
8826,4065,2625,1775
8823,4063,2624,1774
8817,4060,2622,1773
8818,4061,2623,1773
8813,4059,2621,1772
8806,4056,2619,1771
8805,4055,2619,1771
8808,4056,2620,1771
8806,4055,2619,1770
8807,4054,2620,1771
8811,4055,2622,1772
8816,4056,2624,1772
8813,4054,2624,1772
8818,4055,2626,1773
8823,4056,2628,1773
8820,4054,2628,1773
8821,4054,2629,1773
8827,4055,2631,1774
8828,4055,2632,1774
8823,4053,2631,1773
8815,4051,2628,1772
8799,4046,2621,1769
8777,4040,2612,1764
8759,4035,2605,1761
8746,4031,2600,1759
8735,4028,2596,1757
8724,4024,2592,1755
8720,4023,2590,1754
8718,4022,2589,1754
8715,4020,2588,1753
8715,4020,2589,1754
8716,4020,2589,1754
8711,4018,2587,1753
8707,4016,2586,1752
8705,4015,2585,1751
8703,4014,2585,1751
8702,4014,2585,1750
8704,4014,2586,1751
8703,4013,2586,1750
8708,4014,2588,1751
8708,4015,2590,1752
8711,4016,2592,1753
8717,4016,2594,1753
8721,4017,2595,1754
8724,4018,2595,1754
8728,4019,2597,1756
8736,4022,2600,1756
8740,4023,2601,1756
8746,4025,2604,1757
8749,4027,2605,1758
8746,4026,2603,1757
8733,4024,2598,1755
8720,4021,2592,1753
8707,4018,2586,1750
8699,4017,2582,1749
8693,4015,2579,1748
8690,4015,2578,1748
8693,4017,2578,1749
8695,4018,2579,1749
8698,4019,2580,1750
8707,4022,2583,1752
8710,4023,2584,1752
8711,4023,2585,1753
8714,4025,2585,1753
8718,4027,2586,1754
8720,4027,2587,1754
8723,4029,2588,1755
8731,4032,2591,1756
8742,4035,2595,1759
8747,4036,2597,1760
8756,4039,2601,1761
8769,4044,2605,1764
8776,4046,2608,1765
8779,4046,2609,1766
8790,4050,2613,1768
8798,4053,2616,1769
8802,4054,2618,1770
8807,4056,2620,1771
8812,4058,2621,1772
8805,4057,2618,1770
8786,4052,2610,1767
8773,4049,2604,1765
8766,4049,2601,1764
8757,4047,2597,1762
8748,4044,2593,1761
8750,4046,2593,1761
8754,4048,2594,1762
8753,4047,2594,1762
8758,4049,2596,1763
8767,4052,2599,1765
8768,4053,2599,1765
8768,4052,2599,1765
8772,4054,2600,1766
8778,4057,2602,1767
8778,4057,2602,1767
8782,4058,2604,1767
8794,4062,2608,1770
8803,4065,2611,1771
8805,4065,2613,1772
8815,4069,2616,1774
8829,4073,2621,1776
8833,4074,2623,1777
8838,4076,2625,1778
8849,4080,2629,1780
8855,4082,2631,1781
8859,4083,2633,1782
8866,4085,2636,1783
8874,4088,2638,1784
8871,4088,2637,1784
8858,4084,2632,1781
8846,4082,2626,1779
8833,4080,2620,1777
8818,4076,2614,1775
8811,4075,2611,1774
8811,4076,2610,1774
8808,4075,2608,1773
8806,4074,2607,1773
8812,4077,2609,1774
8817,4079,2611,1775
8821,4080,2613,1776
8821,4080,2613,1776
8823,4081,2613,1776
8823,4081,2613,1776
8823,4081,2613,1776
8827,4082,2615,1777
8835,4085,2617,1778
8840,4087,2620,1779
8848,4089,2623,1781
8856,4091,2626,1783
8864,4094,2629,1784
8869,4095,2631,1785
8879,4098,2635,1787
8884,4099,2637,1788
8884,4101,2639,1789
8889,4102,2641,1789
8893,4102,2643,1790
8899,4103,2645,1791
8905,4105,2645,1792
8909,4106,2647,1792
8912,4107,2648,1792
8910,4107,2647,1792
8896,4104,2642,1790
8878,4099,2634,1786
8863,4096,2627,1783
8849,4093,2622,1781
8841,4090,2618,1779
8834,4089,2615,1778
8828,4087,2613,1777
8827,4087,2612,1777
8829,4087,2613,1777
8831,4087,2614,1778
8832,4088,2615,1778
8832,4088,2615,1778
8832,4088,2614,1778
8832,4088,2615,1778
8832,4088,2615,1778
8833,4088,2615,1778
8836,4089,2617,1778
8840,4089,2618,1779
8844,4090,2620,1780
8849,4092,2623,1780
8853,4092,2625,1781
8858,4093,2627,1782
8864,4094,2629,1783
8868,4095,2631,1784
8872,4096,2633,1784
8875,4097,2634,1785
8879,4097,2636,1785
8883,4099,2638,1786
8885,4099,2639,1786
8887,4099,2640,1787
8884,4098,2639,1786
8868,4094,2633,1783
8849,4089,2625,1780
8834,4085,2618,1777
8820,4081,2612,1774
8810,4078,2608,1773
8805,4077,2606,1772
8803,4076,2605,1771
8802,4076,2605,1771
8804,4076,2606,1772
8807,4076,2608,1772
8808,4076,2608,1773
8805,4075,2608,1772
8803,4074,2607,1772
8804,4074,2607,1772
8801,4072,2606,1771
8802,4072,2607,1772
8808,4074,2609,1773
8810,4073,2611,1773
8813,4073,2612,1774
8820,4075,2615,1775
8825,4077,2618,1776
8829,4076,2619,1777
8832,4077,2621,1777
8837,4078,2623,1778
8838,4078,2624,1778
8839,4077,2625,1778
8843,4078,2626,1779
8848,4080,2629,1780
8846,4078,2628,1779
8840,4076,2626,1778
8829,4074,2622,1776
8808,4068,2613,1772
8788,4061,2605,1768
8779,4059,2601,1767
8769,4057,2597,1765
8759,4053,2594,1763
8756,4052,2592,1763
8758,4053,2593,1763
8757,4052,2593,1763
8759,4052,2594,1764
8761,4052,2595,1764
8760,4052,2595,1764
8755,4049,2593,1763
8754,4049,2593,1763
8758,4050,2594,1763
8755,4048,2594,1762
8756,4048,2595,1762
8765,4051,2598,1764
8769,4051,2600,1765
8772,4052,2602,1766
8780,4054,2605,1767
8785,4055,2607,1768
8787,4055,2609,1768
8791,4056,2611,1769
8797,4057,2613,1770
8797,4057,2614,1770
8799,4056,2615,1770
8800,4056,2617,1771
8804,4057,2619,1772
8808,4058,2619,1771
8808,4057,2619,1771
8808,4056,2620,1771
8803,4055,2618,1770
8785,4049,2611,1767
8763,4044,2602,1763
8746,4039,2595,1760
8731,4035,2589,1757
8719,4031,2584,1755
8712,4029,2581,1754
8707,4028,2579,1753
8703,4026,2578,1752
8703,4026,2578,1752
8704,4026,2579,1752
8705,4026,2579,1752
8703,4025,2579,1752
8700,4023,2578,1751
8700,4023,2578,1751
8697,4022,2577,1751
8698,4022,2578,1751
8702,4023,2579,1751
8705,4023,2581,1752
8709,4023,2583,1752
8715,4025,2585,1754
8718,4025,2587,1754
8725,4027,2590,1756
8731,4028,2592,1757
8735,4029,2594,1757
8741,4031,2597,1758
8747,4032,2599,1759
8752,4034,2601,1760
8759,4036,2604,1762
8766,4038,2607,1763
8774,4041,2610,1764
8782,4043,2613,1765
8787,4045,2615,1766
8787,4045,2615,1766
8780,4044,2612,1765
8766,4041,2606,1762
8748,4036,2598,1759
8733,4033,2591,1756
8723,4031,2587,1754
8719,4031,2585,1754
8714,4030,2583,1753
8712,4029,2581,1752
8715,4031,2582,1753
8718,4032,2584,1753
8720,4032,2585,1754
8725,4034,2586,1755
8727,4036,2587,1755
8725,4035,2586,1754
8726,4036,2586,1755
8731,4038,2588,1755
8735,4039,2589,1756
8740,4040,2591,1757
8748,4043,2594,1758
8759,4047,2598,1761
8765,4048,2601,1762
8771,4050,2604,1763
8781,4053,2607,1765
8789,4056,2610,1766
8794,4056,2612,1767
8802,4059,2615,1769
8811,4062,2619,1770
8815,4063,2621,1771
8820,4064,2622,1772
8829,4068,2626,1774
8839,4071,2630,1776
8844,4072,2631,1777
8841,4072,2631,1776
8835,4071,2627,1775
8818,4067,2620,1772
8801,4062,2613,1769
8791,4061,2608,1768
8788,4061,2606,1767
8781,4059,2603,1766
8780,4059,2603,1766
8785,4061,2604,1767
8788,4062,2605,1768
8789,4062,2606,1768
8793,4064,2607,1769
8797,4065,2608,1769
8798,4066,2608,1770
8797,4065,2608,1769
8804,4069,2610,1771
8809,4070,2612,1772
8812,4071,2613,1772
8820,4073,2616,1774
8831,4077,2620,1776
8837,4079,2623,1777
8837,4080,2626,1778
8844,4080,2629,1780
8854,4083,2632,1781
8861,4085,2632,1782
8865,4086,2634,1784
8873,4089,2637,1784
8881,4091,2640,1785
8888,4093,2643,1787
8892,4094,2644,1787
8901,4097,2648,1789
8908,4099,2650,1790
8913,4101,2653,1791
8916,4102,2654,1792
8912,4101,2651,1792
8896,4097,2644,1789
8876,4092,2636,1785
8862,4089,2630,1783
8851,4086,2624,1781
8840,4083,2620,1779
8833,4082,2616,1778
8828,4081,2614,1777
8828,4081,2614,1777
8827,4081,2614,1777
8827,4081,2614,1777
8828,4082,2614,1777
8827,4081,2613,1777
8828,4082,2613,1777
8830,4083,2614,1778
8829,4083,2613,1777
8831,4083,2614,1778
8836,4085,2616,1779
8842,4087,2618,1780
8848,4088,2621,1781
8856,4091,2624,1783
8861,4092,2626,1784
8868,4094,2628,1785
8873,4095,2631,1786
8878,4097,2633,1786
8884,4098,2635,1788
8888,4099,2637,1788
8894,4101,2639,1789
8899,4103,2641,1790
8903,4103,2643,1791
8906,4104,2644,1791
8905,4104,2644,1791
8891,4100,2638,1788
8873,4095,2630,1785
8855,4091,2623,1782
8838,4087,2616,1779
8827,4084,2611,1777
8819,4081,2608,1775
8811,4079,2605,1774
8808,4078,2603,1774
8807,4077,2603,1773
8807,4076,2603,1773
8810,4077,2604,1774
8808,4076,2604,1774
8804,4074,2603,1773
8803,4074,2602,1773
8802,4073,2602,1773
8800,4072,2601,1772
8799,4072,2601,1772
8802,4072,2603,1773
8804,4073,2604,1773
8806,4073,2605,1773
8810,4073,2607,1774
8816,4075,2609,1775
8819,4075,2611,1775
8821,4075,2612,1776
8827,4076,2615,1777
8828,4076,2616,1777
8827,4075,2616,1777
8833,4077,2618,1778
8836,4077,2620,1778
8836,4077,2620,1778
8836,4076,2621,1777
8831,4075,2619,1776
8813,4069,2612,1772
8788,4062,2602,1768
8770,4057,2595,1764
8754,4052,2588,1761
8737,4047,2582,1758
8727,4043,2579,1756
8725,4043,2578,1756
8719,4041,2575,1754
8713,4038,2574,1753
8720,4040,2576,1754
8718,4039,2576,1754
8709,4035,2574,1753
8709,4035,2573,1753
8708,4034,2573,1752
8700,4031,2571,1751
8697,4029,2570,1750
8697,4030,2572,1751
8701,4029,2572,1751
8701,4029,2571,1750
8697,4026,2574,1752
8703,4028,2574,1753
8708,4029,2576,1752
8704,4026,2576,1752
8702,4024,2576,1751
8709,4027,2578,1752
8706,4025,2578,1751
8700,4021,2577,1750
8706,4023,2579,1751
8709,4024,2580,1751
8700,4020,2578,1750
8689,4016,2574,1748
8677,4013,2568,1745
8656,4007,2560,1742
8634,3999,2552,1738
8626,3998,2549,1736
8620,3996,2546,1735
8607,3991,2542,1733
8603,3989,2540,1732
8607,3990,2542,1733
8603,3988,2541,1732
8597,3985,2540,1731
8600,3986,2541,1731
8597,3985,2539,1730
8586,3980,2536,1728
8586,3980,2536,1728
8589,3981,2537,1729
8586,3978,2537,1728
8586,3977,2538,1729
8595,3979,2541,1730
8598,3980,2543,1731
8596,3977,2543,1731
8599,3977,2544,1731
8603,3979,2546,1732
8600,3977,2546,1731
8597,3975,2545,1731
8603,3977,2548,1732
8604,3976,2548,1732
8600,3974,2548,1731
8597,3972,2547,1730
8586,3969,2542,1728
8565,3963,2534,1725
8544,3957,2526,1721
8528,3952,2519,1718
8514,3948,2514,1715
8502,3944,2510,1713
8494,3941,2507,1711
8489,3939,2505,1710
8486,3938,2504,1709
8484,3937,2504,1709
8484,3936,2504,1709
8480,3934,2503,1708
8476,3932,2502,1707
8473,3931,2501,1707
8470,3930,2501,1706
8473,3930,2502,1707
8477,3931,2503,1707
8481,3932,2505,1708
8487,3934,2508,1709
8493,3936,2510,1710
8502,3939,2514,1712
8512,3942,2517,1714
8521,3945,2520,1715
8528,3948,2523,1716
8537,3951,2527,1718
8544,3954,2529,1719
8548,3955,2531,1720
8557,3959,2534,1721
8562,3961,2536,1722
8556,3960,2533,1721
8545,3958,2528,1719
8534,3956,2522,1717
8529,3956,2519,1717
8520,3954,2515,1715
8516,3953,2513,1715
8518,3955,2513,1716
8524,3957,2515,1717
8523,3957,2515,1717
8528,3959,2516,1718
8537,3963,2519,1719
8539,3964,2520,1720
8541,3964,2520,1720
8548,3968,2522,1722
8554,3970,2524,1723
8555,3971,2524,1723
8559,3972,2526,1723
8572,3978,2530,1726
8582,3981,2534,1728
8585,3982,2535,1728
8598,3986,2540,1731
8614,3992,2545,1734
8614,3993,2547,1735
8618,3993,2550,1736
8624,3994,2554,1738
8637,3999,2554,1740
8647,4003,2558,1740
8648,4002,2558,1740
8652,4004,2560,1741
8651,4005,2558,1741
8638,4003,2553,1739
8618,3997,2545,1735
8612,3997,2541,1734
8611,3999,2539,1734
8601,3995,2535,1733
8599,3995,2534,1732
8610,4000,2537,1735
8614,4002,2539,1735
8616,4002,2540,1736
8625,4005,2543,1738
8633,4009,2545,1739
8630,4008,2544,1739
8630,4008,2544,1739
8639,4012,2547,1740
8644,4015,2548,1741
8644,4014,2549,1740
8653,4017,2552,1742
8669,4024,2557,1745
8674,4025,2560,1746
8678,4025,2561,1746
8694,4032,2567,1750
8705,4035,2571,1752
8710,4036,2573,1753
8718,4039,2576,1754
8732,4044,2581,1757
8739,4047,2584,1758
8741,4047,2585,1759
8742,4048,2584,1759
8733,4047,2580,1757
8717,4043,2573,1754
8703,4040,2567,1752
8699,4041,2564,1751
8694,4040,2562,1750
8688,4038,2559,1749
8692,4040,2560,1750
8698,4043,2562,1751
8701,4044,2563,1752
8704,4045,2564,1752
8707,4046,2566,1753
8708,4047,2566,1753
8706,4046,2565,1752
8706,4047,2565,1752
8710,4049,2566,1753
8714,4050,2568,1753
8717,4051,2569,1754
8725,4053,2572,1755
8733,4056,2575,1756
8739,4057,2578,1757
8748,4060,2581,1759
8757,4063,2585,1761
8763,4065,2587,1762
8770,4067,2590,1763
8776,4069,2592,1764
8782,4071,2595,1765
8788,4073,2597,1766
8788,4073,2597,1766
8780,4071,2594,1765
8765,4068,2587,1762
8747,4063,2579,1758
8735,4061,2574,1756
8728,4059,2570,1755
8721,4058,2568,1754
8718,4057,2566,1753
8718,4057,2566,1753
8720,4057,2567,1753
8725,4058,2569,1754
8727,4059,2570,1755
8727,4059,2570,1755
8727,4059,2570,1755
8727,4059,2570,1755
8728,4059,2570,1755
8729,4059,2571,1755
8730,4059,2572,1755
8735,4060,2574,1756
8740,4061,2576,1757
8745,4062,2578,1758
8751,4063,2581,1759
8757,4065,2583,1760
8761,4065,2585,1761
8767,4067,2587,1762
8772,4068,2590,1763
8778,4070,2592,1764
8781,4070,2593,1765
8776,4069,2592,1764
8761,4065,2586,1761
8761,4060,2578,1758
8743,4055,2571,1754
8724,4055,2566,1752
8714,4052,2563,1751
8705,4050,2563,1750
8699,4048,2561,1749
8697,4047,2560,1749
8701,4048,2561,1750
8704,4048,2563,1751
8706,4048,2564,1751
8708,4049,2565,1751
8707,4048,2564,1751
8705,4047,2564,1751
8705,4047,2564,1751
8706,4047,2565,1751
8708,4047,2566,1752
8708,4046,2566,1752
8714,4047,2569,1753
8718,4048,2571,1753
8721,4048,2572,1754
8727,4049,2575,1755
8733,4051,2577,1756
8733,4050,2578,1756
8737,4050,2580,1757
8741,4051,2582,1757
8741,4051,2582,1757
8739,4049,2582,1757
8732,4047,2579,1755
8714,4042,2571,1752
8690,4036,2562,1748
8671,4030,2554,1744
8661,4028,2550,1742
8649,4024,2545,1740
8639,4020,2542,1738
8637,4020,2541,1738
8638,4020,2541,1738
8636,4019,2541,1738
8638,4019,2542,1738
8640,4020,2543,1739
8635,4017,2541,1738
8631,4015,2540,1737
8633,4016,2541,1737
8631,4016,2540,1737
8630,4014,2540,1736
8635,4015,2542,1737
8641,4017,2545,1738
8643,4016,2546,1738
8646,4017,2548,1739
8655,4019,2551,1741
8659,4020,2553,1742
8659,4018,2554,1741
8664,4020,2556,1742
8669,4021,2559,1743
8668,4020,2559,1743
8670,4020,2560,1743
8668,4020,2559,1743
8650,4014,2552,1739
8628,4008,2543,1735
8611,4004,2536,1732
8597,4000,2530,1730
8584,3996,2525,1728
8575,3993,2522,1726
8573,3993,2520,1726
8570,3991,2519,1725
8568,3990,2519,1725
8571,3991,2520,1725
8573,3991,2521,1726
8568,3989,2520,1725
8567,3988,2520,1724
8568,3989,2520,1724
8565,3987,2520,1724
8564,3986,2520,1723
8568,3987,2521,1724
8570,3987,2523,1724
8573,3987,2524,1725
8577,3988,2526,1725
8584,3990,2529,1727
8588,3990,2531,1727
8591,3991,2532,1728
8594,3991,2534,1728
8598,3992,2536,1729
8601,3992,2538,1729
8604,3993,2539,1730
8606,3993,2540,1730
8602,3992,2539,1729
8586,3987,2533,1726
8567,3982,2525,1722
8546,3977,2516,1718
8534,3975,2511,1716
8524,3972,2507,1714
8518,3970,2504,1713
8515,3970,2503,1713
8516,3971,2503,1713
8516,3972,2504,1713
8520,3974,2507,1715
8526,3974,2508,1715
8530,3975,2509,1716
8532,3976,2509,1716
8534,3977,2510,1716
8535,3978,2510,1716
8536,3978,2510,1716
8541,3980,2512,1717
8546,3982,2514,1718
8552,3984,2517,1719
8559,3986,2520,1720
8569,3989,2523,1722
8577,3992,2526,1724
8583,3993,2529,1725
8592,3996,2532,1726
8601,3999,2536,1728
8605,4000,2538,1729
8612,4002,2540,1730
8621,4006,2544,1732
8628,4007,2546,1733
8627,4007,2546,1733
8621,4006,2543,1732
8608,4004,2537,1730
8591,4000,2530,1727
8579,3997,2525,1725
8575,3996,2522,1724
8573,3996,2521,1724
8571,3996,2520,1724
8573,3996,2521,1724
8583,4000,2524,1726
8588,4001,2526,1727
8589,4001,2527,1727
8595,4004,2529,1729
8599,4006,2530,1729
8598,4005,2530,1729
8601,4006,2531,1730
8608,4009,2534,1731
8614,4011,2536,1732
8620,4012,2539,1733
8630,4015,2542,1735
8640,4019,2546,1737
8648,4021,2550,1739
8655,4023,2553,1740
8665,4026,2556,1742
8673,4029,2559,1743
8678,4030,2561,1744
8687,4033,2565,1746
8696,4036,2568,1748
8701,4037,2570,1748
8703,4038,2571,1749
8702,4038,2570,1749
8690,4036,2565,1746
8668,4030,2556,1742
8651,4026,2549,1740
8645,4025,2546,1739
8638,4024,2542,1737
8629,4021,2539,1736
8631,4023,2539,1736
8635,4024,2540,1737
8636,4024,2541,1737
8642,4026,2543,1739
8648,4028,2545,1740
8650,4029,2546,1740
8650,4029,2546,1740
8652,4030,2546,1740
8657,4032,2548,1741
8661,4034,2550,1742
8667,4035,2552,1743
8678,4039,2556,1745
8687,4042,2560,1747
8695,4044,2563,1749
8704,4047,2566,1751
8714,4050,2570,1752
8722,4052,2574,1754
8726,4053,2575,1755
8732,4054,2578,1756
8739,4057,2580,1757
8744,4058,2583,1758
8749,4059,2585,1759
8756,4061,2587,1760
8761,4063,2589,1761
8752,4060,2586,1759
8738,4057,2580,1757
8717,4052,2571,1753
8699,4048,2564,1750
8682,4044,2556,1746
8668,4041,2551,1743
8659,4039,2547,1741
8665,4040,2548,1743
8674,4043,2552,1746
8684,4045,2555,1748
8690,4047,2557,1749
8690,4048,2559,1750
8695,4048,2560,1751
8697,4048,2561,1752
8700,4050,2561,1752
8701,4049,2561,1752
8702,4050,2562,1752
8703,4050,2563,1752
8702,4050,2563,1751
8701,4050,2563,1750
8701,4050,2563,1749
8700,4050,2563,1748
8699,4050,2564,1747
8701,4051,2565,1747
8707,4052,2567,1748
8714,4054,2570,1749
8723,4056,2574,1752
8732,4058,2577,1754
8739,4060,2580,1755
8742,4060,2581,1756
8745,4061,2583,1756
8748,4062,2584,1757
8748,4062,2584,1756
8738,4059,2580,1754
8720,4055,2573,1751
8699,4049,2565,1747
8684,4045,2558,1744
8673,4042,2553,1742
8666,4040,2550,1741
8662,4039,2548,1741
8660,4038,2548,1741
8662,4038,2548,1741
8666,4039,2550,1742
8668,4040,2551,1742
8668,4040,2551,1742
8667,4039,2551,1742
8664,4038,2550,1741
8661,4037,2549,1740
8661,4037,2549,1740
8660,4037,2549,1740
8663,4037,2550,1740
8669,4039,2553,1741
8674,4040,2555,1742
8679,4041,2557,1743
8687,4043,2560,1745
8695,4045,2564,1747
8701,4046,2566,1748
8705,4046,2568,1749
8709,4047,2570,1750
8714,4048,2572,1750
8716,4048,2573,1751
8721,4049,2575,1752
8721,4049,2575,1752
8709,4045,2571,1749
8691,4041,2563,1746
8675,4037,2556,1743
8659,4032,2550,1740
8649,4029,2546,1739
8643,4028,2543,1738
8639,4026,2541,1737
8636,4025,2541,1737
8639,4025,2542,1737
8642,4026,2543,1738
8642,4026,2544,1738
8640,4025,2543,1737
8640,4025,2543,1737
8639,4024,2543,1737
8638,4023,2542,1737
8639,4024,2543,1737
8645,4025,2545,1738
8647,4025,2546,1738
8652,4026,2548,1739
8659,4028,2551,1741
8664,4029,2553,1742
8667,4029,2555,1742
8674,4030,2558,1743
8678,4031,2560,1744
8680,4031,2561,1745
8683,4032,2563,1745
8690,4034,2565,1746
8694,4034,2567,1747
8696,4034,2568,1747
8695,4034,2568,1747
8683,4031,2563,1745
8659,4024,2553,1741
8640,4019,2545,1737
8627,4016,2539,1735
8613,4012,2534,1732
8602,4009,2530,1730
8600,4008,2528,1730
8597,4007,2527,1729
8598,4007,2528,1730
8599,4007,2528,1730
8602,4008,2530,1730
8602,4007,2529,1730
8601,4006,2528,1729
8596,4006,2527,1729
8595,4005,2528,1729
8596,4005,2528,1729
8595,4004,2528,1730
8598,4005,2529,1730
8605,4007,2532,1731
8607,4007,2533,1731
8611,4007,2535,1732
8617,4009,2538,1733
8619,4009,2539,1733
8623,4010,2541,1734
8626,4011,2542,1734
8627,4011,2543,1733
8626,4011,2543,1733
8629,4011,2545,1733
8631,4011,2546,1733
8634,4012,2547,1734
8637,4012,2549,1734
8633,4011,2548,1733
8621,4008,2542,1731
8601,4002,2534,1727
8581,3997,2526,1724
8568,3994,2521,1722
8559,3991,2517,1720
8553,3990,2514,1719
8550,3989,2513,1719
8550,3989,2512,1719
8552,3990,2513,1720
8558,3992,2515,1721
8562,3992,2517,1722
8564,3993,2518,1722
8565,3994,2518,1722
8565,3994,2518,1722
8567,3995,2518,1723
8569,3996,2519,1723
8574,3997,2521,1724
8582,4000,2524,1725
8588,4002,2526,1726
8596,4004,2529,1728
8604,4007,2533,1730
8613,4009,2536,1731
8620,4011,2539,1733
8625,4012,2541,1734
8631,4014,2543,1735
8637,4016,2546,1736
8644,4018,2548,1737
8648,4019,2550,1738
8652,4021,2552,1738
8646,4019,2549,1737
8629,4015,2542,1734
8614,4012,2535,1731
8601,4009,2530,1729
8589,4006,2525,1727
8583,4004,2522,1726
8580,4004,2520,1726
8581,4004,2520,1726
8582,4004,2521,1726
8586,4006,2522,1727
8592,4008,2525,1728
8594,4008,2525,1728
8592,4007,2525,1728
8594,4009,2526,1729
8597,4010,2526,1729
8596,4010,2526,1729
8600,4011,2528,1730
8608,4014,2531,1731
8614,4016,2534,1733
8621,4017,2536,1734
8630,4020,2540,1735
8640,4023,2543,1737
8646,4024,2546,1739
8650,4025,2548,1739
8658,4028,2551,1741
8666,4030,2554,1742
8670,4031,2556,1743
8677,4033,2558,1744
8684,4036,2561,1745
8685,4036,2562,1745
8678,4034,2559,1744
8664,4031,2553,1741
8647,4027,2546,1739
8631,4023,2539,1736
8618,4020,2533,1733
8613,4020,2531,1732
8608,4019,2529,1731
8602,4017,2527,1730
8604,4018,2527,1731
8610,4020,2529,1731
8611,4021,2529,1731
8612,4021,2530,1732
8614,4022,2531,1732
8614,4022,2530,1732
8614,4021,2530,1731
8612,4021,2531,1732
8616,4023,2532,1732
8619,4024,2532,1733
8624,4025,2534,1733
8628,4026,2536,1734
8636,4029,2539,1735
8644,4031,2542,1737
8649,4033,2545,1738
8657,4034,2548,1739
8664,4037,2551,1740
8669,4038,2553,1741
8673,4039,2554,1742
8677,4041,2556,1742
8682,4042,2558,1743
8686,4043,2560,1744
8688,4044,2561,1744
8680,4042,2558,1742
8664,4038,2551,1739
8644,4033,2543,1735
8629,4029,2536,1733
8621,4028,2533,1732
8616,4026,2530,1731
8614,4025,2529,1731
8617,4026,2530,1732
8620,4027,2531,1733
8626,4028,2533,1734
8630,4030,2535,1735
8631,4030,2535,1735
8631,4030,2535,1735
8630,4030,2535,1735
8628,4030,2534,1734
8629,4030,2535,1734
8632,4031,2536,1735
8637,4032,2538,1736
8645,4034,2541,1737
8651,4036,2544,1738
8658,4037,2546,1740
8665,4039,2549,1741
8670,4040,2552,1742
8676,4042,2554,1743
8683,4044,2557,1744
8686,4045,2558,1745
8689,4046,2560,1745
8691,4046,2560,1745
8688,4045,2559,1745
8676,4042,2554,1742
8658,4037,2547,1739
8640,4032,2539,1736
8627,4029,2534,1734
8619,4027,2530,1733
8612,4025,2528,1732
8609,4024,2526,1731
8608,4024,2526,1731
8610,4024,2527,1731
8614,4025,2529,1732
8617,4025,2530,1733
8619,4026,2531,1733
8621,4026,2531,1734
8621,4026,2531,1734
8622,4026,2532,1734
8623,4027,2533,1734
8624,4026,2533,1734
8627,4027,2535,1734
8628,4028,2536,1734
8629,4028,2536,1734
8638,4030,2540,1735
8647,4032,2543,1738
8652,4033,2546,1739
8662,4035,2549,1741
8670,4037,2553,1743
8674,4038,2554,1743
8676,4039,2556,1743
8675,4038,2556,1743
8671,4037,2554,1742
8656,4033,2548,1739
8636,4028,2539,1736
8618,4023,2532,1732
8604,4020,2526,1730
8593,4017,2522,1728
8590,4016,2520,1728
8584,4014,2518,1726
8579,4013,2517,1725
8589,4015,2520,1728
8594,4016,2522,1729
8593,4016,2522,1728
8591,4016,2521,1728
8593,4016,2522,1728
8589,4015,2521,1727
8587,4014,2520,1726
8589,4015,2521,1727
8589,4015,2523,1727
8593,4016,2525,1729
8598,4016,2528,1730
8604,4018,2531,1731
8611,4019,2531,1733
8618,4020,2534,1734
8623,4021,2536,1734
8628,4023,2538,1735
8633,4023,2540,1735
8636,4024,2542,1736
8641,4025,2544,1737
8645,4027,2545,1738
8647,4026,2546,1738
8644,4026,2545,1737
8630,4022,2539,1734
8610,4017,2531,1731
8589,4012,2523,1727
8576,4008,2517,1725
8565,4005,2513,1723
8556,4003,2509,1721
8549,4001,2507,1720
8549,4001,2506,1720
8551,4001,2507,1720
8551,4001,2508,1720
8554,4001,2509,1720
8554,4001,2509,1720
8550,4000,2508,1719
8550,4000,2508,1719
8550,4000,2508,1719
8549,3999,2508,1719
8552,4000,2509,1719
8557,4002,2512,1720
8562,4003,2514,1721
8569,4004,2516,1722
8575,4005,2519,1723
8582,4007,2522,1725
8586,4008,2524,1725
8590,4009,2526,1726
8595,4010,2528,1727
8598,4011,2529,1727
8599,4011,2530,1727
8604,4013,2532,1728
8606,4013,2533,1728
8596,4010,2529,1726
8579,4005,2522,1723
8559,4000,2514,1719
8543,3996,2507,1716
8530,3992,2501,1714
8522,3990,2498,1713
8516,3988,2496,1712
8516,3988,2496,1712
8517,3988,2496,1712
8521,3989,2498,1713
8523,3989,2499,1714
8521,3988,2498,1713
8522,3989,2498,1713
8521,3989,2498,1713
8520,3988,2498,1713
8522,3989,2498,1713
8525,3990,2500,1714
8531,3992,2502,1715
8538,3994,2505,1717
8545,3995,2507,1718
8552,3997,2510,1719
8559,3999,2513,1721
8565,4001,2515,1722
8570,4003,2517,1722
8576,4004,2520,1723
8579,4005,2521,1724
8584,4006,2523,1725
8590,4008,2526,1726
8587,4007,2525,1725
8576,4004,2520,1723
8558,4000,2512,1720
8542,3996,2505,1717
8531,3993,2501,1716
8523,3991,2497,1715
8518,3990,2494,1714
8515,3990,2493,1713
8509,3988,2491,1712
8509,3989,2491,1712
8511,3989,2492,1712
8513,3990,2493,1712
8515,3990,2493,1712
8519,3992,2494,1713
8521,3992,2495,1714
8526,3994,2497,1715
8534,3996,2500,1717
8545,3999,2504,1720
8557,4003,2508,1722
8569,4006,2513,1725
8580,4009,2517,1727
8591,4012,2521,1730
8591,4013,2525,1731
8598,4016,2528,1733
8607,4016,2531,1735
8614,4018,2534,1736
8622,4020,2534,1737
8626,4020,2536,1739
8637,4023,2540,1739
8644,4025,2543,1741
8643,4025,2542,1741
8630,4021,2537,1738
8612,4017,2529,1735
8595,4013,2522,1732
8579,4009,2515,1729
8568,4006,2510,1727
8562,4005,2508,1726
8557,4004,2505,1725
8557,4004,2505,1725
8560,4005,2506,1726
8563,4006,2508,1726
8562,4006,2507,1726
8560,4005,2507,1725
8560,4006,2507,1725
8557,4006,2506,1724
8557,4005,2506,1723
8559,4006,2506,1723
8563,4008,2508,1724
8567,4009,2510,1724
8572,4010,2512,1725
8579,4012,2515,1726
8582,4013,2517,1726
8585,4014,2518,1727
8591,4016,2521,1728
8599,4018,2524,1729
8604,4020,2526,1730
8607,4020,2527,1730
8607,4020,2528,1730
8609,4021,2529,1730
8612,4022,2530,1730
8613,4022,2530,1730
8604,4021,2527,1728
8586,4016,2519,1725
8563,4010,2510,1720
8547,4006,2503,1718
8535,4003,2498,1716
8528,4001,2495,1715
8526,4001,2494,1715
8525,4000,2493,1715
8528,4001,2494,1716
8533,4002,2496,1717
8536,4003,2497,1718
8537,4004,2498,1718
8537,4004,2497,1718
8535,4003,2497,1717
8534,4003,2497,1717
8537,4004,2498,1718
8539,4004,2499,1718
8543,4005,2500,1718
8548,4007,2503,1719
8553,4008,2505,1720
8562,4011,2508,1722
8570,4013,2512,1723
8577,4015,2514,1724
8584,4017,2517,1726
8588,4018,2519,1726
8592,4019,2521,1727
8597,4020,2523,1728
8599,4021,2524,1728
8597,4020,2523,1727
8585,4017,2518,1725
8564,4012,2509,1722
8543,4007,2501,1718
8528,4003,2494,1715
8516,3999,2489,1713
8508,3997,2486,1712
8505,3996,2484,1711
8504,3996,2484,1711
8507,3997,2485,1711
8509,3997,2486,1712
8512,3997,2487,1712
8512,3998,2488,1712
8510,3996,2487,1712
8510,3996,2487,1712
8510,3996,2488,1712
8510,3996,2488,1712
8512,3996,2489,1712
8518,3997,2492,1713
8523,3999,2494,1714
8531,4000,2497,1716
8540,4003,2501,1717
8546,4004,2504,1718
8550,4004,2505,1719
8554,4005,2507,1720
8554,4007,2510,1721
8560,4008,2513,1722
8566,4008,2514,1723
8569,4008,2517,1724
8575,4009,2517,1724
8574,4009,2517,1720
8556,4003,2510,1720
8529,3996,2499,1714
8507,3991,2490,1710
8492,3986,2483,1708
8485,3984,2480,1708
8481,3982,2478,1708
8472,3979,2475,1706
8458,3975,2470,1703
8452,3973,2468,1701
8453,3973,2469,1701
8456,3973,2470,1701
8454,3971,2470,1701
8453,3971,2470,1701
8448,3969,2468,1700
8440,3966,2466,1698
8440,3965,2466,1698
8447,3968,2469,1699
8449,3967,2470,1700
8452,3967,2472,1701
8464,3970,2477,1703
8470,3971,2480,1704
8469,3969,2480,1704
8474,3970,2482,1704
8481,3972,2485,1706
8481,3971,2486,1705
8478,3969,2486,1705
8486,3971,2489,1706
8491,3972,2491,1707
8488,3970,2491,1706
8489,3970,2492,1706
8487,3970,2491,1705
8466,3963,2483,1702
8442,3955,2474,1697
8428,3952,2467,1695
8413,3948,2461,1693
8398,3942,2455,1690
8393,3941,2453,1690
8392,3941,2453,1690
8388,3938,2452,1689
8387,3937,2452,1689
8390,3938,2453,1689
8390,3937,2454,1689
8383,3934,2452,1688
8382,3933,2452,1687
8385,3935,2453,1688
8380,3932,2451,1687
8376,3929,2450,1686
8382,3932,2453,1687
8386,3932,2455,1687
8385,3930,2456,1687
8392,3932,2458,1688
8400,3934,2462,1690
8401,3933,2463,1690
8402,3932,2464,1690
8407,3934,2466,1690
8409,3934,2467,1690
8404,3931,2467,1689
8407,3932,2468,1689
8414,3934,2471,1690
8413,3932,2471,1690
8412,3931,2472,1690
8411,3931,2471,1689
8396,3926,2465,1687
8368,3918,2455,1681
8345,3912,2446,1677
8328,3907,2438,1674
8313,3902,2433,1671
8304,3900,2430,1669
8300,3898,2428,1669
8298,3897,2428,1668
8298,3896,2428,1668
8302,3897,2430,1669
8306,3898,2431,1670
8304,3896,2431,1670
8299,3894,2430,1668
8296,3893,2429,1668
8292,3891,2428,1667
8291,3891,2428,1666
8293,3891,2429,1666
8297,3892,2430,1667
8302,3893,2433,1668
8310,3896,2436,1669
8318,3898,2439,1671
8326,3900,2442,1672
8334,3902,2445,1674
8343,3905,2449,1675
8343,3908,2452,1677
8351,3910,2454,1678
8357,3910,2456,1678
8362,3912,2460,1680
8372,3915,2460,1681
8377,3917,2462,1680
8373,3916,2459,1680
8360,3913,2454,1678
8346,3910,2448,1676
8334,3908,2442,1674
8328,3907,2439,1673
8327,3907,2438,1674
8329,3908,2438,1674
8334,3910,2440,1675
8337,3911,2441,1676
8339,3913,2442,1675
8346,3916,2444,1676
8348,3916,2445,1676
8348,3917,2445,1676
8352,3919,2446,1677
8359,3922,2449,1679
8364,3923,2450,1680
8370,3925,2452,1681
8381,3929,2456,1683
8392,3932,2460,1685
8398,3933,2463,1686
8407,3936,2466,1688
8420,3942,2471,1690
8426,3943,2473,1692
8430,3944,2475,1692
8443,3949,2480,1695
8455,3953,2484,1697
8459,3954,2486,1698
8466,3956,2489,1699
8473,3959,2491,1701
8468,3959,2488,1700
8446,3953,2480,1696
8429,3949,2472,1693
8419,3948,2467,1691
8406,3945,2461,1689
8397,3942,2458,1688
8399,3944,2457,1688
8402,3946,2458,1688
8400,3945,2458,1688
8405,3947,2459,1689
8416,3951,2463,1691
8419,3953,2464,1692
8417,3952,2463,1691
8420,3954,2464,1692
8427,3957,2466,1693
8430,3958,2467,1694
8431,3958,2468,1694
8443,3962,2472,1696
8453,3966,2476,1698
8458,3966,2478,1699
8467,3969,2482,1701
8481,3974,2486,1703
8488,3977,2489,1705
8493,3978,2492,1706
8505,3982,2496,1708
8514,3986,2499,1709
8520,3987,2501,1710
8524,3988,2503,1711
8531,3991,2505,1712
8526,3991,2503,1711
8505,3985,2494,1708
8487,3981,2486,1704
8475,3979,2480,1703
8463,3977,2475,1701
8455,3975,2471,1699
8455,3976,2471,1699
8458,3977,2471,1700
8460,3978,2472,1700
8464,3979,2474,1701
8470,3982,2476,1702
8472,3983,2476,1702
8468,3981,2475,1701
8468,3982,2475,1701
8470,3983,2475,1701
8471,3983,2476,1701
8474,3984,2477,1702
8482,3987,2480,1703
8488,3989,2483,1704
8496,3991,2486,1706
8506,3994,2489,1708
8515,3997,2493,1709
8523,3999,2496,1711
8529,4001,2499,1712
8536,4003,2501,1713
8543,4005,2504,1714
8546,4006,2505,1715
8551,4008,2507,1715
8551,4009,2509,1716
8555,4008,2506,1715
8548,4008,2499,1711
8531,4003,2490,1708
8509,3998,2490,1704
8489,3993,2481,1702
8477,3990,2476,1702
8469,3988,2472,1700
8463,3986,2470,1699
8461,3986,2469,1699
8464,3987,2470,1700
8467,3987,2472,1700
8471,3988,2473,1701
8470,3988,2473,1701
8469,3988,2473,1701
8468,3988,2472,1700
8469,3988,2472,1701
8469,3987,2472,1701
8471,3988,2473,1701
8474,3988,2475,1702
8479,3989,2477,1703
8486,3991,2480,1704
8493,3992,2483,1706
8499,3993,2486,1707
8503,3994,2488,1708
8507,3995,2489,1708
8511,3996,2491,1709
8514,3996,2493,1710
8517,3996,2494,1710
8520,3997,2495,1711
8512,3995,2493,1709
8492,3989,2485,1706
8471,3984,2476,1702
8451,3978,2467,1698
8435,3974,2461,1696
8425,3971,2457,1694
8421,3970,2455,1693
8419,3969,2455,1693
8420,3968,2455,1693
8425,3969,2457,1694
8430,3971,2459,1695
8429,3970,2460,1695
8426,3969,2458,1694
8425,3968,2458,1694
8423,3967,2457,1694
8418,3965,2456,1693
8419,3965,2457,1693
8424,3966,2459,1694
8424,3966,2460,1694
8427,3966,2461,1694
8433,3967,2464,1695
8436,3967,2466,1696
8437,3966,2467,1696
8439,3966,2468,1696
8444,3968,2470,1697
8444,3967,2471,1697
8445,3966,2472,1697
8450,3968,2474,1698
8443,3966,2472,1697
8421,3959,2463,1692
8399,3953,2454,1689
8377,3947,2445,1685
8354,3940,2436,1680
8339,3935,2430,1677
8332,3934,2427,1676
8324,3931,2424,1675
8317,3928,2422,1673
8321,3929,2423,1674
8325,3930,2425,1675
8323,3928,2425,1675
8320,3927,2424,1674
8322,3927,2425,1675
8318,3926,2424,1674
8312,3923,2422,1672
8314,3924,2423,1673
8319,3925,2425,1673
8318,3923,2425,1673
8323,3924,2428,1674
8331,3926,2431,1676
8334,3926,2433,1676
8335,3925,2434,1677
8341,3927,2437,1678
8347,3928,2439,1679
8347,3928,2440,1678
8349,3927,2441,1679
8357,3930,2444,1680
8359,3930,2445,1681
8357,3928,2445,1680
8350,3926,2442,1679
8334,3922,2435,1676
8303,3913,2423,1670
8281,3906,2414,1666
8281,3903,2408,1663
8266,3898,2402,1661
8251,3898,2398,1658
8239,3894,2396,1657
8234,3893,2396,1657
8232,3892,2395,1657
8232,3891,2396,1657
8233,3890,2396,1657
8235,3891,2398,1658
8232,3889,2397,1657
8227,3887,2395,1656
8227,3887,2395,1655
8227,3887,2396,1655
8224,3885,2395,1654
8227,3886,2397,1655
8232,3887,2399,1655
8235,3887,2401,1656
8239,3887,2403,1657
8244,3888,2405,1658
8248,3889,2407,1658
8251,3889,2409,1658
8253,3889,2410,1659
8256,3890,2412,1659
8259,3890,2413,1660
8261,3890,2415,1660
8264,3890,2416,1660
8270,3892,2418,1662
8270,3891,2419,1662
8263,3890,2416,1660
8244,3885,2408,1657
8225,3880,2399,1654
8207,3876,2392,1651
8190,3872,2385,1647
8176,3869,2379,1643
8176,3870,2379,1644
8186,3872,2382,1647
8195,3875,2385,1649
8201,3877,2387,1650
8202,3878,2387,1649
8208,3880,2389,1651
8214,3882,2391,1652
8215,3883,2391,1653
8219,3884,2393,1654
8230,3888,2396,1656
8244,3892,2401,1660
8254,3894,2405,1662
8263,3897,2409,1664
8275,3901,2413,1666
8288,3905,2418,1669
8296,3907,2421,1670
8306,3910,2425,1672
8319,3915,2429,1675
8324,3916,2432,1676
8325,3916,2432,1675
8333,3920,2435,1676
8343,3923,2439,1678
8347,3925,2441,1679
8347,3925,2441,1679
8340,3924,2437,1678
8326,3921,2431,1675
8307,3916,2423,1672
8297,3914,2418,1670
8295,3915,2416,1670
8292,3914,2415,1670
8293,3914,2415,1671
8301,3918,2417,1672
8309,3921,2420,1674
8310,3921,2421,1674
8316,3923,2423,1674
8322,3926,2425,1675
8324,3926,2426,1676
8326,3927,2427,1676
8332,3929,2429,1678
8342,3933,2432,1680
8345,3934,2433,1680
8350,3935,2435,1681
8361,3939,2439,1683
8368,3942,2442,1684
8371,3942,2444,1684
8381,3946,2448,1686
8393,3950,2452,1688
8398,3952,2454,1689
8403,3953,2456,1690
8413,3956,2460,1692
8422,3960,2463,1693
8427,3961,2465,1694
8428,3962,2466,1694
8431,3964,2466,1694
8419,3962,2461,1691
8398,3956,2452,1688
8389,3955,2447,1687
8388,3955,2445,1688
8388,3953,2443,1688
8382,3951,2439,1687
8375,3951,2439,1687
8374,3952,2440,1687
8377,3953,2440,1689
8383,3955,2442,1688
8383,3955,2442,1688
8378,3955,2440,1686
8368,3953,2437,1682
8356,3951,2433,1679
8360,3952,2434,1680
8371,3956,2438,1682
8377,3958,2440,1684
8386,3960,2443,1686
8406,3966,2450,1690
8419,3969,2455,1693
8426,3971,2458,1695
8436,3974,2462,1696
8444,3977,2465,1698
8448,3978,2467,1698
8451,3979,2469,1698
8457,3981,2471,1699
8466,3983,2475,1701
8472,3985,2477,1702
8478,3987,2480,1703
8486,3989,2483,1705
8484,3988,2482,1705
8468,3984,2475,1702
8449,3980,2467,1699
8431,3975,2459,1696
8417,3971,2453,1693
8410,3970,2449,1693
8406,3969,2448,1692
8406,3969,2447,1692
8407,3969,2447,1693
8411,3970,2449,1694
8417,3972,2451,1695
8421,3974,2453,1695
8422,3974,2453,1695
8422,3974,2453,1695
8421,3974,2453,1695
8421,3974,2453,1695
8425,3975,2455,1695
8431,3977,2457,1696
8438,3979,2460,1698
8446,3981,2463,1699
8453,3983,2467,1700
8460,3985,2470,1702
8467,3986,2472,1703
8471,3987,2474,1703
8476,3989,2477,1704
8480,3989,2478,1704
8481,3990,2479,1704
8484,3990,2481,1705
8486,3991,2482,1705
8487,3991,2483,1704
8484,3990,2482,1703
8469,3986,2476,1700
8446,3979,2466,1696
8422,3973,2456,1692
8402,3968,2448,1688
8390,3965,2443,1686
8383,3963,2440,1685
8380,3961,2439,1684
8381,3962,2439,1685
8387,3963,2441,1686
8393,3964,2444,1688
8401,3966,2447,1690
8401,3966,2447,1690
8396,3964,2445,1688
8391,3962,2444,1687
8388,3962,2443,1686
8386,3961,2442,1685
8391,3963,2445,1686
8398,3964,2447,1688
8404,3965,2450,1689
8409,3966,2453,1690
8415,3967,2455,1691
8421,3969,2458,1692
8426,3969,2460,1693
8429,3969,2462,1694
8435,3971,2464,1695
8438,3971,2466,1696
8439,3971,2466,1696
8443,3972,2468,1696
8444,3972,2469,1696
8432,3968,2464,1694
8415,3963,2457,1691
8393,3958,2448,1687
8372,3952,2440,1683
8356,3947,2433,1680
8348,3945,2430,1679
8348,3944,2428,1678
8343,3941,2426,1677
8337,3941,2427,1677
8338,3941,2430,1678
8346,3943,2430,1679
8347,3942,2431,1679
8346,3941,2431,1679
8346,3941,2431,1679
8346,3941,2431,1679
8340,3938,2429,1678
8344,3939,2431,1678
8347,3940,2432,1679
8348,3939,2433,1679
8353,3940,2435,1680
8361,3942,2439,1681
8366,3943,2441,1682
8369,3943,2443,1683
8375,3945,2446,1684
8383,3947,2449,1685
8384,3946,2450,1685
8386,3946,2451,1686
8392,3948,2454,1687
8392,3948,2454,1687
8379,3943,2449,1684
8360,3938,2441,1681
8338,3932,2432,1677
8315,3925,2423,1673
8301,3921,2417,1670
8294,3920,2414,1670
8288,3918,2412,1669
8285,3916,2411,1668
8290,3917,2412,1670
8294,3918,2414,1670
8293,3917,2414,1670
8291,3916,2414,1669
8292,3916,2414,1670
8289,3915,2413,1669
8284,3913,2412,1668
8284,3913,2412,1668
8288,3914,2414,1669
8289,3913,2415,1669
8295,3914,2417,1670
8301,3916,2420,1672
8307,3917,2422,1673
8312,3917,2425,1674
8317,3918,2427,1675
8322,3919,2429,1676
8325,3920,2431,1676
8326,3920,2432,1676
8326,3920,2432,1675
8314,3916,2427,1673
8292,3910,2418,1669
8270,3904,2410,1665
8253,3899,2403,1662
8240,3895,2397,1659
8233,3893,2395,1658
8229,3892,2393,1657
8225,3890,2392,1657
8229,3892,2394,1657
8235,3893,2396,1658
8241,3895,2399,1659
8246,3896,2401,1660
8248,3896,2401,1661
8250,3898,2402,1661
8252,3899,2403,1661
8257,3900,2405,1662
8265,3902,2408,1664
8275,3906,2412,1666
8283,3908,2415,1667
8292,3911,2418,1669
8302,3914,2422,1670
8312,3917,2426,1672
8320,3919,2430,1674
8330,3922,2433,1676
8338,3925,2436,1677
8346,3927,2439,1679
8350,3928,2441,1679
8353,3930,2442,1680
8346,3929,2439,1678
8325,3923,2430,1675
8304,3918,2421,1671
8289,3915,2414,1668
8279,3913,2410,1666
8272,3911,2407,1665
8270,3911,2406,1665
8274,3913,2407,1666
8279,3914,2409,1667
8286,3916,2412,1668
8294,3919,2414,1670
8303,3922,2417,1671
8303,3922,2418,1671
8304,3923,2418,1672
8310,3925,2420,1673
8310,3926,2421,1673
8312,3926,2422,1673
8313,3926,2425,1675
8323,3929,2429,1677
8332,3932,2429,1678
8340,3934,2432,1678
8347,3935,2435,1679
8358,3939,2439,1682
8369,3943,2443,1683
8376,3944,2446,1685
8382,3946,2449,1686
8394,3950,2453,1688
8400,3952,2455,1689
8401,3952,2456,1689
8402,3953,2456,1689
8390,3951,2451,1687
8366,3945,2441,1683
8345,3939,2432,1679
8332,3937,2426,1676
8325,3936,2423,1675
8320,3934,2420,1674
8320,3934,2420,1674
8326,3937,2422,1676
8334,3939,2426,1677
8339,3940,2428,1678
8346,3943,2430,1679
8350,3944,2432,1680
8348,3944,2431,1679
8348,3944,2431,1679
8353,3946,2433,1680
8357,3948,2434,1680
8362,3949,2436,1681
8371,3952,2440,1683
8382,3956,2444,1685
8392,3958,2448,1687
8400,3960,2451,1688
8412,3964,2456,1691
8421,3967,2459,1693
8427,3968,2462,1693
8433,3971,2464,1695
8442,3974,2468,1696
8447,3975,2470,1697
8450,3976,2471,1697
8447,3976,2470,1696
8431,3972,2463,1693
8409,3967,2454,1689
8388,3961,2445,1686
8376,3958,2440,1683
8370,3957,2437,1682
8366,3956,2435,1682
8368,3957,2436,1682
8373,3958,2438,1683
8379,3960,2440,1684
8387,3962,2443,1686
8392,3963,2445,1687
8393,3963,2445,1687
8393,3964,2445,1687
8395,3964,2446,1688
8401,3966,2448,1689
8405,3967,2450,1690
8409,3968,2452,1690
8417,3970,2455,1692
8428,3974,2459,1694
8436,3976,2463,1696
8444,3978,2466,1697
8453,3981,2469,1699
8460,3982,2472,1700
8465,3984,2475,1701
8472,3986,2477,1702
8476,3987,2479,1703
8481,3989,2481,1704
8474,3987,2478,1702
8455,3982,2470,1699
8433,3976,2461,1695
8415,3971,2454,1692
8403,3968,2449,1690
8398,3967,2446,1689
8395,3966,2445,1688
8396,3966,2445,1688
8400,3967,2447,1689
8405,3968,2449,1690
8407,3968,2451,1691
8410,3969,2452,1691
8407,3968,2451,1691
8407,3967,2451,1690
8407,3967,2451,1690
8408,3967,2452,1690
8410,3967,2453,1691
8414,3968,2455,1691
8420,3969,2458,1692
8428,3971,2461,1694
8433,3972,2464,1695
8433,3973,2466,1696
8439,3975,2469,1697
8447,3975,2471,1698
8450,3975,2472,1698
8451,3974,2472,1699
8456,3975,2474,1699
8459,3976,2476,1699
8461,3976,2477,1700
8456,3974,2475,1698
8441,3970,2469,1696
8416,3963,2459,1691
8390,3956,2449,1686
8371,3951,2441,1683
8361,3948,2436,1681
8349,3944,2432,1679
8342,3941,2430,1678
8342,3941,2430,1678
8342,3940,2430,1678
8339,3938,2430,1677
8342,3939,2431,1678
8341,3938,2431,1678
8334,3935,2429,1676
8330,3933,2428,1675
8332,3933,2429,1676
8331,3932,2429,1675
8328,3930,2429,1675
8334,3931,2432,1676
8342,3933,2435,1677
8343,3932,2436,1678
8345,3931,2438,1678
8356,3935,2442,1680
8358,3934,2443,1680
8354,3931,2443,1679
8362,3934,2446,1681
8366,3934,2448,1681
8362,3932,2448,1681
8364,3931,2449,1681
8366,3932,2450,1681
8349,3927,2443,1678
8319,3917,2432,1672
8296,3911,2422,1668
8276,3906,2414,1665
8254,3899,2405,1661
8242,3894,2401,1658
8241,3895,2400,1658
8235,3892,2398,1657
8230,3889,2397,1656
8237,3891,2400,1657
8242,3893,2402,1658
8235,3888,2400,1657
8232,3887,2399,1656
8233,3888,2400,1657
8229,3886,2399,1656
8222,3882,2397,1654
8225,3883,2399,1655
8232,3885,2401,1656
8230,3882,2402,1655
8232,3882,2403,1655
8241,3885,2406,1657
8244,3884,2408,1657
8242,3882,2409,1657
8247,3884,2411,1657
8251,3885,2413,1658
8247,3882,2412,1657
8248,3881,2413,1657
8250,3882,2415,1657
8248,3881,2414,1656
8239,3877,2412,1654
8226,3873,2406,1652
8208,3868,2398,1649
8182,3860,2388,1645
8162,3854,2380,1641
8152,3852,2376,1640
8143,3848,2372,1638
8132,3844,2368,1635
8127,3843,2367,1634
8126,3842,2367,1633
8119,3839,2365,1631
8117,3838,2365,1631
8116,3837,2365,1631
8115,3836,2365,1631
8114,3835,2364,1631
8115,3835,2365,1631
8115,3834,2365,1631
8114,3833,2365,1631
8111,3832,2365,1630
8116,3833,2367,1630
8119,3833,2369,1631
8126,3834,2372,1632
8134,3836,2375,1634
8141,3838,2378,1635
8145,3839,2380,1636
8145,3841,2382,1637
8149,3842,2384,1637
8154,3842,2387,1639
8162,3845,2390,1640
8170,3848,2390,1641
8171,3848,2389,1640
8162,3846,2385,1640
8147,3843,2378,1638
8129,3839,2370,1635
8122,3838,2367,1634
8119,3838,2365,1633
8116,3838,2363,1632
8117,3839,2363,1632
8127,3843,2367,1634
8139,3847,2371,1636
8148,3849,2374,1638
8155,3851,2377,1640
8162,3854,2378,1641
8165,3856,2379,1642
8164,3856,2379,1642
8169,3858,2381,1643
8179,3863,2384,1645
8185,3864,2386,1646
8193,3866,2389,1647
8207,3871,2394,1650
8220,3876,2399,1652
8227,3877,2402,1654
8237,3881,2406,1656
8249,3885,2410,1658
8257,3888,2413,1660
8261,3889,2415,1661
8270,3892,2418,1662
8283,3897,2422,1665
8281,3897,2421,1664
8269,3893,2416,1662
8256,3892,2410,1660
8237,3888,2401,1657
8216,3882,2393,1653
8208,3881,2389,1652
8208,3883,2388,1652
8201,3881,2385,1650
8193,3879,2382,1648
8201,3883,2385,1649
8219,3889,2391,1653
8230,3891,2395,1656
8235,3892,2397,1658
8247,3897,2401,1660
8248,3899,2401,1660
8242,3897,2399,1658
8248,3899,2401,1659
8261,3905,2405,1662
8268,3906,2408,1663
8274,3908,2411,1664
8289,3913,2416,1667
8303,3918,2421,1670
8309,3919,2424,1671
8315,3921,2426,1672
8329,3927,2431,1674
8338,3930,2434,1676
8341,3930,2436,1676
8350,3934,2439,1677
8360,3938,2443,1679
8357,3937,2442,1678
8344,3934,2436,1675
8329,3932,2429,1672
8310,3928,2421,1669
8293,3924,2414,1666
8285,3922,2410,1665
8288,3924,2410,1666
8288,3925,2409,1666
8287,3924,2409,1666
8296,3928,2412,1668
8307,3932,2416,1670
8311,3933,2418,1670
8317,3935,2420,1671
8323,3938,2422,1673
8325,3939,2422,1673
8324,3938,2422,1673
8328,3940,2423,1673
8335,3942,2426,1674
8342,3945,2429,1675
8347,3946,2431,1677
8360,3950,2436,1679
8372,3953,2440,1682
8382,3956,2444,1684
8393,3959,2448,1686
8404,3963,2452,1688
8411,3965,2455,1690
8419,3967,2458,1691
8426,3970,2461,1692
8433,3972,2464,1694
8435,3972,2465,1694
8435,3971,2462,1693
8428,3966,2454,1690
8410,3966,2445,1686
8389,3961,2437,1682
8370,3956,2437,1681
8361,3954,2433,1680
8357,3954,2431,1680
8359,3954,2431,1681
8361,3955,2432,1681
8368,3957,2435,1683
8375,3959,2438,1684
8381,3961,2440,1685
8382,3961,2441,1685
8382,3961,2441,1685
8382,3960,2441,1685
8384,3961,2441,1686
8385,3961,2442,1686
8390,3962,2444,1687
8397,3964,2447,1688
8404,3966,2450,1690
8411,3968,2453,1691
8418,3969,2456,1692
8425,3971,2459,1693
8433,3972,2462,1695
8437,3973,2464,1696
8442,3975,2466,1696
8447,3976,2469,1697
8451,3976,2470,1698
8455,3977,2472,1699
8458,3978,2474,1699
8451,3976,2471,1698
8433,3971,2464,1695
8408,3964,2453,1690
8385,3958,2444,1686
8370,3954,2437,1683
8360,3951,2433,1682
8352,3948,2431,1680
8352,3948,2430,1680
8352,3948,2431,1681
8355,3948,2432,1681
8359,3949,2434,1682
8362,3950,2435,1682
8361,3949,2435,1682
8358,3948,2434,1682
8359,3948,2434,1682
8359,3948,2434,1682
8359,3948,2435,1682
8363,3948,2437,1682
8370,3950,2439,1684
8374,3950,2442,1684
8378,3951,2444,1685
8388,3953,2448,1687
8391,3953,2449,1687
8392,3953,2450,1688
8400,3955,2453,1689
8402,3955,2455,1689
8402,3955,2455,1689
8407,3955,2458,1690
8410,3957,2459,1691
8403,3954,2456,1689
8384,3948,2449,1686
8361,3942,2439,1681
8338,3936,2430,1677
8318,3930,2422,1674
8307,3926,2417,1672
8302,3925,2415,1671
8299,3924,2414,1670
8294,3921,2413,1670
8297,3923,2414,1670
8298,3923,2415,1670
8297,3921,2415,1670
8297,3921,2415,1670
8297,3921,2415,1670
8291,3919,2413,1668
8286,3917,2412,1667
8289,3917,2413,1667
8297,3920,2416,1669
8297,3919,2417,1669
8302,3919,2419,1670
8308,3921,2422,1671
8311,3921,2423,1671
8313,3921,2425,1672
8321,3923,2428,1673
8325,3924,2430,1674
8325,3924,2430,1673
8330,3925,2432,1674
8336,3927,2435,1675
8336,3926,2435,1675
8332,3924,2434,1674
8317,3920,2428,1671
8295,3915,2419,1667
8267,3907,2408,1662
8267,3901,2400,1659
8248,3899,2396,1657
8238,3899,2392,1655
8228,3895,2390,1654
8222,3893,2390,1654
8223,3893,2390,1654
8225,3893,2391,1654
8224,3892,2392,1654
8225,3891,2392,1654
8227,3892,2393,1655
8223,3890,2392,1654
8219,3889,2391,1653
8217,3888,2390,1653
8218,3888,2391,1653
8220,3888,2392,1653
8223,3888,2394,1654
8228,3890,2396,1654
8234,3891,2399,1656
8240,3892,2401,1657
8245,3893,2404,1658
8248,3893,2405,1658
8251,3893,2407,1659
8254,3894,2409,1659
8257,3895,2410,1660
8257,3894,2410,1659
8258,3894,2411,1659
8248,3891,2407,1658
8228,3885,2399,1654
8205,3879,2389,1650
8186,3874,2382,1647
8177,3872,2378,1645
8173,3870,2376,1644
8169,3869,2374,1643
8171,3870,2375,1644
8178,3872,2378,1645
8186,3874,2381,1647
8191,3876,2383,1648
8193,3877,2383,1648
8193,3877,2383,1648
8196,3879,2384,1649
8199,3880,2385,1649
8203,3881,2386,1650
8209,3884,2389,1651
8215,3885,2391,1652
8224,3888,2395,1654
8233,3891,2398,1656
8240,3892,2401,1657
8250,3896,2405,1659
8258,3899,2408,1660
8265,3901,2411,1662
8271,3902,2413,1663
8277,3904,2415,1664
8285,3907,2418,1665
8284,3907,2418,1665
8270,3903,2412,1662
8250,3899,2403,1659
8231,3895,2395,1655
8212,3890,2387,1652
8201,3887,2382,1650
8199,3888,2381,1650
8195,3887,2379,1649
8196,3887,2379,1649
8203,3890,2382,1650
8210,3892,2385,1652
8214,3893,2386,1653
8216,3894,2387,1653
8220,3896,2388,1653
8222,3897,2388,1654
8221,3896,2388,1654
8226,3898,2390,1654
8235,3902,2393,1656
8242,3903,2396,1658
8248,3904,2398,1659
8259,3908,2402,1661
8268,3912,2406,1663
8272,3913,2408,1663
8278,3914,2410,1664
8287,3918,2413,1666
8295,3920,2417,1667
8297,3921,2418,1667
8302,3922,2420,1668
8306,3924,2421,1669
8293,3921,2415,1666
8268,3915,2405,1662
8252,3912,2398,1659
8239,3909,2392,1657
8228,3907,2387,1655
8223,3905,2385,1654
8226,3907,2385,1654
8228,3908,2386,1655
8233,3909,2388,1656
8233,3911,2390,1657
8240,3915,2394,1659
8249,3915,2394,1659
8249,3914,2392,1658
8245,3913,2392,1658
8247,3914,2393,1658
8247,3915,2393,1658
8245,3914,2392,1658
8251,3916,2394,1658
8260,3919,2398,1660
8268,3921,2401,1662
8274,3923,2403,1663
8285,3926,2408,1665
8297,3930,2412,1667
8304,3932,2415,1669
8311,3934,2418,1670
8321,3937,2422,1672
8329,3940,2425,1674
8332,3940,2426,1675
8330,3940,2425,1674
8318,3937,2420,1672
8295,3931,2410,1668
8276,3926,2402,1665
8263,3923,2397,1663
8256,3922,2393,1661
8251,3921,2391,1660
8249,3920,2390,1660
8252,3921,2391,1660
8256,3922,2393,1661
8262,3924,2396,1662
8266,3925,2397,1663
8270,3926,2398,1663
8268,3926,2398,1663
8270,3927,2398,1664
8275,3928,2400,1665
8277,3929,2401,1665
8283,3930,2404,1666
8290,3932,2407,1667
8298,3934,2410,1669
8306,3937,2413,1670
8314,3939,2416,1672
8323,3941,2420,1673
8329,3943,2422,1675
8334,3944,2424,1675
8339,3946,2426,1676
8343,3947,2428,1677
8346,3948,2430,1677
8348,3949,2430,1677
8340,3947,2427,1676
8318,3941,2418,1672
8295,3935,2408,1668
8275,3930,2400,1665
8262,3926,2394,1662
8254,3924,2391,1661
8248,3922,2388,1659
8245,3921,2387,1659
8246,3922,2388,1659
8249,3922,2389,1660
8253,3923,2391,1660
8257,3924,2393,1661
8256,3923,2392,1661
8254,3923,2392,1661
8255,3923,2392,1661
8256,3923,2393,1661
8259,3924,2394,1661
8265,3925,2397,1662
8272,3927,2400,1664
8280,3929,2403,1665
8287,3930,2406,1666
8294,3932,2409,1668
8300,3933,2411,1669
8303,3934,2413,1669
8307,3935,2415,1670
8313,3937,2417,1671
8316,3938,2419,1672
8320,3938,2421,1672
8324,3939,2422,1672
8321,3938,2421,1672
8303,3933,2414,1669
8279,3927,2404,1664
8253,3920,2393,1660
8236,3916,2386,1657
8223,3912,2381,1654
8216,3910,2378,1653
8214,3909,2377,1652
8214,3909,2377,1652
8218,3910,2379,1653
8225,3912,2382,1655
8227,3912,2383,1655
8225,3911,2383,1655
8225,3911,2382,1655
8224,3911,2382,1654
8224,3909,2381,1654
8221,3910,2383,1654
8223,3910,2384,1654
8227,3910,2386,1655
8231,3911,2386,1656
8237,3912,2389,1658
8245,3914,2392,1658
8251,3915,2395,1659
8257,3916,2397,1660
8262,3917,2400,1661
8268,3919,2402,1663
8271,3919,2404,1663
8275,3920,2405,1664
8281,3922,2408,1665
8284,3922,2409,1665
8280,3921,2408,1665
8266,3917,2402,1662
8243,3911,2392,1658
8218,3904,2382,1653
8202,3900,2375,1650
8193,3897,2372,1649
8186,3895,2369,1647
8181,3893,2367,1647
8182,3893,2368,1647
8189,3896,2371,1648
8191,3895,2372,1649
8194,3895,2373,1649
8196,3896,2374,1650
8195,3895,2374,1649
8194,3894,2374,1649
8197,3896,2375,1650
8200,3896,2376,1650
8202,3896,2378,1651
8207,3897,2380,1651
8214,3899,2383,1653
8220,3901,2386,1654
8227,3902,2389,1655
8236,3904,2392,1657
8243,3906,2395,1658
8246,3906,2397,1659
8248,3906,2398,1659
8252,3908,2400,1660
8255,3908,2401,1660
8257,3908,2402,1660
8260,3909,2403,1660
8252,3907,2401,1659
8231,3901,2392,1655
8205,3894,2381,1650
8178,3887,2371,1645
8161,3882,2363,1642
8149,3879,2358,1640
8140,3876,2355,1638
8137,3875,2354,1637
8139,3875,2355,1638
8143,3876,2356,1638
8148,3877,2359,1639
8150,3877,2360,1640
8151,3877,2360,1640
8151,3877,2360,1640
8151,3877,2360,1640
8152,3877,2361,1640
8156,3877,2362,1641
8159,3878,2364,1641
8165,3880,2367,1642
8174,3882,2370,1644
8180,3884,2373,1645
8186,3885,2376,1646
8195,3888,2379,1648
8202,3890,2382,1649
8210,3893,2385,1650
8215,3894,2387,1651
8221,3896,2390,1652
8229,3898,2393,1654
8237,3901,2396,1655
8243,3902,2398,1657
8246,3903,2399,1657
8238,3901,2396,1656
8218,3896,2387,1652
8194,3890,2377,1647
8174,3885,2369,1644
8162,3883,2363,1642
8156,3882,2361,1641
8150,3880,2358,1640
8150,3880,2358,1640
8154,3881,2359,1641
8160,3883,2362,1642
8168,3885,2364,1643
8172,3887,2366,1644
8174,3888,2367,1644
8175,3888,2367,1644
8176,3889,2368,1644
8176,3891,2370,1646
8182,3893,2372,1647
8187,3893,2374,1647
8191,3893,2377,1649
8199,3896,2377,1651
8210,3899,2381,1652
8216,3901,2384,1652
8223,3902,2387,1653
8233,3905,2391,1655
8240,3907,2394,1656
8246,3909,2396,1657
8252,3910,2398,1658
8258,3913,2401,1659
8266,3915,2404,1661
8270,3916,2406,1661
8278,3919,2409,1663
8285,3921,2412,1664
8279,3919,2409,1663
8261,3915,2402,1659
8240,3910,2393,1655
8219,3905,2384,1652
8203,3900,2377,1649
8197,3899,2374,1648
8194,3899,2373,1647
8190,3898,2371,1646
8190,3898,2371,1646
8196,3900,2373,1648
8203,3902,2376,1649
8205,3902,2377,1649
8205,3902,2377,1649
8209,3905,2378,1650
8208,3905,2378,1650
8208,3904,2378,1649
8215,3907,2381,1651
8222,3909,2383,1652
8227,3910,2386,1653
8235,3912,2389,1654
8246,3916,2393,1657
8257,3918,2397,1659
8264,3920,2400,1660
8271,3922,2403,1662
8280,3925,2407,1664
8286,3927,2409,1665
8289,3928,2410,1665
8297,3930,2413,1667
8305,3932,2416,1668
8308,3933,2418,1669
8305,3933,2416,1668
8291,3929,2410,1666
8269,3924,2401,1662
8249,3919,2392,1658
8235,3915,2386,1656
8228,3914,2383,1655
8225,3913,2382,1654
8223,3912,2381,1654
8227,3914,2383,1655
8235,3915,2385,1656
8239,3916,2387,1657
8243,3918,2389,1657
8243,3918,2389,1658
8243,3918,2389,1658
8243,3918,2389,1657
8244,3918,2390,1657
8249,3920,2392,1658
8256,3922,2394,1660
8262,3923,2397,1661
8270,3925,2400,1662
8279,3928,2404,1664
8287,3930,2407,1665
8295,3932,2410,1667
8303,3934,2413,1668
8308,3936,2416,1670
8315,3938,2418,1671
8321,3939,2421,1672
8326,3941,2423,1673
8332,3943,2425,1674
8337,3944,2428,1675
8338,3944,2428,1675
8330,3942,2425,1673
8307,3936,2415,1669
8280,3929,2404,1664
8259,3924,2395,1661
8245,3920,2389,1658
8235,3917,2385,1656
8230,3916,2383,1655
8227,3915,2382,1655
8229,3916,2382,1655
8234,3917,2384,1656
8237,3918,2386,1656
8240,3919,2387,1657
8240,3919,2387,1657
8237,3918,2386,1656
8237,3918,2386,1656
8237,3918,2387,1656
8238,3918,2388,1656
8240,3918,2390,1657
8243,3919,2390,1658
8250,3921,2392,1659
8257,3922,2395,1659
8264,3924,2398,1660
8269,3925,2401,1661
8277,3927,2404,1663
8283,3928,2406,1664
8286,3929,2408,1664
8290,3930,2410,1665
8294,3932,2411,1666
8296,3932,2412,1666
8300,3933,2414,1666
8305,3934,2416,1667
8305,3934,2417,1667
8293,3931,2412,1665
8272,3925,2403,1661
8249,3919,2393,1657
8230,3914,2385,1654
8215,3910,2379,1651
8211,3909,2377,1651
8210,3908,2376,1651
8209,3907,2376,1651
8212,3908,2377,1652
8219,3910,2380,1653
8221,3910,2381,1653
8222,3910,2382,1653
8221,3910,2381,1653
8220,3910,2381,1653
8219,3909,2381,1653
8220,3909,2382,1653
8225,3910,2384,1654
8232,3912,2386,1655
8237,3913,2389,1656
8244,3915,2392,1658
8252,3916,2395,1659
8258,3918,2398,1660
8262,3919,2400,1661
8263,3919,2400,1661
8264,3919,2401,1660
8265,3919,2402,1661
8266,3920,2403,1660
8271,3921,2404,1661
8276,3921,2407,1662
8271,3920,2405,1661
8255,3915,2398,1659
8234,3910,2389,1655
8208,3903,2379,1650
8191,3899,2371,1647
8180,3896,2367,1645
8174,3894,2364,1644
8169,3892,2362,1643
8167,3892,2361,1643
8169,3892,2362,1643
8175,3893,2365,1645
8181,3895,2367,1646
8181,3895,2368,1646
8180,3894,2367,1646
8180,3894,2367,1646
8182,3894,2368,1646
8184,3895,2369,1647
8189,3896,2371,1648
8190,3896,2372,1647
8185,3895,2371,1645
8182,3894,2371,1643
8191,3897,2374,1645
8202,3899,2379,1648
8209,3901,2381,1649
8216,3902,2385,1651
8224,3905,2387,1652
8228,3905,2389,1653
8234,3907,2392,1654
8241,3909,2395,1655
8246,3910,2397,1656
8241,3908,2395,1655
8220,3903,2387,1651
8192,3895,2375,1646
8169,3890,2365,1641
8152,3885,2358,1638
8145,3883,2355,1637
8143,3882,2354,1637
8144,3882,2354,1638
8150,3884,2356,1640
8157,3885,2359,1641
8159,3886,2360,1642
8162,3886,2361,1642
8159,3886,2360,1641
8155,3885,2359,1640
8154,3884,2358,1640
8154,3885,2359,1640
8156,3884,2360,1640
8157,3884,2362,1641
8163,3886,2365,1643
8168,3887,2365,1644
8173,3888,2367,1645
8180,3890,2370,1645
8189,3892,2373,1647
8196,3893,2376,1648
8201,3895,2379,1649
8205,3897,2380,1649
8209,3898,2382,1650
8214,3899,2384,1650
8218,3900,2385,1651
8217,3900,2385,1651
8204,3897,2380,1649
