3530,1686,957,829
3531,1687,957,829
3531,1687,957,829
3532,1687,957,830
3535,1688,958,830
3537,1689,959,831
3536,1689,959,831
3536,1689,958,830
3535,1689,958,830
3533,1689,957,829
3533,1689,957,829
3535,1689,958,830
3536,1690,958,830
3538,1690,959,831
3541,1692,960,831
3542,1692,961,832
3542,1692,961,831
3542,1692,960,831
3541,1692,960,831
3540,1692,959,831
3537,1691,958,830
3535,1691,958,829
3532,1690,957,829
3530,1689,956,828
3528,1689,955,828
3528,1689,955,828
3528,1689,955,828
3528,1689,955,828
3528,1689,955,828
3528,1689,955,828
3529,1689,955,828
3529,1689,956,828
3529,1688,956,828
3529,1688,955,828
3529,1688,956,828
3528,1688,956,828
3528,1687,955,828
3527,1687,955,828
3527,1687,955,828
3526,1686,955,827
3526,1686,955,827
3525,1686,955,827
3526,1686,955,827
3525,1685,955,827
3524,1685,955,827
3525,1685,955,827
3526,1685,956,827
3526,1685,956,827
3526,1685,956,827
3525,1685,956,827
3524,1684,956,827
3524,1684,955,827
3522,1683,955,827
3519,1682,954,826
3518,1682,954,826
3519,1682,954,826
3516,1681,953,825
3513,1680,952,825
3513,1680,952,825
3510,1678,951,824
3508,1678,951,824
3508,1678,951,823
3507,1677,950,823
3504,1676,949,822
3504,1676,950,823
3504,1675,949,822
3502,1673,948,821
3499,1673,948,821
3498,1673,948,821
3497,1672,948,820
3493,1671,947,820
3492,1670,946,819
3492,1670,946,819
3490,1669,946,819
3488,1668,945,818
3489,1669,946,818
3486,1667,945,818
3484,1666,944,817
3485,1666,945,817
3484,1666,944,817
3479,1664,943,816
3478,1663,943,815
3479,1664,943,816
3477,1662,943,815
3476,1662,943,815
3477,1662,943,816
3474,1661,942,815
3471,1659,941,814
3471,1659,941,814
3470,1659,941,814
3465,1657,939,813
3466,1657,940,813
3466,1657,940,813
3463,1655,939,812
3462,1655,939,812
3463,1655,939,813
3460,1654,938,812
3458,1653,938,812
3458,1653,938,812
3456,1652,937,811
3452,1650,936,810
3453,1650,936,810
3453,1650,936,810
3449,1649,935,809
3448,1648,935,809
3449,1648,935,809
3446,1647,935,808
3443,1646,934,808
3444,1646,934,808
3443,1645,934,807
3440,1644,933,807
3439,1644,933,806
3439,1644,933,806
3436,1642,932,806
3435,1642,932,806
3434,1641,932,805
3431,1640,931,805
3428,1639,930,804
3428,1638,930,804
3426,1638,929,804
3424,1637,928,803
3422,1636,928,803
3421,1635,928,802
3418,1634,927,802
3416,1633,926,801
3415,1633,926,801
3413,1632,926,801
3411,1631,925,800
3410,1630,925,800
3408,1629,924,799
3407,1629,924,799
3405,1628,923,798
3404,1628,923,798
3404,1628,923,798
3405,1628,924,798
3406,1628,924,799
3406,1629,924,799
3408,1629,924,799
3410,1630,925,800
3412,1631,926,800
3412,1632,926,800
3413,1632,926,800
3415,1632,927,801
3416,1633,927,801
3415,1632,927,801
3415,1633,926,801
3416,1633,926,801
3416,1634,926,801
3416,1634,926,801
3419,1635,927,802
3421,1636,928,802
3422,1636,928,803
3423,1637,928,803
3425,1638,928,803
3425,1638,929,803
3426,1638,929,804
3429,1640,930,804
3430,1640,930,805
3429,1640,930,804
3431,1641,930,805
3434,1642,931,805
3433,1642,931,805
3434,1642,931,805
3438,1644,932,806
3439,1645,932,806
3439,1645,932,806
3442,1646,933,807
3445,1647,934,808
3444,1647,934,808
3446,1648,935,808
3450,1650,936,809
3450,1650,935,809
3449,1649,935,809
3454,1651,937,810
3456,1652,937,810
3454,1652,937,810
3456,1652,937,811
3458,1654,937,811
3456,1653,937,811
3455,1653,936,811
3459,1655,937,812
3460,1655,938,812
3459,1655,937,812
3461,1656,938,812
3465,1657,939,813
3464,1657,939,813
3465,1657,939,813
3468,1659,940,814
3468,1659,940,814
3467,1659,939,813
3470,1660,940,814
3472,1661,941,815
3471,1661,940,814
3473,1662,941,815
3477,1663,942,816
3477,1663,942,816
3477,1663,942,816
3481,1665,943,817
3484,1666,944,817
3483,1666,944,817
3485,1667,945,818
3488,1668,945,818
3488,1668,945,818
3488,1668,945,818
3492,1670,946,819
3493,1670,947,819
3492,1670,946,819
3493,1671,947,820
3495,1672,947,820
3494,1672,946,820
3495,1672,947,820
3497,1673,947,821
3497,1674,947,821
3497,1674,947,821
3497,1674,948,822
3499,1675,948,822
3500,1675,948,822
3500,1674,948,822
3500,1675,948,822
3501,1675,948,822
3501,1675,948,822
3500,1675,948,822
3501,1675,948,822
3502,1676,948,822
3502,1676,949,822
3504,1676,949,823
3505,1677,949,823
3506,1677,950,823
3507,1678,950,824
3508,1678,950,824
3510,1679,951,824
3511,1679,951,824
3512,1679,952,825
3513,1680,952,825
3514,1680,952,825
3514,1680,952,825
3515,1681,953,825
3517,1681,953,826
3517,1681,953,826
3517,1681,953,826
3516,1681,953,826
3515,1681,953,826
3515,1681,953,826
3516,1681,953,826
3516,1681,953,826
3516,1681,953,827
3516,1681,953,827
3518,1681,953,827
3518,1681,954,827
3518,1681,954,827
3518,1681,954,827
3518,1681,954,827
3518,1681,954,827
3518,1680,954,827
3518,1680,954,827
3518,1680,954,827
3518,1680,954,827
3518,1680,954,827
3518,1680,954,827
3518,1680,954,827
3518,1680,954,827
3517,1679,954,827
3518,1679,954,827
3518,1679,954,827
3517,1679,954,827
3516,1679,954,827
3515,1678,954,826
3514,1678,953,826
3513,1677,953,826
3511,1677,952,825
3509,1676,951,825
3506,1675,951,824
3505,1675,950,824
3502,1674,949,823
3499,1672,948,823
3498,1672,948,822
3497,1672,947,822
3493,1670,946,821
3492,1670,946,821
3491,1669,946,820
3489,1668,945,820
3486,1667,944,819
3486,1667,944,819
3484,1667,944,819
3481,1666,943,818
3482,1666,943,818
3482,1666,943,818
3480,1665,942,818
3480,1665,943,818
3480,1665,943,818
3481,1665,943,818
3479,1664,943,817
3478,1663,943,817
3479,1663,943,817
3477,1662,942,817
3475,1662,942,816
3477,1662,942,817
3476,1662,942,817
3473,1660,942,816
3474,1661,942,816
3474,1660,942,816
3470,1659,941,815
3469,1658,940,815
3468,1658,940,815
3464,1657,939,814
3463,1656,938,814
3463,1656,938,814
3461,1655,938,814
3458,1654,937,813
3459,1654,937,813
3459,1654,937,813
3456,1653,936,813
3456,1653,936,813
3456,1653,936,813
3453,1651,935,812
3451,1651,935,811
3452,1651,935,812
3451,1650,935,811
3450,1650,935,811
3451,1650,935,811
3451,1650,935,811
3450,1649,935,811
3450,1649,935,811
3450,1649,935,811
3449,1648,935,811
3448,1648,935,810
3449,1648,935,811
3447,1647,935,810
3447,1647,935,810
3448,1647,935,810
3448,1647,935,810
3445,1646,935,810
3445,1646,935,810
3444,1645,934,809
3441,1644,933,809
3439,1643,933,808
3437,1643,932,808
3434,1642,931,807
3432,1641,930,807
3431,1640,930,807
3430,1640,930,806
3428,1639,929,806
3428,1638,929,806
3428,1638,929,806
3427,1638,929,806
3426,1637,929,806
3426,1637,929,806
3424,1636,928,805
3422,1635,928,805
3421,1635,927,804
3421,1635,927,804
3421,1635,927,804
3421,1635,927,804
3421,1635,927,804
3422,1636,928,804
3424,1636,928,805
3425,1637,929,805
3426,1637,929,805
3427,1638,929,805
3429,1639,930,806
3430,1639,930,806
3431,1640,931,806
3434,1641,931,807
3434,1642,932,807
3436,1642,933,807
3437,1642,933,807
3437,1642,933,808
3438,1643,933,808
3438,1643,933,808
3437,1643,932,808
3438,1643,932,808
3440,1644,933,809
3440,1644,933,809
3441,1644,933,809
3442,1645,933,809
3444,1646,934,810
3443,1646,934,810
3445,1646,934,810
3447,1647,935,811
3448,1647,935,811
3448,1647,935,811
3451,1649,936,811
3451,1649,936,812
3451,1649,936,811
3452,1650,936,812
3456,1651,937,812
3455,1651,937,812
3456,1651,937,813
3459,1652,938,813
3460,1653,939,813
3460,1653,939,813
3463,1654,939,814
3466,1655,940,814
3466,1655,940,815
3467,1655,941,815
3471,1657,942,816
3471,1657,942,816
3471,1657,942,816
3474,1658,943,816
3476,1659,944,817
3475,1659,943,817
3476,1659,944,817
3478,1660,944,817
3477,1660,943,817
3476,1660,943,817
3478,1661,944,818
3479,1661,944,818
3478,1661,944,818
3479,1661,944,818
3481,1662,944,819
3481,1662,944,818
3481,1662,944,818
3484,1664,945,819
3484,1664,945,819
3483,1663,945,819
3484,1664,945,819
3486,1665,946,819
3486,1665,946,819
3486,1665,946,819
3489,1666,947,820
3490,1667,947,820
3490,1667,947,820
3493,1668,948,821
3494,1668,948,821
3495,1669,948,821
3497,1669,949,822
3498,1670,950,822
3498,1670,949,822
3499,1670,950,822
3501,1671,950,822
3501,1672,950,823
3500,1671,950,823
3500,1671,950,823
3500,1671,950,823
3499,1671,949,822
3499,1671,949,822
3500,1672,949,823
3500,1672,949,823
3500,1672,949,823
3500,1672,950,823
3501,1672,950,823
3502,1672,950,823
3501,1672,950,823
3502,1672,950,823
3502,1672,950,823
3502,1673,950,823
3503,1672,950,823
3503,1673,950,824
3503,1673,950,824
3503,1673,950,824
3504,1673,951,824
3506,1674,951,824
3507,1674,952,824
3509,1675,952,825
3510,1675,953,825
3511,1676,953,825
3511,1676,953,825
3511,1676,953,825
3512,1676,954,825
3512,1676,954,825
3513,1676,954,826
3514,1677,954,826
3514,1677,955,826
3514,1676,954,826
3512,1676,954,826
3510,1675,953,825
3507,1674,952,825
3505,1674,951,824
3503,1673,951,824
3502,1672,950,823
3501,1672,950,823
3500,1671,950,823
3499,1671,949,823
3498,1670,949,823
3497,1670,949,822
3496,1669,948,822
3494,1668,948,822
3493,1668,948,821
3491,1667,947,821
3489,1666,947,820
3489,1666,947,820
3489,1666,947,820
3487,1665,946,820
3487,1665,946,820
3488,1665,947,820
3486,1664,946,820
3485,1664,946,819
3485,1664,946,819
3484,1663,946,819
3482,1662,945,818
3483,1662,946,818
3482,1662,945,818
3480,1660,945,818
3479,1660,945,818
3479,1660,945,818
3475,1658,944,817
3473,1657,943,816
3472,1657,943,816
3468,1655,942,815
3465,1653,941,815
3466,1653,941,815
3463,1652,940,815
3457,1650,938,813
3455,1649,938,813
3454,1649,938,813
3449,1647,936,811
3446,1645,935,811
3448,1646,936,811
3446,1645,935,810
3443,1643,934,810
3444,1644,935,810
3441,1643,934,809
3441,1640,932,807
3434,1640,932,807
3433,1639,932,807
3433,1639,932,806
3429,1637,931,806
3428,1636,930,806
3430,1637,931,807
3428,1636,931,806
3423,1634,929,805
3425,1635,930,805
3423,1634,929,805
3418,1631,928,803
3419,1632,929,804
3419,1632,929,804
3414,1629,927,802
3413,1629,927,802
3414,1629,928,802
3411,1628,927,802
3407,1626,926,801
3407,1626,925,801
3402,1624,924,800
3397,1622,922,799
3396,1621,922,798
3395,1621,922,798
3388,1618,920,797
3386,1617,919,796
3387,1618,919,797
3382,1615,918,795
3378,1614,917,794
3379,1614,917,795
3376,1613,916,794
3373,1611,915,793
3372,1611,915,793
3371,1610,915,793
3368,1609,914,792
3365,1607,913,791
3365,1607,913,791
3362,1606,912,790
3359,1604,912,790
3358,1604,911,789
3357,1603,911,789
3354,1602,910,788
3352,1601,910,788
3351,1601,910,788
3347,1599,909,787
3346,1598,908,786
3346,1598,909,786
3345,1598,908,786
3344,1597,908,786
3343,1596,908,785
3340,1595,907,785
3339,1594,907,784
3338,1593,907,784
3335,1592,906,784
3332,1590,905,783
3330,1590,904,783
3327,1589,904,782
3322,1586,902,781
3322,1586,902,781
3321,1586,902,781
3321,1586,902,781
3322,1587,902,781
3325,1588,903,782
3328,1589,904,783
3331,1591,904,783
3332,1591,905,784
3335,1592,905,784
3338,1594,906,785
3339,1594,907,785
3341,1595,907,786
3345,1597,908,787
3347,1598,909,787
3350,1600,910,788
3353,1601,911,789
3353,1603,912,790
3358,1603,912,790
3358,1603,912,790
3359,1603,912,791
3365,1606,914,791
3365,1606,914,791
3365,1606,914,791
3369,1608,915,792
3372,1609,916,793
3372,1609,916,793
3374,1610,916,793
3377,1612,917,794
3377,1613,917,794
3376,1612,916,794
3378,1613,917,795
3382,1616,918,796
3380,1614,917,795
3380,1615,917,795
3385,1617,918,796
3385,1617,918,796
3385,1617,918,796
3389,1619,919,797
3391,1620,920,798
3390,1620,920,797
3390,1620,920,797
3395,1623,921,798
3395,1623,921,798
3394,1622,921,798
3399,1624,922,799
3402,1626,923,800
3402,1626,923,800
3404,1627,924,801
3410,1629,925,802
3411,1630,925,802
3410,1629,925,802
3415,1631,926,803
3417,1633,927,803
3415,1632,926,803
3416,1632,926,803
3418,1634,927,804
3416,1633,926,804
3415,1633,925,803
3419,1635,926,804
3420,1636,927,805
3419,1635,926,805
3422,1637,927,805
3426,1638,928,806
3425,1638,928,806
3426,1639,928,806
3431,1641,929,808
3431,1641,929,808
3430,1641,929,807
3434,1643,930,808
3436,1644,931,809
3436,1643,931,809
3438,1644,931,809
3442,1646,933,810
3444,1647,933,810
3445,1648,933,811
3449,1649,935,812
3452,1651,935,812
3452,1650,935,812
3454,1651,936,813
3457,1652,937,813
3458,1653,937,814
3458,1653,937,814
3460,1654,938,814
3461,1654,938,814
3460,1654,938,814
3460,1654,937,814
3460,1654,937,815
3459,1654,937,814
3459,1654,936,815
3459,1655,936,815
3459,1655,937,815
3459,1655,936,815
3459,1655,937,815
3460,1655,937,815
3461,1655,937,815
3462,1656,937,816
3463,1656,937,816
3464,1657,938,816
3464,1657,938,816
3464,1657,938,816
3464,1657,938,816
3465,1658,938,816
3466,1658,938,816
3466,1658,938,816
3467,1658,939,817
3468,1659,939,817
3468,1659,939,817
3469,1659,939,817
3469,1659,939,817
3469,1659,939,817
3469,1659,939,817
3469,1659,940,817
3469,1659,940,817
3470,1659,940,817
3470,1659,940,817
3470,1659,940,817
3469,1658,940,817
3469,1658,940,817
3466,1657,939,816
3464,1656,938,816
3462,1656,937,816
3461,1655,937,816
3460,1655,937,816
3459,1654,936,815
3458,1654,936,815
3457,1653,936,815
3456,1653,935,815
3456,1653,935,815
3455,1652,935,815
3455,1652,935,815
3454,1652,935,815
3454,1652,935,814
3452,1651,934,814
3452,1651,934,814
3451,1651,934,814
3450,1650,934,813
3450,1650,934,813
3450,1650,934,813
3449,1650,934,813
3449,1649,934,813
3449,1649,934,813
3448,1648,934,813
3446,1648,933,812
3447,1648,934,812
3446,1647,933,812
3444,1646,933,811
3444,1646,933,811
3444,1646,933,811
3443,1645,933,811
3443,1645,933,811
3442,1645,933,811
3440,1644,932,810
3438,1643,932,810
3437,1643,931,810
3434,1641,930,809
3431,1640,929,809
3431,1640,929,809
3429,1640,929,809
3426,1638,928,808
3426,1638,927,808
3425,1638,927,808
3422,1636,926,807
3422,1637,926,807
3423,1637,927,807
3423,1636,926,806
3420,1636,925,806
3418,1634,926,806
3419,1635,926,806
3417,1634,925,806
3414,1632,924,805
3414,1632,924,805
3413,1632,924,805
3411,1631,924,804
3412,1631,924,804
3413,1631,925,805
3411,1630,924,804
3409,1630,924,804
3411,1630,924,804
3409,1629,924,803
3408,1628,924,803
3408,1629,924,803
3409,1629,924,803
3407,1628,924,803
3407,1627,924,803
3407,1628,924,803
3405,1627,923,802
3404,1626,923,802
3403,1626,923,802
3400,1624,922,801
3397,1623,921,801
3396,1623,920,801
3394,1622,920,800
3392,1621,919,800
3391,1621,919,799
3390,1620,919,799
3388,1619,918,799
3387,1619,918,799
3388,1619,918,799
3386,1618,918,798
3384,1617,917,798
3383,1617,917,798
3383,1617,917,798
3381,1616,916,797
3380,1615,916,797
3380,1615,916,797
3379,1615,916,796
3379,1614,916,796
3379,1614,916,796
3377,1613,916,796
3377,1613,916,796
3376,1613,916,796
3376,1612,915,795
3375,1612,915,795
3375,1612,915,795
3374,1612,915,795
3374,1612,915,795
3375,1612,916,795
3375,1612,916,795
3375,1612,915,795
3375,1612,915,795
3374,1612,915,795
3374,1612,915,795
3375,1613,915,795
3375,1613,915,795
3376,1614,915,796
3377,1614,915,796
3377,1614,915,796
3379,1615,916,796
3381,1616,916,797
3382,1616,917,797
3383,1617,917,797
3385,1618,917,798
3386,1618,918,798
3386,1618,918,798
3388,1619,918,798
3390,1620,919,799
3391,1620,919,799
3391,1621,920,799
3393,1623,921,800
3396,1623,921,800
3396,1622,921,800
3397,1623,921,801
3399,1624,922,801
3401,1624,922,801
3400,1624,922,800
3402,1625,923,801
3406,1627,924,802
3408,1627,925,802
3409,1628,925,803
3414,1629,927,804
3416,1630,927,805
3414,1630,927,804
3413,1629,926,804
3413,1630,926,804
3410,1629,924,803
3409,1629,924,803
3411,1630,925,804
3412,1630,925,804
3411,1630,925,804
3413,1631,925,804
3415,1632,926,805
3415,1632,926,805
3416,1632,926,805
3420,1634,927,806
3420,1634,927,806
3419,1633,927,806
3421,1634,927,806
3424,1636,928,807
3424,1635,928,807
3426,1636,929,807
3429,1638,930,808
3430,1638,930,808
3430,1638,930,808
3432,1639,931,809
3434,1640,931,809
3434,1640,931,809
3435,1640,932,809
3437,1641,932,809
3438,1642,933,810
3438,1642,933,810
3441,1643,934,810
3444,1644,935,811
3445,1644,935,811
3446,1645,935,811
3448,1646,936,812
3448,1646,936,812
3447,1646,935,812
3447,1646,935,812
3447,1646,935,812
3446,1646,935,812
3447,1646,935,812
3448,1647,935,813
3449,1647,935,813
3449,1647,935,813
3451,1648,936,813
3451,1648,936,813
3451,1648,936,813
3452,1649,936,814
3453,1649,936,814
3453,1649,936,814
3452,1649,936,814
3453,1649,936,814
3453,1649,936,814
3453,1649,936,814
3454,1650,937,814
3456,1650,937,814
3457,1651,938,814
3458,1651,938,815
3460,1652,939,815
3461,1652,939,815
3462,1653,939,816
3462,1653,940,816
3463,1653,940,816
3463,1653,940,816
3463,1653,940,816
3465,1654,941,816
3466,1654,941,816
3467,1654,942,817
3468,1655,942,817
3469,1655,942,817
3468,1655,942,817
3465,1654,941,816
3463,1653,940,816
3461,1653,939,815
3459,1652,938,815
3459,1652,938,815
3459,1652,938,815
3460,1652,938,816
3460,1652,938,816
3460,1652,938,816
3459,1652,938,815
3459,1651,938,815
3458,1651,938,815
3457,1651,938,815
3457,1651,938,815
3457,1650,938,815
3457,1650,938,815
3457,1650,938,815
3458,1650,938,815
3458,1650,938,815
3458,1650,938,815
3458,1650,938,815
3457,1650,938,815
3457,1650,938,815
3457,1650,938,815
3457,1650,939,815
3458,1650,939,815
3457,1650,939,814
3456,1649,938,814
3457,1649,939,814
3458,1650,939,814
3456,1649,939,814
3456,1649,939,814
3457,1649,939,814
3456,1649,939,814
3454,1648,938,814
3453,1648,938,814
3452,1647,937,813
3450,1646,936,813
3449,1646,936,813
3448,1646,936,813
3446,1645,935,813
3445,1644,935,812
3445,1644,935,812
3444,1644,935,812
3443,1643,934,812
3444,1643,935,812
3443,1643,934,812
3441,1642,934,811
3440,1642,933,811
3439,1642,933,811
3437,1641,933,810
3436,1640,932,810
3437,1641,933,810
3436,1640,932,810
3435,1639,932,810
3436,1640,932,810
3435,1640,932,810
3434,1639,932,809
3434,1639,932,809
3435,1639,933,809
3434,1639,932,809
3434,1639,933,809
3435,1639,933,809
3435,1638,932,809
3434,1638,932,809
3433,1638,933,809
3434,1638,933,809
3432,1637,932,809
3428,1636,931,808
3426,1635,930,808
3425,1635,929,807
3422,1633,928,807
3420,1633,928,807
3420,1632,928,806
3418,1632,927,806
3417,1631,927,806
3417,1631,927,806
3417,1631,927,806
3415,1630,926,805
3414,1630,926,805
3415,1630,926,805
3413,1629,926,805
3411,1629,925,804
3411,1629,925,804
3411,1628,925,804
3410,1628,925,804
3410,1628,925,804
3411,1628,925,804
3409,1628,925,804
3409,1627,925,804
3410,1627,926,804
3409,1627,925,804
3408,1626,925,803
3408,1626,925,803
3408,1626,925,803
3407,1626,925,803
3408,1626,925,803
3407,1626,925,803
3406,1625,925,803
3406,1625,925,803
3405,1625,925,803
3403,1624,924,802
3401,1623,923,802
3401,1624,923,802
3399,1623,922,802
3397,1622,922,802
3396,1622,921,801
3395,1621,921,801
3394,1621,921,801
3393,1620,920,801
3393,1620,920,801
3393,1620,921,801
3393,1619,920,801
3393,1619,920,801
3392,1620,920,801
3393,1620,920,801
3393,1620,920,801
3393,1620,920,801
3394,1620,921,801
3395,1621,921,801
3396,1621,921,801
3398,1622,922,801
3398,1622,922,801
3399,1622,922,802
3400,1623,923,802
3401,1623,923,802
3401,1623,923,802
3403,1624,924,802
3405,1625,924,803
3406,1625,925,803
3407,1626,925,803
3409,1626,926,804
3410,1627,926,804
3411,1627,926,804
3410,1627,926,804
3410,1627,925,804
3409,1626,924,804
3407,1626,924,804
3405,1626,924,803
3405,1626,923,803
3405,1626,923,803
3404,1626,923,803
3405,1626,923,804
3406,1627,924,804
3406,1627,924,804
3406,1627,924,804
3408,1627,924,804
3408,1627,924,804
3407,1627,924,804
3408,1628,924,804
3409,1628,925,805
3409,1628,924,805
3410,1629,925,805
3413,1630,926,805
3414,1630,926,806
3414,1630,926,806
3416,1631,927,806
3418,1632,927,806
3417,1631,927,806
3418,1632,928,806
3420,1632,928,807
3420,1633,928,807
3420,1633,928,807
3422,1633,929,807
3424,1634,929,807
3424,1634,929,807
3425,1635,930,808
3426,1635,930,808
3424,1635,929,808
3422,1634,928,807
3421,1634,928,807
3420,1634,928,807
3419,1634,927,807
3420,1634,927,807
3422,1635,928,808
3422,1634,928,808
3422,1634,928,808
3424,1635,928,808
3424,1636,929,808
3424,1636,929,808
3426,1636,929,809
3427,1637,929,809
3427,1637,929,809
3427,1637,929,809
3428,1637,930,809
3428,1638,930,809
3428,1638,930,809
3430,1638,930,809
3431,1639,931,810
3431,1639,931,810
3432,1639,931,810
3434,1640,931,810
3434,1640,932,810
3434,1640,932,810
3434,1640,932,810
3435,1640,932,810
3436,1640,932,810
3436,1641,933,810
3437,1641,933,810
3437,1641,933,811
3436,1641,933,811
3435,1640,932,810
3433,1640,931,810
3433,1640,931,810
3432,1640,930,810
3432,1640,930,810
3432,1640,930,810
3433,1640,930,811
3433,1640,930,811
3433,1640,931,811
3433,1640,931,811
3434,1640,931,811
3434,1641,931,811
3434,1641,931,811
3434,1640,931,811
3433,1640,931,811
3432,1640,930,810
3431,1640,930,810
3431,1640,930,810
3431,1640,930,810
3432,1640,930,810
3432,1640,931,810
3433,1640,931,810
3433,1640,931,810
3434,1640,931,810
3434,1640,931,810
3434,1640,932,810
3435,1640,932,810
3435,1640,932,810
3435,1640,932,810
3435,1641,932,810
3436,1641,932,810
3436,1641,933,811
3435,1640,932,811
3434,1640,932,811
3432,1639,931,810
3430,1638,930,810
3428,1638,929,810
3428,1637,929,810
3427,1637,929,810
3427,1637,929,809
3427,1637,929,809
3427,1637,929,809
3427,1637,929,809
3426,1637,929,809
3426,1636,929,809
3425,1636,929,809
3425,1636,928,809
3424,1636,928,809
3425,1636,928,809
3424,1636,928,809
3424,1636,928,809
3424,1636,928,809
3425,1636,929,809
3425,1636,929,809
3424,1635,929,808
3424,1635,929,809
3424,1635,929,808
3424,1635,929,808
3424,1635,929,808
3423,1635,929,808
3423,1635,929,808
3423,1634,929,808
3423,1634,929,808
3421,1634,928,808
3418,1633,927,807
3416,1632,926,807
3414,1631,925,807
3413,1631,925,807
3413,1631,925,807
3413,1631,925,806
3412,1630,924,806
3411,1630,924,806
3412,1630,925,806
3411,1630,924,806
3411,1630,924,806
3411,1630,924,806
3410,1629,924,806
3409,1629,924,805
3409,1629,924,805
3409,1629,924,805
3409,1628,924,805
3408,1628,923,805
3407,1628,924,805
3408,1628,924,805
3408,1628,924,805
3408,1628,924,805
3408,1628,924,805
3409,1628,924,805
3408,1628,924,805
3408,1627,924,805
3408,1627,924,805
3406,1627,924,804
3406,1626,924,804
3405,1626,924,804
3404,1626,923,804
3401,1625,922,804
3398,1624,921,803
3396,1623,920,802
3392,1622,919,802
3392,1622,919,802
3393,1622,919,802
3393,1622,919,802
3393,1622,919,802
3393,1622,919,803
3394,1622,919,803
3393,1621,919,802
3392,1621,919,802
3391,1621,918,802
3390,1620,918,802
3390,1620,918,802
3389,1620,918,801
3388,1620,917,801
3387,1619,917,801
3386,1619,917,801
3386,1619,917,800
3385,1618,917,800
3384,1618,917,800
3384,1618,917,800
3384,1618,917,800
3384,1618,917,800
3384,1618,917,800
3384,1618,917,800
3384,1617,917,799
3384,1617,917,799
3383,1617,917,799
3384,1617,917,799
3384,1617,917,799
3382,1617,916,799
3380,1616,915,799
3378,1615,914,799
3376,1615,914,798
3375,1615,913,798
3375,1615,913,798
3375,1615,913,798
3375,1615,913,798
3375,1615,913,798
3374,1615,913,798
3375,1615,913,798
3376,1615,913,798
3376,1615,913,798
3376,1616,913,799
3376,1615,913,798
3375,1615,913,798
3376,1616,913,798
3377,1616,913,799
3378,1617,914,799
3379,1617,914,799
3381,1618,915,799
3382,1618,915,800
3383,1618,915,800
3384,1619,916,800
3385,1619,916,800
3386,1620,916,800
3386,1619,916,800
3385,1619,917,800
3386,1620,917,801
3387,1620,917,801
3388,1620,917,801
3387,1620,917,800
3388,1620,917,801
3388,1620,917,801
3386,1620,916,800
3384,1619,916,800
3383,1619,915,800
3381,1618,914,800
3380,1618,914,800
3381,1618,914,800
3381,1619,914,800
3380,1618,914,800
3381,1619,914,800
3382,1619,914,800
3382,1619,914,800
3382,1619,914,800
3382,1619,914,800
3382,1619,914,800
3382,1619,914,800
3382,1619,914,800
3383,1620,914,800
3383,1620,914,800
3384,1620,915,800
3385,1621,915,801
3386,1621,916,801
3386,1621,916,801
3388,1621,916,801
3389,1622,917,802
3389,1622,917,801
3389,1622,917,801
3391,1623,917,802
3392,1623,918,802
3392,1623,918,802
3394,1624,919,802
3395,1624,919,803
3395,1624,919,803
3396,1624,919,803
3396,1625,919,803
3394,1624,918,803
3392,1623,917,802
3390,1623,916,802
3389,1623,916,802
3387,1622,915,802
3387,1622,915,802
3387,1622,915,802
3387,1622,915,802
3388,1623,915,802
3389,1623,916,802
3390,1623,916,803
3391,1624,917,803
3393,1624,917,803
3395,1625,918,804
3396,1625,918,804
3397,1625,918,804
3399,1626,919,805
3401,1626,920,805
3401,1627,920,806
3402,1627,921,806
3402,1627,921,806
3402,1627,921,806
3401,1627,920,805
3402,1627,920,805
3401,1627,920,805
3401,1627,920,805
3401,1627,920,805
3401,1627,920,805
3401,1627,920,805
3401,1627,920,804
3401,1627,920,805
3401,1627,921,805
3402,1627,920,804
3401,1627,920,804
3402,1627,921,804
3401,1627,920,804
3399,1626,920,804
3396,1625,918,803
3394,1625,918,803
3392,1624,917,803
3390,1624,916,803
3389,1623,916,802
3389,1623,916,803
3389,1623,916,803
3390,1623,916,803
3390,1623,916,803
3390,1623,916,803
3389,1623,916,803
3388,1623,916,802
3387,1622,915,802
3385,1621,915,802
3384,1621,914,801
3383,1620,914,801
3383,1620,914,801
3383,1620,914,801
3383,1620,914,801
3382,1619,914,801
3381,1619,914,801
3381,1619,914,801
3381,1619,914,800
3380,1618,914,800
3380,1618,914,800
3381,1618,914,800
3379,1617,914,800
3379,1617,914,799
3379,1617,914,800
3380,1617,914,800
3378,1616,914,799
3378,1616,914,799
3378,1616,914,799
3376,1615,914,799
3373,1614,913,798
3370,1613,911,798
3366,1611,910,797
3361,1610,909,796
3361,1609,908,796
3358,1608,908,796
3355,1607,907,795
3355,1606,906,795
3354,1606,906,794
3350,1604,905,794
3350,1604,905,794
3350,1604,906,794
3347,1602,905,793
3344,1601,904,792
3344,1601,904,792
3341,1600,903,791
3337,1598,902,790
3338,1598,902,791
3338,1598,902,791
3335,1596,902,790
3334,1596,902,790
3335,1596,902,790
3333,1595,902,789
3330,1593,901,789
3332,1594,901,789
3331,1594,901,789
3328,1592,900,788
3328,1592,901,788
3329,1592,901,788
3325,1591,900,787
3323,1590,899,787
3323,1590,900,787
3325,1590,899,786
3322,1589,897,785
3316,1586,897,785
3315,1586,897,785
3312,1585,896,785
3306,1582,894,783
3304,1582,893,783
3304,1582,893,783
3300,1580,892,782
3297,1578,891,781
3298,1579,891,782
3297,1578,891,781
3293,1576,890,780
3293,1576,890,780
3292,1576,890,780
3287,1574,889,779
3286,1573,888,779
3286,1573,888,779
3282,1571,887,778
3280,1571,887,777
3280,1571,887,777
3279,1570,887,777
3276,1569,886,776
3274,1568,885,775
3275,1568,886,775
3273,1567,885,775
3272,1566,885,775
3272,1566,885,775
3272,1566,885,775
3269,1564,884,774
3268,1564,884,774
3269,1564,885,774
3266,1563,884,773
3263,1562,883,773
3260,1561,882,772
3255,1559,880,771
3252,1557,879,770
3249,1556,878,770
3247,1555,877,769
3244,1554,876,769
3242,1553,876,768
3241,1553,876,768
3240,1552,875,768
3238,1551,875,767
3238,1552,875,767
3238,1552,875,767
3237,1551,875,767
3237,1551,874,767
3237,1551,875,767
3239,1552,875,767
3242,1553,876,768
3243,1554,876,768
3247,1556,877,769
3249,1557,878,770
3250,1557,879,770
3253,1559,879,771
3256,1560,880,771
3257,1560,881,771
3260,1562,882,772
3263,1563,883,773
3264,1563,883,773
3266,1564,883,773
3269,1565,884,774
3270,1566,884,774
3268,1565,883,774
3268,1566,883,774
3268,1566,883,774
3267,1566,882,774
3268,1567,882,775
3270,1568,883,775
3271,1569,883,775
3271,1568,883,775
3270,1569,883,776
3273,1569,884,776
3275,1570,884,776
3275,1570,884,776
3275,1571,884,776
3278,1572,885,777
3280,1573,885,777
3279,1572,885,777
3281,1574,886,778
3285,1576,887,779
3286,1576,887,779
3287,1576,887,779
3292,1578,889,780
3296,1580,890,781
3295,1579,890,781
3298,1581,891,782
3303,1583,892,783
3302,1583,892,783
3303,1583,892,783
3307,1585,894,784
3309,1586,894,784
3308,1585,894,784
3311,1587,895,784
3315,1589,896,785
3315,1589,896,785
3313,1588,895,785
3315,1589,895,785
3314,1589,895,785
3312,1588,894,785
3314,1589,894,786
3317,1591,895,787
3316,1591,895,787
3316,1590,894,787
3320,1592,895,788
3322,1593,896,788
3322,1593,896,788
3324,1594,897,789
3328,1596,898,789
3328,1596,898,789
3328,1596,898,790
3331,1598,899,790
3332,1598,899,790
3332,1598,899,790
3334,1599,899,791
3337,1601,900,791
3338,1601,900,791
3338,1601,901,791
3342,1603,902,792
3344,1604,902,793
3345,1604,903,793
3347,1605,903,793
3351,1607,904,794
3352,1607,905,794
3352,1607,905,794
3356,1609,906,795
3357,1609,907,796
3358,1609,907,796
3359,1610,907,796
3359,1610,907,796
3357,1609,906,796
3354,1609,905,795
3353,1609,904,795
3352,1608,904,795
3350,1608,903,795
3351,1608,903,795
3351,1608,903,795
3351,1609,903,795
3351,1609,903,795
3353,1610,904,795
3353,1610,904,795
3355,1610,904,795
3356,1611,905,796
3356,1611,905,796
3357,1611,905,796
3357,1611,905,796
3357,1612,905,796
3358,1612,905,796
3358,1612,905,796
3359,1612,906,796
3360,1612,906,796
3361,1613,906,797
3362,1613,907,797
3362,1613,907,797
3363,1613,907,797
3362,1613,907,797
3363,1613,907,797
3364,1614,908,797
3364,1614,908,797
3364,1614,908,797
3365,1614,908,797
3364,1613,908,797
3364,1613,908,797
3363,1613,908,797
3362,1612,908,797
3359,1611,907,796
3357,1610,906,796
3354,1609,905,795
3352,1609,904,795
3350,1608,903,795
3350,1607,903,795
3350,1607,903,795
3349,1607,903,795
3349,1607,903,795
3350,1607,904,795
3349,1607,904,794
3348,1606,903,794
3348,1606,903,794
3347,1605,903,794
3345,1605,902,793
3344,1604,902,793
3345,1605,902,793
3344,1604,902,793
3344,1604,902,793
3345,1604,903,793
3345,1604,903,793
3343,1603,902,792
3345,1603,903,793
3343,1602,903,792
3340,1601,902,792
3339,1601,902,791
3341,1601,903,792
3338,1600,902,791
3336,1599,901,790
3337,1599,902,791
3336,1598,902,791
3332,1597,900,790
3330,1596,900,790
3326,1595,898,789
3321,1592,896,788
3320,1592,896,788
3320,1592,896,788
3317,1590,895,787
3314,1589,894,786
3315,1590,895,786
3313,1589,894,786
3310,1587,893,785
3311,1587,894,785
3310,1587,893,785
3306,1585,892,784
3306,1585,892,784
3306,1585,892,784
3303,1584,892,783
3302,1583,891,783
3304,1584,892,783
3304,1583,892,783
3304,1582,891,782
3300,1582,891,782
3300,1582,892,782
3301,1582,892,782
3298,1580,891,782
3296,1579,891,781
3298,1580,891,782
3296,1579,891,781
3292,1577,890,780
3292,1577,890,780
3291,1577,890,780
3286,1575,888,779
3282,1573,887,778
3281,1573,886,778
3276,1571,884,777
3272,1569,883,776
3272,1569,883,776
3270,1568,882,776
3266,1567,881,775
3265,1567,881,775
3265,1566,881,774
3262,1565,880,774
3262,1564,880,774
3261,1564,880,773
3259,1563,880,773
3257,1562,879,772
3256,1562,879,772
3255,1561,878,772
3251,1560,877,771
3247,1558,876,769
3238,1556,873,767
3232,1554,871,765
3231,1553,871,765
3231,1553,871,765
3231,1553,871,765
3231,1552,871,765
3231,1552,872,765
3229,1551,871,764
3223,1549,869,763
3220,1548,868,762
3220,1548,868,762
3216,1546,867,761
3209,1544,865,759
3203,1542,862,758
3199,1541,861,757
3198,1541,860,757
3195,1540,859,756
3193,1539,859,756
3193,1539,859,756
3197,1541,860,757
3200,1542,861,758
3203,1543,862,759
3206,1544,863,759
3207,1545,863,760
3209,1545,863,760
3208,1545,863,759
3205,1545,862,759
3203,1544,862,758
3207,1545,863,759
3209,1545,864,760
3210,1546,864,760
3214,1547,865,761
3217,1548,866,761
3218,1549,867,762
3218,1549,867,761
3220,1550,867,762
3222,1550,868,762
3224,1551,869,763
3227,1552,870,764
3233,1554,872,765
3235,1555,872,766
3240,1557,874,767
3240,1558,874,768
3242,1556,873,767
3238,1556,871,766
3234,1555,871,766
3234,1556,871,767
3236,1556,871,767
3235,1556,871,767
3236,1557,871,767
3239,1558,872,768
3241,1559,873,768
3243,1560,873,769
3246,1562,874,769
3248,1562,875,770
3248,1562,875,770
3252,1563,876,771
3257,1566,877,772
3258,1566,878,772
3259,1566,878,773
3265,1568,880,774
3269,1570,881,775
3268,1569,881,775
3275,1573,883,776
3279,1574,884,777
3279,1574,884,777
3280,1575,885,777
3284,1577,886,778
3287,1578,887,779
3288,1578,887,779
3291,1579,888,780
3294,1581,889,780
3294,1581,889,780
3295,1581,889,780
3300,1583,891,781
3301,1584,891,782
3298,1583,890,781
3298,1583,890,782
3300,1584,890,782
3298,1584,889,782
3297,1583,889,782
3299,1585,889,783
3302,1585,890,783
3302,1585,890,783
3304,1586,891,784
3308,1588,892,785
3309,1588,892,785
3310,1589,893,785
3312,1590,893,786
3314,1591,893,786
3312,1590,893,786
3315,1591,894,786
3318,1592,895,787
3320,1593,895,787
3320,1593,896,787
3324,1595,897,788
3326,1595,897,789
3327,1596,898,789
3327,1596,898,789
3329,1597,899,789
3331,1597,899,790
3332,1597,899,790
3334,1598,900,790
3336,1599,901,791
3337,1599,901,791
3338,1600,901,791
3338,1600,902,791
3340,1601,902,791
3340,1601,902,792
3340,1601,902,792
3338,1600,901,792
3337,1600,901,792
3336,1600,900,792
3337,1600,900,792
3337,1600,900,792
3337,1601,900,792
3337,1600,900,792
3337,1600,900,792
3337,1601,900,792
3338,1601,900,792
3338,1601,900,792
3337,1601,900,792
3337,1601,900,792
3336,1600,900,791
3336,1600,900,791
3335,1600,900,791
3336,1600,900,791
3336,1600,900,791
3337,1600,900,791
3337,1601,901,791
3337,1601,901,791
3337,1600,901,791
3338,1600,901,791
3337,1600,901,791
3338,1600,901,791
3338,1600,901,791
3337,1600,901,791
3337,1600,901,791
3337,1599,901,791
3335,1599,900,790
3331,1598,899,790
3329,1597,898,790
3326,1596,897,789
3324,1595,897,789
3323,1595,896,789
3323,1594,896,789
3322,1594,896,788
3322,1594,896,788
3321,1594,896,788
3321,1593,896,788
3320,1593,896,788
3320,1593,896,788
3319,1593,895,787
3318,1592,895,787
3318,1592,895,787
3318,1592,895,787
3316,1591,895,786
3315,1591,894,786
3316,1591,895,786
3316,1590,895,786
3315,1590,895,786
3316,1590,895,786
3316,1590,895,786
3314,1589,895,786
3314,1589,895,786
3315,1589,895,786
3313,1588,895,785
3313,1588,895,785
3314,1588,896,785
3313,1588,895,785
3311,1587,895,785
3311,1587,895,785
3308,1585,893,784
3302,1583,891,783
3299,1582,890,783
3298,1582,890,782
3294,1580,889,782
3292,1579,888,781
3292,1579,888,781
3291,1579,888,781
3288,1577,887,780
3289,1578,887,781
3291,1578,888,781
3288,1577,887,780
3288,1577,887,780
3288,1577,887,780
3286,1576,887,780
3283,1575,886,779
3283,1575,886,779
3284,1575,886,779
3283,1575,885,778
3281,1573,885,778
3282,1574,886,778
3283,1574,886,779
3281,1573,886,778
3282,1573,886,778
3283,1573,887,779
3282,1573,887,778
3281,1572,886,778
3281,1572,887,778
3281,1572,887,778
3279,1571,886,777
3280,1571,887,777
3281,1571,887,778
3278,1570,886,777
3277,1569,886,777
3276,1569,886,776
3270,1567,884,775
3265,1565,882,774
3262,1564,881,774
3259,1563,879,773
3256,1562,878,773
3254,1561,878,772
3254,1561,878,772
3252,1560,877,772
3250,1559,877,771
3251,1559,877,771
3250,1559,877,771
3248,1558,876,771
3247,1557,876,770
3246,1557,876,770
3245,1557,876,770
3244,1556,875,770
3243,1555,875,769
3243,1555,875,769
3241,1554,875,769
3240,1554,875,769
3239,1553,875,768
3239,1553,875,768
3238,1552,875,768
3238,1552,875,768
3238,1552,875,768
3238,1552,875,768
3239,1552,875,768
3241,1553,876,768
3243,1553,877,769
3245,1554,877,769
3245,1555,878,769
3247,1555,878,769
3249,1556,879,770
3249,1556,879,770
3247,1556,878,770
3245,1555,877,770
3243,1555,876,769
3243,1555,876,770
3244,1555,876,770
3244,1555,876,770
3244,1555,876,770
3245,1556,876,770
3245,1556,876,770
3246,1556,876,770
3248,1557,877,771
3247,1557,877,771
3246,1556,877,770
3246,1556,877,770
3247,1557,877,770
3246,1556,877,770
3248,1557,877,770
3251,1558,878,771
3253,1559,879,772
3253,1559,879,772
3254,1560,880,772
3256,1560,881,773
3260,1561,881,773
3260,1561,881,773
3261,1561,882,773
3264,1563,883,774
3264,1563,883,774
3263,1563,882,774
3265,1564,883,774
3268,1565,884,775
3266,1564,883,774
3264,1563,882,774
3263,1563,882,774
3262,1563,881,774
3260,1562,880,774
3260,1563,880,774
3262,1564,881,774
3262,1564,881,774
3262,1563,881,774
3266,1565,882,775
3267,1566,882,775
3267,1566,882,775
3269,1566,883,776
3271,1568,883,776
3271,1567,883,776
3271,1567,883,776
3274,1569,884,777
3276,1570,885,777
3276,1570,885,777
3278,1570,886,778
3282,1572,887,779
3283,1572,888,779
3284,1573,888,779
3287,1574,889,779
3289,1575,889,780
3289,1575,889,780
3291,1575,890,780
3294,1577,891,781
3293,1577,891,781
3290,1576,889,780
3289,1576,889,780
3288,1576,888,780
3286,1575,887,780
3286,1575,887,780
3288,1576,888,781
3289,1576,888,781
3288,1576,888,781
3290,1577,888,781
3292,1578,889,782
3293,1578,889,782
3295,1579,890,782
3295,1579,890,782
3295,1579,890,782
3294,1579,890,782
3296,1579,890,783
3298,1580,891,783
3299,1580,891,783
3301,1581,892,784
3303,1582,893,784
3304,1582,893,784
3304,1582,893,784
3306,1583,894,785
3308,1583,894,785
3308,1584,895,785
3310,1584,895,785
3311,1585,895,786
3311,1585,896,786
3312,1585,896,786
3311,1585,895,786
3308,1584,894,785
3305,1583,893,785
3302,1583,892,784
3302,1582,891,784
3301,1582,890,784
3299,1582,890,784
3299,1582,890,784
3298,1581,890,784
3298,1581,890,784
3298,1581,890,784
3299,1581,890,784
3300,1581,891,784
3300,1582,891,784
3300,1582,891,784
3300,1581,891,784
3299,1581,891,784
3299,1581,891,784
3297,1580,890,783
3298,1581,891,783
3298,1580,891,783
3298,1580,891,783
3297,1579,891,783
3297,1579,891,783
3296,1579,890,783
3296,1579,891,783
3296,1578,891,782
3294,1578,890,782
3294,1577,890,782
3295,1577,891,782
3294,1577,891,782
3292,1576,890,782
3292,1576,890,781
3288,1575,889,781
3282,1572,886,780
3279,1571,885,779
3277,1571,884,779
3273,1569,883,778
3271,1568,883,778
3271,1568,883,778
3270,1568,882,778
3268,1567,882,777
3269,1567,882,777
3268,1567,882,777
3265,1565,881,776
3263,1564,881,776
3262,1564,881,776
3261,1563,880,775
3258,1561,880,774
3259,1561,880,775
3259,1561,880,774
3255,1560,879,774
3254,1559,879,773
3257,1560,880,774
3253,1558,879,773
3251,1557,879,772
3253,1558,879,773
3252,1557,879,772
3247,1555,878,771
3247,1555,878,771
3249,1555,879,772
3245,1553,878,771
3244,1552,877,770
3245,1553,878,770
3241,1551,876,770
3234,1548,874,768
3232,1548,873,768
3229,1547,872,768
3223,1544,870,766
3221,1543,869,766
3223,1545,870,766
3220,1543,869,766
3218,1542,869,765
3220,1543,869,766
3219,1542,869,766
3215,1540,868,765
3215,1541,868,765
3216,1541,868,765
3216,1540,867,763
3211,1538,867,763
3209,1537,867,763
3210,1537,867,763
3207,1536,866,762
3206,1535,866,762
3207,1536,867,762
3209,1536,867,763
3205,1534,866,762
3203,1534,866,761
3206,1535,867,762
3203,1533,866,761
3199,1531,865,760
3201,1532,866,760
3198,1531,865,759
3194,1529,864,758
3195,1529,864,759
3196,1530,865,759
3194,1529,864,758
3191,1527,864,757
3192,1528,864,758
3188,1526,862,757
3181,1523,860,755
3179,1523,859,755
3175,1521,858,755
3171,1520,856,754
3169,1519,856,753
3169,1519,856,753
3168,1518,856,753
3167,1517,855,753
3166,1517,855,753
3167,1517,856,753
3166,1516,855,753
3163,1515,855,752
3162,1515,854,752
3160,1514,854,751
3158,1513,853,751
3157,1512,853,750
3156,1512,853,750
3154,1511,852,749
3156,1512,853,750
3157,1512,853,750
3157,1512,854,750
3159,1513,854,750
3161,1514,855,751
3163,1515,855,751
3167,1516,856,752
3170,1518,857,752
3173,1519,858,753
3177,1520,860,754
3179,1521,860,754
3182,1523,861,755
3185,1524,862,756
3187,1525,863,756
3188,1525,863,757
3188,1526,862,757
3188,1526,862,757
3187,1526,861,757
3188,1527,861,758
3191,1528,862,758
3191,1529,862,758
3192,1529,862,758
3196,1531,864,760
3199,1532,864,760
3200,1533,865,760
3204,1535,866,761
3208,1537,867,762
3208,1537,867,762
3209,1537,867,762
3214,1539,869,763
3214,1540,869,764
3216,1540,869,764
3215,1540,870,765
3219,1542,870,766
3224,1544,872,766
3224,1544,872,766
3226,1544,872,766
3231,1547,874,767
3234,1548,875,768
3233,1548,875,767
3237,1549,876,768
3242,1552,877,769
3242,1552,877,769
3242,1552,877,769
3248,1554,879,771
3250,1555,879,771
3246,1554,878,771
3245,1554,877,771
3247,1556,877,771
3245,1555,877,771
3243,1554,876,771
3247,1556,877,772
3251,1558,878,773
3249,1557,878,772
3252,1558,878,773
3257,1561,880,774
3258,1561,880,774
3257,1561,880,774
3262,1563,881,775
3264,1564,882,776
3264,1564,882,775
3266,1565,882,776
3271,1567,884,777
3273,1568,884,777
3273,1568,884,777
3278,1570,886,779
3282,1572,887,779
3282,1572,887,779
3284,1573,888,780
3289,1575,889,781
3291,1576,890,781
3292,1576,890,782
3297,1578,892,783
3300,1580,893,783
3301,1580,893,784
3301,1580,893,784
3302,1581,893,784
3300,1581,892,784
3297,1580,891,784
3298,1580,890,784
3299,1581,891,785
3298,1581,890,784
3298,1581,890,785
3300,1582,891,785
3301,1582,891,785
3302,1582,891,785
3304,1583,892,786
3305,1584,892,786
3305,1584,892,786
3305,1584,892,786
3307,1585,893,786
3308,1585,893,786
3308,1585,893,786
3310,1586,894,787
3313,1587,894,787
3314,1587,895,788
3316,1588,896,788
3318,1589,896,789
3320,1590,897,789
3322,1591,898,789
3324,1592,898,790
3326,1592,899,790
3326,1593,900,791
3328,1593,900,791
3328,1593,900,791
3329,1593,900,791
3329,1594,900,791
3328,1593,900,791
3324,1592,898,790
3321,1591,897,790
3318,1590,896,789
3315,1589,895,789
3313,1588,894,788
3313,1588,894,788
3312,1588,893,788
3312,1588,893,788
3312,1588,893,788
3312,1588,894,788
3312,1588,894,788
3312,1587,894,788
3311,1587,893,788
3310,1587,893,788
3309,1586,893,787
3308,1586,893,787
3308,1586,893,787
3307,1586,893,787
3308,1585,893,787
3308,1585,893,787
3309,1585,894,787
3310,1586,894,787
3309,1585,894,787
3309,1585,894,787
3309,1585,894,787
3309,1585,894,787
3308,1585,894,786
3309,1585,894,786
3310,1585,895,787
3310,1585,895,787
3310,1585,895,786
3310,1585,895,787
3308,1584,894,786
3302,1582,892,785
3298,1581,891,785
3295,1580,889,784
3292,1578,888,783
3290,1577,888,783
3290,1577,888,783
3288,1576,887,783
3286,1575,887,782
3286,1576,887,782
3286,1575,887,782
3284,1574,886,782
3284,1574,886,782
3283,1574,886,781
3281,1573,886,781
3279,1572,885,780
3280,1572,885,781
3279,1572,885,780
3277,1571,885,780
3278,1571,885,780
3279,1571,886,780
3278,1570,885,780
3278,1570,886,780
3279,1571,886,780
3278,1570,886,780
3277,1569,886,779
3279,1570,886,780
3277,1569,886,779
3275,1568,885,779
3277,1569,886,779
3278,1569,886,779
3274,1567,885,778
3270,1566,884,778
3267,1565,883,778
3263,1564,881,777
3263,1562,879,776
3258,1562,879,776
3258,1562,879,775
3256,1561,879,775
3253,1559,878,775
3253,1559,878,774
3254,1560,878,775
3252,1558,878,774
3251,1558,878,774
3252,1558,878,774
3249,1557,877,774
3246,1556,876,773
3247,1556,877,773
3246,1556,876,773
3244,1555,876,772
3244,1555,876,772
3245,1555,877,772
3244,1554,876,772
3243,1554,876,772
3244,1554,876,772
3244,1554,877,772
3242,1553,876,771
3242,1553,877,771
3242,1553,877,771
3241,1552,876,771
3240,1552,876,770
3240,1551,876,770
3236,1550,875,770
3232,1548,873,769
3228,1547,872,768
3225,1546,871,768
3222,1545,870,767
3220,1544,869,767
3220,1544,869,767
3219,1543,869,767
3218,1543,869,766
3218,1542,869,766
3217,1542,869,766
3216,1542,868,766
3215,1541,868,765
3214,1541,868,765
3212,1540,867,765
3212,1540,867,764
3213,1540,868,765
3214,1540,868,765
3215,1541,868,765
3217,1541,869,765
3219,1542,870,766
3221,1543,870,766
3222,1544,871,767
3224,1544,871,767
3226,1545,872,767
3228,1546,873,768
3229,1546,873,768
3232,1547,874,768
3232,1548,874,768
3233,1548,874,769
3234,1548,874,769
3232,1548,873,769
3228,1547,872,768
3227,1547,871,768
3227,1547,871,768
3226,1547,871,768
3226,1547,870,768
3228,1548,871,769
3231,1549,872,770
3232,1549,872,770
3234,1550,873,770
3237,1552,874,771
3238,1552,874,771
3238,1552,874,771
3240,1553,875,771
3240,1554,875,772
3241,1554,875,771
3240,1553,875,772
3241,1554,875,772
3244,1555,876,772
3245,1555,876,772
3246,1556,877,772
3248,1556,877,773
3251,1558,878,774
3251,1558,878,773
3252,1558,879,774
3255,1560,880,774
3256,1560,880,774
3256,1560,880,774
3259,1561,881,775
3262,1562,882,776
3262,1562,882,775
3262,1563,882,776
3265,1564,883,776
3264,1563,882,776
3259,1562,880,775
3257,1562,880,775
3258,1562,879,776
3256,1561,878,775
3255,1561,878,775
3258,1563,879,776
3259,1563,879,776
3258,1563,879,776
3261,1564,880,777
3263,1565,881,777
3263,1565,881,777
3264,1565,881,777
3266,1566,882,778
3267,1567,882,778
3267,1566,882,778
3268,1567,882,778
3271,1568,883,779
3271,1569,883,779
3273,1569,884,779
3277,1571,885,780
3278,1571,885,780
3279,1571,886,780
3282,1573,887,781
3284,1574,887,781
3285,1574,888,782
3287,1575,888,782
3290,1576,889,783
3292,1577,890,783
3292,1577,890,783
3294,1577,891,783
3296,1578,891,784
3294,1578,890,784
3291,1577,889,783
3289,1576,888,783
3287,1576,887,783
3285,1575,886,782
3285,1575,886,783
3286,1576,887,783
3286,1576,887,783
3287,1576,887,783
3288,1577,887,783
3291,1577,888,784
3291,1577,888,784
3292,1578,889,784
3292,1578,889,784
3292,1578,889,784
3292,1578,889,784
3293,1578,889,784
3294,1579,889,784
3295,1579,890,785
3297,1580,890,785
3299,1581,891,785
3299,1581,891,786
3300,1581,892,786
3301,1581,892,786
3301,1581,892,786
3302,1582,892,786
3302,1582,892,786
3303,1582,893,786
3303,1582,893,786
3304,1582,893,786
3305,1582,894,786
3305,1582,893,786
3302,1581,892,786
3298,1580,891,785
3295,1579,889,785
3293,1578,889,785
3291,1578,888,784
3290,1577,888,784
3289,1577,888,784
3290,1577,888,784
3290,1577,888,784
3290,1577,888,784
3290,1577,888,784
3290,1577,888,784
3290,1577,888,784
3289,1577,888,784
3288,1576,888,783
3288,1576,888,783
3289,1576,888,783
3290,1576,888,784
3290,1576,889,783
3291,1577,889,784
3292,1577,889,784
3292,1577,889,784
3292,1577,890,784
3293,1577,890,784
3294,1577,890,784
3294,1577,891,784
3295,1578,891,784
3295,1577,891,784
3294,1577,891,784
3294,1577,891,784
3292,1576,890,784
3287,1574,888,783
3283,1573,887,782
3280,1572,885,782
3277,1571,884,781
3274,1570,884,780
3275,1570,884,781
3275,1570,884,781
3274,1569,883,781
3274,1569,884,781
3275,1569,884,781
3275,1569,884,781
3274,1569,884,780
3274,1569,884,780
3273,1568,884,780
3271,1567,883,779
3271,1568,883,780
3271,1567,883,779
3270,1567,883,779
3270,1567,883,779
3272,1568,884,779
3272,1567,884,779
3271,1567,884,779
3272,1567,884,779
3273,1567,885,779
3273,1567,885,779
3274,1567,885,779
3275,1567,885,780
3274,1567,885,779
3274,1567,886,779
3275,1568,886,779
3275,1567,885,779
3273,1565,884,778
3270,1565,883,778
3266,1564,883,777
3261,1563,881,776
3257,1561,879,776
3255,1560,878,776
3254,1560,878,776
3251,1559,877,775
3250,1558,877,775
3251,1559,877,775
3250,1558,877,775
3251,1558,878,775
3252,1558,878,775
3252,1558,878,775
3251,1558,878,775
3251,1558,878,775
3251,1558,878,775
3250,1557,878,775
3249,1557,877,774
3250,1557,878,774
3250,1557,878,774
3250,1556,878,774
3251,1557,879,774
3252,1557,879,775
3251,1556,879,774
3251,1556,879,774
3251,1556,879,774
3251,1556,879,774
3250,1556,879,774
3251,1556,879,774
3251,1556,879,774
3251,1556,879,774
3248,1555,878,774
3245,1554,877,773
3241,1552,876,773
3238,1551,875,772
3237,1551,874,772
3236,1550,874,772
3236,1550,874,772
3235,1550,874,772
3235,1549,874,772
3235,1549,874,772
3237,1550,874,772
3237,1550,875,772
3237,1550,875,772
3237,1550,874,772
3237,1550,874,772
3237,1550,874,772
3237,1550,875,772
3238,1551,875,772
3240,1551,875,772
3242,1552,876,773
3244,1553,877,773
3245,1553,877,773
3246,1554,878,773
3247,1554,878,774
3249,1555,879,774
3250,1555,879,774
3250,1555,879,774
3251,1556,879,774
3251,1556,879,774
3249,1555,878,774
3246,1555,877,774
3244,1554,876,773
3243,1554,875,773
3242,1553,875,773
3242,1554,875,773
3243,1554,875,773
3244,1555,876,774
3245,1555,876,774
3247,1556,877,774
3250,1557,877,775
3250,1557,878,775
3250,1557,877,775
3250,1557,878,775
3250,1557,878,775
3251,1557,878,775
3250,1557,878,775
3251,1558,878,775
3253,1559,879,775
3254,1559,879,776
3256,1559,880,776
3259,1560,881,776
3261,1561,881,777
3261,1561,881,777
3263,1562,882,777
3265,1563,883,778
3265,1563,883,778
3266,1563,883,778
3267,1564,883,778
3265,1563,882,778
3261,1562,881,777
3258,1561,880,777
3258,1561,879,777
3256,1561,878,777
3255,1560,878,777
3257,1561,879,777
3258,1562,879,777
3258,1562,879,777
3260,1562,880,778
3262,1563,880,778
3263,1563,881,778
3262,1563,880,778
3263,1564,881,778
3264,1564,881,779
3264,1564,881,778
3264,1564,881,778
3266,1565,882,779
3267,1566,882,779
3268,1566,882,779
3271,1567,883,780
3273,1568,884,780
3273,1568,884,780
3274,1568,885,780
3276,1569,885,781
3277,1569,886,781
3278,1570,886,781
3280,1570,887,782
3281,1571,887,782
3281,1571,887,782
3281,1571,887,782
3278,1570,886,781
3275,1569,884,781
3271,1568,882,780
3269,1567,882,780
3268,1567,881,780
3267,1567,881,780
3267,1567,881,780
3268,1567,881,780
3269,1567,881,780
3270,1568,882,780
3271,1568,882,781
3272,1568,882,781
3271,1568,882,781
3271,1568,882,781
3271,1568,882,781
3271,1568,882,780
3271,1568,882,780
3273,1569,883,781
3274,1570,883,781
3276,1570,884,781
3277,1571,884,781
3278,1571,885,782
3279,1571,885,782
3279,1572,885,782
3280,1572,886,782
3280,1572,886,782
3281,1572,886,782
3281,1572,886,782
3282,1572,886,782
3283,1572,887,782
3284,1573,887,783
3285,1573,888,783
3285,1573,888,783
3284,1572,887,783
3280,1572,886,782
3276,1570,884,781
3272,1569,882,781
3269,1568,881,780
3268,1567,881,780
3267,1567,880,780
3266,1567,880,780
3266,1567,880,780
3267,1567,880,780
3267,1567,881,780
3268,1567,881,780
3268,1567,881,780
3268,1567,881,780
3267,1567,881,780
3267,1567,881,780
3267,1566,881,780
3266,1566,881,779
3267,1566,881,779
3268,1567,881,780
3269,1567,882,780
3269,1567,882,780
3269,1567,882,780
3270,1567,883,780
3271,1568,883,780
3271,1568,883,780
3272,1568,883,780
3273,1568,884,780
3274,1568,884,781
3275,1568,885,781
3275,1568,885,781
3275,1568,885,780
3274,1568,885,780
3272,1567,884,780
3269,1566,882,780
3264,1565,881,779
3261,1564,879,778
3259,1563,879,778
3258,1563,878,778
3258,1562,878,778
3258,1562,878,778
3258,1562,878,778
3258,1562,879,778
3259,1562,879,778
3261,1563,879,778
3260,1562,879,778
3259,1562,879,778
3259,1562,879,778
3259,1562,879,778
3258,1561,879,778
3259,1562,879,778
3259,1562,880,778
3260,1562,880,778
3260,1562,880,778
3261,1562,881,778
3261,1562,881,778
3262,1562,881,778
3263,1563,881,778
3264,1563,882,778
3264,1563,882,778
3264,1563,882,778
3264,1563,882,778
3264,1563,882,778
3264,1563,881,778
3261,1561,881,777
3257,1560,879,777
3252,1559,878,776
3248,1557,876,775
3246,1556,875,775
3245,1556,875,775
3243,1555,874,775
3243,1555,874,774
3243,1555,874,774
3244,1555,875,774
3244,1555,875,774
3244,1555,875,774
3244,1555,875,774
3243,1555,875,774
3242,1554,874,774
3243,1555,875,774
3242,1554,875,774
3242,1554,875,774
3243,1554,875,774
3245,1555,876,774
3245,1555,876,774
3245,1555,876,774
3246,1555,876,774
3246,1555,877,774
3246,1555,877,774
3246,1555,877,774
3247,1555,877,774
3248,1555,877,774
3248,1555,878,774
3248,1555,878,774
3246,1555,877,774
3242,1553,875,773
3238,1552,874,773
3235,1551,872,772
3232,1550,871,772
3230,1549,871,771
3229,1549,870,771
3229,1548,870,771
3229,1548,870,771
3229,1548,870,771
3230,1548,871,771
3230,1549,871,771
3231,1549,871,771
3230,1548,871,771
3230,1549,871,771
3229,1548,871,771
3230,1549,871,771
3231,1549,872,771
3232,1550,872,771
3233,1550,872,772
3235,1550,873,772
3236,1551,873,772
3238,1551,874,772
3239,1552,875,773
3240,1552,875,773
3240,1552,875,773
3242,1553,876,773
3244,1554,876,773
3245,1554,877,774
3246,1554,877,774
3248,1555,878,774
3248,1555,878,774
3247,1555,877,774
3243,1554,876,774
3239,1553,874,773
3236,1552,873,773
3234,1551,872,772
3234,1551,872,772
3234,1551,871,773
3234,1551,871,772
3233,1551,872,773
3234,1551,872,773
3236,1552,872,773
3236,1552,873,773
3238,1552,873,773
3239,1553,874,774
3239,1553,874,774
3239,1553,874,774
3240,1553,874,774
3241,1554,874,774
3241,1553,874,774
3243,1554,875,774
3245,1555,876,774
3246,1555,876,775
3247,1555,877,775
3249,1556,877,775
3251,1557,878,776
3252,1557,878,776
3252,1557,878,776
3253,1558,879,776
3255,1558,879,776
3256,1559,880,776
3257,1559,880,777
3259,1560,881,777
3259,1560,881,777
3260,1560,882,777
3262,1561,882,778
3259,1560,881,778
3253,1558,878,777
3249,1557,877,776
3247,1557,876,776
3247,1556,876,776
3247,1556,876,776
3249,1557,876,777
3250,1557,877,777
3251,1557,877,777
3253,1558,878,777
3255,1559,878,778
3256,1559,879,778
3256,1559,879,778
3256,1559,879,778
3257,1559,879,778
3257,1560,879,778
3257,1560,879,778
3258,1560,880,778
3259,1561,880,778
3259,1561,880,778
3261,1561,881,779
3261,1561,881,779
3261,1561,881,778
3262,1562,881,779
3263,1562,882,779
3264,1562,882,779
3265,1562,882,779
3265,1563,883,779
3266,1563,883,779
3267,1563,883,779
3267,1563,883,779
3264,1562,882,779
3259,1561,880,778
3256,1560,879,778
3253,1559,878,777
3252,1559,877,777
3250,1558,876,777
3251,1559,877,777
3252,1559,877,777
3253,1559,877,777
3254,1559,878,778
3255,1560,878,778
3256,1560,878,778
3256,1560,878,778
3255,1560,878,778
3255,1560,878,777
3254,1559,878,777
3254,1559,878,777
3255,1560,878,777
3255,1560,878,777
3255,1560,879,777
3256,1560,879,777
3257,1560,879,778
3259,1561,880,778
3260,1561,880,778
3260,1561,881,778
3261,1561,881,778
3262,1562,881,778
3263,1562,882,779
3264,1562,882,779
3263,1562,882,778
3262,1561,882,778
3262,1561,882,778
3259,1560,881,778
3254,1558,879,777
3247,1556,876,776
3243,1555,875,775
3241,1554,874,775
3238,1553,873,774
3237,1552,872,774
3236,1552,872,774
3235,1551,872,773
3235,1551,872,773
3236,1551,873,773
3236,1551,873,773
3235,1551,873,773
3235,1550,872,773
3234,1550,872,773
3233,1550,872,772
3231,1549,872,772
3232,1549,872,772
3232,1549,872,772
3231,1549,872,772
3232,1549,872,772
3233,1549,873,772
3231,1548,872,772
3230,1547,872,771
3231,1547,872,771
3229,1547,872,771
3227,1545,872,770
3227,1545,872,770
3228,1545,872,770
3225,1544,872,770
3223,1543,871,769
3225,1544,872,769
3221,1542,871,769
3213,1539,868,767
3209,1538,866,766
3204,1536,864,766
3197,1533,862,764
3195,1532,861,764
3195,1532,861,764
3191,1530,860,763
3189,1529,860,762
3190,1530,860,763
3190,1529,860,762
3186,1528,859,762
3187,1528,860,762
3187,1528,860,762
3184,1526,859,761
3182,1526,858,760
3184,1526,859,761
3182,1525,858,760
3179,1524,858,759
3180,1524,858,759
3180,1524,859,760
3181,1524,858,759
3177,1522,858,759
3177,1522,858,759
3179,1523,859,759
3177,1521,858,759
3175,1520,858,758
3176,1521,858,758
3175,1520,858,758
3172,1519,857,757
3172,1519,858,757
3173,1519,858,757
3171,1518,857,756
3169,1517,857,756
3169,1517,857,756
3163,1515,854,755
3153,1511,851,753
3149,1509,849,752
3145,1508,848,752
3139,1506,846,750
3137,1505,846,750
3138,1505,846,750
3136,1504,846,750
3134,1503,845,749
