12360.000000,13330.000000,9889.000000
12360.000000,13329.000000,9890.000000
12362.000000,13329.000000,9890.000000
12363.000000,13331.000000,9892.000000
12365.000000,13333.000000,9893.000000
12364.000000,13334.000000,9895.000000
12365.000000,13335.000000,9895.000000
12365.000000,13335.000000,9894.000000
12364.000000,13338.000000,9894.000000
12362.000000,13335.000000,9893.000000
12359.000000,13331.000000,9894.000000
12356.000000,13330.000000,9891.000000
12353.000000,13325.000000,9887.000000
12353.000000,13325.000000,9887.000000
12354.000000,13323.000000,9885.000000
12352.000000,13323.000000,9883.000000
12352.000000,13322.000000,9884.000000
12355.000000,13327.000000,9888.000000
12355.000000,13331.000000,9891.000000
12357.000000,13331.000000,9891.000000
12360.000000,13332.000000,9892.000000
12361.000000,13334.000000,9894.000000
12364.000000,13334.000000,9894.000000
12366.000000,13339.000000,9893.000000
12366.000000,13339.000000,9893.000000
12364.000000,13339.000000,9893.000000
12361.000000,13337.000000,9894.000000
12361.000000,13336.000000,9894.000000
12356.000000,13333.000000,9893.000000
12356.000000,13334.000000,9893.000000
12356.000000,13334.000000,9892.000000
12358.000000,13332.000000,9892.000000
12359.000000,13332.000000,9893.000000
12359.000000,13331.000000,9893.000000
12359.000000,13333.000000,9894.000000
12359.000000,13333.000000,9895.000000
12359.000000,13333.000000,9895.000000
12363.000000,13336.000000,9894.000000
12363.000000,13338.000000,9894.000000
12365.000000,13339.000000,9894.000000
12365.000000,13337.000000,9894.000000
12365.000000,13337.000000,9894.000000
12364.000000,13337.000000,9893.000000
12360.000000,13335.000000,9895.000000
12358.000000,13334.000000,9895.000000
12355.000000,13331.000000,9893.000000
12356.000000,13329.000000,9894.000000
12356.000000,13329.000000,9894.000000
12355.000000,13330.000000,9893.000000
12357.000000,13330.000000,9895.000000
12356.000000,13331.000000,9893.000000
12355.000000,13334.000000,9893.000000
12355.000000,13334.000000,9895.000000
12358.000000,13334.000000,9895.000000
12359.000000,13336.000000,9894.000000
12360.000000,13338.000000,9894.000000
12363.000000,13341.000000,9893.000000
12364.000000,13343.000000,9892.000000
12364.000000,13343.000000,9892.000000
12361.000000,13342.000000,9892.000000
12358.000000,13335.000000,9895.000000
12353.000000,13334.000000,9893.000000
12352.000000,13329.000000,9891.000000
12349.000000,13327.000000,9887.000000
12349.000000,13327.000000,9887.000000
12350.000000,13328.000000,9887.000000
12347.000000,13326.000000,9888.000000
12348.000000,13325.000000,9886.000000
12351.000000,13327.000000,9887.000000
12351.000000,13329.000000,9891.000000
12352.000000,13329.000000,9891.000000
12350.000000,13332.000000,9891.000000
12354.000000,13334.000000,9892.000000
12357.000000,13334.000000,9895.000000
12357.000000,13336.000000,9894.000000
12357.000000,13336.000000,9895.000000
12357.000000,13335.000000,9895.000000
12352.000000,13333.000000,9894.000000
12347.000000,13325.000000,9890.000000
12343.000000,13318.000000,9884.000000
12343.000000,13313.000000,9880.000000
12341.000000,13313.000000,9879.000000
12341.000000,13314.000000,9879.000000
12340.000000,13314.000000,9878.000000
12342.000000,13317.000000,9880.000000
12343.000000,13321.000000,9882.000000
12343.000000,13321.000000,9882.000000
12343.000000,13319.000000,9882.000000
12347.000000,13327.000000,9887.000000
12348.000000,13330.000000,9889.000000
12350.000000,13330.000000,9891.000000
12351.000000,13332.000000,9892.000000
12351.000000,13332.000000,9892.000000
12351.000000,13335.000000,9893.000000
12345.000000,13326.000000,9889.000000
12343.000000,13319.000000,9882.000000
12336.000000,13312.000000,9877.000000
12335.000000,13308.000000,9875.000000
12335.000000,13308.000000,9875.000000
12332.000000,13305.000000,9871.000000
12331.000000,13303.000000,9871.000000
12331.000000,13305.000000,9872.000000
12331.000000,13304.000000,9872.000000
12331.000000,13307.000000,9872.000000
12333.000000,13307.000000,9872.000000
12333.000000,13310.000000,9873.000000
12337.000000,13314.000000,9880.000000
12340.000000,13316.000000,9881.000000
12342.000000,13323.000000,9883.000000
12342.000000,13323.000000,9885.000000
12341.000000,13321.000000,9885.000000
12336.000000,13313.000000,9879.000000
12330.000000,13305.000000,9872.000000
12325.000000,13291.000000,9865.000000
12325.000000,13286.000000,9864.000000
12325.000000,13286.000000,9864.000000
12320.000000,13283.000000,9861.000000
12319.000000,13279.000000,9860.000000
12321.000000,13281.000000,9860.000000
12318.000000,13280.000000,9859.000000
12318.000000,13280.000000,9858.000000
12319.000000,13280.000000,9858.000000
12322.000000,13282.000000,9860.000000
12325.000000,13289.000000,9864.000000
12327.000000,13292.000000,9866.000000
12332.000000,13301.000000,9869.000000
12332.000000,13301.000000,9869.000000
12328.000000,13303.000000,9869.000000
12325.000000,13291.000000,9866.000000
12314.000000,13273.000000,9858.000000
12306.000000,13264.000000,9853.000000
12306.000000,13254.000000,9848.000000
12302.000000,13254.000000,9843.000000
12298.000000,13249.000000,9843.000000
12298.000000,13243.000000,9843.000000
12296.000000,13243.000000,9841.000000
12297.000000,13239.000000,9839.000000
12297.000000,13239.000000,9840.000000
12296.000000,13243.000000,9840.000000
12296.000000,13244.000000,9840.000000
12298.000000,13247.000000,9844.000000
12301.000000,13252.000000,9845.000000
12302.000000,13257.000000,9847.000000
12302.000000,13257.000000,9847.000000
12304.000000,13263.000000,9850.000000
12305.000000,13264.000000,9851.000000
12301.000000,13255.000000,9845.000000
12294.000000,13242.000000,9838.000000
12294.000000,13225.000000,9832.000000
12286.000000,13225.000000,9832.000000
12281.000000,13214.000000,9828.000000
12277.000000,13210.000000,9830.000000
12276.000000,13211.000000,9830.000000
12272.000000,13210.000000,9830.000000
12272.000000,13211.000000,9830.000000
12272.000000,13211.000000,9830.000000
12274.000000,13211.000000,9830.000000
12276.000000,13211.000000,9827.000000
12277.000000,13214.000000,9828.000000
12284.000000,13214.000000,9826.000000
12284.000000,13214.000000,9829.000000
12287.000000,13221.000000,9829.000000
12289.000000,13227.000000,9831.000000
12290.000000,13232.000000,9834.000000
12290.000000,13232.000000,9833.000000
12286.000000,13225.000000,9830.000000
12286.000000,13225.000000,9830.000000
12278.000000,13212.000000,9826.000000
12270.000000,13205.000000,9827.000000
12266.000000,13202.000000,9827.000000
12263.000000,13200.000000,9825.000000
12263.000000,13198.000000,9823.000000
12264.000000,13198.000000,9823.000000
12262.000000,13197.000000,9822.000000
12262.000000,13200.000000,9827.000000
12264.000000,13200.000000,9826.000000
12263.000000,13201.000000,9824.000000
12263.000000,13201.000000,9828.000000
12266.000000,13206.000000,9828.000000
12270.000000,13211.000000,9830.000000
12275.000000,13212.000000,9827.000000
12281.000000,13216.000000,9828.000000
12281.000000,13222.000000,9828.000000
12286.000000,13222.000000,9830.000000
12285.000000,13221.000000,9830.000000
12279.000000,13212.000000,9829.000000
12269.000000,13204.000000,9827.000000
12266.000000,13203.000000,9828.000000
12266.000000,13203.000000,9826.000000
12266.000000,13199.000000,9826.000000
12267.000000,13202.000000,9827.000000
12266.000000,13200.000000,9828.000000
12267.000000,13202.000000,9827.000000
12268.000000,13204.000000,9828.000000
12268.000000,13204.000000,9828.000000
12270.000000,13203.000000,9827.000000
12274.000000,13209.000000,9830.000000
12278.000000,13211.000000,9832.000000
12279.000000,13212.000000,9828.000000
12279.000000,13216.000000,9826.000000
12283.000000,13216.000000,9826.000000
12288.000000,13219.000000,9831.000000
12284.000000,13216.000000,9829.000000
12276.000000,13211.000000,9830.000000
12268.000000,13205.000000,9828.000000
12268.000000,13202.000000,9827.000000
12265.000000,13202.000000,9827.000000
12268.000000,13199.000000,9826.000000
12265.000000,13197.000000,9827.000000
12266.000000,13198.000000,9826.000000
12265.000000,13198.000000,9825.000000
12265.000000,13198.000000,9826.000000
12266.000000,13201.000000,9826.000000
12271.000000,13203.000000,9828.000000
12271.000000,13207.000000,9830.000000
12274.000000,13210.000000,9832.000000
12280.000000,13211.000000,9828.000000
12280.000000,13211.000000,9828.000000
12282.000000,13214.000000,9828.000000
12288.000000,13222.000000,9829.000000
12287.000000,13220.000000,9829.000000
12280.000000,13213.000000,9829.000000
12280.000000,13209.000000,9829.000000
12274.000000,13209.000000,9829.000000
12268.000000,13205.000000,9828.000000
12266.000000,13200.000000,9824.000000
12266.000000,13196.000000,9824.000000
12264.000000,13194.000000,9822.000000
12264.000000,13194.000000,9824.000000
12267.000000,13200.000000,9824.000000
12264.000000,13197.000000,9822.000000
12269.000000,13201.000000,9826.000000
12270.000000,13204.000000,9827.000000
12270.000000,13209.000000,9832.000000
12273.000000,13209.000000,9829.000000
12276.000000,13211.000000,9829.000000
12280.000000,13214.000000,9825.000000
12283.000000,13217.000000,9825.000000
12287.000000,13222.000000,9830.000000
12287.000000,13222.000000,9829.000000
12287.000000,13221.000000,9829.000000
12277.000000,13214.000000,9830.000000
12272.000000,13209.000000,9825.000000
12267.000000,13205.000000,9827.000000
12265.000000,13201.000000,9824.000000
12265.000000,13201.000000,9824.000000
12265.000000,13202.000000,9824.000000
12268.000000,13200.000000,9823.000000
12269.000000,13203.000000,9825.000000
12268.000000,13207.000000,9828.000000
12268.000000,13208.000000,9827.000000
12270.000000,13208.000000,9827.000000
12273.000000,13210.000000,9829.000000
12279.000000,13212.000000,9828.000000
12282.000000,13215.000000,9827.000000
12286.000000,13221.000000,9829.000000
12286.000000,13231.000000,9832.000000
12293.000000,13231.000000,9832.000000
12293.000000,13238.000000,9835.000000
12290.000000,13230.000000,9833.000000
12286.000000,13219.000000,9828.000000
12282.000000,13215.000000,9823.000000
12282.000000,13215.000000,9825.000000
12279.000000,13211.000000,9825.000000
12279.000000,13211.000000,9826.000000
12277.000000,13210.000000,9826.000000
12279.000000,13212.000000,9827.000000
12280.000000,13212.000000,9824.000000
12280.000000,13212.000000,9824.000000
12282.000000,13216.000000,9821.000000
12284.000000,13220.000000,9825.000000
12290.000000,13224.000000,9828.000000
12292.000000,13230.000000,9830.000000
12292.000000,13238.000000,9834.000000
12295.000000,13238.000000,9834.000000
12297.000000,13243.000000,9835.000000
12296.000000,13242.000000,9836.000000
12292.000000,13234.000000,9834.000000
12286.000000,13224.000000,9826.000000
12286.000000,13224.000000,9822.000000
12282.000000,13215.000000,9822.000000
12276.000000,13213.000000,9824.000000
12278.000000,13212.000000,9821.000000
12279.000000,13211.000000,9824.000000
12279.000000,13210.000000,9823.000000
12279.000000,13210.000000,9821.000000
12279.000000,13211.000000,9821.000000
12283.000000,13218.000000,9822.000000
12285.000000,13220.000000,9825.000000
12289.000000,13227.000000,9828.000000
12289.000000,13227.000000,9831.000000
12289.000000,13231.000000,9831.000000
12294.000000,13238.000000,9834.000000
12298.000000,13247.000000,9839.000000
12300.000000,13252.000000,9842.000000
12296.000000,13245.000000,9838.000000
12296.000000,13245.000000,9838.000000
12291.000000,13234.000000,9832.000000
12284.000000,13219.000000,9825.000000
12280.000000,13214.000000,9822.000000
12276.000000,13211.000000,9826.000000
12276.000000,13211.000000,9824.000000
12275.000000,13211.000000,9824.000000
12276.000000,13210.000000,9825.000000
12279.000000,13211.000000,9822.000000
12280.000000,13214.000000,9823.000000
12284.000000,13218.000000,9824.000000
12284.000000,13222.000000,9824.000000
12288.000000,13222.000000,9824.000000
12290.000000,13228.000000,9829.000000
12294.000000,13236.000000,9832.000000
12297.000000,13246.000000,9836.000000
12299.000000,13250.000000,9840.000000
12299.000000,13250.000000,9841.000000
12300.000000,13250.000000,9841.000000
12294.000000,13241.000000,9836.000000
12291.000000,13231.000000,9831.000000
12288.000000,13223.000000,9825.000000
12286.000000,13220.000000,9825.000000
12286.000000,13220.000000,9825.000000
12285.000000,13218.000000,9823.000000
12285.000000,13217.000000,9826.000000
12285.000000,13220.000000,9826.000000
12288.000000,13221.000000,9826.000000
12288.000000,13228.000000,9828.000000
12292.000000,13228.000000,9828.000000
12294.000000,13236.000000,9832.000000
12295.000000,13241.000000,9834.000000
12300.000000,13246.000000,9837.000000
12301.000000,13255.000000,9842.000000
12301.000000,13255.000000,9845.000000
12304.000000,13259.000000,9845.000000
12301.000000,13257.000000,9846.000000
12300.000000,13249.000000,9840.000000
12295.000000,13240.000000,9834.000000
12295.000000,13236.000000,9831.000000
12292.000000,13236.000000,9831.000000
12293.000000,13234.000000,9830.000000
12294.000000,13234.000000,9831.000000
12294.000000,13236.000000,9831.000000
12296.000000,13239.000000,9833.000000
12296.000000,13239.000000,9834.000000
12295.000000,13242.000000,9834.000000
12298.000000,13247.000000,9836.000000
12300.000000,13251.000000,9840.000000
12305.000000,13261.000000,9845.000000
12306.000000,13265.000000,9848.000000
12306.000000,13265.000000,9848.000000
12309.000000,13267.000000,9849.000000
12307.000000,13270.000000,9849.000000
12307.000000,13266.000000,9847.000000
12301.000000,13257.000000,9845.000000
12301.000000,13246.000000,9840.000000
12296.000000,13246.000000,9840.000000
12292.000000,13243.000000,9835.000000
12292.000000,13236.000000,9833.000000
12293.000000,13238.000000,9833.000000
12293.000000,13240.000000,9833.000000
12293.000000,13240.000000,9833.000000
12292.000000,13239.000000,9833.000000
12296.000000,13244.000000,9837.000000
12295.000000,13246.000000,9837.000000
12297.000000,13250.000000,9837.000000
12302.000000,13255.000000,9844.000000
12302.000000,13255.000000,9847.000000
12306.000000,13264.000000,9847.000000
12306.000000,13267.000000,9849.000000
12310.000000,13272.000000,9851.000000
12309.000000,13273.000000,9852.000000
12305.000000,13268.000000,9851.000000
12305.000000,13268.000000,9851.000000
12301.000000,13260.000000,9846.000000
12296.000000,13248.000000,9838.000000
12293.000000,13245.000000,9837.000000
12293.000000,13245.000000,9837.000000
12293.000000,13245.000000,9836.000000
12293.000000,13245.000000,9836.000000
12293.000000,13247.000000,9837.000000
12295.000000,13251.000000,9839.000000
12298.000000,13256.000000,9840.000000
12301.000000,13259.000000,9844.000000
12301.000000,13259.000000,9846.000000
12303.000000,13263.000000,9846.000000
12307.000000,13268.000000,9847.000000
12309.000000,13274.000000,9849.000000
12313.000000,13279.000000,9852.000000
12313.000000,13283.000000,9855.000000
12313.000000,13283.000000,9855.000000
12312.000000,13280.000000,9852.000000
12307.000000,13274.000000,9851.000000
12307.000000,13268.000000,9851.000000
12304.000000,13266.000000,9849.000000
12304.000000,13266.000000,9849.000000
12304.000000,13263.000000,9849.000000
12302.000000,13265.000000,9848.000000
12305.000000,13268.000000,9847.000000
12303.000000,13269.000000,9849.000000
12306.000000,13270.000000,9849.000000
12306.000000,13270.000000,9849.000000
12307.000000,13272.000000,9850.000000
12310.000000,13277.000000,9853.000000
12314.000000,13283.000000,9856.000000
12318.000000,13290.000000,9860.000000
12318.000000,13297.000000,9862.000000
12321.000000,13297.000000,9862.000000
12318.000000,13298.000000,9862.000000
12314.000000,13290.000000,9859.000000
12309.000000,13279.000000,9855.000000
12306.000000,13273.000000,9852.000000
12306.000000,13273.000000,9850.000000
12305.000000,13273.000000,9850.000000
12304.000000,13271.000000,9851.000000
12305.000000,13270.000000,9852.000000
12308.000000,13276.000000,9854.000000
12308.000000,13280.000000,9854.000000
12308.000000,13280.000000,9853.000000
12308.000000,13279.000000,9853.000000
12310.000000,13286.000000,9856.000000
12315.000000,13291.000000,9860.000000
12318.000000,13299.000000,9865.000000
12319.000000,13306.000000,9868.000000
12319.000000,13306.000000,9868.000000
12322.000000,13307.000000,9871.000000
12318.000000,13300.000000,9867.000000
12313.000000,13291.000000,9864.000000
12305.000000,13281.000000,9856.000000
12305.000000,13273.000000,9854.000000
12303.000000,13273.000000,9854.000000
12300.000000,13268.000000,9853.000000
12299.000000,13269.000000,9853.000000
12298.000000,13268.000000,9853.000000
12298.000000,13266.000000,9853.000000
12300.000000,13266.000000,9852.000000
12297.000000,13268.000000,9852.000000
12299.000000,13269.000000,9852.000000
12302.000000,13270.000000,9853.000000
12302.000000,13274.000000,9856.000000
12302.000000,13278.000000,9857.000000
12307.000000,13278.000000,9857.000000
12308.000000,13282.000000,9858.000000
12311.000000,13291.000000,9863.000000
12308.000000,13281.000000,9860.000000
12299.000000,13270.000000,9854.000000
12299.000000,13270.000000,9853.000000
12296.000000,13265.000000,9853.000000
12290.000000,13252.000000,9846.000000
12287.000000,13243.000000,9843.000000
12285.000000,13244.000000,9844.000000
12285.000000,13242.000000,9842.000000
12285.000000,13242.000000,9842.000000
12282.000000,13238.000000,9840.000000
12286.000000,13239.000000,9841.000000
12285.000000,13242.000000,9842.000000
12286.000000,13245.000000,9845.000000
12286.000000,13246.000000,9843.000000
12286.000000,13246.000000,9843.000000
12289.000000,13251.000000,9847.000000
12293.000000,13258.000000,9851.000000
12296.000000,13264.000000,9855.000000
12295.000000,13265.000000,9854.000000
12295.000000,13265.000000,9853.000000
12291.000000,13259.000000,9853.000000
12284.000000,13247.000000,9844.000000
12279.000000,13235.000000,9839.000000
12273.000000,13224.000000,9833.000000
12272.000000,13219.000000,9831.000000
12272.000000,13219.000000,9830.000000
12272.000000,13221.000000,9830.000000
12269.000000,13219.000000,9829.000000
12271.000000,13222.000000,9831.000000
12273.000000,13222.000000,9830.000000
12273.000000,13224.000000,9837.000000
12273.000000,13224.000000,9837.000000
12273.000000,13223.000000,9834.000000
12277.000000,13228.000000,9834.000000
12279.000000,13234.000000,9839.000000
12283.000000,13242.000000,9841.000000
12283.000000,13245.000000,9844.000000
12285.000000,13245.000000,9844.000000
12283.000000,13246.000000,9845.000000
12279.000000,13234.000000,9840.000000
12272.000000,13222.000000,9833.000000
12272.000000,13217.000000,9829.000000
12268.000000,13217.000000,9830.000000
12267.000000,13214.000000,9830.000000
12267.000000,13215.000000,9829.000000
12264.000000,13213.000000,9828.000000
12267.000000,13217.000000,9828.000000
12267.000000,13216.000000,9827.000000
12266.000000,13216.000000,9827.000000
12267.000000,13218.000000,9828.000000
12270.000000,13221.000000,9831.000000
12274.000000,13227.000000,9834.000000
12277.000000,13231.000000,9837.000000
12277.000000,13231.000000,9839.000000
12282.000000,13237.000000,9839.000000
12279.000000,13238.000000,9842.000000
12278.000000,13234.000000,9837.000000
12270.000000,13220.000000,9830.000000
12263.000000,13213.000000,9831.000000
12263.000000,13213.000000,9831.000000
12260.000000,13211.000000,9833.000000
12260.000000,13211.000000,9832.000000
12259.000000,13210.000000,9833.000000
12260.000000,13210.000000,9832.000000
12260.000000,13211.000000,9832.000000
12261.000000,13211.000000,9832.000000
12262.000000,13213.000000,9832.000000
12264.000000,13213.000000,9829.000000
12269.000000,13216.000000,9827.000000
12271.000000,13221.000000,9833.000000
12271.000000,13221.000000,9833.000000
12273.000000,13223.000000,9833.000000
12278.000000,13233.000000,9837.000000
12278.000000,13238.000000,9839.000000
12276.000000,13234.000000,9839.000000
12272.000000,13225.000000,9833.000000
12272.000000,13225.000000,9830.000000
12262.000000,13214.000000,9830.000000
12257.000000,13211.000000,9833.000000
12256.000000,13209.000000,9830.000000
12252.000000,13208.000000,9830.000000
12257.000000,13208.000000,9828.000000
12257.000000,13208.000000,9828.000000
12257.000000,13209.000000,9830.000000
12259.000000,13211.000000,9832.000000
12259.000000,13211.000000,9830.000000
12261.000000,13211.000000,9824.000000
12261.000000,13217.000000,9827.000000
12266.000000,13217.000000,9827.000000
12268.000000,13221.000000,9831.000000
12270.000000,13228.000000,9834.000000
12275.000000,13236.000000,9838.000000
12275.000000,13235.000000,9835.000000
12272.000000,13235.000000,9830.000000
12269.000000,13224.000000,9830.000000
12263.000000,13215.000000,9825.000000
12258.000000,13212.000000,9831.000000
12256.000000,13209.000000,9828.000000
12256.000000,13209.000000,9827.000000
12254.000000,13209.000000,9827.000000
12253.000000,13209.000000,9830.000000
12256.000000,13210.000000,9829.000000
12255.000000,13209.000000,9829.000000
12258.000000,13210.000000,9825.000000
12258.000000,13210.000000,9824.000000
12259.000000,13211.000000,9824.000000
12264.000000,13216.000000,9825.000000
12267.000000,13222.000000,9827.000000
12272.000000,13229.000000,9834.000000
12277.000000,13240.000000,9838.000000
12277.000000,13240.000000,9838.000000
12277.000000,13243.000000,9841.000000
12277.000000,13242.000000,9842.000000
12271.000000,13233.000000,9834.000000
12266.000000,13221.000000,9829.000000
12266.000000,13215.000000,9827.000000
12262.000000,13215.000000,9827.000000
12260.000000,13215.000000,9823.000000
12262.000000,13213.000000,9826.000000
12261.000000,13214.000000,9824.000000
12263.000000,13215.000000,9827.000000
12263.000000,13215.000000,9827.000000
12264.000000,13220.000000,9827.000000
12267.000000,13223.000000,9829.000000
12270.000000,13231.000000,9832.000000
12272.000000,13233.000000,9836.000000
12275.000000,13240.000000,9840.000000
12275.000000,13240.000000,9840.000000
12277.000000,13244.000000,9841.000000
12280.000000,13249.000000,9844.000000
12277.000000,13241.000000,9843.000000
12275.000000,13233.000000,9837.000000
12270.000000,13226.000000,9831.000000
12270.000000,13226.000000,9831.000000
12265.000000,13219.000000,9827.000000
12266.000000,13221.000000,9829.000000
12268.000000,13222.000000,9830.000000
12269.000000,13224.000000,9831.000000
12269.000000,13224.000000,9830.000000
12269.000000,13224.000000,9830.000000
12268.000000,13225.000000,9830.000000
12271.000000,13230.000000,9833.000000
12275.000000,13239.000000,9837.000000
12275.000000,13242.000000,9841.000000
12279.000000,13242.000000,9843.000000
12281.000000,13250.000000,9843.000000
12282.000000,13255.000000,9847.000000
12283.000000,13256.000000,9850.000000
12279.000000,13246.000000,9844.000000
12279.000000,13246.000000,9837.000000
12275.000000,13235.000000,9837.000000
12267.000000,13227.000000,9832.000000
12264.000000,13216.000000,9825.000000
12262.000000,13213.000000,9823.000000
12261.000000,13215.000000,9826.000000
12261.000000,13215.000000,9827.000000
12262.000000,13215.000000,9827.000000
12261.000000,13213.000000,9825.000000
12263.000000,13216.000000,9826.000000
12265.000000,13223.000000,9828.000000
12266.000000,13225.000000,9829.000000
12266.000000,13225.000000,9829.000000
12270.000000,13228.000000,9832.000000
12273.000000,13236.000000,9836.000000
12277.000000,13244.000000,9839.000000
12277.000000,13249.000000,9842.000000
12277.000000,13243.000000,9842.000000
12275.000000,13243.000000,9842.000000
12270.000000,13234.000000,9836.000000
12260.000000,13220.000000,9826.000000
12258.000000,13212.000000,9826.000000
12255.000000,13211.000000,9825.000000
12255.000000,13211.000000,9827.000000
12253.000000,13209.000000,9827.000000
12252.000000,13211.000000,9828.000000
12253.000000,13211.000000,9826.000000
12253.000000,13210.000000,9827.000000
12254.000000,13211.000000,9825.000000
12254.000000,13211.000000,9825.000000
12255.000000,13212.000000,9826.000000
12258.000000,13214.000000,9825.000000
12262.000000,13221.000000,9826.000000
12266.000000,13227.000000,9830.000000
12266.000000,13233.000000,9834.000000
12269.000000,13233.000000,9834.000000
12272.000000,13237.000000,9837.000000
12271.000000,13236.000000,9836.000000
12265.000000,13228.000000,9833.000000
12262.000000,13219.000000,9826.000000
12262.000000,13211.000000,9825.000000
12255.000000,13211.000000,9825.000000
12253.000000,13211.000000,9829.000000
12252.000000,13208.000000,9828.000000
12253.000000,13210.000000,9830.000000
12253.000000,13211.000000,9828.000000
12252.000000,13211.000000,9828.000000
12252.000000,13210.000000,9828.000000
12255.000000,13211.000000,9827.000000
12258.000000,13212.000000,9830.000000
12260.000000,13216.000000,9824.000000
12260.000000,13216.000000,9828.000000
12264.000000,13220.000000,9828.000000
12266.000000,13226.000000,9831.000000
12268.000000,13232.000000,9834.000000
12268.000000,13229.000000,9835.000000
12262.000000,13220.000000,9829.000000
12262.000000,13220.000000,9825.000000
12255.000000,13213.000000,9825.000000
12251.000000,13211.000000,9830.000000
12253.000000,13211.000000,9828.000000
12252.000000,13210.000000,9829.000000
12251.000000,13210.000000,9826.000000
12251.000000,13210.000000,9826.000000
12253.000000,13210.000000,9827.000000
12253.000000,13211.000000,9828.000000
12257.000000,13211.000000,9829.000000
12259.000000,13215.000000,9828.000000
12259.000000,13222.000000,9826.000000
12262.000000,13222.000000,9826.000000
12266.000000,13230.000000,9830.000000
12269.000000,13234.000000,9833.000000
12272.000000,13241.000000,9837.000000
12268.000000,13238.000000,9835.000000
12268.000000,13238.000000,9830.000000
12264.000000,13226.000000,9830.000000
12256.000000,13215.000000,9824.000000
12249.000000,13211.000000,9829.000000
12247.000000,13210.000000,9830.000000
12250.000000,13209.000000,9827.000000
12250.000000,13209.000000,9827.000000
12249.000000,13209.000000,9825.000000
12249.000000,13209.000000,9827.000000
12249.000000,13208.000000,9822.000000
12252.000000,13210.000000,9822.000000
12252.000000,13212.000000,9823.000000
12252.000000,13212.000000,9823.000000
12256.000000,13215.000000,9822.000000
12256.000000,13215.000000,9822.000000
12260.000000,13220.000000,9825.000000
12261.000000,13228.000000,9828.000000
12261.000000,13223.000000,9829.000000
12261.000000,13223.000000,9829.000000
12255.000000,13215.000000,9825.000000
12249.000000,13210.000000,9825.000000
12246.000000,13207.000000,9825.000000
12246.000000,13204.000000,9825.000000
12245.000000,13204.000000,9823.000000
12243.000000,13206.000000,9823.000000
12243.000000,13204.000000,9824.000000
12245.000000,13204.000000,9825.000000
12245.000000,13206.000000,9825.000000
12245.000000,13206.000000,9827.000000
12245.000000,13209.000000,9827.000000
12250.000000,13210.000000,9823.000000
12251.000000,13213.000000,9824.000000
12257.000000,13216.000000,9823.000000
12259.000000,13226.000000,9827.000000
12259.000000,13226.000000,9826.000000
12260.000000,13227.000000,9826.000000
12256.000000,13219.000000,9824.000000
12251.000000,13213.000000,9824.000000
12251.000000,13209.000000,9824.000000
12247.000000,13208.000000,9825.000000
12247.000000,13208.000000,9825.000000
12245.000000,13206.000000,9826.000000
12248.000000,13207.000000,9825.000000
12246.000000,13207.000000,9823.000000
12249.000000,13209.000000,9827.000000
12249.000000,13210.000000,9824.000000
12248.000000,13210.000000,9824.000000
12251.000000,13211.000000,9823.000000
12254.000000,13214.000000,9822.000000
12257.000000,13220.000000,9824.000000
12257.000000,13222.000000,9824.000000
12257.000000,13222.000000,9825.000000
12257.000000,13221.000000,9825.000000
12251.000000,13212.000000,9820.000000
12246.000000,13210.000000,9823.000000
12246.000000,13208.000000,9824.000000
12246.000000,13207.000000,9822.000000
12246.000000,13207.000000,9822.000000
12245.000000,13208.000000,9826.000000
12245.000000,13205.000000,9822.000000
12245.000000,13210.000000,9824.000000
12250.000000,13210.000000,9822.000000
12250.000000,13211.000000,9826.000000
12252.000000,13211.000000,9826.000000
12255.000000,13215.000000,9822.000000
12257.000000,13219.000000,9824.000000
12258.000000,13224.000000,9829.000000
12262.000000,13230.000000,9830.000000
12262.000000,13230.000000,9829.000000
12259.000000,13225.000000,9829.000000
12258.000000,13218.000000,9826.000000
12255.000000,13212.000000,9826.000000
12253.000000,13213.000000,9828.000000
12253.000000,13211.000000,9823.000000
12250.000000,13211.000000,9823.000000
12251.000000,13212.000000,9823.000000
12254.000000,13214.000000,9822.000000
12252.000000,13214.000000,9822.000000
12256.000000,13220.000000,9822.000000
12256.000000,13220.000000,9827.000000
12260.000000,13224.000000,9827.000000
12263.000000,13230.000000,9831.000000
12265.000000,13232.000000,9833.000000
12267.000000,13237.000000,9836.000000
12263.000000,13235.000000,9833.000000
12263.000000,13235.000000,9833.000000
12260.000000,13227.000000,9830.000000
12257.000000,13220.000000,9825.000000
12255.000000,13217.000000,9825.000000
12256.000000,13216.000000,9825.000000
12256.000000,13217.000000,9823.000000
12256.000000,13217.000000,9823.000000
12256.000000,13218.000000,9823.000000
12259.000000,13222.000000,9825.000000
12259.000000,13223.000000,9827.000000
12264.000000,13231.000000,9831.000000
12264.000000,13233.000000,9832.000000
12264.000000,13233.000000,9832.000000
12268.000000,13239.000000,9837.000000
12272.000000,13248.000000,9840.000000
12268.000000,13245.000000,9839.000000
12263.000000,13236.000000,9834.000000
12263.000000,13236.000000,9828.000000
12259.000000,13224.000000,9828.000000
12254.000000,13220.000000,9824.000000
12254.000000,13217.000000,9823.000000
12254.000000,13217.000000,9825.000000
12254.000000,13216.000000,9822.000000
12254.000000,13216.000000,9822.000000
12255.000000,13217.000000,9822.000000
12256.000000,13219.000000,9824.000000
12258.000000,13223.000000,9825.000000
12260.000000,13227.000000,9829.000000
12260.000000,13234.000000,9834.000000
12263.000000,13234.000000,9834.000000
12265.000000,13238.000000,9833.000000
12267.000000,13243.000000,9840.000000
12268.000000,13241.000000,9838.000000
12263.000000,13235.000000,9836.000000
12263.000000,13235.000000,9831.000000
12259.000000,13224.000000,9831.000000
12254.000000,13222.000000,9827.000000
12252.000000,13217.000000,9822.000000
12250.000000,13214.000000,9823.000000
12250.000000,13213.000000,9821.000000
12250.000000,13213.000000,9824.000000
12253.000000,13217.000000,9824.000000
12256.000000,13217.000000,9824.000000
12255.000000,13223.000000,9828.000000
12258.000000,13227.000000,9829.000000
12258.000000,13227.000000,9833.000000
12261.000000,13233.000000,9833.000000
12264.000000,13240.000000,9836.000000
12266.000000,13246.000000,9840.000000
12270.000000,13249.000000,9843.000000
12269.000000,13251.000000,9843.000000
12269.000000,13251.000000,9843.000000
12266.000000,13244.000000,9840.000000
12262.000000,13238.000000,9836.000000
12258.000000,13232.000000,9833.000000
12257.000000,13231.000000,9830.000000
12257.000000,13230.000000,9829.000000
12256.000000,13230.000000,9829.000000
12257.000000,13230.000000,9831.000000
12258.000000,13228.000000,9832.000000
12260.000000,13233.000000,9833.000000
12262.000000,13236.000000,9837.000000
12262.000000,13242.000000,9839.000000
12266.000000,13242.000000,9839.000000
12269.000000,13245.000000,9840.000000
12269.000000,13252.000000,9844.000000
12273.000000,13259.000000,9849.000000
12271.000000,13259.000000,9848.000000
12271.000000,13259.000000,9847.000000
12269.000000,13251.000000,9847.000000
12265.000000,13245.000000,9841.000000
12263.000000,13239.000000,9837.000000
12262.000000,13237.000000,9836.000000
12262.000000,13236.000000,9835.000000
12262.000000,13236.000000,9835.000000
12263.000000,13235.000000,9834.000000
12261.000000,13237.000000,9835.000000
12263.000000,13241.000000,9836.000000
12265.000000,13242.000000,9839.000000
12265.000000,13250.000000,9842.000000
12266.000000,13250.000000,9842.000000
12269.000000,13254.000000,9845.000000
12272.000000,13260.000000,9847.000000
12275.000000,13265.000000,9850.000000
12276.000000,13267.000000,9853.000000
12276.000000,13267.000000,9851.000000
12275.000000,13264.000000,9851.000000
12270.000000,13259.000000,9848.000000
12265.000000,13250.000000,9845.000000
12262.000000,13243.000000,9838.000000
12262.000000,13241.000000,9837.000000
12259.000000,13241.000000,9835.000000
12258.000000,13238.000000,9835.000000
12259.000000,13236.000000,9835.000000
12260.000000,13238.000000,9835.000000
12261.000000,13241.000000,9838.000000
12261.000000,13241.000000,9839.000000
12263.000000,13246.000000,9839.000000
12264.000000,13249.000000,9841.000000
12267.000000,13255.000000,9846.000000
12270.000000,13258.000000,9848.000000
12273.000000,13265.000000,9851.000000
12273.000000,13265.000000,9851.000000
12276.000000,13269.000000,9851.000000
12277.000000,13271.000000,9852.000000
12271.000000,13266.000000,9851.000000
12267.000000,13255.000000,9847.000000
12267.000000,13250.000000,9843.000000
12265.000000,13250.000000,9843.000000
12263.000000,13246.000000,9840.000000
12261.000000,13245.000000,9840.000000
12260.000000,13243.000000,9838.000000
12262.000000,13244.000000,9838.000000
12262.000000,13244.000000,9840.000000
12263.000000,13244.000000,9840.000000
12264.000000,13249.000000,9842.000000
12266.000000,13251.000000,9843.000000
12270.000000,13257.000000,9847.000000
12272.000000,13261.000000,9850.000000
12272.000000,13261.000000,9853.000000
12274.000000,13265.000000,9853.000000
12275.000000,13269.000000,9854.000000
12279.000000,13277.000000,9855.000000
12275.000000,13275.000000,9854.000000
12272.000000,13269.000000,9851.000000
12272.000000,13269.000000,9851.000000
12270.000000,13266.000000,9850.000000
12269.000000,13262.000000,9849.000000
12268.000000,13259.000000,9849.000000
12269.000000,13260.000000,9849.000000
12269.000000,13263.000000,9848.000000
12268.000000,13263.000000,9848.000000
12270.000000,13263.000000,9848.000000
12271.000000,13265.000000,9850.000000
12273.000000,13269.000000,9852.000000
12272.000000,13269.000000,9852.000000
12272.000000,13269.000000,9854.000000
12277.000000,13274.000000,9854.000000
12281.000000,13281.000000,9857.000000
12282.000000,13283.000000,9859.000000
12278.000000,13276.000000,9856.000000
12278.000000,13276.000000,9854.000000
12276.000000,13276.000000,9854.000000
12273.000000,13267.000000,9852.000000
12268.000000,13265.000000,9850.000000
12270.000000,13262.000000,9850.000000
12267.000000,13259.000000,9848.000000
12267.000000,13259.000000,9849.000000
12270.000000,13259.000000,9849.000000
12273.000000,13262.000000,9850.000000
12269.000000,13264.000000,9849.000000
12270.000000,13263.000000,9851.000000
12273.000000,13267.000000,9851.000000
12273.000000,13267.000000,9851.000000
12273.000000,13268.000000,9853.000000
12276.000000,13269.000000,9853.000000
12280.000000,13275.000000,9857.000000
12278.000000,13275.000000,9855.000000
12278.000000,13271.000000,9854.000000
12274.000000,13271.000000,9854.000000
12268.000000,13265.000000,9851.000000
12263.000000,13255.000000,9845.000000
12257.000000,13245.000000,9840.000000
12256.000000,13241.000000,9838.000000
12256.000000,13236.000000,9837.000000
12256.000000,13236.000000,9837.000000
12254.000000,13233.000000,9834.000000
12255.000000,13232.000000,9834.000000
12257.000000,13237.000000,9834.000000
12256.000000,13235.000000,9836.000000
12256.000000,13235.000000,9837.000000
12258.000000,13239.000000,9837.000000
12258.000000,13239.000000,9838.000000
12259.000000,13243.000000,9840.000000
12263.000000,13250.000000,9842.000000
12259.000000,13248.000000,9843.000000
12259.000000,13248.000000,9843.000000
12256.000000,13242.000000,9838.000000
12250.000000,13228.000000,9834.000000
12244.000000,13218.000000,9828.000000
12237.000000,13212.000000,9829.000000
12237.000000,13210.000000,9831.000000
12236.000000,13210.000000,9831.000000
12232.000000,13208.000000,9829.000000
12232.000000,13208.000000,9829.000000
12234.000000,13209.000000,9829.000000
12232.000000,13208.000000,9826.000000
12232.000000,13208.000000,9827.000000
12235.000000,13211.000000,9827.000000
12239.000000,13211.000000,9824.000000
12240.000000,13214.000000,9825.000000
12243.000000,13217.000000,9824.000000
12243.000000,13222.000000,9828.000000
12246.000000,13222.000000,9828.000000
12249.000000,13226.000000,9830.000000
12246.000000,13224.000000,9828.000000
12240.000000,13214.000000,9824.000000
12236.000000,13211.000000,9830.000000
12236.000000,13211.000000,9829.000000
12230.000000,13207.000000,9829.000000
12230.000000,13199.000000,9823.000000
12228.000000,13201.000000,9826.000000
12226.000000,13200.000000,9825.000000
12228.000000,13197.000000,9822.000000
12228.000000,13197.000000,9822.000000
12227.000000,13201.000000,9826.000000
12228.000000,13201.000000,9826.000000
12229.000000,13203.000000,9825.000000
12230.000000,13205.000000,9828.000000
12230.000000,13208.000000,9829.000000
12232.000000,13208.000000,9829.000000
12234.000000,13209.000000,9827.000000
12234.000000,13210.000000,9828.000000
12230.000000,13206.000000,9829.000000
12223.000000,13196.000000,9822.000000
12223.000000,13196.000000,9818.000000
12220.000000,13187.000000,9818.000000
12218.000000,13186.000000,9817.000000
12216.000000,13182.000000,9816.000000
12217.000000,13182.000000,9817.000000
12217.000000,13179.000000,9816.000000
12217.000000,13179.000000,9815.000000
12216.000000,13177.000000,9815.000000
12217.000000,13183.000000,9818.000000
12220.000000,13187.000000,9818.000000
12222.000000,13187.000000,9821.000000
12222.000000,13193.000000,9821.000000
12222.000000,13193.000000,9821.000000
12225.000000,13196.000000,9822.000000
12225.000000,13199.000000,9824.000000
12223.000000,13197.000000,9824.000000
12219.000000,13184.000000,9817.000000
12219.000000,13171.000000,9811.000000
12212.000000,13171.000000,9811.000000
12206.000000,13160.000000,9806.000000
12206.000000,13155.000000,9803.000000
12197.000000,13150.000000,9799.000000
12197.000000,13152.000000,9801.000000
12197.000000,13152.000000,9800.000000
12197.000000,13151.000000,9800.000000
12200.000000,13151.000000,9801.000000
12202.000000,13157.000000,9802.000000
12205.000000,13162.000000,9805.000000
12205.000000,13166.000000,9806.000000
12206.000000,13166.000000,9806.000000
12210.000000,13173.000000,9808.000000
12213.000000,13180.000000,9815.000000
12215.000000,13182.000000,9815.000000
12215.000000,13181.000000,9815.000000
12215.000000,13181.000000,9812.000000
12209.000000,13173.000000,9812.000000
12201.000000,13158.000000,9805.000000
12195.000000,13145.000000,9799.000000
12189.000000,13132.000000,9794.000000
12184.000000,13128.000000,9791.000000
12184.000000,13128.000000,9791.000000
12183.000000,13124.000000,9790.000000
12186.000000,13128.000000,9792.000000
12188.000000,13126.000000,9791.000000
12186.000000,13130.000000,9794.000000
12186.000000,13136.000000,9796.000000
12193.000000,13136.000000,9796.000000
12194.000000,13143.000000,9798.000000
12196.000000,13149.000000,9800.000000
12202.000000,13159.000000,9804.000000
12208.000000,13167.000000,9811.000000
12208.000000,13167.000000,9813.000000
12212.000000,13177.000000,9813.000000
12212.000000,13178.000000,9814.000000
12209.000000,13172.000000,9813.000000
12197.000000,13154.000000,9803.000000
12192.000000,13142.000000,9799.000000
12192.000000,13142.000000,9797.000000
12190.000000,13134.000000,9797.000000
12190.000000,13136.000000,9796.000000
12190.000000,13136.000000,9796.000000
12188.000000,13135.000000,9795.000000
12190.000000,13139.000000,9796.000000
12190.000000,13139.000000,9796.000000
12192.000000,13143.000000,9797.000000
12197.000000,13149.000000,9800.000000
12200.000000,13156.000000,9803.000000
12204.000000,13161.000000,9804.000000
12204.000000,13172.000000,9812.000000
12210.000000,13172.000000,9812.000000
12213.000000,13179.000000,9815.000000
12211.000000,13173.000000,9813.000000
12205.000000,13165.000000,9809.000000
12205.000000,13151.000000,9802.000000
12199.000000,13151.000000,9802.000000
12195.000000,13145.000000,9802.000000
12191.000000,13137.000000,9798.000000
12194.000000,13144.000000,9799.000000
12194.000000,13141.000000,9800.000000
12194.000000,13143.000000,9799.000000
12195.000000,13143.000000,9799.000000
12197.000000,13147.000000,9801.000000
12199.000000,13152.000000,9803.000000
12203.000000,13159.000000,9806.000000
12209.000000,13168.000000,9809.000000
12209.000000,13168.000000,9812.000000
12211.000000,13174.000000,9812.000000
12216.000000,13184.000000,9818.000000
12217.000000,13187.000000,9821.000000
12214.000000,13183.000000,9818.000000
12208.000000,13173.000000,9813.000000
12208.000000,13173.000000,9813.000000
12200.000000,13156.000000,9806.000000
12194.000000,13146.000000,9802.000000
12191.000000,13139.000000,9797.000000
12188.000000,13137.000000,9796.000000
12188.000000,13136.000000,9795.000000
12187.000000,13136.000000,9795.000000
12189.000000,13136.000000,9796.000000
12188.000000,13137.000000,9796.000000
12194.000000,13143.000000,9799.000000
12197.000000,13151.000000,9800.000000
12197.000000,13151.000000,9806.000000
12203.000000,13161.000000,9806.000000
12206.000000,13167.000000,9807.000000
12208.000000,13171.000000,9809.000000
12213.000000,13183.000000,9817.000000
12216.000000,13186.000000,9820.000000
12216.000000,13186.000000,9820.000000
12214.000000,13187.000000,9820.000000
12209.000000,13177.000000,9813.000000
12203.000000,13167.000000,9811.000000
12198.000000,13157.000000,9804.000000
12192.000000,13147.000000,9799.000000
12192.000000,13147.000000,9799.000000
12190.000000,13139.000000,9799.000000
12189.000000,13142.000000,9797.000000
12191.000000,13145.000000,9798.000000
12192.000000,13145.000000,9798.000000
12192.000000,13149.000000,9801.000000
12194.000000,13149.000000,9801.000000
12201.000000,13159.000000,9805.000000
12205.000000,13169.000000,9809.000000
12209.000000,13175.000000,9813.000000
12209.000000,13183.000000,9816.000000
12214.000000,13183.000000,9818.000000
12215.000000,13185.000000,9818.000000
12217.000000,13192.000000,9820.000000
12223.000000,13201.000000,9823.000000
12220.000000,13198.000000,9824.000000
12220.000000,13191.000000,9821.000000
12216.000000,13191.000000,9821.000000
12212.000000,13182.000000,9816.000000
12211.000000,13177.000000,9812.000000
12210.000000,13174.000000,9812.000000
12211.000000,13177.000000,9812.000000
12211.000000,13177.000000,9812.000000
12212.000000,13179.000000,9812.000000
12212.000000,13181.000000,9813.000000
12215.000000,13183.000000,9816.000000
12216.000000,13184.000000,9817.000000
12219.000000,13190.000000,9820.000000
12219.000000,13190.000000,9820.000000
12221.000000,13195.000000,9822.000000
12226.000000,13204.000000,9828.000000
12229.000000,13208.000000,9829.000000
12233.000000,13210.000000,9828.000000
12233.000000,13209.000000,9833.000000
12231.000000,13209.000000,9833.000000
12224.000000,13202.000000,9826.000000
12222.000000,13199.000000,9827.000000
12218.000000,13194.000000,9823.000000
12219.000000,13190.000000,9821.000000
12219.000000,13190.000000,9822.000000
12219.000000,13194.000000,9822.000000
12218.000000,13190.000000,9821.000000
12218.000000,13192.000000,9821.000000
12219.000000,13196.000000,9821.000000
12225.000000,13203.000000,9824.000000
12225.000000,13203.000000,9824.000000
12224.000000,13203.000000,9826.000000
12227.000000,13205.000000,9827.000000
12231.000000,13208.000000,9826.000000
12232.000000,13211.000000,9826.000000
12232.000000,13215.000000,9826.000000
12233.000000,13215.000000,9826.000000
12238.000000,13218.000000,9826.000000
12233.000000,13214.000000,9826.000000
12229.000000,13211.000000,9827.000000
12222.000000,13202.000000,9826.000000
12222.000000,13201.000000,9825.000000
12218.000000,13201.000000,9825.000000
12219.000000,13192.000000,9818.000000
12215.000000,13191.000000,9821.000000
12215.000000,13189.000000,9817.000000
12215.000000,13192.000000,9818.000000
12216.000000,13192.000000,9819.000000
12214.000000,13191.000000,9819.000000
12216.000000,13195.000000,9822.000000
12219.000000,13201.000000,9827.000000
12221.000000,13203.000000,9827.000000
12221.000000,13203.000000,9826.000000
12225.000000,13206.000000,9826.000000
12226.000000,13208.000000,9826.000000
12230.000000,13211.000000,9827.000000
12232.000000,13213.000000,9824.000000
12228.000000,13211.000000,9828.000000
12228.000000,13211.000000,9828.000000
12224.000000,13204.000000,9828.000000
12217.000000,13197.000000,9826.000000
12214.000000,13191.000000,9821.000000
12213.000000,13189.000000,9820.000000
12215.000000,13191.000000,9822.000000
12215.000000,13191.000000,9822.000000
12213.000000,13186.000000,9819.000000
12212.000000,13186.000000,9818.000000
12212.000000,13189.000000,9818.000000
12211.000000,13191.000000,9822.000000
12211.000000,13190.000000,9820.000000
12215.000000,13190.000000,9820.000000
12216.000000,13195.000000,9822.000000
12220.000000,13202.000000,9829.000000
12222.000000,13206.000000,9827.000000
12224.000000,13211.000000,9832.000000
12224.000000,13211.000000,9828.000000
12225.000000,13210.000000,9828.000000
12221.000000,13204.000000,9829.000000
12217.000000,13198.000000,9826.000000
12211.000000,13188.000000,9820.000000
12208.000000,13185.000000,9819.000000
12208.000000,13185.000000,9819.000000
12204.000000,13176.000000,9814.000000
12205.000000,13182.000000,9817.000000
12206.000000,13180.000000,9817.000000
12206.000000,13182.000000,9817.000000
12206.000000,13184.000000,9818.000000
12209.000000,13184.000000,9818.000000
12207.000000,13188.000000,9819.000000
12209.000000,13189.000000,9821.000000
12213.000000,13193.000000,9824.000000
12216.000000,13202.000000,9826.000000
12216.000000,13199.000000,9825.000000
12218.000000,13199.000000,9825.000000
12218.000000,13201.000000,9826.000000
12214.000000,13197.000000,9826.000000
12207.000000,13185.000000,9819.000000
12207.000000,13175.000000,9814.000000
12201.000000,13175.000000,9811.000000
12198.000000,13167.000000,9811.000000
12196.000000,13160.000000,9807.000000
12195.000000,13163.000000,9808.000000
12197.000000,13162.000000,9809.000000
12197.000000,13162.000000,9808.000000
12196.000000,13165.000000,9808.000000
12198.000000,13166.000000,9809.000000
12201.000000,13175.000000,9814.000000
12201.000000,13171.000000,9812.000000
12205.000000,13182.000000,9817.000000
12205.000000,13182.000000,9817.000000
12207.000000,13182.000000,9817.000000
12212.000000,13191.000000,9822.000000
12214.000000,13198.000000,9825.000000
12212.000000,13194.000000,9825.000000
12204.000000,13184.000000,9818.000000
12204.000000,13184.000000,9818.000000
12197.000000,13168.000000,9808.000000
12189.000000,13157.000000,9804.000000
12188.000000,13150.000000,9802.000000
12186.000000,13147.000000,9799.000000
12186.000000,13146.000000,9800.000000
12184.000000,13146.000000,9800.000000
12182.000000,13143.000000,9797.000000
12188.000000,13147.000000,9800.000000
12186.000000,13146.000000,9799.000000
12190.000000,13153.000000,9804.000000
12190.000000,13153.000000,9811.000000
12198.000000,13168.000000,9811.000000
12198.000000,13171.000000,9813.000000
12206.000000,13180.000000,9819.000000
12208.000000,13187.000000,9823.000000
12211.000000,13190.000000,9823.000000
12211.000000,13190.000000,9823.000000
12209.000000,13188.000000,9821.000000
12203.000000,13179.000000,9815.000000
12198.000000,13170.000000,9812.000000
12193.000000,13161.000000,9807.000000
12193.000000,13155.000000,9804.000000
12187.000000,13155.000000,9804.000000
12190.000000,13153.000000,9802.000000
12190.000000,13155.000000,9803.000000
12189.000000,13153.000000,9803.000000
12192.000000,13161.000000,9805.000000
12192.000000,13165.000000,9808.000000
12195.000000,13165.000000,9808.000000
12196.000000,13169.000000,9811.000000
12200.000000,13175.000000,9814.000000
12201.000000,13181.000000,9817.000000
12201.000000,13185.000000,9821.000000
12206.000000,13185.000000,9823.000000
12211.000000,13195.000000,9823.000000
12208.000000,13192.000000,9822.000000
12204.000000,13185.000000,9820.000000
12200.000000,13177.000000,9815.000000
12200.000000,13177.000000,9814.000000
12197.000000,13175.000000,9814.000000
12195.000000,13171.000000,9813.000000
12194.000000,13166.000000,9810.000000
12194.000000,13168.000000,9809.000000
12198.000000,13172.000000,9812.000000
12198.000000,13172.000000,9812.000000
12199.000000,13174.000000,9814.000000
12201.000000,13181.000000,9816.000000
12203.000000,13186.000000,9820.000000
12206.000000,13193.000000,9822.000000
12210.000000,13194.000000,9823.000000
12210.000000,13194.000000,9823.000000
12214.000000,13201.000000,9826.000000
12216.000000,13207.000000,9829.000000
12217.000000,13210.000000,9830.000000
12213.000000,13203.000000,9829.000000
12213.000000,13191.000000,9821.000000
12206.000000,13191.000000,9821.000000
12205.000000,13186.000000,9819.000000
12199.000000,13174.000000,9812.000000
12197.000000,13171.000000,9813.000000
12197.000000,13174.000000,9811.000000
12197.000000,13174.000000,9815.000000
12199.000000,13178.000000,9814.000000
12198.000000,13177.000000,9812.000000
12201.000000,13181.000000,9814.000000
12201.000000,13187.000000,9819.000000
12206.000000,13187.000000,9819.000000
12206.000000,13191.000000,9819.000000
12211.000000,13199.000000,9823.000000
12212.000000,13200.000000,9824.000000
12212.000000,13204.000000,9825.000000
12216.000000,13204.000000,9826.000000
12215.000000,13203.000000,9826.000000
12210.000000,13201.000000,9826.000000
12204.000000,13191.000000,9820.000000
12201.000000,13184.000000,9817.000000
12201.000000,13184.000000,9812.000000
12194.000000,13173.000000,9812.000000
12193.000000,13171.000000,9809.000000
12191.000000,13168.000000,9809.000000
12194.000000,13170.000000,9809.000000
12196.000000,13176.000000,9813.000000
12196.000000,13176.000000,9813.000000
12198.000000,13177.000000,9811.000000
12201.000000,13182.000000,9815.000000
12203.000000,13185.000000,9816.000000
12204.000000,13187.000000,9816.000000
12208.000000,13195.000000,9822.000000
12208.000000,13195.000000,9822.000000
12211.000000,13204.000000,9829.000000
12213.000000,13203.000000,9826.000000
12212.000000,13199.000000,9825.000000
12206.000000,13194.000000,9822.000000
12206.000000,13188.000000,9819.000000
12203.000000,13188.000000,9819.000000
12196.000000,13176.000000,9813.000000
12194.000000,13174.000000,9813.000000
12197.000000,13175.000000,9813.000000
12195.000000,13173.000000,9810.000000
12195.000000,13173.000000,9814.000000
12194.000000,13175.000000,9814.000000
12197.000000,13178.000000,9814.000000
12198.000000,13179.000000,9815.000000
12200.000000,13183.000000,9816.000000
12206.000000,13190.000000,9819.000000
12206.000000,13190.000000,9819.000000
12208.000000,13193.000000,9822.000000
12211.000000,13201.000000,9826.000000
12213.000000,13202.000000,9826.000000
12210.000000,13198.000000,9825.000000
12210.000000,13187.000000,9819.000000
12202.000000,13187.000000,9819.000000
12194.000000,13173.000000,9812.000000
12190.000000,13166.000000,9808.000000
12186.000000,13158.000000,9804.000000
12187.000000,13155.000000,9803.000000
12187.000000,13155.000000,9802.000000
12184.000000,13156.000000,9802.000000
12186.000000,13156.000000,9803.000000
12185.000000,13156.000000,9803.000000
12185.000000,13160.000000,9805.000000
12185.000000,13165.000000,9807.000000
12188.000000,13165.000000,9814.000000
12194.000000,13174.000000,9814.000000
12199.000000,13182.000000,9817.000000
12199.000000,13184.000000,9817.000000
12202.000000,13192.000000,9821.000000
12202.000000,13192.000000,9826.000000
12205.000000,13199.000000,9826.000000
12204.000000,13196.000000,9825.000000
12197.000000,13179.000000,9815.000000
12187.000000,13165.000000,9810.000000
12179.000000,13152.000000,9801.000000
12179.000000,13152.000000,9801.000000
12174.000000,13142.000000,9795.000000
12175.000000,13139.000000,9796.000000
12172.000000,13134.000000,9795.000000
12175.000000,13136.000000,9796.000000
12175.000000,13139.000000,9795.000000
12174.000000,13139.000000,9795.000000
12174.000000,13140.000000,9796.000000
12175.000000,13140.000000,9797.000000
12180.000000,13152.000000,9802.000000
12183.000000,13152.000000,9801.000000
12183.000000,13163.000000,9806.000000
12186.000000,13163.000000,9806.000000
12191.000000,13174.000000,9813.000000
12195.000000,13182.000000,9815.000000
12193.000000,13183.000000,9816.000000
12192.000000,13180.000000,9814.000000
12192.000000,13180.000000,9808.000000
12183.000000,13168.000000,9808.000000
12177.000000,13150.000000,9799.000000
12173.000000,13140.000000,9796.000000
12170.000000,13135.000000,9794.000000
12170.000000,13130.000000,9792.000000
12170.000000,13130.000000,9792.000000
12168.000000,13126.000000,9792.000000
12172.000000,13130.000000,9793.000000
12170.000000,13131.000000,9793.000000
12174.000000,13136.000000,9794.000000
12174.000000,13140.000000,9795.000000
12174.000000,13140.000000,9795.000000
12177.000000,13146.000000,9798.000000
12180.000000,13151.000000,9800.000000
12183.000000,13157.000000,9804.000000
12188.000000,13168.000000,9809.000000
12188.000000,13168.000000,9813.000000
12191.000000,13171.000000,9813.000000
12189.000000,13169.000000,9811.000000
12181.000000,13154.000000,9803.000000
12174.000000,13145.000000,9799.000000
12174.000000,13138.000000,9797.000000
12175.000000,13138.000000,9795.000000
12171.000000,13137.000000,9795.000000
12173.000000,13136.000000,9794.000000
12172.000000,13133.000000,9794.000000
12173.000000,13136.000000,9795.000000
12173.000000,13136.000000,9797.000000
12174.000000,13136.000000,9797.000000
12177.000000,13142.000000,9799.000000
12180.000000,13151.000000,9802.000000
12185.000000,13159.000000,9806.000000
12186.000000,13162.000000,9808.000000
12186.000000,13162.000000,9808.000000
12189.000000,13170.000000,9812.000000
12191.000000,13177.000000,9815.000000
12191.000000,13173.000000,9813.000000
12181.000000,13159.000000,9804.000000
12181.000000,13144.000000,9799.000000
12177.000000,13144.000000,9799.000000
12173.000000,13135.000000,9797.000000
12168.000000,13125.000000,9791.000000
12169.000000,13122.000000,9792.000000
12170.000000,13126.000000,9791.000000
12170.000000,13127.000000,9792.000000
12168.000000,13127.000000,9792.000000
12169.000000,13128.000000,9792.000000
12168.000000,13129.000000,9793.000000
12172.000000,13134.000000,9796.000000
12176.000000,13143.000000,9800.000000
12176.000000,13143.000000,9799.000000
12176.000000,13145.000000,9799.000000
12179.000000,13149.000000,9802.000000
12183.000000,13157.000000,9806.000000
12185.000000,13166.000000,9811.000000
12183.000000,13161.000000,9808.000000
12183.000000,13161.000000,9808.000000
12174.000000,13140.000000,9799.000000
12168.000000,13125.000000,9792.000000
12166.000000,13113.000000,9787.000000
12162.000000,13105.000000,9784.000000
12162.000000,13101.000000,9782.000000
12161.000000,13101.000000,9782.000000
12160.000000,13100.000000,9781.000000
12162.000000,13102.000000,9783.000000
12161.000000,13103.000000,9783.000000
12162.000000,13107.000000,9785.000000
12162.000000,13107.000000,9788.000000
12165.000000,13111.000000,9788.000000
12166.000000,13119.000000,9789.000000
12168.000000,13128.000000,9795.000000
12170.000000,13133.000000,9794.000000
12170.000000,13143.000000,9799.000000
12174.000000,13143.000000,9799.000000
12172.000000,13144.000000,9798.000000
12171.000000,13135.000000,9795.000000
12167.000000,13116.000000,9790.000000
12163.000000,13104.000000,9785.000000
12163.000000,13104.000000,9779.000000
12159.000000,13097.000000,9779.000000
12158.000000,13094.000000,9779.000000
12161.000000,13096.000000,9780.000000
12161.000000,13097.000000,9780.000000
12162.000000,13100.000000,9781.000000
12162.000000,13100.000000,9781.000000
12162.000000,13101.000000,9781.000000
12164.000000,13106.000000,9785.000000
12167.000000,13111.000000,9787.000000
12167.000000,13119.000000,9790.000000
12167.000000,13127.000000,9794.000000
12170.000000,13127.000000,9794.000000
12171.000000,13137.000000,9797.000000
12169.000000,13129.000000,9795.000000
12165.000000,13115.000000,9790.000000
12161.000000,13098.000000,9780.000000
12161.000000,13098.000000,9777.000000
12156.000000,13095.000000,9777.000000
12156.000000,13094.000000,9776.000000
12155.000000,13094.000000,9775.000000
12157.000000,13093.000000,9777.000000
12154.000000,13094.000000,9776.000000
12154.000000,13094.000000,9777.000000
12156.000000,13094.000000,9777.000000
12158.000000,13095.000000,9778.000000
12161.000000,13100.000000,9780.000000
12163.000000,13107.000000,9783.000000
12167.000000,13117.000000,9787.000000
12167.000000,13117.000000,9787.000000
12167.000000,13123.000000,9789.000000
12167.000000,13122.000000,9789.000000
12162.000000,13106.000000,9783.000000
12155.000000,13094.000000,9776.000000
12155.000000,13094.000000,9771.000000
12148.000000,13094.000000,9771.000000
12148.000000,13091.000000,9767.000000
12147.000000,13090.000000,9765.000000
12146.000000,13088.000000,9763.000000
12147.000000,13090.000000,9764.000000
12147.000000,13090.000000,9762.000000
12145.000000,13087.000000,9762.000000
12150.000000,13089.000000,9766.000000
12151.000000,13094.000000,9768.000000
12151.000000,13094.000000,9771.000000
12151.000000,13094.000000,9772.000000
12154.000000,13094.000000,9772.000000
12155.000000,13094.000000,9776.000000
12156.000000,13096.000000,9776.000000
12155.000000,13095.000000,9775.000000
12148.000000,13095.000000,9771.000000
12148.000000,13095.000000,9761.000000
12146.000000,13084.000000,9761.000000
12135.000000,13066.000000,9752.000000
12132.000000,13059.000000,9749.000000
12130.000000,13055.000000,9747.000000
12130.000000,13058.000000,9747.000000
12130.000000,13058.000000,9747.000000
12132.000000,13063.000000,9749.000000
12135.000000,13065.000000,9751.000000
12141.000000,13076.000000,9757.000000
12145.000000,13086.000000,9762.000000
12145.000000,13091.000000,9766.000000
12149.000000,13091.000000,9766.000000
12152.000000,13093.000000,9771.000000
12154.000000,13093.000000,9773.000000
12157.000000,13095.000000,9775.000000
12154.000000,13095.000000,9776.000000
12154.000000,13095.000000,9773.000000
12152.000000,13094.000000,9773.000000
12150.000000,13093.000000,9769.000000
12145.000000,13085.000000,9763.000000
12146.000000,13082.000000,9761.000000
12145.000000,13083.000000,9761.000000
12145.000000,13083.000000,9762.000000
12148.000000,13087.000000,9762.000000
12148.000000,13090.000000,9764.000000
12150.000000,13091.000000,9766.000000
12151.000000,13093.000000,9768.000000
12154.000000,13094.000000,9771.000000
12154.000000,13094.000000,9771.000000
12156.000000,13093.000000,9774.000000
12160.000000,13095.000000,9776.000000
12163.000000,13104.000000,9781.000000
12163.000000,13108.000000,9784.000000
12163.000000,13098.000000,9779.000000
12161.000000,13098.000000,9779.000000
12156.000000,13093.000000,9773.000000
12153.000000,13094.000000,9769.000000
12151.000000,13093.000000,9768.000000
12151.000000,13093.000000,9767.000000
12150.000000,13093.000000,9769.000000
12152.000000,13094.000000,9769.000000
12153.000000,13093.000000,9769.000000
12154.000000,13093.000000,9772.000000
12158.000000,13095.000000,9773.000000
12158.000000,13101.000000,9778.000000
12162.000000,13101.000000,9778.000000
12163.000000,13108.000000,9780.000000
12164.000000,13115.000000,9784.000000
12169.000000,13123.000000,9786.000000
12167.000000,13128.000000,9790.000000
12167.000000,13128.000000,9786.000000
12166.000000,13120.000000,9786.000000
12162.000000,13108.000000,9780.000000
12156.000000,13096.000000,9775.000000
12153.000000,13094.000000,9771.000000
12152.000000,13094.000000,9769.000000
12152.000000,13094.000000,9769.000000
12152.000000,13094.000000,9767.000000
12153.000000,13094.000000,9769.000000
12156.000000,13093.000000,9771.000000
12157.000000,13095.000000,9773.000000
12157.000000,13101.000000,9777.000000
12161.000000,13101.000000,9777.000000
12164.000000,13110.000000,9781.000000
12166.000000,13116.000000,9782.000000
12169.000000,13126.000000,9788.000000
12172.000000,13135.000000,9792.000000
12172.000000,13135.000000,9792.000000
12173.000000,13140.000000,9792.000000
12170.000000,13132.000000,9790.000000
12166.000000,13121.000000,9786.000000
12164.000000,13114.000000,9782.000000
12161.000000,13104.000000,9777.000000
12161.000000,13104.000000,9777.000000
12161.000000,13102.000000,9777.000000
12163.000000,13105.000000,9777.000000
12163.000000,13109.000000,9779.000000
12164.000000,13114.000000,9783.000000
12165.000000,13116.000000,9782.000000
12165.000000,13116.000000,9782.000000
12168.000000,13126.000000,9785.000000
12170.000000,13134.000000,9789.000000
12172.000000,13143.000000,9793.000000
12178.000000,13152.000000,9797.000000
12178.000000,13160.000000,9799.000000
12182.000000,13160.000000,9799.000000
12188.000000,13170.000000,9806.000000
12190.000000,13174.000000,9809.000000
12189.000000,13171.000000,9808.000000
12189.000000,13161.000000,9802.000000
12181.000000,13161.000000,9798.000000
12179.000000,13152.000000,9798.000000
12177.000000,13147.000000,9794.000000
12179.000000,13150.000000,9796.000000
12179.000000,13152.000000,9796.000000
12179.000000,13157.000000,9797.000000
12183.000000,13157.000000,9797.000000
12183.000000,13164.000000,9801.000000
12190.000000,13173.000000,9806.000000
12191.000000,13180.000000,9810.000000
12197.000000,13185.000000,9812.000000
12197.000000,13185.000000,9814.000000
12199.000000,13189.000000,9814.000000
12204.000000,13200.000000,9820.000000
12206.000000,13204.000000,9822.000000
12210.000000,13206.000000,9821.000000
12207.000000,13204.000000,9822.000000
12207.000000,13204.000000,9822.000000
12206.000000,13205.000000,9824.000000
12201.000000,13193.000000,9818.000000
12201.000000,13192.000000,9817.000000
12201.000000,13197.000000,9819.000000
12201.000000,13202.000000,9821.000000
12203.000000,13202.000000,9821.000000
12204.000000,13201.000000,9820.000000
12206.000000,13204.000000,9822.000000
12212.000000,13208.000000,9825.000000
12212.000000,13210.000000,9824.000000
12212.000000,13210.000000,9821.000000
12218.000000,13213.000000,9821.000000
12220.000000,13219.000000,9822.000000
12224.000000,13227.000000,9825.000000
12228.000000,13237.000000,9831.000000
12227.000000,13240.000000,9831.000000
12227.000000,13240.000000,9831.000000
12223.000000,13231.000000,9829.000000
12221.000000,13224.000000,9826.000000
12220.000000,13220.000000,9825.000000
12216.000000,13215.000000,9825.000000
12216.000000,13211.000000,9825.000000
12214.000000,13211.000000,9825.000000
12213.000000,13211.000000,9822.000000
12212.000000,13212.000000,9821.000000
12214.000000,13213.000000,9824.000000
12216.000000,13218.000000,9824.000000
12216.000000,13224.000000,9826.000000
12219.000000,13224.000000,9826.000000
12222.000000,13228.000000,9830.000000
12222.000000,13231.000000,9829.000000
12223.000000,13236.000000,9832.000000
12223.000000,13241.000000,9837.000000
12228.000000,13241.000000,9841.000000
12230.000000,13249.000000,9841.000000
12231.000000,13249.000000,9841.000000
12226.000000,13242.000000,9838.000000
12221.000000,13230.000000,9831.000000
12221.000000,13230.000000,9826.000000
12215.000000,13219.000000,9826.000000
12210.000000,13211.000000,9827.000000
12206.000000,13210.000000,9824.000000
12205.000000,13209.000000,9826.000000
12204.000000,13209.000000,9826.000000
12204.000000,13209.000000,9827.000000
12203.000000,13209.000000,9827.000000
12203.000000,13209.000000,9826.000000
12205.000000,13209.000000,9825.000000
12205.000000,13212.000000,9829.000000
12210.000000,13213.000000,9824.000000
12210.000000,13213.000000,9824.000000
12211.000000,13215.000000,9827.000000
12215.000000,13221.000000,9827.000000
12219.000000,13227.000000,9831.000000
12220.000000,13232.000000,9833.000000
12220.000000,13232.000000,9833.000000
12218.000000,13232.000000,9833.000000
12212.000000,13223.000000,9828.000000
12205.000000,13212.000000,9829.000000
12200.000000,13207.000000,9827.000000
12195.000000,13202.000000,9824.000000
12195.000000,13202.000000,9824.000000
12190.000000,13198.000000,9824.000000
12191.000000,13198.000000,9822.000000
12188.000000,13196.000000,9821.000000
12189.000000,13197.000000,9823.000000
12189.000000,13194.000000,9824.000000
12189.000000,13194.000000,9824.000000
12192.000000,13200.000000,9824.000000
12192.000000,13202.000000,9826.000000
12196.000000,13203.000000,9826.000000
12198.000000,13204.000000,9825.000000
12198.000000,13209.000000,9827.000000
12201.000000,13209.000000,9827.000000
12205.000000,13211.000000,9828.000000
12209.000000,13216.000000,9830.000000
12211.000000,13220.000000,9828.000000
12205.000000,13212.000000,9827.000000
12205.000000,13209.000000,9832.000000
12197.000000,13209.000000,9832.000000
12192.000000,13202.000000,9827.000000
12187.000000,13197.000000,9824.000000
12186.000000,13196.000000,9825.000000
12186.000000,13190.000000,9821.000000
12183.000000,13190.000000,9821.000000
12183.000000,13190.000000,9821.000000
12183.000000,13186.000000,9819.000000
12186.000000,13186.000000,9821.000000
12187.000000,13194.000000,9823.000000
12187.000000,13194.000000,9825.000000
12190.000000,13196.000000,9825.000000
12191.000000,13199.000000,9825.000000
12193.000000,13202.000000,9826.000000
12193.000000,13205.000000,9828.000000
12197.000000,13210.000000,9831.000000
12197.000000,13210.000000,9830.000000
12199.000000,13210.000000,9830.000000
12196.000000,13208.000000,9828.000000
12193.000000,13206.000000,9829.000000
12186.000000,13197.000000,9824.000000
12182.000000,13190.000000,9820.000000
12182.000000,13190.000000,9820.000000
12182.000000,13187.000000,9820.000000
12182.000000,13187.000000,9822.000000
12182.000000,13184.000000,9818.000000
12185.000000,13187.000000,9821.000000
12185.000000,13190.000000,9821.000000
12184.000000,13190.000000,9821.000000
12186.000000,13191.000000,9821.000000
12188.000000,13198.000000,9827.000000
12188.000000,13198.000000,9824.000000
12191.000000,13203.000000,9828.000000
12191.000000,13203.000000,9830.000000
12195.000000,13205.000000,9830.000000
12193.000000,13207.000000,9832.000000
12188.000000,13200.000000,9828.000000
12181.000000,13188.000000,9822.000000
12176.000000,13180.000000,9817.000000
12176.000000,13180.000000,9817.000000
12173.000000,13170.000000,9814.000000
12172.000000,13167.000000,9812.000000
12172.000000,13166.000000,9811.000000
12168.000000,13160.000000,9808.000000
12168.000000,13162.000000,9808.000000
12168.000000,13162.000000,9808.000000
12168.000000,13160.000000,9809.000000
12168.000000,13164.000000,9808.000000
12172.000000,13169.000000,9811.000000
12173.000000,13173.000000,9814.000000
12173.000000,13173.000000,9813.000000
12173.000000,13178.000000,9813.000000
12176.000000,13186.000000,9818.000000
12175.000000,13179.000000,9816.000000
12168.000000,13168.000000,9812.000000
12168.000000,13150.000000,9803.000000
12160.000000,13150.000000,9798.000000
12157.000000,13142.000000,9798.000000
12155.000000,13125.000000,9793.000000
12153.000000,13119.000000,9790.000000
12149.000000,13110.000000,9786.000000
12149.000000,13110.000000,9782.000000
12145.000000,13103.000000,9782.000000
12142.000000,13100.000000,9780.000000
12142.000000,13101.000000,9781.000000
12144.000000,13105.000000,9782.000000
12147.000000,13110.000000,9785.000000
12147.000000,13110.000000,9785.000000
12149.000000,13111.000000,9787.000000
12152.000000,13117.000000,9791.000000
12154.000000,13119.000000,9791.000000
12152.000000,13120.000000,9792.000000
12152.000000,13103.000000,9784.000000
12143.000000,13103.000000,9784.000000
12135.000000,13098.000000,9779.000000
12132.000000,13097.000000,9774.000000
12128.000000,13090.000000,9770.000000
12123.000000,13080.000000,9764.000000
12123.000000,13078.000000,9761.000000
12122.000000,13078.000000,9761.000000
12124.000000,13081.000000,9763.000000
12126.000000,13081.000000,9764.000000
12128.000000,13089.000000,9766.000000
12130.000000,13092.000000,9770.000000
12130.000000,13092.000000,9772.000000
12134.000000,13095.000000,9772.000000
12135.000000,13097.000000,9774.000000
12136.000000,13098.000000,9776.000000
12135.000000,13098.000000,9777.000000
12132.000000,13096.000000,9772.000000
12132.000000,13096.000000,9772.000000
12122.000000,13077.000000,9763.000000
12115.000000,13058.000000,9753.000000
12110.000000,13051.000000,9749.000000
12110.000000,13049.000000,9747.000000
12110.000000,13046.000000,9745.000000
12107.000000,13046.000000,9745.000000
12110.000000,13048.000000,9747.000000
12111.000000,13051.000000,9748.000000
12112.000000,13055.000000,9750.000000
12118.000000,13063.000000,9754.000000
12118.000000,13063.000000,9756.000000
12121.000000,13068.000000,9756.000000
12124.000000,13078.000000,9762.000000
12132.000000,13091.000000,9766.000000
12131.000000,13092.000000,9768.000000
12131.000000,13075.000000,9757.000000
12122.000000,13075.000000,9746.000000
12108.000000,13048.000000,9746.000000
12102.000000,13033.000000,9737.000000
12096.000000,13025.000000,9732.000000
12095.000000,13022.000000,9731.000000
12095.000000,13022.000000,9732.000000
12095.000000,13024.000000,9732.000000
12095.000000,13025.000000,9733.000000
12099.000000,13028.000000,9733.000000
12099.000000,13032.000000,9736.000000
12101.000000,13037.000000,9738.000000
12101.000000,13037.000000,9738.000000
12107.000000,13048.000000,9744.000000
12112.000000,13056.000000,9747.000000
12117.000000,13069.000000,9754.000000
12124.000000,13074.000000,9759.000000
12124.000000,13066.000000,9753.000000
12116.000000,13066.000000,9753.000000
12103.000000,13046.000000,9742.000000
12095.000000,13028.000000,9734.000000
12087.000000,13015.000000,9727.000000
12082.000000,13005.000000,9722.000000
12082.000000,13005.000000,9723.000000
12084.000000,13005.000000,9723.000000
12083.000000,13007.000000,9723.000000
12084.000000,13009.000000,9724.000000
12087.000000,13015.000000,9727.000000
12093.000000,13023.000000,9730.000000
12093.000000,13023.000000,9732.000000
12095.000000,13027.000000,9732.000000
12102.000000,13035.000000,9736.000000
12106.000000,13044.000000,9741.000000
12112.000000,13053.000000,9747.000000
12120.000000,13066.000000,9754.000000
12120.000000,13066.000000,9754.000000
12117.000000,13065.000000,9751.000000
12110.000000,13051.000000,9745.000000
12101.000000,13034.000000,9736.000000
12093.000000,13025.000000,9730.000000
12093.000000,13017.000000,9726.000000
12089.000000,13017.000000,9726.000000
12091.000000,13016.000000,9727.000000
12093.000000,13019.000000,9731.000000
12094.000000,13022.000000,9729.000000
12096.000000,13027.000000,9732.000000
12096.000000,13027.000000,9735.000000
12100.000000,13031.000000,9735.000000
12105.000000,13042.000000,9739.000000
12111.000000,13051.000000,9744.000000
12119.000000,13063.000000,9750.000000
12119.000000,13076.000000,9756.000000
12122.000000,13076.000000,9756.000000
12130.000000,13089.000000,9762.000000
12133.000000,13096.000000,9768.000000
12131.000000,13089.000000,9762.000000
12122.000000,13073.000000,9755.000000
12122.000000,13073.000000,9748.000000
12116.000000,13059.000000,9748.000000
12111.000000,13051.000000,9743.000000
12111.000000,13052.000000,9745.000000
12114.000000,13054.000000,9745.000000
12115.000000,13058.000000,9747.000000
12115.000000,13058.000000,9747.000000
12117.000000,13061.000000,9747.000000
12120.000000,13069.000000,9752.000000
12127.000000,13083.000000,9757.000000
12134.000000,13092.000000,9764.000000
12134.000000,13094.000000,9767.000000
12137.000000,13094.000000,9767.000000
12139.000000,13096.000000,9772.000000
12140.000000,13097.000000,9773.000000
12141.000000,13097.000000,9774.000000
12138.000000,13097.000000,9772.000000
12138.000000,13097.000000,9767.000000
12136.000000,13096.000000,9767.000000
12132.000000,13091.000000,9762.000000
12127.000000,13082.000000,9757.000000
12128.000000,13078.000000,9755.000000
12130.000000,13084.000000,9757.000000
12130.000000,13084.000000,9758.000000
12131.000000,13090.000000,9758.000000
12134.000000,13093.000000,9761.000000
12137.000000,13097.000000,9766.000000
12138.000000,13097.000000,9768.000000
12139.000000,13097.000000,9769.000000
12139.000000,13097.000000,9769.000000
12140.000000,13098.000000,9770.000000
12148.000000,13104.000000,9775.000000
12152.000000,13116.000000,9781.000000
12156.000000,13126.000000,9787.000000
12156.000000,13125.000000,9787.000000
12155.000000,13125.000000,9787.000000
12153.000000,13117.000000,9784.000000
12144.000000,13101.000000,9775.000000
12138.000000,13098.000000,9769.000000
12138.000000,13097.000000,9766.000000
12137.000000,13097.000000,9764.000000
12136.000000,13098.000000,9764.000000
12135.000000,13098.000000,9766.000000
12137.000000,13097.000000,9767.000000
12136.000000,13098.000000,9767.000000
12136.000000,13098.000000,9768.000000
12139.000000,13098.000000,9768.000000
12142.000000,13098.000000,9770.000000
12144.000000,13105.000000,9774.000000
12150.000000,13113.000000,9779.000000
12155.000000,13122.000000,9785.000000
12155.000000,13122.000000,9786.000000
12156.000000,13127.000000,9786.000000
12158.000000,13137.000000,9789.000000
12161.000000,13144.000000,9791.000000
12158.000000,13139.000000,9791.000000
12156.000000,13126.000000,9787.000000
12156.000000,13126.000000,9787.000000
12150.000000,13115.000000,9782.000000
12143.000000,13102.000000,9774.000000
12143.000000,13100.000000,9771.000000
12141.000000,13097.000000,9771.000000
12141.000000,13099.000000,9772.000000
12142.000000,13099.000000,9772.000000
12146.000000,13101.000000,9771.000000
12149.000000,13106.000000,9774.000000
12152.000000,13112.000000,9781.000000
12151.000000,13119.000000,9782.000000
12151.000000,13119.000000,9786.000000
12156.000000,13124.000000,9786.000000
12157.000000,13133.000000,9787.000000
12162.000000,13146.000000,9793.000000
12164.000000,13154.000000,9796.000000
12165.000000,13155.000000,9797.000000
12165.000000,13155.000000,9796.000000
12162.000000,13150.000000,9796.000000
12158.000000,13141.000000,9791.000000
12156.000000,13129.000000,9787.000000
12153.000000,13126.000000,9784.000000
12154.000000,13120.000000,9784.000000
12154.000000,13120.000000,9784.000000
12154.000000,13122.000000,9783.000000
12154.000000,13125.000000,9785.000000
12155.000000,13126.000000,9784.000000
12157.000000,13131.000000,9787.000000
12157.000000,13136.000000,9788.000000
12158.000000,13136.000000,9788.000000
12161.000000,13142.000000,9792.000000
12161.000000,13146.000000,9793.000000
12165.000000,13153.000000,9796.000000
12165.000000,13164.000000,9802.000000
12166.000000,13164.000000,9804.000000
12170.000000,13170.000000,9804.000000
12166.000000,13168.000000,9805.000000
12165.000000,13160.000000,9800.000000
12159.000000,13145.000000,9794.000000
12159.000000,13130.000000,9787.000000
12157.000000,13130.000000,9787.000000
12154.000000,13128.000000,9784.000000
12154.000000,13126.000000,9784.000000
12152.000000,13125.000000,9783.000000
12153.000000,13126.000000,9784.000000
12153.000000,13126.000000,9787.000000
12154.000000,13130.000000,9787.000000
12155.000000,13137.000000,9790.000000
12157.000000,13141.000000,9793.000000
12162.000000,13147.000000,9795.000000
12162.000000,13154.000000,9796.000000
12162.000000,13154.000000,9796.000000
12161.000000,13158.000000,9798.000000
12165.000000,13164.000000,9801.000000
12169.000000,13173.000000,9808.000000
12165.000000,13169.000000,9806.000000
12165.000000,13155.000000,9799.000000
12161.000000,13155.000000,9799.000000
12158.000000,13148.000000,9793.000000
12154.000000,13133.000000,9787.000000
12152.000000,13124.000000,9783.000000
12151.000000,13126.000000,9781.000000
12151.000000,13126.000000,9781.000000
12151.000000,13123.000000,9781.000000
12149.000000,13124.000000,9782.000000
12151.000000,13127.000000,9784.000000
12152.000000,13131.000000,9785.000000
12152.000000,13134.000000,9786.000000
12152.000000,13134.000000,9786.000000
12154.000000,13136.000000,9788.000000
12155.000000,13147.000000,9792.000000
12157.000000,13150.000000,9795.000000
12160.000000,13161.000000,9799.000000
12160.000000,13162.000000,9800.000000
12162.000000,13162.000000,9800.000000
12163.000000,13166.000000,9803.000000
12158.000000,13157.000000,9799.000000
12154.000000,13145.000000,9794.000000
12153.000000,13133.000000,9789.000000
12153.000000,13127.000000,9786.000000
12150.000000,13127.000000,9786.000000
12149.000000,13124.000000,9784.000000
12150.000000,13125.000000,9784.000000
12151.000000,13126.000000,9784.000000
12151.000000,13126.000000,9784.000000
12148.000000,13126.000000,9787.000000
12152.000000,13132.000000,9787.000000
12153.000000,13137.000000,9789.000000
12154.000000,13141.000000,9790.000000
12155.000000,13148.000000,9794.000000
12155.000000,13148.000000,9796.000000
12156.000000,13152.000000,9796.000000
12159.000000,13158.000000,9798.000000
12158.000000,13161.000000,9800.000000
12159.000000,13152.000000,9796.000000
12155.000000,13141.000000,9791.000000
12155.000000,13141.000000,9787.000000
12152.000000,13130.000000,9787.000000
12147.000000,13123.000000,9782.000000
12147.000000,13122.000000,9780.000000
12147.000000,13122.000000,9783.000000
12146.000000,13123.000000,9782.000000
12146.000000,13123.000000,9782.000000
12149.000000,13123.000000,9783.000000
12150.000000,13127.000000,9784.000000
12152.000000,13131.000000,9785.000000
12153.000000,13135.000000,9788.000000
12153.000000,13142.000000,9792.000000
12154.000000,13142.000000,9792.000000
12155.000000,13149.000000,9794.000000
12158.000000,13155.000000,9798.000000
12158.000000,13154.000000,9798.000000
12154.000000,13145.000000,9793.000000
12154.000000,13145.000000,9784.000000
12149.000000,13128.000000,9784.000000
12140.000000,13110.000000,9778.000000
12133.000000,13101.000000,9773.000000
12132.000000,13100.000000,9770.000000
12130.000000,13099.000000,9770.000000
12130.000000,13099.000000,9770.000000
12129.000000,13100.000000,9770.000000
12130.000000,13100.000000,9769.000000
12131.000000,13100.000000,9771.000000
12132.000000,13102.000000,9773.000000
12132.000000,13105.000000,9773.000000
12134.000000,13105.000000,9773.000000
12141.000000,13112.000000,9777.000000
12145.000000,13121.000000,9782.000000
12147.000000,13127.000000,9784.000000
12150.000000,13133.000000,9788.000000
12150.000000,13129.000000,9786.000000
12148.000000,13129.000000,9786.000000
12137.000000,13116.000000,9780.000000
12129.000000,13100.000000,9773.000000
12125.000000,13101.000000,9769.000000
12125.000000,13101.000000,9766.000000
12122.000000,13101.000000,9764.000000
12124.000000,13099.000000,9764.000000
12122.000000,13098.000000,9763.000000
12124.000000,13099.000000,9765.000000
12124.000000,13100.000000,9766.000000
12124.000000,13100.000000,9766.000000
12126.000000,13100.000000,9766.000000
12127.000000,13100.000000,9769.000000
12127.000000,13100.000000,9769.000000
12128.000000,13101.000000,9772.000000
12132.000000,13102.000000,9773.000000
12132.000000,13102.000000,9778.000000
12137.000000,13112.000000,9778.000000
12141.000000,13118.000000,9782.000000
12132.000000,13106.000000,9776.000000
12127.000000,13101.000000,9771.000000
12124.000000,13101.000000,9768.000000
12124.000000,13101.000000,9768.000000
12123.000000,13100.000000,9766.000000
12122.000000,13099.000000,9763.000000
12119.000000,13100.000000,9763.000000
12121.000000,13099.000000,9765.000000
12121.000000,13099.000000,9765.000000
12123.000000,13099.000000,9765.000000
12123.000000,13100.000000,9766.000000
12124.000000,13101.000000,9768.000000
12127.000000,13100.000000,9770.000000
12129.000000,13100.000000,9772.000000
12129.000000,13100.000000,9772.000000
12129.000000,13100.000000,9772.000000
12129.000000,13102.000000,9773.000000
12126.000000,13100.000000,9773.000000
12124.000000,13100.000000,9768.000000
12119.000000,13097.000000,9763.000000
12119.000000,13097.000000,9763.000000
12117.000000,13088.000000,9757.000000
12113.000000,13082.000000,9754.000000
12113.000000,13083.000000,9755.000000
12111.000000,13083.000000,9753.000000
12111.000000,13088.000000,9756.000000
12113.000000,13088.000000,9756.000000
12118.000000,13093.000000,9758.000000
12121.000000,13099.000000,9762.000000
12120.000000,13100.000000,9766.000000
12123.000000,13101.000000,9768.000000
12123.000000,13101.000000,9770.000000
12124.000000,13101.000000,9770.000000
12124.000000,13101.000000,9772.000000
12124.000000,13101.000000,9772.000000
12119.000000,13102.000000,9766.000000
12119.000000,13090.000000,9756.000000
12112.000000,13090.000000,9747.000000
12104.000000,13071.000000,9747.000000
12100.000000,13063.000000,9742.000000
12100.000000,13060.000000,9742.000000
12099.000000,13060.000000,9742.000000
12099.000000,13060.000000,9743.000000
12102.000000,13064.000000,9743.000000
12101.000000,13065.000000,9744.000000
12104.000000,13071.000000,9747.000000
12107.000000,13077.000000,9748.000000
12114.000000,13089.000000,9757.000000
12114.000000,13089.000000,9757.000000
12116.000000,13097.000000,9759.000000
12117.000000,13102.000000,9764.000000
12121.000000,13101.000000,9768.000000
12118.000000,13102.000000,9765.000000
12118.000000,13097.000000,9758.000000
12112.000000,13097.000000,9758.000000
12107.000000,13080.000000,9751.000000
12099.000000,13067.000000,9744.000000
12097.000000,13062.000000,9741.000000
12096.000000,13062.000000,9740.000000
12096.000000,13063.000000,9742.000000
12099.000000,13063.000000,9742.000000
12101.000000,13069.000000,9743.000000
12102.000000,13076.000000,9745.000000
12109.000000,13082.000000,9751.000000
12112.000000,13092.000000,9756.000000
12112.000000,13092.000000,9762.000000
12116.000000,13100.000000,9762.000000
12118.000000,13102.000000,9766.000000
12122.000000,13101.000000,9769.000000
12121.000000,13102.000000,9769.000000
12120.000000,13102.000000,9767.000000
12120.000000,13102.000000,9767.000000
12114.000000,13100.000000,9762.000000
12113.000000,13095.000000,9759.000000
12110.000000,13086.000000,9751.000000
12113.000000,13089.000000,9755.000000
12113.000000,13087.000000,9754.000000
12112.000000,13087.000000,9754.000000
12115.000000,13093.000000,9758.000000
12115.000000,13100.000000,9761.000000
12116.000000,13101.000000,9761.000000
12121.000000,13101.000000,9766.000000
12121.000000,13101.000000,9767.000000
12123.000000,13101.000000,9767.000000
12125.000000,13102.000000,9770.000000
12127.000000,13104.000000,9772.000000
12130.000000,13105.000000,9773.000000
12130.000000,13101.000000,9772.000000
12126.000000,13101.000000,9769.000000
12121.000000,13102.000000,9769.000000
12119.000000,13101.000000,9764.000000
12117.000000,13099.000000,9761.000000
12118.000000,13097.000000,9761.000000
12118.000000,13097.000000,9762.000000
12121.000000,13100.000000,9762.000000
12117.000000,13101.000000,9763.000000
12122.000000,13101.000000,9767.000000
12121.000000,13101.000000,9768.000000
12122.000000,13101.000000,9768.000000
12122.000000,13101.000000,9768.000000
12125.000000,13101.000000,9770.000000
12129.000000,13106.000000,9773.000000
12132.000000,13113.000000,9776.000000
12136.000000,13121.000000,9780.000000
12136.000000,13123.000000,9783.000000
12137.000000,13123.000000,9783.000000
12128.000000,13113.000000,9776.000000
12123.000000,13103.000000,9772.000000
12120.000000,13102.000000,9769.000000
12119.000000,13102.000000,9766.000000
12119.000000,13102.000000,9765.000000
12119.000000,13102.000000,9765.000000
12117.000000,13102.000000,9764.000000
12119.000000,13102.000000,9765.000000
12120.000000,13102.000000,9767.000000
12122.000000,13101.000000,9769.000000
12122.000000,13101.000000,9769.000000
12121.000000,13102.000000,9769.000000
12126.000000,13106.000000,9771.000000
12128.000000,13112.000000,9775.000000
12136.000000,13125.000000,9780.000000
12142.000000,13136.000000,9786.000000
12142.000000,13136.000000,9786.000000
12146.000000,13144.000000,9790.000000
12146.000000,13145.000000,9791.000000
12137.000000,13134.000000,9786.000000
12129.000000,13115.000000,9778.000000
12129.000000,13104.000000,9773.000000
12122.000000,13104.000000,9773.000000
12120.000000,13102.000000,9770.000000
12121.000000,13102.000000,9770.000000
12122.000000,13102.000000,9770.000000
12121.000000,13102.000000,9770.000000
12121.000000,13102.000000,9770.000000
12121.000000,13104.000000,9770.000000
12126.000000,13107.000000,9773.000000
12131.000000,13115.000000,9775.000000
12135.000000,13127.000000,9782.000000
12135.000000,13136.000000,9785.000000
12140.000000,13136.000000,9785.000000
12146.000000,13147.000000,9791.000000
12148.000000,13150.000000,9794.000000
12149.000000,13155.000000,9795.000000
12149.000000,13156.000000,9797.000000
12149.000000,13156.000000,9791.000000
12147.000000,13147.000000,9791.000000
12144.000000,13142.000000,9791.000000
12140.000000,13134.000000,9788.000000
12139.000000,13133.000000,9787.000000
12138.000000,13128.000000,9785.000000
12138.000000,13128.000000,9785.000000
12137.000000,13131.000000,9784.000000
12141.000000,13136.000000,9788.000000
12145.000000,13141.000000,9790.000000
12148.000000,13146.000000,9793.000000
12148.000000,13150.000000,9794.000000
12148.000000,13150.000000,9794.000000
12150.000000,13156.000000,9796.000000
12151.000000,13159.000000,9797.000000
12152.000000,13163.000000,9801.000000
12153.000000,13167.000000,9802.000000
12153.000000,13167.000000,9798.000000
12150.000000,13163.000000,9798.000000
12150.000000,13156.000000,9797.000000
12148.000000,13151.000000,9794.000000
12143.000000,13143.000000,9791.000000
12142.000000,13146.000000,9791.000000
12142.000000,13146.000000,9791.000000
12144.000000,13144.000000,9791.000000
12144.000000,13146.000000,9789.000000
12146.000000,13150.000000,9792.000000
12147.000000,13152.000000,9792.000000
12148.000000,13154.000000,9794.000000
12148.000000,13154.000000,9794.000000
12149.000000,13158.000000,9797.000000
12149.000000,13163.000000,9797.000000
12151.000000,13168.000000,9801.000000
12151.000000,13171.000000,9801.000000
12151.000000,13176.000000,9805.000000
12152.000000,13176.000000,9805.000000
12151.000000,13168.000000,9801.000000
12147.000000,13159.000000,9796.000000
12141.000000,13147.000000,9790.000000
12141.000000,13137.000000,9787.000000
12138.000000,13137.000000,9782.000000
12129.000000,13122.000000,9782.000000
12128.000000,13118.000000,9778.000000
12130.000000,13121.000000,9779.000000
12126.000000,13115.000000,9778.000000
12126.000000,13117.000000,9778.000000
12128.000000,13117.000000,9778.000000
12129.000000,13121.000000,9779.000000
12134.000000,13131.000000,9785.000000
12136.000000,13134.000000,9785.000000
12139.000000,13140.000000,9789.000000
12139.000000,13140.000000,9792.000000
12143.000000,13150.000000,9792.000000
12144.000000,13154.000000,9795.000000
12142.000000,13151.000000,9793.000000
12131.000000,13135.000000,9787.000000
12120.000000,13116.000000,9777.000000
12120.000000,13116.000000,9777.000000
12113.000000,13108.000000,9772.000000
12112.000000,13104.000000,9770.000000
12110.000000,13104.000000,9769.000000
12110.000000,13104.000000,9768.000000
12110.000000,13104.000000,9768.000000
12109.000000,13104.000000,9768.000000
12110.000000,13104.000000,9771.000000
12109.000000,13105.000000,9769.000000
12111.000000,13104.000000,9772.000000
12114.000000,13104.000000,9772.000000
12114.000000,13104.000000,9773.000000
12115.000000,13106.000000,9773.000000
12114.000000,13107.000000,9775.000000
12119.000000,13117.000000,9779.000000
12119.000000,13115.000000,9778.000000
12112.000000,13106.000000,9774.000000
12112.000000,13106.000000,9771.000000
12109.000000,13104.000000,9771.000000
12105.000000,13103.000000,9766.000000
12105.000000,13104.000000,9764.000000
12104.000000,13102.000000,9764.000000
12103.000000,13100.000000,9764.000000
12103.000000,13100.000000,9764.000000
12105.000000,13103.000000,9763.000000
12105.000000,13104.000000,9765.000000
12105.000000,13104.000000,9766.000000
12106.000000,13103.000000,9767.000000
12106.000000,13105.000000,9769.000000
12108.000000,13105.000000,9769.000000
12109.000000,13105.000000,9771.000000
12110.000000,13104.000000,9773.000000
12109.000000,13105.000000,9774.000000
12109.000000,13105.000000,9770.000000
12107.000000,13105.000000,9767.000000
12102.000000,13102.000000,9767.000000
12096.000000,13087.000000,9757.000000
12091.000000,13077.000000,9754.000000
12087.000000,13069.000000,9749.000000
12087.000000,13067.000000,9748.000000
12088.000000,13067.000000,9748.000000
12084.000000,13065.000000,9748.000000
12086.000000,13066.000000,9749.000000
12090.000000,13069.000000,9751.000000
12091.000000,13076.000000,9752.000000
12091.000000,13076.000000,9756.000000
12094.000000,13084.000000,9756.000000
12099.000000,13094.000000,9761.000000
12104.000000,13103.000000,9766.000000
12105.000000,13105.000000,9769.000000
12105.000000,13106.000000,9770.000000
12105.000000,13106.000000,9770.000000
12105.000000,13106.000000,9771.000000
12102.000000,13102.000000,9766.000000
12091.000000,13078.000000,9755.000000
12081.000000,13061.000000,9748.000000
12081.000000,13053.000000,9743.000000
12079.000000,13053.000000,9743.000000
12076.000000,13048.000000,9741.000000
12074.000000,13046.000000,9739.000000
12073.000000,13045.000000,9738.000000
12075.000000,13048.000000,9739.000000
12075.000000,13048.000000,9741.000000
12076.000000,13051.000000,9741.000000
12079.000000,13058.000000,9744.000000
12083.000000,13064.000000,9748.000000
12088.000000,13070.000000,9752.000000
12093.000000,13083.000000,9756.000000
12093.000000,13083.000000,9756.000000
12097.000000,13088.000000,9760.000000
12102.000000,13099.000000,9766.000000
12100.000000,13103.000000,9767.000000
12096.000000,13091.000000,9762.000000
12096.000000,13070.000000,9751.000000
12084.000000,13070.000000,9751.000000
12078.000000,13057.000000,9744.000000
12074.000000,13049.000000,9740.000000
12072.000000,13046.000000,9738.000000
12070.000000,13047.000000,9738.000000
12070.000000,13049.000000,9741.000000
12074.000000,13049.000000,9741.000000
12075.000000,13051.000000,9741.000000
12079.000000,13059.000000,9746.000000
12081.000000,13065.000000,9748.000000
12081.000000,13072.000000,9752.000000
12086.000000,13072.000000,9756.000000
12091.000000,13084.000000,9756.000000
12097.000000,13094.000000,9761.000000
12104.000000,13104.000000,9767.000000
12105.000000,13106.000000,9770.000000
12105.000000,13106.000000,9770.000000
12104.000000,13106.000000,9770.000000
12103.000000,13105.000000,9768.000000
12097.000000,13097.000000,9763.000000
12092.000000,13083.000000,9756.000000
12092.000000,13076.000000,9754.000000
12092.000000,13076.000000,9753.000000
12092.000000,13076.000000,9753.000000
12091.000000,13077.000000,9754.000000
12094.000000,13081.000000,9755.000000
12096.000000,13084.000000,9757.000000
12098.000000,13092.000000,9758.000000
12098.000000,13092.000000,9758.000000
12101.000000,13096.000000,9761.000000
12104.000000,13100.000000,9766.000000
12106.000000,13104.000000,9770.000000
12107.000000,13105.000000,9771.000000
12107.000000,13105.000000,9773.000000
12109.000000,13105.000000,9773.000000
12106.000000,13105.000000,9774.000000
12104.000000,13103.000000,9769.000000
12099.000000,13094.000000,9760.000000
12092.000000,13077.000000,9753.000000
12092.000000,13077.000000,9751.000000
12089.000000,13074.000000,9751.000000
12089.000000,13072.000000,9750.000000
12089.000000,13071.000000,9750.000000
12091.000000,13079.000000,9753.000000
12094.000000,13083.000000,9754.000000
12094.000000,13083.000000,9754.000000
12095.000000,13089.000000,9756.000000
12099.000000,13096.000000,9759.000000
12102.000000,13103.000000,9762.000000
12103.000000,13105.000000,9766.000000
12103.000000,13106.000000,9767.000000
12104.000000,13106.000000,9767.000000
12108.000000,13105.000000,9772.000000
12108.000000,13105.000000,9773.000000
12104.000000,13106.000000,9770.000000
12101.000000,13100.000000,9763.000000
12101.000000,13082.000000,9754.000000
12094.000000,13082.000000,9754.000000
12089.000000,13069.000000,9749.000000
12085.000000,13066.000000,9746.000000
12086.000000,13067.000000,9746.000000
12086.000000,13066.000000,9745.000000
12083.000000,13066.000000,9746.000000
12084.000000,13070.000000,9746.000000
12087.000000,13072.000000,9748.000000
12092.000000,13080.000000,9752.000000
12095.000000,13086.000000,9755.000000
12095.000000,13086.000000,9759.000000
12100.000000,13097.000000,9759.000000
12099.000000,13103.000000,9761.000000
12104.000000,13106.000000,9767.000000
12104.000000,13106.000000,9768.000000
12104.000000,13106.000000,9771.000000
12104.000000,13106.000000,9769.000000
12103.000000,13106.000000,9769.000000
12100.000000,13102.000000,9763.000000
12092.000000,13086.000000,9755.000000
12085.000000,13072.000000,9748.000000
12085.000000,13070.000000,9747.000000
12085.000000,13070.000000,9747.000000
12084.000000,13068.000000,9746.000000
12082.000000,13066.000000,9744.000000
12085.000000,13070.000000,9747.000000
12085.000000,13075.000000,9748.000000
12085.000000,13077.000000,9749.000000
12087.000000,13077.000000,9749.000000
12093.000000,13085.000000,9756.000000
12098.000000,13097.000000,9760.000000
12102.000000,13104.000000,9761.000000
12102.000000,13105.000000,9764.000000
12102.000000,13105.000000,9767.000000
12105.000000,13106.000000,9767.000000
12105.000000,13106.000000,9769.000000
12105.000000,13106.000000,9770.000000
12103.000000,13106.000000,9767.000000
12101.000000,13103.000000,9761.000000
12101.000000,13103.000000,9761.000000
12097.000000,13093.000000,9757.000000
12095.000000,13087.000000,9754.000000
12096.000000,13089.000000,9754.000000
12095.000000,13087.000000,9752.000000
12095.000000,13089.000000,9754.000000
12097.000000,13089.000000,9754.000000
12100.000000,13093.000000,9755.000000
12104.000000,13103.000000,9761.000000
12103.000000,13104.000000,9762.000000
12105.000000,13105.000000,9764.000000
12105.000000,13105.000000,9766.000000
12105.000000,13105.000000,9766.000000
12109.000000,13105.000000,9770.000000
12110.000000,13105.000000,9772.000000
12109.000000,13106.000000,9770.000000
12109.000000,13105.000000,9769.000000
12107.000000,13105.000000,9765.000000
12104.000000,13105.000000,9765.000000
12101.000000,13100.000000,9759.000000
12098.000000,13093.000000,9755.000000
12097.000000,13090.000000,9754.000000
12097.000000,13090.000000,9755.000000
12098.000000,13094.000000,9755.000000
12098.000000,13091.000000,9753.000000
12100.000000,13098.000000,9757.000000
12100.000000,13102.000000,9758.000000
12102.000000,13104.000000,9761.000000
12102.000000,13104.000000,9761.000000
12103.000000,13106.000000,9764.000000
12105.000000,13106.000000,9767.000000
12108.000000,13105.000000,9769.000000
12109.000000,13106.000000,9771.000000
12109.000000,13110.000000,9773.000000
12111.000000,13110.000000,9773.000000
12111.000000,13113.000000,9775.000000
12108.000000,13107.000000,9773.000000
12103.000000,13106.000000,9768.000000
12102.000000,13106.000000,9763.000000
12102.000000,13097.000000,9757.000000
12097.000000,13097.000000,9757.000000
12096.000000,13097.000000,9755.000000
12093.000000,13093.000000,9755.000000
12094.000000,13092.000000,9754.000000
12094.000000,13097.000000,9755.000000
12094.000000,13097.000000,9757.000000
12097.000000,13099.000000,9757.000000
12099.000000,13104.000000,9760.000000
12101.000000,13106.000000,9763.000000
12101.000000,13106.000000,9765.000000
12102.000000,13106.000000,9766.000000
12102.000000,13106.000000,9766.000000
12103.000000,13107.000000,9768.000000
12106.000000,13110.000000,9771.000000
12108.000000,13115.000000,9773.000000
12104.000000,13111.000000,9772.000000
12104.000000,13107.000000,9768.000000
12101.000000,13107.000000,9768.000000
12097.000000,13107.000000,9766.000000
12097.000000,13104.000000,9761.000000
12091.000000,13097.000000,9757.000000
12093.000000,13098.000000,9758.000000
12093.000000,13098.000000,9756.000000
12094.000000,13098.000000,9756.000000
12092.000000,13101.000000,9757.000000
12094.000000,13101.000000,9758.000000
12098.000000,13104.000000,9760.000000
12098.000000,13106.000000,9762.000000
12099.000000,13106.000000,9762.000000
12099.000000,13107.000000,9766.000000
12100.000000,13107.000000,9768.000000
12102.000000,13107.000000,9767.000000
12103.000000,13108.000000,9770.000000
12103.000000,13108.000000,9769.000000
12104.000000,13108.000000,9769.000000
12100.000000,13107.000000,9769.000000
12100.000000,13107.000000,9768.000000
12099.000000,13107.000000,9766.000000
12096.000000,13102.000000,9762.000000
12096.000000,13102.000000,9762.000000
12096.000000,13102.000000,9759.000000
12096.000000,13103.000000,9760.000000
12099.000000,13104.000000,9762.000000
12098.000000,13106.000000,9763.000000
12098.000000,13107.000000,9765.000000
12099.000000,13107.000000,9765.000000
12101.000000,13106.000000,9766.000000
12100.000000,13107.000000,9768.000000
12103.000000,13106.000000,9769.000000
12104.000000,13107.000000,9772.000000
12104.000000,13108.000000,9772.000000
12105.000000,13108.000000,9772.000000
12109.000000,13111.000000,9775.000000
12105.000000,13107.000000,9773.000000
12100.000000,13107.000000,9769.000000
12098.000000,13104.000000,9764.000000
12098.000000,13104.000000,9759.000000
12094.000000,13099.000000,9759.000000
12093.000000,13092.000000,9755.000000
12091.000000,13093.000000,9755.000000
12092.000000,13092.000000,9755.000000
12091.000000,13093.000000,9757.000000
12091.000000,13093.000000,9757.000000
12092.000000,13097.000000,9756.000000
12095.000000,13104.000000,9761.000000
12096.000000,13106.000000,9763.000000
12099.000000,13106.000000,9764.000000
12099.000000,13106.000000,9766.000000
12101.000000,13106.000000,9766.000000
12102.000000,13107.000000,9769.000000
12103.000000,13107.000000,9771.000000
12103.000000,13109.000000,9770.000000
12100.000000,13107.000000,9769.000000
12100.000000,13107.000000,9762.000000
12096.000000,13105.000000,9762.000000
12090.000000,13096.000000,9757.000000
12082.000000,13080.000000,9749.000000
12078.000000,13070.000000,9745.000000
12078.000000,13068.000000,9743.000000
12075.000000,13068.000000,9743.000000
12077.000000,13068.000000,9744.000000
12075.000000,13067.000000,9743.000000
12078.000000,13071.000000,9746.000000
12081.000000,13077.000000,9747.000000
12081.000000,13077.000000,9751.000000
12083.000000,13085.000000,9751.000000
12087.000000,13096.000000,9756.000000
12091.000000,13103.000000,9760.000000
12095.000000,13106.000000,9763.000000
12096.000000,13108.000000,9767.000000
12096.000000,13108.000000,9767.000000
12098.000000,13107.000000,9768.000000
12098.000000,13108.000000,9769.000000
12096.000000,13108.000000,9767.000000
12089.000000,13100.000000,9760.000000
12089.000000,13084.000000,9753.000000
12082.000000,13084.000000,9753.000000
12079.000000,13077.000000,9749.000000
12076.000000,13074.000000,9747.000000
12075.000000,13071.000000,9747.000000
12076.000000,13073.000000,9746.000000
12076.000000,13073.000000,9746.000000
12078.000000,13074.000000,9746.000000
12080.000000,13080.000000,9749.000000
12082.000000,13082.000000,9751.000000
12087.000000,13097.000000,9757.000000
12092.000000,13103.000000,9760.000000
12092.000000,13103.000000,9763.000000
12095.000000,13106.000000,9763.000000
12097.000000,13107.000000,9766.000000
12098.000000,13107.000000,9768.000000
12097.000000,13108.000000,9768.000000
12095.000000,13107.000000,9766.000000
12095.000000,13107.000000,9766.000000
12093.000000,13104.000000,9763.000000
12090.000000,13101.000000,9758.000000
12090.000000,13098.000000,9758.000000
12090.000000,13097.000000,9757.000000
12090.000000,13100.000000,9758.000000
12092.000000,13100.000000,9758.000000
12091.000000,13103.000000,9759.000000
12092.000000,13105.000000,9761.000000
12095.000000,13107.000000,9762.000000
12095.000000,13107.000000,9768.000000
12097.000000,13107.000000,9769.000000
12098.000000,13107.000000,9769.000000
12099.000000,13108.000000,9771.000000
12101.000000,13108.000000,9772.000000
12106.000000,13115.000000,9776.000000
12106.000000,13116.000000,9776.000000
12105.000000,13116.000000,9776.000000
12101.000000,13109.000000,9774.000000
12099.000000,13107.000000,9770.000000
12096.000000,13108.000000,9768.000000
12092.000000,13106.000000,9764.000000
12092.000000,13106.000000,9765.000000
12092.000000,13105.000000,9765.000000
12090.000000,13102.000000,9763.000000
12089.000000,13104.000000,9763.000000
12090.000000,13107.000000,9765.000000
12090.000000,13107.000000,9764.000000
12090.000000,13107.000000,9764.000000
12093.000000,13107.000000,9766.000000
12092.000000,13108.000000,9768.000000
12093.000000,13108.000000,9770.000000
12095.000000,13108.000000,9770.000000
12095.000000,13108.000000,9772.000000
12097.000000,13108.000000,9772.000000
12098.000000,13111.000000,9774.000000
12097.000000,13109.000000,9773.000000
12094.000000,13109.000000,9772.000000
12090.000000,13107.000000,9767.000000
12090.000000,13107.000000,9761.000000
12081.000000,13096.000000,9761.000000
12078.000000,13088.000000,9757.000000
12074.000000,13082.000000,9754.000000
12073.000000,13076.000000,9752.000000
12073.000000,13078.000000,9752.000000
12073.000000,13078.000000,9752.000000
12074.000000,13078.000000,9752.000000
12076.000000,13079.000000,9752.000000
12081.000000,13087.000000,9757.000000
12083.000000,13092.000000,9760.000000
12088.000000,13105.000000,9764.000000
12088.000000,13105.000000,9764.000000
12093.000000,13107.000000,9767.000000
12096.000000,13108.000000,9770.000000
12096.000000,13108.000000,9771.000000
12094.000000,13108.000000,9771.000000
12094.000000,13107.000000,9769.000000
12091.000000,13107.000000,9769.000000
12082.000000,13092.000000,9760.000000
12079.000000,13084.000000,9756.000000
12076.000000,13077.000000,9752.000000
12076.000000,13080.000000,9753.000000
12077.000000,13080.000000,9751.000000
12074.000000,13076.000000,9751.000000
12076.000000,13076.000000,9754.000000
12079.000000,13081.000000,9756.000000
12079.000000,13085.000000,9757.000000
12079.000000,13090.000000,9758.000000
12081.000000,13090.000000,9758.000000
12086.000000,13102.000000,9764.000000
12089.000000,13105.000000,9765.000000
12090.000000,13106.000000,9767.000000
12093.000000,13106.000000,9768.000000
12093.000000,13106.000000,9764.000000
12086.000000,13101.000000,9764.000000
12079.000000,13085.000000,9757.000000
12070.000000,13068.000000,9747.000000
12062.000000,13058.000000,9744.000000
12060.000000,13057.000000,9742.000000
12060.000000,13057.000000,9739.000000
12058.000000,13054.000000,9739.000000
12060.000000,13053.000000,9740.000000
12059.000000,13058.000000,9742.000000
12059.000000,13059.000000,9742.000000
12064.000000,13062.000000,9745.000000
12064.000000,13062.000000,9745.000000
12070.000000,13073.000000,9751.000000
12072.000000,13079.000000,9754.000000
12076.000000,13088.000000,9757.000000
12082.000000,13098.000000,9761.000000
12082.000000,13099.000000,9762.000000
12082.000000,13099.000000,9762.000000
12073.000000,13086.000000,9756.000000
12062.000000,13067.000000,9748.000000
12054.000000,13051.000000,9739.000000
12054.000000,13041.000000,9734.000000
12049.000000,13041.000000,9733.000000
12046.000000,13040.000000,9733.000000
12046.000000,13037.000000,9732.000000
12047.000000,13038.000000,9732.000000
12047.000000,13039.000000,9733.000000
12047.000000,13043.000000,9734.000000
12049.000000,13043.000000,9734.000000
12051.000000,13047.000000,9735.000000
12054.000000,13051.000000,9737.000000
12055.000000,13058.000000,9741.000000
12059.000000,13063.000000,9744.000000
12059.000000,13063.000000,9750.000000
12065.000000,13072.000000,9750.000000
12066.000000,13076.000000,9751.000000
12062.000000,13071.000000,9749.000000
12050.000000,13053.000000,9738.000000
12043.000000,13038.000000,9732.000000
12043.000000,13038.000000,9732.000000
12035.000000,13022.000000,9725.000000
12032.000000,13014.000000,9723.000000
12031.000000,13010.000000,9722.000000
12028.000000,13012.000000,9722.000000
12028.000000,13012.000000,9721.000000
12029.000000,13012.000000,9721.000000
12031.000000,13013.000000,9723.000000
12032.000000,13015.000000,9723.000000
12033.000000,13018.000000,9725.000000
12036.000000,13024.000000,9727.000000
12036.000000,13024.000000,9730.000000
12041.000000,13032.000000,9730.000000
12042.000000,13038.000000,9734.000000
12045.000000,13045.000000,9737.000000
12049.000000,13055.000000,9740.000000
12047.000000,13049.000000,9740.000000
12047.000000,13049.000000,9740.000000
12042.000000,13037.000000,9736.000000
12035.000000,13023.000000,9730.000000
12023.000000,13006.000000,9722.000000
12022.000000,13001.000000,9721.000000
12022.000000,12997.000000,9720.000000
12022.000000,12997.000000,9720.000000
12021.000000,12998.000000,9721.000000
12021.000000,12997.000000,9718.000000
12020.000000,12999.000000,9718.000000
12021.000000,13003.000000,9720.000000
12021.000000,13010.000000,9725.000000
12027.000000,13010.000000,9725.000000
12028.000000,13012.000000,9726.000000
12032.000000,13022.000000,9730.000000
12036.000000,13027.000000,9732.000000
12036.000000,13038.000000,9735.000000
12040.000000,13038.000000,9737.000000
12042.000000,13041.000000,9737.000000
12037.000000,13033.000000,9732.000000
12028.000000,13017.000000,9726.000000
12023.000000,13006.000000,9722.000000
12023.000000,13006.000000,9718.000000
12019.000000,13001.000000,9718.000000
12017.000000,12996.000000,9717.000000
12019.000000,12998.000000,9716.000000
12017.000000,12996.000000,9717.000000
12020.000000,12998.000000,9719.000000
12020.000000,12998.000000,9720.000000
12024.000000,13005.000000,9720.000000
12026.000000,13010.000000,9723.000000
12029.000000,13014.000000,9726.000000
12031.000000,13022.000000,9730.000000
12036.000000,13029.000000,9734.000000
12036.000000,13029.000000,9734.000000
12042.000000,13039.000000,9738.000000
12045.000000,13048.000000,9741.000000
12041.000000,13041.000000,9740.000000
12034.000000,13026.000000,9732.000000
12034.000000,13005.000000,9725.000000
12023.000000,13005.000000,9725.000000
12017.000000,12994.000000,9719.000000
12014.000000,12987.000000,9714.000000
12014.000000,12987.000000,9711.000000
12013.000000,12985.000000,9712.000000
12013.000000,12985.000000,9713.000000
12014.000000,12987.000000,9713.000000
12014.000000,12991.000000,9714.000000
12014.000000,12992.000000,9716.000000
12014.000000,12996.000000,9718.000000
12018.000000,13001.000000,9721.000000
12018.000000,13001.000000,9721.000000
12022.000000,13008.000000,9724.000000
12027.000000,13015.000000,9727.000000
12032.000000,13026.000000,9732.000000
12036.000000,13031.000000,9735.000000
12036.000000,13024.000000,9732.000000
12032.000000,13024.000000,9732.000000
12024.000000,13008.000000,9725.000000
12014.000000,12990.000000,9715.000000
12009.000000,12980.000000,9708.000000
12004.000000,12971.000000,9701.000000
12004.000000,12970.000000,9700.000000
12004.000000,12970.000000,9700.000000
12003.000000,12965.000000,9700.000000
12001.000000,12967.000000,9699.000000
12004.000000,12970.000000,9701.000000
12004.000000,12973.000000,9704.000000
12006.000000,12973.000000,9707.000000
12008.000000,12978.000000,9707.000000
12010.000000,12984.000000,9710.000000
12011.000000,12990.000000,9713.000000
12014.000000,12998.000000,9719.000000
12014.000000,12998.000000,9723.000000
12019.000000,13005.000000,9723.000000
12023.000000,13015.000000,9727.000000
12022.000000,13013.000000,9727.000000
12018.000000,13002.000000,9724.000000
12009.000000,12988.000000,9713.000000
12009.000000,12988.000000,9706.000000
12008.000000,12976.000000,9706.000000
12003.000000,12967.000000,9701.000000
11999.000000,12964.000000,9699.000000
12001.000000,12965.000000,9700.000000
12001.000000,12963.000000,9700.000000
12001.000000,12963.000000,9700.000000
12002.000000,12967.000000,9700.000000
12003.000000,12970.000000,9702.000000
12005.000000,12973.000000,9703.000000
12009.000000,12980.000000,9707.000000
12009.000000,12989.000000,9711.000000
12011.000000,12989.000000,9711.000000
12012.000000,12991.000000,9714.000000
12011.000000,12997.000000,9716.000000
12015.000000,12998.000000,9718.000000
12011.000000,12987.000000,9711.000000
12011.000000,12987.000000,9701.000000
12001.000000,12969.000000,9701.000000
12000.000000,12958.000000,9697.000000
12002.000000,12957.000000,9698.000000
12001.000000,12954.000000,9696.000000
12001.000000,12953.000000,9695.000000
12001.000000,12953.000000,9695.000000
11999.000000,12950.000000,9694.000000
12002.000000,12951.000000,9696.000000
12003.000000,12955.000000,9697.000000
12002.000000,12964.000000,9700.000000
12002.000000,12970.000000,9700.000000
12004.000000,12970.000000,9700.000000
12006.000000,12977.000000,9704.000000
12008.000000,12982.000000,9707.000000
12012.000000,12991.000000,9714.000000
12014.000000,12995.000000,9716.000000
12014.000000,12995.000000,9713.000000
12011.000000,12989.000000,9713.000000
12004.000000,12972.000000,9702.000000
11998.000000,12952.000000,9693.000000
11995.000000,12933.000000,9686.000000
11995.000000,12918.000000,9680.000000
11991.000000,12918.000000,9679.000000
11988.000000,12916.000000,9679.000000
11989.000000,12913.000000,9679.000000
11988.000000,12913.000000,9677.000000
11990.000000,12912.000000,9678.000000
11990.000000,12912.000000,9679.000000
11990.000000,12917.000000,9679.000000
11991.000000,12928.000000,9682.000000
11991.000000,12933.000000,9684.000000
11998.000000,12946.000000,9690.000000
12001.000000,12954.000000,9694.000000
12001.000000,12954.000000,9694.000000
12001.000000,12961.000000,9697.000000
12002.000000,12962.000000,9699.000000
11997.000000,12953.000000,9693.000000
11990.000000,12921.000000,9681.000000
11990.000000,12908.000000,9671.000000
11981.000000,12908.000000,9671.000000
11972.000000,12905.000000,9667.000000
11972.000000,12905.000000,9664.000000
11971.000000,12905.000000,9664.000000
11971.000000,12905.000000,9663.000000
11971.000000,12905.000000,9665.000000
11973.000000,12905.000000,9665.000000
11973.000000,12905.000000,9665.000000
11977.000000,12905.000000,9666.000000
11986.000000,12909.000000,9673.000000
11991.000000,12915.000000,9678.000000
11991.000000,12915.000000,9682.000000
11993.000000,12929.000000,9682.000000
11996.000000,12937.000000,9686.000000
11996.000000,12937.000000,9685.000000
11990.000000,12917.000000,9677.000000
11978.000000,12906.000000,9668.000000
11978.000000,12906.000000,9668.000000
11972.000000,12905.000000,9664.000000
11968.000000,12905.000000,9662.000000
11969.000000,12905.000000,9661.000000
11969.000000,12905.000000,9662.000000
11969.000000,12905.000000,9663.000000
11972.000000,12905.000000,9663.000000
11972.000000,12905.000000,9664.000000
11976.000000,12905.000000,9665.000000
11982.000000,12906.000000,9668.000000
11985.000000,12911.000000,9673.000000
11985.000000,12911.000000,9677.000000
11991.000000,12918.000000,9677.000000
11995.000000,12925.000000,9682.000000
11997.000000,12940.000000,9686.000000
11999.000000,12943.000000,9687.000000
11999.000000,12920.000000,9678.000000
11991.000000,12920.000000,9668.000000
11980.000000,12906.000000,9668.000000
11965.000000,12905.000000,9659.000000
11958.000000,12905.000000,9658.000000
11955.000000,12905.000000,9653.000000
11955.000000,12905.000000,9655.000000
11958.000000,12906.000000,9655.000000
11955.000000,12906.000000,9653.000000
11959.000000,12905.000000,9654.000000
11962.000000,12905.000000,9657.000000
11964.000000,12905.000000,9656.000000
11964.000000,12905.000000,9656.000000
11971.000000,12905.000000,9661.000000
11977.000000,12905.000000,9663.000000
11983.000000,12906.000000,9667.000000
11989.000000,12910.000000,9674.000000
11989.000000,12919.000000,9676.000000
11990.000000,12919.000000,9676.000000
11992.000000,12914.000000,9675.000000
11976.000000,12906.000000,9666.000000
11960.000000,12905.000000,9657.000000
11950.000000,12905.000000,9651.000000
11950.000000,12905.000000,9646.000000
11948.000000,12905.000000,9646.000000
11947.000000,12906.000000,9643.000000
11946.000000,12906.000000,9643.000000
11949.000000,12905.000000,9645.000000
11950.000000,12906.000000,9648.000000
11950.000000,12906.000000,9650.000000
11952.000000,12905.000000,9650.000000
11956.000000,12905.000000,9654.000000
11961.000000,12906.000000,9658.000000
11964.000000,12905.000000,9659.000000
11973.000000,12905.000000,9663.000000
11973.000000,12905.000000,9663.000000
11979.000000,12906.000000,9668.000000
11985.000000,12910.000000,9674.000000
11984.000000,12909.000000,9674.000000
11974.000000,12906.000000,9667.000000
11974.000000,12905.000000,9658.000000
11961.000000,12905.000000,9658.000000
11952.000000,12905.000000,9655.000000
11950.000000,12906.000000,9652.000000
11950.000000,12905.000000,9651.000000
11950.000000,12906.000000,9652.000000
11950.000000,12906.000000,9652.000000
11952.000000,12906.000000,9652.000000
11952.000000,12906.000000,9653.000000
11957.000000,12906.000000,9657.000000
11962.000000,12906.000000,9661.000000
11962.000000,12905.000000,9662.000000
11970.000000,12905.000000,9662.000000
11975.000000,12905.000000,9665.000000
11981.000000,12906.000000,9670.000000
11989.000000,12910.000000,9676.000000
11983.000000,12907.000000,9673.000000
11983.000000,12907.000000,9666.000000
11972.000000,12905.000000,9666.000000
11959.000000,12905.000000,9658.000000
11952.000000,12906.000000,9655.000000
11951.000000,12905.000000,9651.000000
11952.000000,12906.000000,9651.000000
11952.000000,12906.000000,9651.000000
11950.000000,12906.000000,9650.000000
11951.000000,12905.000000,9653.000000
11955.000000,12906.000000,9657.000000
11958.000000,12905.000000,9657.000000
11958.000000,12906.000000,9660.000000
11965.000000,12906.000000,9660.000000
11970.000000,12905.000000,9665.000000
11977.000000,12905.000000,9665.000000
11985.000000,12907.000000,9674.000000
11991.000000,12915.000000,9679.000000
11991.000000,12915.000000,9682.000000
11994.000000,12923.000000,9682.000000
11989.000000,12916.000000,9679.000000
11977.000000,12905.000000,9670.000000
11961.000000,12905.000000,9662.000000
11951.000000,12905.000000,9653.000000
11951.000000,12905.000000,9649.000000
11948.000000,12906.000000,9649.000000
11947.000000,12906.000000,9650.000000
11948.000000,12905.000000,9652.000000
11948.000000,12906.000000,9650.000000
11949.000000,12905.000000,9654.000000
11949.000000,12905.000000,9654.000000
11952.000000,12905.000000,9655.000000
11957.000000,12906.000000,9659.000000
11964.000000,12905.000000,9662.000000
11970.000000,12905.000000,9666.000000
11970.000000,12905.000000,9669.000000
11977.000000,12905.000000,9669.000000
11985.000000,12909.000000,9675.000000
11989.000000,12918.000000,9680.000000
11985.000000,12911.000000,9677.000000
11985.000000,12906.000000,9669.000000
11975.000000,12906.000000,9663.000000
11964.000000,12906.000000,9663.000000
11959.000000,12905.000000,9658.000000
11954.000000,12905.000000,9657.000000
11954.000000,12905.000000,9656.000000
11954.000000,12906.000000,9658.000000
11957.000000,12906.000000,9658.000000
11959.000000,12905.000000,9658.000000
11958.000000,12905.000000,9659.000000
11966.000000,12905.000000,9663.000000
11972.000000,12905.000000,9668.000000
11972.000000,12905.000000,9671.000000
11978.000000,12906.000000,9671.000000
11987.000000,12912.000000,9677.000000
11991.000000,12924.000000,9681.000000
11992.000000,12931.000000,9683.000000
11989.000000,12917.000000,9680.000000
11989.000000,12917.000000,9680.000000
11976.000000,12906.000000,9670.000000
11967.000000,12905.000000,9663.000000
11962.000000,12905.000000,9662.000000
11961.000000,12905.000000,9661.000000
11961.000000,12905.000000,9662.000000
11962.000000,12905.000000,9662.000000
11965.000000,12905.000000,9662.000000
11966.000000,12905.000000,9663.000000
11972.000000,12905.000000,9666.000000
11977.000000,12906.000000,9669.000000
11977.000000,12906.000000,9675.000000
11985.000000,12910.000000,9675.000000
11988.000000,12917.000000,9677.000000
11993.000000,12930.000000,9683.000000
11999.000000,12941.000000,9688.000000
12000.000000,12944.000000,9691.000000
12000.000000,12944.000000,9691.000000
11994.000000,12925.000000,9685.000000
11982.000000,12908.000000,9672.000000
11969.000000,12905.000000,9665.000000
11962.000000,12905.000000,9660.000000
11962.000000,12906.000000,9659.000000
11959.000000,12906.000000,9659.000000
11957.000000,12905.000000,9659.000000
11957.000000,12906.000000,9657.000000
11958.000000,12905.000000,9656.000000
11960.000000,12906.000000,9658.000000
11960.000000,12906.000000,9660.000000
11965.000000,12906.000000,9660.000000
11971.000000,12906.000000,9663.000000
11976.000000,12905.000000,9666.000000
11980.000000,12906.000000,9670.000000
11980.000000,12913.000000,9675.000000
11989.000000,12913.000000,9675.000000
11987.000000,12915.000000,9675.000000
11979.000000,12906.000000,9668.000000
11964.000000,12905.000000,9659.000000
11951.000000,12905.000000,9652.000000
11951.000000,12905.000000,9645.000000
11948.000000,12905.000000,9645.000000
11945.000000,12905.000000,9641.000000
11948.000000,12906.000000,9643.000000
11945.000000,12905.000000,9644.000000
11948.000000,12906.000000,9648.000000
11948.000000,12906.000000,9651.000000
11951.000000,12905.000000,9651.000000
11955.000000,12906.000000,9653.000000
11960.000000,12905.000000,9656.000000
11967.000000,12905.000000,9659.000000
11974.000000,12905.000000,9663.000000
11974.000000,12905.000000,9663.000000
11981.000000,12907.000000,9668.000000
11980.000000,12907.000000,9668.000000
11970.000000,12905.000000,9662.000000
11958.000000,12906.000000,9657.000000
11958.000000,12906.000000,9650.000000
11950.000000,12906.000000,9650.000000
11946.000000,12906.000000,9647.000000
11947.000000,12905.000000,9646.000000
11949.000000,12906.000000,9646.000000
11949.000000,12906.000000,9647.000000
11949.000000,12906.000000,9650.000000
11951.000000,12906.000000,9650.000000
11956.000000,12906.000000,9652.000000
11961.000000,12906.000000,9654.000000
11965.000000,12906.000000,9658.000000
11966.000000,12905.000000,9659.000000
11966.000000,12905.000000,9659.000000
11973.000000,12905.000000,9663.000000
11975.000000,12905.000000,9664.000000
11969.000000,12905.000000,9659.000000
11958.000000,12905.000000,9652.000000
11958.000000,12905.000000,9645.000000
11950.000000,12905.000000,9645.000000
11948.000000,12906.000000,9643.000000
11949.000000,12905.000000,9642.000000
11948.000000,12906.000000,9643.000000
11952.000000,12905.000000,9645.000000
11952.000000,12906.000000,9646.000000
11951.000000,12906.000000,9646.000000
11953.000000,12905.000000,9649.000000
11961.000000,12905.000000,9653.000000
11964.000000,12906.000000,9654.000000
11964.000000,12905.000000,9659.000000
11971.000000,12905.000000,9662.000000
11977.000000,12905.000000,9662.000000
11984.000000,12906.000000,9665.000000
11980.000000,12906.000000,9665.000000
11969.000000,12905.000000,9657.000000
11969.000000,12905.000000,9651.000000
11958.000000,12905.000000,9651.000000
11952.000000,12906.000000,9645.000000
11949.000000,12906.000000,9641.000000
11947.000000,12905.000000,9640.000000
11949.000000,12906.000000,9642.000000
11949.000000,12906.000000,9642.000000
11947.000000,12906.000000,9644.000000
11952.000000,12905.000000,9645.000000
11956.000000,12905.000000,9648.000000
11964.000000,12905.000000,9653.000000
11969.000000,12906.000000,9657.000000
11969.000000,12906.000000,9657.000000
11973.000000,12905.000000,9660.000000
11981.000000,12910.000000,9666.000000
11988.000000,12928.000000,9674.000000
11987.000000,12934.000000,9676.000000
11987.000000,12918.000000,9669.000000
11983.000000,12918.000000,9669.000000
11973.000000,12905.000000,9660.000000
11966.000000,12905.000000,9655.000000
11966.000000,12905.000000,9652.000000
11969.000000,12905.000000,9654.000000
11969.000000,12905.000000,9657.000000
11969.000000,12905.000000,9657.000000
11974.000000,12905.000000,9659.000000
11979.000000,12907.000000,9663.000000
11984.000000,12913.000000,9666.000000
11988.000000,12927.000000,9671.000000
11988.000000,12927.000000,9671.000000
11991.000000,12938.000000,9675.000000
11996.000000,12950.000000,9682.000000
11999.000000,12959.000000,9687.000000
12002.000000,12967.000000,9689.000000
12002.000000,12965.000000,9688.000000
11999.000000,12965.000000,9688.000000
11999.000000,12952.000000,9683.000000
11995.000000,12942.000000,9676.000000
11993.000000,12934.000000,9674.000000
11994.000000,12936.000000,9676.000000
11994.000000,12936.000000,9674.000000
11993.000000,12938.000000,9674.000000
11995.000000,12941.000000,9675.000000
11997.000000,12947.000000,9677.000000
11999.000000,12954.000000,9681.000000
11999.000000,12959.000000,9683.000000
12000.000000,12959.000000,9689.000000
12005.000000,12966.000000,9689.000000
12008.000000,12975.000000,9693.000000
12011.000000,12985.000000,9696.000000
12013.000000,12991.000000,9700.000000
12013.000000,12991.000000,9702.000000
12012.000000,12992.000000,9702.000000
12011.000000,12985.000000,9696.000000
12005.000000,12967.000000,9689.000000
12001.000000,12956.000000,9682.000000
11998.000000,12952.000000,9682.000000
11998.000000,12952.000000,9682.000000
11998.000000,12953.000000,9679.000000
11995.000000,12950.000000,9678.000000
12001.000000,12957.000000,9684.000000
12003.000000,12959.000000,9685.000000
12003.000000,12968.000000,9690.000000
12004.000000,12968.000000,9690.000000
12003.000000,12977.000000,9691.000000
12005.000000,12984.000000,9693.000000
12009.000000,12992.000000,9698.000000
12012.000000,12996.000000,9702.000000
12012.000000,13004.000000,9706.000000
12016.000000,13004.000000,9706.000000
12015.000000,13002.000000,9705.000000
12011.000000,12991.000000,9700.000000
12006.000000,12979.000000,9695.000000
12002.000000,12969.000000,9690.000000
12002.000000,12969.000000,9685.000000
12000.000000,12960.000000,9685.000000
11999.000000,12959.000000,9685.000000
11998.000000,12959.000000,9684.000000
11999.000000,12959.000000,9685.000000
12001.000000,12965.000000,9687.000000
12001.000000,12965.000000,9687.000000
11999.000000,12972.000000,9690.000000
12005.000000,12974.000000,9693.000000
