1884.000000,1934.000000,1328.000000
1885.000000,1935.000000,1328.000000
1884.000000,1934.000000,1328.000000
1882.000000,1931.000000,1327.000000
1881.000000,1930.000000,1326.000000
1881.000000,1929.000000,1326.000000
1881.000000,1929.000000,1326.000000
1881.000000,1929.000000,1326.000000
1881.000000,1929.000000,1326.000000
1881.000000,1929.000000,1326.000000
1881.000000,1929.000000,1326.000000
1881.000000,1929.000000,1326.000000
1882.000000,1929.000000,1326.000000
1884.000000,1932.000000,1328.000000
1885.000000,1932.000000,1328.000000
1884.000000,1932.000000,1328.000000
1885.000000,1934.000000,1328.000000
1885.000000,1934.000000,1328.000000
1886.000000,1935.000000,1329.000000
1886.000000,1935.000000,1329.000000
1886.000000,1935.000000,1329.000000
1885.000000,1934.000000,1328.000000
1885.000000,1932.000000,1328.000000
1883.000000,1931.000000,1327.000000
1882.000000,1929.000000,1326.000000
1883.000000,1930.000000,1327.000000
1883.000000,1930.000000,1327.000000
1883.000000,1930.000000,1327.000000
1882.000000,1930.000000,1326.000000
1882.000000,1929.000000,1326.000000
1882.000000,1930.000000,1326.000000
1883.000000,1930.000000,1327.000000
1883.000000,1930.000000,1327.000000
1883.000000,1930.000000,1327.000000
1884.000000,1931.000000,1327.000000
1884.000000,1932.000000,1327.000000
1884.000000,1932.000000,1327.000000
1885.000000,1933.000000,1328.000000
1885.000000,1933.000000,1328.000000
1885.000000,1933.000000,1328.000000
1885.000000,1933.000000,1327.000000
1884.000000,1932.000000,1327.000000
1882.000000,1929.000000,1326.000000
1882.000000,1929.000000,1326.000000
1880.000000,1927.000000,1325.000000
1880.000000,1927.000000,1325.000000
1880.000000,1926.000000,1325.000000
1880.000000,1927.000000,1325.000000
1879.000000,1926.000000,1325.000000
1879.000000,1926.000000,1325.000000
1879.000000,1926.000000,1325.000000
1879.000000,1926.000000,1325.000000
1880.000000,1927.000000,1325.000000
1880.000000,1927.000000,1325.000000
1881.000000,1928.000000,1325.000000
1881.000000,1928.000000,1326.000000
1882.000000,1929.000000,1326.000000
1882.000000,1930.000000,1326.000000
1883.000000,1930.000000,1326.000000
1882.000000,1929.000000,1325.000000
1882.000000,1930.000000,1326.000000
1882.000000,1929.000000,1326.000000
1878.000000,1925.000000,1324.000000
1879.000000,1925.000000,1324.000000
1879.000000,1925.000000,1324.000000
1879.000000,1924.000000,1324.000000
1879.000000,1924.000000,1324.000000
1879.000000,1924.000000,1324.000000
1879.000000,1924.000000,1324.000000
1879.000000,1924.000000,1323.000000
1879.000000,1924.000000,1324.000000
1880.000000,1925.000000,1324.000000
1880.000000,1926.000000,1324.000000
1880.000000,1926.000000,1324.000000
1881.000000,1927.000000,1325.000000
1881.000000,1928.000000,1325.000000
1881.000000,1928.000000,1325.000000
1881.000000,1928.000000,1325.000000
1881.000000,1928.000000,1325.000000
1882.000000,1929.000000,1325.000000
1880.000000,1928.000000,1325.000000
1880.000000,1926.000000,1324.000000
1879.000000,1925.000000,1324.000000
1879.000000,1924.000000,1323.000000
1879.000000,1923.000000,1323.000000
1879.000000,1923.000000,1323.000000
1879.000000,1923.000000,1323.000000
1879.000000,1923.000000,1323.000000
1877.000000,1922.000000,1322.000000
1879.000000,1923.000000,1323.000000
1879.000000,1924.000000,1323.000000
1878.000000,1923.000000,1323.000000
1880.000000,1925.000000,1324.000000
1880.000000,1925.000000,1324.000000
1881.000000,1926.000000,1324.000000
1881.000000,1927.000000,1324.000000
1881.000000,1927.000000,1324.000000
1882.000000,1928.000000,1325.000000
1882.000000,1928.000000,1325.000000
1882.000000,1929.000000,1325.000000
1881.000000,1928.000000,1325.000000
1880.000000,1926.000000,1324.000000
1879.000000,1925.000000,1323.000000
1878.000000,1923.000000,1323.000000
1878.000000,1922.000000,1322.000000
1878.000000,1922.000000,1322.000000
1878.000000,1922.000000,1322.000000
1878.000000,1921.000000,1322.000000
1878.000000,1921.000000,1322.000000
1878.000000,1922.000000,1322.000000
1879.000000,1922.000000,1322.000000
1879.000000,1923.000000,1323.000000
1879.000000,1923.000000,1323.000000
1880.000000,1924.000000,1323.000000
1880.000000,1924.000000,1323.000000
1880.000000,1925.000000,1323.000000
1881.000000,1926.000000,1324.000000
1881.000000,1926.000000,1324.000000
1881.000000,1926.000000,1324.000000
1881.000000,1926.000000,1324.000000
1880.000000,1925.000000,1323.000000
1878.000000,1922.000000,1322.000000
1878.000000,1921.000000,1322.000000
1876.000000,1919.000000,1321.000000
1875.000000,1918.000000,1320.000000
1875.000000,1918.000000,1320.000000
1875.000000,1918.000000,1320.000000
1875.000000,1918.000000,1320.000000
1876.000000,1918.000000,1320.000000
1876.000000,1919.000000,1320.000000
1876.000000,1919.000000,1320.000000
1876.000000,1919.000000,1320.000000
1877.000000,1920.000000,1321.000000
1878.000000,1921.000000,1321.000000
1878.000000,1921.000000,1321.000000
1878.000000,1922.000000,1321.000000
1878.000000,1923.000000,1322.000000
1879.000000,1923.000000,1322.000000
1878.000000,1922.000000,1321.000000
1878.000000,1920.000000,1321.000000
1876.000000,1919.000000,1320.000000
1875.000000,1917.000000,1319.000000
1874.000000,1916.000000,1319.000000
1874.000000,1915.000000,1319.000000
1874.000000,1915.000000,1319.000000
1874.000000,1914.000000,1318.000000
1874.000000,1914.000000,1318.000000
1874.000000,1914.000000,1318.000000
1874.000000,1914.000000,1318.000000
1874.000000,1915.000000,1318.000000
1874.000000,1915.000000,1318.000000
1874.000000,1916.000000,1319.000000
1875.000000,1916.000000,1319.000000
1875.000000,1917.000000,1319.000000
1876.000000,1917.000000,1319.000000
1876.000000,1917.000000,1319.000000
1876.000000,1918.000000,1319.000000
1876.000000,1917.000000,1319.000000
1874.000000,1916.000000,1319.000000
1873.000000,1913.000000,1317.000000
1872.000000,1912.000000,1316.000000
1870.000000,1909.000000,1316.000000
1870.000000,1908.000000,1315.000000
1869.000000,1907.000000,1315.000000
1869.000000,1906.000000,1314.000000
1868.000000,1905.000000,1314.000000
1868.000000,1905.000000,1314.000000
1867.000000,1904.000000,1313.000000
1868.000000,1904.000000,1313.000000
1868.000000,1904.000000,1314.000000
1868.000000,1905.000000,1314.000000
1869.000000,1906.000000,1314.000000
1869.000000,1906.000000,1314.000000
1870.000000,1907.000000,1314.000000
1870.000000,1908.000000,1315.000000
1870.000000,1908.000000,1315.000000
1870.000000,1907.000000,1315.000000
1868.000000,1905.000000,1314.000000
1867.000000,1904.000000,1313.000000
1866.000000,1902.000000,1313.000000
1865.000000,1901.000000,1312.000000
1865.000000,1900.000000,1312.000000
1865.000000,1900.000000,1312.000000
1866.000000,1900.000000,1312.000000
1866.000000,1901.000000,1312.000000
1866.000000,1901.000000,1312.000000
1866.000000,1901.000000,1312.000000
1867.000000,1902.000000,1312.000000
1867.000000,1902.000000,1313.000000
1867.000000,1903.000000,1313.000000
1868.000000,1904.000000,1313.000000
1868.000000,1904.000000,1313.000000
1869.000000,1905.000000,1314.000000
1869.000000,1906.000000,1314.000000
1870.000000,1907.000000,1315.000000
1870.000000,1907.000000,1314.000000
1869.000000,1906.000000,1314.000000
1868.000000,1905.000000,1314.000000
1867.000000,1903.000000,1313.000000
1867.000000,1902.000000,1313.000000
1866.000000,1902.000000,1312.000000
1866.000000,1902.000000,1312.000000
1867.000000,1902.000000,1313.000000
1867.000000,1902.000000,1313.000000
1867.000000,1902.000000,1312.000000
1867.000000,1902.000000,1312.000000
1867.000000,1902.000000,1313.000000
1867.000000,1902.000000,1313.000000
1867.000000,1903.000000,1313.000000
1867.000000,1903.000000,1313.000000
1867.000000,1903.000000,1313.000000
1867.000000,1903.000000,1313.000000
1868.000000,1903.000000,1313.000000
1867.000000,1903.000000,1312.000000
1865.000000,1900.000000,1312.000000
1864.000000,1897.000000,1310.000000
1863.000000,1896.000000,1309.000000
1862.000000,1894.000000,1309.000000
1862.000000,1893.000000,1309.000000
1862.000000,1893.000000,1308.000000
1861.000000,1892.000000,1308.000000
1860.000000,1891.000000,1307.000000
1860.000000,1891.000000,1307.000000
1860.000000,1891.000000,1307.000000
1861.000000,1892.000000,1308.000000
1861.000000,1892.000000,1308.000000
1862.000000,1893.000000,1308.000000
1862.000000,1894.000000,1309.000000
1862.000000,1894.000000,1309.000000
1863.000000,1895.000000,1309.000000
1864.000000,1896.000000,1309.000000
1864.000000,1896.000000,1309.000000
1862.000000,1894.000000,1309.000000
1860.000000,1891.000000,1307.000000
1859.000000,1889.000000,1307.000000
1858.000000,1887.000000,1306.000000
1858.000000,1887.000000,1305.000000
1858.000000,1886.000000,1305.000000
1858.000000,1886.000000,1305.000000
1859.000000,1888.000000,1306.000000
1860.000000,1888.000000,1306.000000
1860.000000,1888.000000,1307.000000
1860.000000,1889.000000,1307.000000
1861.000000,1889.000000,1307.000000
1862.000000,1890.000000,1307.000000
1862.000000,1890.000000,1307.000000
1862.000000,1891.000000,1308.000000
1863.000000,1892.000000,1308.000000
1863.000000,1893.000000,1309.000000
1862.000000,1892.000000,1308.000000
1860.000000,1889.000000,1306.000000
1859.000000,1888.000000,1305.000000
1856.000000,1884.000000,1304.000000
1855.000000,1881.000000,1303.000000
1855.000000,1880.000000,1302.000000
1854.000000,1879.000000,1302.000000
1854.000000,1879.000000,1302.000000
1854.000000,1879.000000,1302.000000
1853.000000,1878.000000,1301.000000
1853.000000,1877.000000,1301.000000
1853.000000,1877.000000,1301.000000
1853.000000,1877.000000,1301.000000
1853.000000,1877.000000,1301.000000
1854.000000,1878.000000,1301.000000
1854.000000,1879.000000,1302.000000
1855.000000,1880.000000,1302.000000
1855.000000,1881.000000,1302.000000
1856.000000,1882.000000,1303.000000
1856.000000,1882.000000,1303.000000
1855.000000,1881.000000,1302.000000
1853.000000,1877.000000,1301.000000
1851.000000,1873.000000,1299.000000
1849.000000,1871.000000,1298.000000
1849.000000,1869.000000,1298.000000
1848.000000,1869.000000,1297.000000
1848.000000,1868.000000,1297.000000
1848.000000,1868.000000,1297.000000
1848.000000,1867.000000,1296.000000
1848.000000,1867.000000,1296.000000
1848.000000,1868.000000,1297.000000
1848.000000,1868.000000,1297.000000
1848.000000,1868.000000,1297.000000
1849.000000,1869.000000,1297.000000
1849.000000,1869.000000,1297.000000
1849.000000,1870.000000,1298.000000
1850.000000,1871.000000,1298.000000
1850.000000,1871.000000,1298.000000
1851.000000,1872.000000,1298.000000
1850.000000,1871.000000,1298.000000
1849.000000,1869.000000,1297.000000
1846.000000,1865.000000,1296.000000
1845.000000,1863.000000,1295.000000
1845.000000,1862.000000,1294.000000
1845.000000,1862.000000,1294.000000
1844.000000,1861.000000,1294.000000
1844.000000,1861.000000,1293.000000
1844.000000,1861.000000,1293.000000
1844.000000,1860.000000,1293.000000
1844.000000,1860.000000,1293.000000
1845.000000,1861.000000,1294.000000
1845.000000,1862.000000,1294.000000
1846.000000,1863.000000,1294.000000
1846.000000,1864.000000,1295.000000
1847.000000,1865.000000,1295.000000
1847.000000,1866.000000,1295.000000
1848.000000,1867.000000,1296.000000
1849.000000,1868.000000,1297.000000
1849.000000,1868.000000,1297.000000
1847.000000,1866.000000,1296.000000
1846.000000,1864.000000,1295.000000
1845.000000,1863.000000,1294.000000
1845.000000,1862.000000,1294.000000
1845.000000,1862.000000,1294.000000
1845.000000,1862.000000,1294.000000
1845.000000,1862.000000,1294.000000
1845.000000,1862.000000,1294.000000
1845.000000,1862.000000,1294.000000
1846.000000,1863.000000,1294.000000
1846.000000,1863.000000,1294.000000
1846.000000,1863.000000,1294.000000
1847.000000,1864.000000,1295.000000
1847.000000,1866.000000,1295.000000
1848.000000,1866.000000,1295.000000
1849.000000,1867.000000,1296.000000
1849.000000,1868.000000,1296.000000
1849.000000,1868.000000,1296.000000
1847.000000,1866.000000,1296.000000
1847.000000,1864.000000,1295.000000
1846.000000,1863.000000,1294.000000
1846.000000,1863.000000,1294.000000
1846.000000,1863.000000,1294.000000
1846.000000,1863.000000,1294.000000
1846.000000,1863.000000,1294.000000
1847.000000,1864.000000,1294.000000
1847.000000,1864.000000,1295.000000
1847.000000,1864.000000,1295.000000
1847.000000,1865.000000,1295.000000
1848.000000,1865.000000,1295.000000
1848.000000,1866.000000,1296.000000
1849.000000,1867.000000,1296.000000
1849.000000,1868.000000,1296.000000
1850.000000,1869.000000,1297.000000
1850.000000,1869.000000,1296.000000
1848.000000,1867.000000,1296.000000
1847.000000,1864.000000,1295.000000
1846.000000,1863.000000,1294.000000
1845.000000,1862.000000,1293.000000
1846.000000,1862.000000,1293.000000
1846.000000,1862.000000,1293.000000
1846.000000,1862.000000,1293.000000
1846.000000,1861.000000,1293.000000
1846.000000,1862.000000,1293.000000
1846.000000,1862.000000,1294.000000
1846.000000,1863.000000,1294.000000
1847.000000,1863.000000,1294.000000
1847.000000,1864.000000,1294.000000
1848.000000,1865.000000,1295.000000
1848.000000,1865.000000,1295.000000
1849.000000,1867.000000,1296.000000
1849.000000,1868.000000,1296.000000
1849.000000,1868.000000,1296.000000
1847.000000,1865.000000,1295.000000
1845.000000,1859.000000,1292.000000
1845.000000,1859.000000,1293.000000
1844.000000,1858.000000,1292.000000
1844.000000,1857.000000,1292.000000
1843.000000,1857.000000,1292.000000
1844.000000,1857.000000,1292.000000
1843.000000,1856.000000,1291.000000
1843.000000,1856.000000,1291.000000
1843.000000,1856.000000,1291.000000
1844.000000,1856.000000,1292.000000
1844.000000,1857.000000,1292.000000
1845.000000,1858.000000,1292.000000
1845.000000,1859.000000,1292.000000
1845.000000,1859.000000,1292.000000
1846.000000,1861.000000,1293.000000
1846.000000,1861.000000,1293.000000
1846.000000,1861.000000,1293.000000
1843.000000,1857.000000,1291.000000
1842.000000,1854.000000,1290.000000
1840.000000,1851.000000,1289.000000
1838.000000,1848.000000,1288.000000
1838.000000,1848.000000,1287.000000
1837.000000,1847.000000,1287.000000
1838.000000,1847.000000,1287.000000
1835.000000,1844.000000,1285.000000
1837.000000,1846.000000,1287.000000
1838.000000,1846.000000,1287.000000
1838.000000,1847.000000,1287.000000
1838.000000,1847.000000,1287.000000
1839.000000,1848.000000,1288.000000
1840.000000,1849.000000,1288.000000
1839.000000,1849.000000,1288.000000
1840.000000,1851.000000,1289.000000
1841.000000,1852.000000,1289.000000
1840.000000,1851.000000,1289.000000
1839.000000,1847.000000,1287.000000
1837.000000,1845.000000,1286.000000
1836.000000,1843.000000,1285.000000
1835.000000,1842.000000,1285.000000
1835.000000,1842.000000,1285.000000
1835.000000,1841.000000,1284.000000
1835.000000,1842.000000,1285.000000
1835.000000,1842.000000,1285.000000
1835.000000,1842.000000,1285.000000
1836.000000,1843.000000,1285.000000
1836.000000,1843.000000,1285.000000
1837.000000,1844.000000,1286.000000
1837.000000,1846.000000,1286.000000
1838.000000,1846.000000,1286.000000
1837.000000,1846.000000,1286.000000
1838.000000,1847.000000,1288.000000
1840.000000,1849.000000,1288.000000
1839.000000,1848.000000,1288.000000
1837.000000,1846.000000,1285.000000
1836.000000,1843.000000,1285.000000
1835.000000,1841.000000,1284.000000
1834.000000,1840.000000,1284.000000
1834.000000,1839.000000,1284.000000
1833.000000,1839.000000,1283.000000
1834.000000,1839.000000,1283.000000
1834.000000,1839.000000,1283.000000
1834.000000,1839.000000,1283.000000
1835.000000,1840.000000,1284.000000
1835.000000,1841.000000,1284.000000
1836.000000,1842.000000,1285.000000
1836.000000,1843.000000,1285.000000
1837.000000,1844.000000,1286.000000
1837.000000,1845.000000,1286.000000
1838.000000,1846.000000,1287.000000
1839.000000,1848.000000,1287.000000
1840.000000,1849.000000,1288.000000
1840.000000,1849.000000,1287.000000
1838.000000,1847.000000,1287.000000
1836.000000,1843.000000,1285.000000
1835.000000,1842.000000,1285.000000
1834.000000,1839.000000,1283.000000
1833.000000,1838.000000,1283.000000
1833.000000,1838.000000,1283.000000
1833.000000,1838.000000,1283.000000
1832.000000,1837.000000,1282.000000
1834.000000,1838.000000,1283.000000
1834.000000,1839.000000,1283.000000
1834.000000,1839.000000,1283.000000
1833.000000,1839.000000,1283.000000
1836.000000,1842.000000,1284.000000
1836.000000,1842.000000,1284.000000
1837.000000,1844.000000,1285.000000
1838.000000,1845.000000,1286.000000
1838.000000,1847.000000,1286.000000
1839.000000,1848.000000,1287.000000
1840.000000,1849.000000,1287.000000
1840.000000,1848.000000,1287.000000
1838.000000,1847.000000,1287.000000
1836.000000,1843.000000,1285.000000
1835.000000,1840.000000,1283.000000
1835.000000,1840.000000,1284.000000
1834.000000,1840.000000,1283.000000
1834.000000,1840.000000,1283.000000
1835.000000,1840.000000,1283.000000
1835.000000,1840.000000,1283.000000
1835.000000,1840.000000,1284.000000
1835.000000,1841.000000,1284.000000
1836.000000,1842.000000,1284.000000
1837.000000,1843.000000,1284.000000
1837.000000,1844.000000,1285.000000
1838.000000,1846.000000,1286.000000
1839.000000,1846.000000,1286.000000
1840.000000,1848.000000,1287.000000
1839.000000,1848.000000,1286.000000
1841.000000,1850.000000,1288.000000
1841.000000,1851.000000,1288.000000
1839.000000,1849.000000,1287.000000
1837.000000,1846.000000,1285.000000
1838.000000,1845.000000,1286.000000
1837.000000,1845.000000,1286.000000
1837.000000,1845.000000,1285.000000
1838.000000,1845.000000,1286.000000
1838.000000,1845.000000,1286.000000
1838.000000,1846.000000,1286.000000
1838.000000,1846.000000,1286.000000
1839.000000,1848.000000,1287.000000
1838.000000,1847.000000,1286.000000
1839.000000,1848.000000,1286.000000
1839.000000,1849.000000,1287.000000
1840.000000,1850.000000,1287.000000
1841.000000,1851.000000,1288.000000
1841.000000,1853.000000,1288.000000
1842.000000,1853.000000,1289.000000
1843.000000,1855.000000,1289.000000
1843.000000,1855.000000,1289.000000
1841.000000,1854.000000,1289.000000
1840.000000,1851.000000,1288.000000
1840.000000,1850.000000,1287.000000
1839.000000,1849.000000,1287.000000
1839.000000,1849.000000,1287.000000
1839.000000,1849.000000,1287.000000
1840.000000,1850.000000,1287.000000
1840.000000,1850.000000,1287.000000
1840.000000,1850.000000,1287.000000
1840.000000,1851.000000,1288.000000
1841.000000,1852.000000,1288.000000
1841.000000,1853.000000,1288.000000
1842.000000,1854.000000,1289.000000
1843.000000,1856.000000,1289.000000
1844.000000,1856.000000,1290.000000
1844.000000,1857.000000,1290.000000
1845.000000,1859.000000,1291.000000
1846.000000,1860.000000,1291.000000
1847.000000,1861.000000,1292.000000
1846.000000,1861.000000,1292.000000
1846.000000,1861.000000,1291.000000
1844.000000,1859.000000,1291.000000
1844.000000,1857.000000,1290.000000
1844.000000,1857.000000,1290.000000
1844.000000,1857.000000,1290.000000
1844.000000,1857.000000,1290.000000
1844.000000,1857.000000,1290.000000
1844.000000,1857.000000,1290.000000
1845.000000,1858.000000,1291.000000
1845.000000,1858.000000,1291.000000
1845.000000,1859.000000,1291.000000
1846.000000,1860.000000,1291.000000
1846.000000,1861.000000,1292.000000
1847.000000,1862.000000,1292.000000
1847.000000,1863.000000,1293.000000
1848.000000,1864.000000,1293.000000
1849.000000,1866.000000,1294.000000
1849.000000,1867.000000,1294.000000
1850.000000,1867.000000,1294.000000
1850.000000,1867.000000,1294.000000
1849.000000,1866.000000,1294.000000
1848.000000,1865.000000,1293.000000
1847.000000,1864.000000,1293.000000
1847.000000,1864.000000,1293.000000
1848.000000,1864.000000,1293.000000
1848.000000,1864.000000,1293.000000
1848.000000,1865.000000,1293.000000
1849.000000,1865.000000,1294.000000
1849.000000,1865.000000,1294.000000
1849.000000,1866.000000,1294.000000
1850.000000,1867.000000,1294.000000
1850.000000,1868.000000,1294.000000
1851.000000,1868.000000,1295.000000
1851.000000,1870.000000,1295.000000
1852.000000,1871.000000,1296.000000
1853.000000,1871.000000,1296.000000
1853.000000,1872.000000,1296.000000
1854.000000,1874.000000,1297.000000
1854.000000,1874.000000,1297.000000
1853.000000,1872.000000,1297.000000
1852.000000,1871.000000,1296.000000
1851.000000,1870.000000,1296.000000
1851.000000,1870.000000,1295.000000
1851.000000,1870.000000,1296.000000
1852.000000,1870.000000,1296.000000
1852.000000,1870.000000,1296.000000
1852.000000,1871.000000,1296.000000
1852.000000,1871.000000,1296.000000
1853.000000,1872.000000,1296.000000
1853.000000,1873.000000,1297.000000
1854.000000,1873.000000,1297.000000
1854.000000,1875.000000,1297.000000
1855.000000,1876.000000,1298.000000
1856.000000,1876.000000,1298.000000
1856.000000,1877.000000,1299.000000
1857.000000,1879.000000,1299.000000
1857.000000,1879.000000,1299.000000
1858.000000,1880.000000,1299.000000
1857.000000,1879.000000,1299.000000
1856.000000,1878.000000,1299.000000
1855.000000,1876.000000,1298.000000
1854.000000,1875.000000,1298.000000
1854.000000,1875.000000,1298.000000
1854.000000,1875.000000,1297.000000
1854.000000,1875.000000,1298.000000
1854.000000,1875.000000,1298.000000
1855.000000,1875.000000,1298.000000
1854.000000,1875.000000,1298.000000
1855.000000,1876.000000,1298.000000
1855.000000,1877.000000,1298.000000
1856.000000,1878.000000,1299.000000
1856.000000,1878.000000,1299.000000
1857.000000,1879.000000,1299.000000
1858.000000,1880.000000,1300.000000
1858.000000,1881.000000,1300.000000
1859.000000,1882.000000,1300.000000
1859.000000,1883.000000,1300.000000
1859.000000,1883.000000,1300.000000
1859.000000,1882.000000,1300.000000
1858.000000,1880.000000,1300.000000
1856.000000,1879.000000,1299.000000
1856.000000,1878.000000,1299.000000
1855.000000,1877.000000,1299.000000
1855.000000,1877.000000,1298.000000
1855.000000,1877.000000,1298.000000
1855.000000,1877.000000,1298.000000
1858.000000,1879.000000,1300.000000
1858.000000,1879.000000,1300.000000
1858.000000,1880.000000,1300.000000
1858.000000,1881.000000,1300.000000
1859.000000,1881.000000,1300.000000
1860.000000,1882.000000,1301.000000
1860.000000,1883.000000,1301.000000
1861.000000,1884.000000,1301.000000
1861.000000,1885.000000,1302.000000
1861.000000,1885.000000,1302.000000
1861.000000,1885.000000,1302.000000
1858.000000,1881.000000,1300.000000
1857.000000,1879.000000,1299.000000
1856.000000,1879.000000,1299.000000
1856.000000,1878.000000,1299.000000
1856.000000,1879.000000,1299.000000
1856.000000,1879.000000,1299.000000
1856.000000,1879.000000,1299.000000
1857.000000,1879.000000,1299.000000
1857.000000,1879.000000,1299.000000
1857.000000,1880.000000,1299.000000
1857.000000,1880.000000,1299.000000
1858.000000,1881.000000,1300.000000
1858.000000,1881.000000,1300.000000
1859.000000,1882.000000,1300.000000
1859.000000,1883.000000,1300.000000
1860.000000,1884.000000,1301.000000
1860.000000,1884.000000,1301.000000
1860.000000,1885.000000,1301.000000
1860.000000,1884.000000,1301.000000
1859.000000,1883.000000,1300.000000
1858.000000,1881.000000,1300.000000
1857.000000,1880.000000,1299.000000
1857.000000,1880.000000,1299.000000
1857.000000,1880.000000,1299.000000
1857.000000,1879.000000,1299.000000
1857.000000,1880.000000,1299.000000
1857.000000,1880.000000,1299.000000
1857.000000,1880.000000,1299.000000
1857.000000,1880.000000,1299.000000
1858.000000,1881.000000,1300.000000
1858.000000,1881.000000,1300.000000
1858.000000,1882.000000,1300.000000
1859.000000,1883.000000,1300.000000
1860.000000,1884.000000,1300.000000
1860.000000,1884.000000,1301.000000
1861.000000,1885.000000,1301.000000
1861.000000,1886.000000,1301.000000
1861.000000,1886.000000,1301.000000
1860.000000,1885.000000,1301.000000
1859.000000,1883.000000,1300.000000
1858.000000,1882.000000,1300.000000
1857.000000,1880.000000,1299.000000
1857.000000,1880.000000,1299.000000
1857.000000,1879.000000,1299.000000
1857.000000,1879.000000,1298.000000
1857.000000,1879.000000,1299.000000
1857.000000,1879.000000,1298.000000
1857.000000,1879.000000,1299.000000
1857.000000,1880.000000,1299.000000
1857.000000,1880.000000,1299.000000
1858.000000,1881.000000,1299.000000
1858.000000,1882.000000,1299.000000
1859.000000,1882.000000,1300.000000
1859.000000,1883.000000,1300.000000
1860.000000,1884.000000,1300.000000
1860.000000,1885.000000,1301.000000
1861.000000,1885.000000,1301.000000
1860.000000,1885.000000,1301.000000
1859.000000,1884.000000,1300.000000
1858.000000,1881.000000,1299.000000
1857.000000,1879.000000,1299.000000
1856.000000,1879.000000,1298.000000
1856.000000,1878.000000,1298.000000
1856.000000,1878.000000,1298.000000
1856.000000,1878.000000,1298.000000
1855.000000,1877.000000,1297.000000
1855.000000,1877.000000,1297.000000
1856.000000,1877.000000,1297.000000
1856.000000,1878.000000,1298.000000
1856.000000,1878.000000,1298.000000
1856.000000,1879.000000,1298.000000
1857.000000,1879.000000,1298.000000
1857.000000,1880.000000,1299.000000
1858.000000,1881.000000,1299.000000
1858.000000,1882.000000,1299.000000
1859.000000,1882.000000,1299.000000
1858.000000,1882.000000,1299.000000
1857.000000,1880.000000,1298.000000
1856.000000,1879.000000,1298.000000
1855.000000,1877.000000,1297.000000
1855.000000,1876.000000,1297.000000
1855.000000,1876.000000,1297.000000
1855.000000,1876.000000,1297.000000
1855.000000,1876.000000,1297.000000
1855.000000,1876.000000,1297.000000
1855.000000,1877.000000,1297.000000
1856.000000,1877.000000,1297.000000
1856.000000,1877.000000,1297.000000
1856.000000,1878.000000,1297.000000
1857.000000,1879.000000,1298.000000
1857.000000,1880.000000,1298.000000
1858.000000,1880.000000,1298.000000
1858.000000,1881.000000,1299.000000
1859.000000,1882.000000,1299.000000
1859.000000,1882.000000,1299.000000
1858.000000,1881.000000,1299.000000
1857.000000,1880.000000,1298.000000
1856.000000,1878.000000,1298.000000
1855.000000,1876.000000,1297.000000
1854.000000,1875.000000,1296.000000
1854.000000,1875.000000,1296.000000
1854.000000,1875.000000,1296.000000
1854.000000,1875.000000,1296.000000
1854.000000,1875.000000,1296.000000
1854.000000,1875.000000,1296.000000
1855.000000,1876.000000,1296.000000
1855.000000,1876.000000,1296.000000
1855.000000,1877.000000,1297.000000
1856.000000,1878.000000,1297.000000
1857.000000,1879.000000,1297.000000
1857.000000,1879.000000,1298.000000
1858.000000,1881.000000,1298.000000
1859.000000,1882.000000,1299.000000
1859.000000,1882.000000,1299.000000
1860.000000,1883.000000,1300.000000
1858.000000,1881.000000,1299.000000
1858.000000,1879.000000,1297.000000
1856.000000,1877.000000,1297.000000
1856.000000,1876.000000,1297.000000
1855.000000,1876.000000,1297.000000
1855.000000,1875.000000,1296.000000
1855.000000,1875.000000,1296.000000
1855.000000,1875.000000,1296.000000
1855.000000,1875.000000,1296.000000
1855.000000,1875.000000,1296.000000
1854.000000,1874.000000,1295.000000
1856.000000,1876.000000,1296.000000
1856.000000,1877.000000,1297.000000
1857.000000,1877.000000,1297.000000
1857.000000,1878.000000,1297.000000
1855.000000,1879.000000,1298.000000
1858.000000,1880.000000,1298.000000
1859.000000,1880.000000,1298.000000
1859.000000,1881.000000,1298.000000
1858.000000,1880.000000,1298.000000
1856.000000,1877.000000,1297.000000
1855.000000,1874.000000,1296.000000
1854.000000,1874.000000,1296.000000
1854.000000,1873.000000,1295.000000
1853.000000,1872.000000,1295.000000
1853.000000,1872.000000,1295.000000
1853.000000,1872.000000,1295.000000
1853.000000,1872.000000,1294.000000
1853.000000,1872.000000,1295.000000
1854.000000,1872.000000,1295.000000
1854.000000,1872.000000,1295.000000
1854.000000,1873.000000,1295.000000
1855.000000,1874.000000,1296.000000
1855.000000,1874.000000,1296.000000
1856.000000,1875.000000,1296.000000
1857.000000,1877.000000,1297.000000
1857.000000,1877.000000,1297.000000
1857.000000,1877.000000,1297.000000
1855.000000,1875.000000,1296.000000
1854.000000,1874.000000,1295.000000
1852.000000,1871.000000,1294.000000
1853.000000,1871.000000,1294.000000
1853.000000,1871.000000,1294.000000
1853.000000,1871.000000,1294.000000
1851.000000,1868.000000,1293.000000
1853.000000,1870.000000,1294.000000
1853.000000,1870.000000,1294.000000
1853.000000,1871.000000,1294.000000
1853.000000,1871.000000,1294.000000
1854.000000,1872.000000,1294.000000
1854.000000,1873.000000,1295.000000
1855.000000,1873.000000,1295.000000
1855.000000,1874.000000,1295.000000
1856.000000,1875.000000,1296.000000
1857.000000,1876.000000,1296.000000
1857.000000,1877.000000,1297.000000
1857.000000,1877.000000,1297.000000
1857.000000,1877.000000,1296.000000
1855.000000,1875.000000,1296.000000
1854.000000,1872.000000,1295.000000
1853.000000,1871.000000,1294.000000
1852.000000,1870.000000,1294.000000
1852.000000,1869.000000,1293.000000
1852.000000,1869.000000,1293.000000
1852.000000,1869.000000,1293.000000
1851.000000,1869.000000,1293.000000
1852.000000,1869.000000,1293.000000
1853.000000,1869.000000,1293.000000
1853.000000,1870.000000,1294.000000
1852.000000,1869.000000,1293.000000
1854.000000,1872.000000,1294.000000
1854.000000,1873.000000,1295.000000
1855.000000,1873.000000,1295.000000
1855.000000,1874.000000,1295.000000
1854.000000,1875.000000,1296.000000
1857.000000,1876.000000,1296.000000
1857.000000,1877.000000,1296.000000
1857.000000,1876.000000,1296.000000
1854.000000,1873.000000,1295.000000
1853.000000,1871.000000,1294.000000
1852.000000,1870.000000,1293.000000
1851.000000,1868.000000,1293.000000
1851.000000,1867.000000,1292.000000
1851.000000,1866.000000,1292.000000
1851.000000,1867.000000,1292.000000
1851.000000,1867.000000,1292.000000
1851.000000,1867.000000,1292.000000
1851.000000,1867.000000,1292.000000
1852.000000,1868.000000,1293.000000
1852.000000,1868.000000,1293.000000
1853.000000,1869.000000,1293.000000
1853.000000,1870.000000,1293.000000
1853.000000,1870.000000,1294.000000
1854.000000,1872.000000,1294.000000
1855.000000,1873.000000,1294.000000
1855.000000,1874.000000,1295.000000
1855.000000,1873.000000,1294.000000
1853.000000,1870.000000,1293.000000
1852.000000,1869.000000,1293.000000
1851.000000,1867.000000,1292.000000
1850.000000,1866.000000,1291.000000
1850.000000,1865.000000,1291.000000
1851.000000,1866.000000,1291.000000
1850.000000,1864.000000,1291.000000
1850.000000,1865.000000,1291.000000
1850.000000,1865.000000,1291.000000
1851.000000,1866.000000,1291.000000
1851.000000,1867.000000,1292.000000
1852.000000,1867.000000,1292.000000
1852.000000,1868.000000,1292.000000
1852.000000,1868.000000,1292.000000
1853.000000,1870.000000,1293.000000
1854.000000,1871.000000,1293.000000
1854.000000,1871.000000,1294.000000
1855.000000,1872.000000,1294.000000
1854.000000,1869.000000,1293.000000
1852.000000,1868.000000,1292.000000
1851.000000,1866.000000,1292.000000
1850.000000,1865.000000,1289.000000
1848.000000,1862.000000,1289.000000
1848.000000,1862.000000,1289.000000
1848.000000,1862.000000,1289.000000
1848.000000,1863.000000,1289.000000
1848.000000,1863.000000,1289.000000
1849.000000,1863.000000,1290.000000
1849.000000,1864.000000,1290.000000
1850.000000,1865.000000,1290.000000
1850.000000,1865.000000,1290.000000
1851.000000,1866.000000,1291.000000
1851.000000,1867.000000,1291.000000
1852.000000,1868.000000,1292.000000
1852.000000,1869.000000,1292.000000
1853.000000,1870.000000,1292.000000
1854.000000,1871.000000,1293.000000
1853.000000,1871.000000,1292.000000
1852.000000,1869.000000,1292.000000
1851.000000,1867.000000,1291.000000
1849.000000,1864.000000,1290.000000
1849.000000,1863.000000,1289.000000
1848.000000,1863.000000,1289.000000
1848.000000,1863.000000,1289.000000
1848.000000,1863.000000,1289.000000
1848.000000,1863.000000,1289.000000
1848.000000,1863.000000,1289.000000
1849.000000,1863.000000,1289.000000
1849.000000,1863.000000,1289.000000
1850.000000,1865.000000,1290.000000
1850.000000,1865.000000,1290.000000
1850.000000,1866.000000,1290.000000
1851.000000,1867.000000,1291.000000
1851.000000,1868.000000,1291.000000
1852.000000,1868.000000,1291.000000
1853.000000,1870.000000,1292.000000
1853.000000,1870.000000,1292.000000
1853.000000,1870.000000,1292.000000
1851.000000,1868.000000,1291.000000
1850.000000,1865.000000,1290.000000
1849.000000,1864.000000,1289.000000
1848.000000,1862.000000,1289.000000
1848.000000,1862.000000,1289.000000
1848.000000,1862.000000,1289.000000
1848.000000,1861.000000,1288.000000
1847.000000,1861.000000,1288.000000
1848.000000,1861.000000,1288.000000
1848.000000,1862.000000,1288.000000
1848.000000,1862.000000,1289.000000
1849.000000,1863.000000,1289.000000
1849.000000,1864.000000,1289.000000
1850.000000,1864.000000,1290.000000
1851.000000,1865.000000,1290.000000
1851.000000,1867.000000,1291.000000
1852.000000,1867.000000,1291.000000
1852.000000,1868.000000,1291.000000
1851.000000,1868.000000,1291.000000
1851.000000,1867.000000,1290.000000
1849.000000,1864.000000,1289.000000
1848.000000,1862.000000,1289.000000
1848.000000,1861.000000,1288.000000
1848.000000,1861.000000,1288.000000
1848.000000,1861.000000,1288.000000
1848.000000,1861.000000,1288.000000
1848.000000,1861.000000,1288.000000
1848.000000,1862.000000,1288.000000
1848.000000,1862.000000,1288.000000
1849.000000,1863.000000,1289.000000
1849.000000,1864.000000,1289.000000
1850.000000,1864.000000,1289.000000
1850.000000,1865.000000,1290.000000
1851.000000,1866.000000,1290.000000
1851.000000,1867.000000,1290.000000
1852.000000,1868.000000,1291.000000
1852.000000,1869.000000,1291.000000
1852.000000,1869.000000,1291.000000
1851.000000,1867.000000,1290.000000
1850.000000,1864.000000,1289.000000
1849.000000,1863.000000,1289.000000
1848.000000,1862.000000,1288.000000
1848.000000,1861.000000,1288.000000
1848.000000,1861.000000,1288.000000
1848.000000,1861.000000,1288.000000
1848.000000,1861.000000,1288.000000
1848.000000,1861.000000,1288.000000
1848.000000,1861.000000,1288.000000
1848.000000,1862.000000,1288.000000
1849.000000,1862.000000,1288.000000
1850.000000,1863.000000,1289.000000
1850.000000,1864.000000,1289.000000
1851.000000,1865.000000,1290.000000
1851.000000,1866.000000,1290.000000
1852.000000,1867.000000,1290.000000
1852.000000,1868.000000,1291.000000
1853.000000,1869.000000,1291.000000
1853.000000,1869.000000,1291.000000
1851.000000,1866.000000,1290.000000
1849.000000,1863.000000,1289.000000
1848.000000,1862.000000,1288.000000
1847.000000,1860.000000,1287.000000
1847.000000,1859.000000,1287.000000
1847.000000,1859.000000,1287.000000
1847.000000,1859.000000,1287.000000
1847.000000,1859.000000,1287.000000
1847.000000,1859.000000,1287.000000
1847.000000,1859.000000,1287.000000
1848.000000,1860.000000,1287.000000
1848.000000,1860.000000,1288.000000
1849.000000,1861.000000,1288.000000
1849.000000,1862.000000,1288.000000
1850.000000,1863.000000,1288.000000
1850.000000,1864.000000,1289.000000
1851.000000,1865.000000,1289.000000
1851.000000,1865.000000,1289.000000
1851.000000,1866.000000,1290.000000
1851.000000,1865.000000,1289.000000
1851.000000,1865.000000,1290.000000
1849.000000,1862.000000,1289.000000
1848.000000,1859.000000,1287.000000
1848.000000,1859.000000,1287.000000
1848.000000,1858.000000,1287.000000
1848.000000,1858.000000,1287.000000
1848.000000,1858.000000,1287.000000
1848.000000,1858.000000,1287.000000
1848.000000,1858.000000,1287.000000
1848.000000,1859.000000,1287.000000
1849.000000,1860.000000,1287.000000
1849.000000,1860.000000,1286.000000
1848.000000,1859.000000,1286.000000
1849.000000,1861.000000,1287.000000
1849.000000,1861.000000,1288.000000
1850.000000,1863.000000,1288.000000
1851.000000,1864.000000,1288.000000
1851.000000,1864.000000,1288.000000
1850.000000,1864.000000,1288.000000
1848.000000,1861.000000,1287.000000
1848.000000,1860.000000,1287.000000
1847.000000,1859.000000,1287.000000
1847.000000,1859.000000,1286.000000
1847.000000,1859.000000,1286.000000
1847.000000,1859.000000,1286.000000
1847.000000,1859.000000,1286.000000
1847.000000,1859.000000,1286.000000
1848.000000,1860.000000,1287.000000
1848.000000,1860.000000,1287.000000
1849.000000,1861.000000,1287.000000
1849.000000,1862.000000,1288.000000
1850.000000,1863.000000,1288.000000
1850.000000,1864.000000,1288.000000
1851.000000,1865.000000,1289.000000
1852.000000,1866.000000,1289.000000
1852.000000,1867.000000,1290.000000
1853.000000,1868.000000,1290.000000
1853.000000,1867.000000,1290.000000
1851.000000,1866.000000,1289.000000
1849.000000,1863.000000,1288.000000
1849.000000,1861.000000,1287.000000
1848.000000,1860.000000,1287.000000
1848.000000,1859.000000,1287.000000
1848.000000,1860.000000,1287.000000
1848.000000,1859.000000,1286.000000
1848.000000,1859.000000,1286.000000
1848.000000,1860.000000,1286.000000
1848.000000,1860.000000,1287.000000
1849.000000,1861.000000,1287.000000
1849.000000,1862.000000,1287.000000
1850.000000,1862.000000,1288.000000
1851.000000,1863.000000,1288.000000
1851.000000,1864.000000,1288.000000
1852.000000,1865.000000,1289.000000
1853.000000,1867.000000,1290.000000
1853.000000,1867.000000,1290.000000
1853.000000,1868.000000,1290.000000
1852.000000,1867.000000,1290.000000
1851.000000,1865.000000,1288.000000
1849.000000,1862.000000,1288.000000
1848.000000,1860.000000,1287.000000
1848.000000,1859.000000,1286.000000
1847.000000,1858.000000,1286.000000
1848.000000,1858.000000,1286.000000
1848.000000,1859.000000,1286.000000
1848.000000,1858.000000,1286.000000
1848.000000,1859.000000,1286.000000
1848.000000,1859.000000,1286.000000
1849.000000,1860.000000,1286.000000
1849.000000,1861.000000,1287.000000
1849.000000,1861.000000,1287.000000
1850.000000,1862.000000,1287.000000
1851.000000,1863.000000,1288.000000
1851.000000,1864.000000,1288.000000
1852.000000,1865.000000,1289.000000
1852.000000,1866.000000,1289.000000
1851.000000,1865.000000,1288.000000
1850.000000,1863.000000,1288.000000
1848.000000,1860.000000,1286.000000
1847.000000,1858.000000,1286.000000
1847.000000,1857.000000,1285.000000
1847.000000,1857.000000,1285.000000
1847.000000,1857.000000,1285.000000
1847.000000,1857.000000,1285.000000
1847.000000,1857.000000,1285.000000
1847.000000,1857.000000,1285.000000
1847.000000,1858.000000,1285.000000
1848.000000,1859.000000,1286.000000
1848.000000,1859.000000,1286.000000
1849.000000,1860.000000,1286.000000
1849.000000,1862.000000,1287.000000
1850.000000,1862.000000,1287.000000
1851.000000,1863.000000,1287.000000
1851.000000,1864.000000,1288.000000
1851.000000,1864.000000,1288.000000
1849.000000,1862.000000,1287.000000
1849.000000,1859.000000,1286.000000
1847.000000,1858.000000,1286.000000
1847.000000,1857.000000,1285.000000
1847.000000,1857.000000,1285.000000
1847.000000,1857.000000,1285.000000
1847.000000,1857.000000,1285.000000
1847.000000,1857.000000,1285.000000
1847.000000,1857.000000,1285.000000
1847.000000,1858.000000,1285.000000
1847.000000,1858.000000,1285.000000
1848.000000,1858.000000,1286.000000
1849.000000,1860.000000,1286.000000
1849.000000,1860.000000,1287.000000
1850.000000,1861.000000,1287.000000
1850.000000,1862.000000,1287.000000
1850.000000,1862.000000,1287.000000
1850.000000,1862.000000,1287.000000
1847.000000,1858.000000,1286.000000
1846.000000,1856.000000,1284.000000
1845.000000,1853.000000,1284.000000
1844.000000,1852.000000,1283.000000
1844.000000,1851.000000,1282.000000
1844.000000,1851.000000,1282.000000
1843.000000,1850.000000,1282.000000
1843.000000,1850.000000,1282.000000
1843.000000,1850.000000,1282.000000
1843.000000,1851.000000,1282.000000
1844.000000,1851.000000,1282.000000
1845.000000,1852.000000,1283.000000
1845.000000,1853.000000,1284.000000
1847.000000,1856.000000,1285.000000
1848.000000,1857.000000,1285.000000
1848.000000,1857.000000,1286.000000
1849.000000,1859.000000,1286.000000
1848.000000,1858.000000,1285.000000
1849.000000,1859.000000,1285.000000
1847.000000,1855.000000,1285.000000
1845.000000,1852.000000,1283.000000
1844.000000,1851.000000,1281.000000
1842.000000,1848.000000,1281.000000
1843.000000,1848.000000,1281.000000
1842.000000,1847.000000,1281.000000
1842.000000,1847.000000,1281.000000
1842.000000,1847.000000,1281.000000
1842.000000,1847.000000,1281.000000
1843.000000,1848.000000,1281.000000
1844.000000,1849.000000,1281.000000
1844.000000,1849.000000,1282.000000
1845.000000,1850.000000,1282.000000
1845.000000,1851.000000,1282.000000
1845.000000,1852.000000,1283.000000
1846.000000,1853.000000,1283.000000
1847.000000,1855.000000,1284.000000
1848.000000,1855.000000,1284.000000
1847.000000,1856.000000,1284.000000
1846.000000,1853.000000,1283.000000
1844.000000,1851.000000,1283.000000
1843.000000,1848.000000,1281.000000
1842.000000,1846.000000,1280.000000
1841.000000,1845.000000,1280.000000
1841.000000,1845.000000,1280.000000
1841.000000,1845.000000,1280.000000
1841.000000,1845.000000,1280.000000
1840.000000,1843.000000,1278.000000
1841.000000,1845.000000,1280.000000
1842.000000,1846.000000,1280.000000
1842.000000,1847.000000,1281.000000
1843.000000,1848.000000,1281.000000
1842.000000,1847.000000,1280.000000
1844.000000,1850.000000,1282.000000
1845.000000,1852.000000,1282.000000
1846.000000,1852.000000,1283.000000
1847.000000,1854.000000,1283.000000
1847.000000,1855.000000,1284.000000
1846.000000,1854.000000,1284.000000
1844.000000,1851.000000,1283.000000
1843.000000,1848.000000,1281.000000
1842.000000,1847.000000,1280.000000
1842.000000,1846.000000,1280.000000
1842.000000,1846.000000,1280.000000
1842.000000,1846.000000,1280.000000
1842.000000,1846.000000,1280.000000
1842.000000,1846.000000,1280.000000
1842.000000,1846.000000,1280.000000
1842.000000,1847.000000,1280.000000
1843.000000,1847.000000,1281.000000
1843.000000,1848.000000,1281.000000
1844.000000,1850.000000,1282.000000
1845.000000,1850.000000,1282.000000
1845.000000,1852.000000,1282.000000
1846.000000,1853.000000,1283.000000
1847.000000,1854.000000,1284.000000
1847.000000,1855.000000,1284.000000
1847.000000,1855.000000,1284.000000
1846.000000,1854.000000,1283.000000
1844.000000,1850.000000,1282.000000
1844.000000,1849.000000,1282.000000
1843.000000,1849.000000,1280.000000
1843.000000,1848.000000,1281.000000
1844.000000,1849.000000,1281.000000
1844.000000,1849.000000,1281.000000
1844.000000,1850.000000,1282.000000
1844.000000,1850.000000,1282.000000
1845.000000,1850.000000,1282.000000
1845.000000,1851.000000,1282.000000
1846.000000,1853.000000,1283.000000
1846.000000,1853.000000,1283.000000
1847.000000,1855.000000,1284.000000
1848.000000,1856.000000,1284.000000
1849.000000,1857.000000,1285.000000
1850.000000,1858.000000,1285.000000
1850.000000,1859.000000,1285.000000
1849.000000,1858.000000,1285.000000
1846.000000,1854.000000,1283.000000
1846.000000,1852.000000,1283.000000
1845.000000,1852.000000,1283.000000
1845.000000,1851.000000,1282.000000
1845.000000,1851.000000,1282.000000
1845.000000,1851.000000,1282.000000
1845.000000,1851.000000,1282.000000
1845.000000,1852.000000,1282.000000
1846.000000,1852.000000,1282.000000
1844.000000,1851.000000,1281.000000
1846.000000,1854.000000,1283.000000
1847.000000,1855.000000,1283.000000
1848.000000,1856.000000,1284.000000
1849.000000,1857.000000,1285.000000
1847.000000,1856.000000,1284.000000
1850.000000,1859.000000,1286.000000
1851.000000,1860.000000,1286.000000
1851.000000,1861.000000,1286.000000
1850.000000,1859.000000,1285.000000
1849.000000,1858.000000,1285.000000
1847.000000,1855.000000,1284.000000
1846.000000,1853.000000,1283.000000
1846.000000,1852.000000,1283.000000
1846.000000,1852.000000,1283.000000
1846.000000,1852.000000,1282.000000
1846.000000,1852.000000,1282.000000
1846.000000,1852.000000,1282.000000
1845.000000,1852.000000,1282.000000
1846.000000,1853.000000,1283.000000
1847.000000,1854.000000,1283.000000
1848.000000,1855.000000,1284.000000
1848.000000,1856.000000,1284.000000
1849.000000,1857.000000,1284.000000
1849.000000,1858.000000,1285.000000
1850.000000,1859.000000,1285.000000
1851.000000,1860.000000,1285.000000
1850.000000,1857.000000,1284.000000
1846.000000,1855.000000,1283.000000
1844.000000,1851.000000,1282.000000
1843.000000,1849.000000,1281.000000
1843.000000,1848.000000,1280.000000
1842.000000,1848.000000,1280.000000
1842.000000,1847.000000,1280.000000
1842.000000,1847.000000,1280.000000
1842.000000,1847.000000,1280.000000
1842.000000,1847.000000,1280.000000
1843.000000,1848.000000,1280.000000
1843.000000,1849.000000,1280.000000
1844.000000,1849.000000,1280.000000
1844.000000,1850.000000,1281.000000
1845.000000,1851.000000,1281.000000
1845.000000,1851.000000,1281.000000
1846.000000,1852.000000,1282.000000
1846.000000,1854.000000,1282.000000
1846.000000,1854.000000,1282.000000
1845.000000,1852.000000,1281.000000
1842.000000,1848.000000,1280.000000
1842.000000,1847.000000,1279.000000
1841.000000,1845.000000,1279.000000
1841.000000,1844.000000,1278.000000
1841.000000,1844.000000,1278.000000
1841.000000,1844.000000,1278.000000
1840.000000,1844.000000,1278.000000
1840.000000,1844.000000,1278.000000
1841.000000,1844.000000,1278.000000
1841.000000,1845.000000,1278.000000
1841.000000,1845.000000,1278.000000
1841.000000,1846.000000,1279.000000
1842.000000,1847.000000,1279.000000
1843.000000,1847.000000,1279.000000
1843.000000,1848.000000,1280.000000
1843.000000,1849.000000,1280.000000
1843.000000,1849.000000,1280.000000
1841.000000,1846.000000,1279.000000
1840.000000,1842.000000,1277.000000
1838.000000,1841.000000,1277.000000
1837.000000,1839.000000,1276.000000
1837.000000,1838.000000,1275.000000
1837.000000,1838.000000,1275.000000
1837.000000,1837.000000,1275.000000
1836.000000,1837.000000,1275.000000
1837.000000,1837.000000,1275.000000
1837.000000,1838.000000,1275.000000
1837.000000,1838.000000,1275.000000
1838.000000,1839.000000,1275.000000
1838.000000,1840.000000,1276.000000
1838.000000,1841.000000,1276.000000
1839.000000,1842.000000,1277.000000
1840.000000,1843.000000,1277.000000
1840.000000,1843.000000,1278.000000
1840.000000,1844.000000,1278.000000
1839.000000,1842.000000,1277.000000
1837.000000,1840.000000,1275.000000
1835.000000,1835.000000,1274.000000
1834.000000,1833.000000,1273.000000
1833.000000,1831.000000,1272.000000
1833.000000,1830.000000,1272.000000
1833.000000,1830.000000,1271.000000
1832.000000,1830.000000,1271.000000
1832.000000,1829.000000,1271.000000
1832.000000,1829.000000,1271.000000
1832.000000,1829.000000,1271.000000
1832.000000,1830.000000,1271.000000
1833.000000,1831.000000,1272.000000
1834.000000,1831.000000,1272.000000
1834.000000,1833.000000,1272.000000
1835.000000,1834.000000,1273.000000
1835.000000,1834.000000,1274.000000
1836.000000,1836.000000,1274.000000
1836.000000,1837.000000,1274.000000
1835.000000,1836.000000,1273.000000
1833.000000,1832.000000,1272.000000
1831.000000,1828.000000,1271.000000
1831.000000,1827.000000,1270.000000
1830.000000,1826.000000,1270.000000
1831.000000,1826.000000,1270.000000
1831.000000,1826.000000,1270.000000
1831.000000,1827.000000,1270.000000
1831.000000,1827.000000,1270.000000
1831.000000,1827.000000,1270.000000
1832.000000,1828.000000,1270.000000
1832.000000,1830.000000,1271.000000
1833.000000,1830.000000,1271.000000
1834.000000,1831.000000,1272.000000
1834.000000,1833.000000,1273.000000
1835.000000,1834.000000,1273.000000
1836.000000,1836.000000,1274.000000
1837.000000,1837.000000,1274.000000
1838.000000,1838.000000,1275.000000
1837.000000,1838.000000,1275.000000
1836.000000,1835.000000,1273.000000
1834.000000,1834.000000,1273.000000
1833.000000,1831.000000,1272.000000
1833.000000,1831.000000,1272.000000
1833.000000,1831.000000,1272.000000
1833.000000,1831.000000,1272.000000
1833.000000,1831.000000,1272.000000
1833.000000,1831.000000,1272.000000
1834.000000,1832.000000,1272.000000
1834.000000,1832.000000,1272.000000
1835.000000,1834.000000,1273.000000
1836.000000,1835.000000,1273.000000
1836.000000,1835.000000,1274.000000
1836.000000,1837.000000,1274.000000
1837.000000,1838.000000,1275.000000
1838.000000,1839.000000,1275.000000
1839.000000,1840.000000,1276.000000
1838.000000,1840.000000,1276.000000
1838.000000,1839.000000,1275.000000
1836.000000,1837.000000,1274.000000
1836.000000,1836.000000,1274.000000
1837.000000,1837.000000,1275.000000
1838.000000,1838.000000,1275.000000
1837.000000,1837.000000,1274.000000
1837.000000,1837.000000,1274.000000
1837.000000,1838.000000,1275.000000
1838.000000,1839.000000,1275.000000
1838.000000,1839.000000,1275.000000
1839.000000,1840.000000,1276.000000
1839.000000,1842.000000,1276.000000
1840.000000,1842.000000,1276.000000
1841.000000,1844.000000,1277.000000
1842.000000,1846.000000,1278.000000
1843.000000,1846.000000,1278.000000
1844.000000,1848.000000,1279.000000
1844.000000,1849.000000,1279.000000
1844.000000,1849.000000,1279.000000
1843.000000,1847.000000,1279.000000
1842.000000,1847.000000,1279.000000
1842.000000,1846.000000,1278.000000
1842.000000,1846.000000,1279.000000
1842.000000,1847.000000,1279.000000
1843.000000,1847.000000,1279.000000
1843.000000,1848.000000,1279.000000
1843.000000,1849.000000,1279.000000
1844.000000,1849.000000,1280.000000
1844.000000,1850.000000,1280.000000
1845.000000,1850.000000,1280.000000
1846.000000,1852.000000,1281.000000
1846.000000,1853.000000,1281.000000
1847.000000,1853.000000,1282.000000
1848.000000,1855.000000,1282.000000
1848.000000,1856.000000,1283.000000
1849.000000,1856.000000,1283.000000
1849.000000,1857.000000,1283.000000
1848.000000,1857.000000,1283.000000
1848.000000,1856.000000,1282.000000
1847.000000,1854.000000,1282.000000
1846.000000,1854.000000,1282.000000
1846.000000,1853.000000,1282.000000
1846.000000,1853.000000,1281.000000
1847.000000,1854.000000,1282.000000
1847.000000,1855.000000,1282.000000
1847.000000,1855.000000,1282.000000
1848.000000,1856.000000,1282.000000
1848.000000,1856.000000,1283.000000
1849.000000,1857.000000,1283.000000
1849.000000,1858.000000,1283.000000
1850.000000,1858.000000,1284.000000
1850.000000,1859.000000,1284.000000
1851.000000,1860.000000,1284.000000
1851.000000,1861.000000,1285.000000
1852.000000,1862.000000,1285.000000
1852.000000,1863.000000,1285.000000
1851.000000,1862.000000,1285.000000
1850.000000,1859.000000,1284.000000
1849.000000,1858.000000,1283.000000
1848.000000,1857.000000,1283.000000
1848.000000,1857.000000,1283.000000
1848.000000,1857.000000,1283.000000
1849.000000,1857.000000,1283.000000
1849.000000,1857.000000,1283.000000
1849.000000,1858.000000,1283.000000
1849.000000,1858.000000,1283.000000
1850.000000,1859.000000,1284.000000
1850.000000,1860.000000,1284.000000
1851.000000,1860.000000,1284.000000
1851.000000,1861.000000,1285.000000
1852.000000,1862.000000,1285.000000
1852.000000,1863.000000,1285.000000
1853.000000,1864.000000,1286.000000
1853.000000,1864.000000,1286.000000
1853.000000,1864.000000,1286.000000
1851.000000,1862.000000,1285.000000
1851.000000,1860.000000,1284.000000
1850.000000,1859.000000,1284.000000
1850.000000,1859.000000,1284.000000
1850.000000,1859.000000,1284.000000
1850.000000,1859.000000,1284.000000
1850.000000,1860.000000,1284.000000
1851.000000,1860.000000,1284.000000
1851.000000,1860.000000,1284.000000
1851.000000,1861.000000,1285.000000
1852.000000,1862.000000,1285.000000
1852.000000,1863.000000,1285.000000
1853.000000,1864.000000,1286.000000
1854.000000,1865.000000,1286.000000
1854.000000,1865.000000,1286.000000
1855.000000,1867.000000,1287.000000
1855.000000,1867.000000,1287.000000
1855.000000,1868.000000,1287.000000
1854.000000,1866.000000,1287.000000
1853.000000,1865.000000,1286.000000
1852.000000,1863.000000,1286.000000
1851.000000,1861.000000,1285.000000
1851.000000,1860.000000,1284.000000
1851.000000,1860.000000,1284.000000
1851.000000,1860.000000,1284.000000
1851.000000,1860.000000,1284.000000
1851.000000,1860.000000,1284.000000
1851.000000,1861.000000,1285.000000
1851.000000,1861.000000,1285.000000
1852.000000,1862.000000,1285.000000
1852.000000,1863.000000,1285.000000
1853.000000,1864.000000,1286.000000
1854.000000,1865.000000,1286.000000
1854.000000,1866.000000,1287.000000
1855.000000,1867.000000,1287.000000
1856.000000,1868.000000,1287.000000
1856.000000,1869.000000,1288.000000
1856.000000,1868.000000,1288.000000
1854.000000,1866.000000,1287.000000
1853.000000,1863.000000,1285.000000
1851.000000,1862.000000,1285.000000
1851.000000,1860.000000,1284.000000
1850.000000,1860.000000,1284.000000
1850.000000,1859.000000,1284.000000
1851.000000,1860.000000,1284.000000
1852.000000,1862.000000,1285.000000
1853.000000,1862.000000,1285.000000
1853.000000,1862.000000,1285.000000
1853.000000,1863.000000,1286.000000
1854.000000,1864.000000,1286.000000
1853.000000,1863.000000,1285.000000
1855.000000,1865.000000,1287.000000
1856.000000,1867.000000,1287.000000
1856.000000,1868.000000,1288.000000
1857.000000,1868.000000,1288.000000
1855.000000,1867.000000,1287.000000
1854.000000,1866.000000,1286.000000
1853.000000,1864.000000,1285.000000
1852.000000,1862.000000,1285.000000
1851.000000,1860.000000,1284.000000
1851.000000,1860.000000,1284.000000
1851.000000,1860.000000,1284.000000
1851.000000,1860.000000,1284.000000
1851.000000,1860.000000,1284.000000
1851.000000,1860.000000,1284.000000
1852.000000,1861.000000,1284.000000
1852.000000,1861.000000,1285.000000
1853.000000,1862.000000,1285.000000
1854.000000,1864.000000,1286.000000
1854.000000,1864.000000,1286.000000
1854.000000,1865.000000,1286.000000
1855.000000,1867.000000,1287.000000
1856.000000,1867.000000,1287.000000
1856.000000,1868.000000,1287.000000
1856.000000,1869.000000,1287.000000
1856.000000,1868.000000,1287.000000
1854.000000,1866.000000,1286.000000
1853.000000,1864.000000,1286.000000
1853.000000,1863.000000,1285.000000
1852.000000,1863.000000,1285.000000
1852.000000,1863.000000,1285.000000
1853.000000,1863.000000,1285.000000
1853.000000,1864.000000,1286.000000
1853.000000,1864.000000,1285.000000
1853.000000,1864.000000,1285.000000
1854.000000,1865.000000,1286.000000
1854.000000,1866.000000,1286.000000
1855.000000,1866.000000,1287.000000
1856.000000,1868.000000,1287.000000
1856.000000,1869.000000,1288.000000
1857.000000,1869.000000,1288.000000
1858.000000,1870.000000,1288.000000
1858.000000,1872.000000,1289.000000
1859.000000,1872.000000,1289.000000
1859.000000,1872.000000,1289.000000
1858.000000,1872.000000,1288.000000
1856.000000,1869.000000,1288.000000
1855.000000,1867.000000,1287.000000
1855.000000,1866.000000,1287.000000
1854.000000,1866.000000,1286.000000
1854.000000,1866.000000,1286.000000
1854.000000,1866.000000,1286.000000
1855.000000,1866.000000,1286.000000
1855.000000,1867.000000,1287.000000
1855.000000,1867.000000,1287.000000
1855.000000,1867.000000,1287.000000
1856.000000,1868.000000,1287.000000
1857.000000,1869.000000,1288.000000
1857.000000,1870.000000,1288.000000
1858.000000,1871.000000,1288.000000
1858.000000,1871.000000,1289.000000
1859.000000,1873.000000,1289.000000
1860.000000,1874.000000,1290.000000
1860.000000,1874.000000,1290.000000
1860.000000,1875.000000,1290.000000
1859.000000,1873.000000,1289.000000
1858.000000,1872.000000,1289.000000
1857.000000,1870.000000,1288.000000
1856.000000,1869.000000,1288.000000
1856.000000,1869.000000,1288.000000
1856.000000,1869.000000,1287.000000
1856.000000,1869.000000,1288.000000
1856.000000,1869.000000,1288.000000
1857.000000,1869.000000,1288.000000
1857.000000,1870.000000,1288.000000
1857.000000,1870.000000,1288.000000
1858.000000,1871.000000,1288.000000
1858.000000,1872.000000,1289.000000
1859.000000,1872.000000,1289.000000
1859.000000,1873.000000,1289.000000
1860.000000,1874.000000,1290.000000
1860.000000,1875.000000,1290.000000
1861.000000,1876.000000,1290.000000
1861.000000,1876.000000,1290.000000
1860.000000,1876.000000,1290.000000
1859.000000,1873.000000,1289.000000
1858.000000,1872.000000,1289.000000
1857.000000,1871.000000,1289.000000
1857.000000,1870.000000,1288.000000
1857.000000,1870.000000,1288.000000
1858.000000,1871.000000,1288.000000
1858.000000,1871.000000,1288.000000
1858.000000,1871.000000,1289.000000
1858.000000,1872.000000,1289.000000
1859.000000,1872.000000,1289.000000
1859.000000,1873.000000,1289.000000
1860.000000,1874.000000,1289.000000
1860.000000,1875.000000,1290.000000
1861.000000,1876.000000,1290.000000
1861.000000,1877.000000,1291.000000
1862.000000,1878.000000,1291.000000
1863.000000,1878.000000,1291.000000
1863.000000,1879.000000,1292.000000
1861.000000,1878.000000,1291.000000
1860.000000,1876.000000,1290.000000
1859.000000,1874.000000,1290.000000
1858.000000,1873.000000,1289.000000
1858.000000,1872.000000,1289.000000
1859.000000,1873.000000,1289.000000
1859.000000,1873.000000,1289.000000
1859.000000,1873.000000,1289.000000
1859.000000,1873.000000,1289.000000
1860.000000,1874.000000,1289.000000
1860.000000,1874.000000,1290.000000
1861.000000,1875.000000,1290.000000
1861.000000,1876.000000,1291.000000
1862.000000,1877.000000,1291.000000
1862.000000,1878.000000,1291.000000
1863.000000,1879.000000,1291.000000
1864.000000,1880.000000,1292.000000
1867.000000,1883.000000,1294.000000
1867.000000,1884.000000,1294.000000
1866.000000,1883.000000,1294.000000
1864.000000,1881.000000,1293.000000
1861.000000,1878.000000,1291.000000
1863.000000,1878.000000,1292.000000
1863.000000,1878.000000,1292.000000
1863.000000,1878.000000,1292.000000
1863.000000,1878.000000,1292.000000
1863.000000,1879.000000,1292.000000
1863.000000,1879.000000,1292.000000
1864.000000,1879.000000,1292.000000
1863.000000,1880.000000,1292.000000
1865.000000,1880.000000,1292.000000
1865.000000,1881.000000,1293.000000
1866.000000,1882.000000,1293.000000
1866.000000,1883.000000,1294.000000
1867.000000,1884.000000,1294.000000
1867.000000,1885.000000,1294.000000
1868.000000,1886.000000,1295.000000
1869.000000,1887.000000,1295.000000
1868.000000,1887.000000,1295.000000
1868.000000,1886.000000,1295.000000
1866.000000,1884.000000,1294.000000
1866.000000,1882.000000,1294.000000
1865.000000,1882.000000,1293.000000
1865.000000,1881.000000,1293.000000
1865.000000,1879.000000,1292.000000
1865.000000,1881.000000,1293.000000
1865.000000,1882.000000,1293.000000
1865.000000,1882.000000,1293.000000
1866.000000,1882.000000,1293.000000
1866.000000,1883.000000,1294.000000
1866.000000,1883.000000,1293.000000
1867.000000,1884.000000,1294.000000
1867.000000,1885.000000,1294.000000
1867.000000,1885.000000,1295.000000
1868.000000,1886.000000,1295.000000
1869.000000,1887.000000,1295.000000
1869.000000,1887.000000,1296.000000
1870.000000,1888.000000,1296.000000
1868.000000,1887.000000,1295.000000
1868.000000,1886.000000,1294.000000
1867.000000,1884.000000,1294.000000
1866.000000,1883.000000,1294.000000
1866.000000,1883.000000,1294.000000
1866.000000,1883.000000,1294.000000
1867.000000,1883.000000,1294.000000
1866.000000,1883.000000,1294.000000
1867.000000,1884.000000,1294.000000
1867.000000,1884.000000,1294.000000
1868.000000,1885.000000,1294.000000
1868.000000,1885.000000,1295.000000
1868.000000,1886.000000,1295.000000
1869.000000,1887.000000,1295.000000
1869.000000,1888.000000,1295.000000
1869.000000,1888.000000,1295.000000
1868.000000,1887.000000,1295.000000
1871.000000,1890.000000,1296.000000
1871.000000,1890.000000,1296.000000
1870.000000,1889.000000,1296.000000
1868.000000,1887.000000,1295.000000
1867.000000,1884.000000,1294.000000
1866.000000,1883.000000,1293.000000
1867.000000,1884.000000,1294.000000
1867.000000,1884.000000,1294.000000
1866.000000,1883.000000,1293.000000
1867.000000,1884.000000,1294.000000
1867.000000,1884.000000,1294.000000
1867.000000,1884.000000,1294.000000
1867.000000,1884.000000,1294.000000
1867.000000,1885.000000,1294.000000
1868.000000,1885.000000,1294.000000
1868.000000,1885.000000,1294.000000
1868.000000,1886.000000,1295.000000
1868.000000,1886.000000,1295.000000
1869.000000,1887.000000,1295.000000
1869.000000,1888.000000,1295.000000
1870.000000,1888.000000,1295.000000
1868.000000,1887.000000,1295.000000
1867.000000,1885.000000,1294.000000
1866.000000,1882.000000,1293.000000
1865.000000,1881.000000,1293.000000
1865.000000,1881.000000,1292.000000
1864.000000,1880.000000,1292.000000
1865.000000,1881.000000,1293.000000
1865.000000,1880.000000,1291.000000
1865.000000,1880.000000,1292.000000
1865.000000,1880.000000,1292.000000
1865.000000,1881.000000,1293.000000
1866.000000,1882.000000,1293.000000
1867.000000,1883.000000,1293.000000
1865.000000,1881.000000,1293.000000
1867.000000,1883.000000,1293.000000
1868.000000,1885.000000,1294.000000
1868.000000,1885.000000,1294.000000
1869.000000,1886.000000,1295.000000
1868.000000,1886.000000,1294.000000
1868.000000,1885.000000,1294.000000
1866.000000,1882.000000,1293.000000
1865.000000,1880.000000,1292.000000
1864.000000,1880.000000,1292.000000
1864.000000,1879.000000,1291.000000
1864.000000,1879.000000,1292.000000
1864.000000,1879.000000,1292.000000
1864.000000,1879.000000,1292.000000
1864.000000,1879.000000,1292.000000
1865.000000,1880.000000,1292.000000
1865.000000,1880.000000,1292.000000
1865.000000,1881.000000,1292.000000
1865.000000,1881.000000,1292.000000
1866.000000,1881.000000,1292.000000
1867.000000,1883.000000,1293.000000
1867.000000,1883.000000,1293.000000
1868.000000,1884.000000,1293.000000
1868.000000,1884.000000,1293.000000
1866.000000,1883.000000,1293.000000
1866.000000,1882.000000,1292.000000
1864.000000,1880.000000,1292.000000
1864.000000,1879.000000,1291.000000
1864.000000,1878.000000,1291.000000
1862.000000,1876.000000,1290.000000
1864.000000,1879.000000,1291.000000
1864.000000,1879.000000,1291.000000
1864.000000,1879.000000,1291.000000
1865.000000,1879.000000,1291.000000
1865.000000,1880.000000,1292.000000
1865.000000,1880.000000,1292.000000
1866.000000,1881.000000,1292.000000
1865.000000,1880.000000,1291.000000
1865.000000,1880.000000,1291.000000
1865.000000,1881.000000,1292.000000
1866.000000,1883.000000,1292.000000
1866.000000,1882.000000,1292.000000
1864.000000,1881.000000,1291.000000
1863.000000,1878.000000,1290.000000
1862.000000,1877.000000,1290.000000
1861.000000,1876.000000,1289.000000
1861.000000,1875.000000,1289.000000
1862.000000,1876.000000,1289.000000
1862.000000,1875.000000,1289.000000
1861.000000,1875.000000,1289.000000
1862.000000,1875.000000,1289.000000
1862.000000,1876.000000,1289.000000
1862.000000,1876.000000,1290.000000
1862.000000,1877.000000,1290.000000
1863.000000,1878.000000,1290.000000
1863.000000,1878.000000,1290.000000
1864.000000,1879.000000,1291.000000
1864.000000,1880.000000,1291.000000
1865.000000,1880.000000,1291.000000
1865.000000,1881.000000,1291.000000
1864.000000,1879.000000,1291.000000
1862.000000,1877.000000,1289.000000
1859.000000,1873.000000,1288.000000
1858.000000,1869.000000,1287.000000
1857.000000,1868.000000,1286.000000
1856.000000,1866.000000,1285.000000
1856.000000,1865.000000,1285.000000
1855.000000,1865.000000,1284.000000
1855.000000,1864.000000,1284.000000
1854.000000,1863.000000,1284.000000
1854.000000,1863.000000,1284.000000
1854.000000,1863.000000,1283.000000
1854.000000,1863.000000,1284.000000
1855.000000,1863.000000,1284.000000
1855.000000,1864.000000,1284.000000
1855.000000,1864.000000,1284.000000
1855.000000,1865.000000,1284.000000
1856.000000,1866.000000,1285.000000
1857.000000,1867.000000,1285.000000
1857.000000,1867.000000,1285.000000
1855.000000,1865.000000,1284.000000
1852.000000,1860.000000,1282.000000
1851.000000,1858.000000,1282.000000
1850.000000,1855.000000,1280.000000
1849.000000,1854.000000,1280.000000
1849.000000,1853.000000,1279.000000
1848.000000,1853.000000,1279.000000
1848.000000,1851.000000,1278.000000
1847.000000,1851.000000,1278.000000
1846.000000,1850.000000,1278.000000
1847.000000,1849.000000,1278.000000
1846.000000,1849.000000,1277.000000
1847.000000,1849.000000,1278.000000
1847.000000,1850.000000,1278.000000
1847.000000,1850.000000,1278.000000
1848.000000,1851.000000,1278.000000
1848.000000,1851.000000,1278.000000
1848.000000,1852.000000,1278.000000
1848.000000,1852.000000,1278.000000
1848.000000,1850.000000,1278.000000
1846.000000,1848.000000,1277.000000
1843.000000,1844.000000,1275.000000
1842.000000,1841.000000,1274.000000
1841.000000,1840.000000,1273.000000
1841.000000,1839.000000,1273.000000
1840.000000,1839.000000,1273.000000
1840.000000,1838.000000,1272.000000
1840.000000,1838.000000,1272.000000
1840.000000,1838.000000,1272.000000
1840.000000,1839.000000,1272.000000
1841.000000,1839.000000,1273.000000
1841.000000,1839.000000,1273.000000
1842.000000,1840.000000,1273.000000
1842.000000,1842.000000,1274.000000
1843.000000,1842.000000,1274.000000
1843.000000,1844.000000,1275.000000
1844.000000,1844.000000,1275.000000
1844.000000,1844.000000,1274.000000
1841.000000,1841.000000,1274.000000
1839.000000,1837.000000,1272.000000
1838.000000,1835.000000,1271.000000
1837.000000,1833.000000,1270.000000
1838.000000,1833.000000,1270.000000
1838.000000,1833.000000,1270.000000
1838.000000,1834.000000,1270.000000
1839.000000,1835.000000,1271.000000
1839.000000,1835.000000,1271.000000
1839.000000,1836.000000,1271.000000
1838.000000,1834.000000,1271.000000
1838.000000,1834.000000,1270.000000
1837.000000,1833.000000,1270.000000
1838.000000,1833.000000,1270.000000
1838.000000,1833.000000,1270.000000
1838.000000,1834.000000,1271.000000
1839.000000,1835.000000,1271.000000
1839.000000,1836.000000,1271.000000
1839.000000,1835.000000,1271.000000
1838.000000,1835.000000,1271.000000
1838.000000,1835.000000,1271.000000
1839.000000,1835.000000,1271.000000
1839.000000,1836.000000,1271.000000
1840.000000,1837.000000,1271.000000
1840.000000,1838.000000,1272.000000
1840.000000,1839.000000,1272.000000
1841.000000,1839.000000,1273.000000
1842.000000,1841.000000,1273.000000
1843.000000,1842.000000,1274.000000
1843.000000,1843.000000,1274.000000
1844.000000,1844.000000,1275.000000
1845.000000,1846.000000,1275.000000
1846.000000,1847.000000,1276.000000
1848.000000,1850.000000,1278.000000
1848.000000,1849.000000,1277.000000
1847.000000,1848.000000,1277.000000
1845.000000,1845.000000,1276.000000
1845.000000,1844.000000,1275.000000
1844.000000,1843.000000,1275.000000
1845.000000,1844.000000,1275.000000
1845.000000,1844.000000,1275.000000
1845.000000,1844.000000,1275.000000
1845.000000,1844.000000,1275.000000
1845.000000,1844.000000,1275.000000
1845.000000,1845.000000,1275.000000
1846.000000,1846.000000,1276.000000
1846.000000,1846.000000,1276.000000
1847.000000,1847.000000,1277.000000
1848.000000,1849.000000,1277.000000
1848.000000,1849.000000,1278.000000
1848.000000,1849.000000,1277.000000
1846.000000,1846.000000,1276.000000
1844.000000,1843.000000,1273.000000
1843.000000,1841.000000,1274.000000
1842.000000,1839.000000,1273.000000
1842.000000,1839.000000,1273.000000
1842.000000,1839.000000,1273.000000
1843.000000,1839.000000,1273.000000
1841.000000,1838.000000,1273.000000
1843.000000,1840.000000,1273.000000
1843.000000,1840.000000,1273.000000
1843.000000,1840.000000,1274.000000
1844.000000,1841.000000,1274.000000
1845.000000,1842.000000,1274.000000
1845.000000,1843.000000,1275.000000
1845.000000,1844.000000,1275.000000
1845.000000,1844.000000,1275.000000
1844.000000,1842.000000,1274.000000
1841.000000,1837.000000,1272.000000
1839.000000,1833.000000,1270.000000
1838.000000,1832.000000,1270.000000
1838.000000,1830.000000,1269.000000
1837.000000,1830.000000,1268.000000
1837.000000,1830.000000,1268.000000
1837.000000,1829.000000,1268.000000
1837.000000,1829.000000,1268.000000
1837.000000,1829.000000,1268.000000
1837.000000,1829.000000,1268.000000
1837.000000,1830.000000,1269.000000
1838.000000,1831.000000,1269.000000
1839.000000,1832.000000,1269.000000
1838.000000,1832.000000,1269.000000
1838.000000,1832.000000,1269.000000
1840.000000,1834.000000,1270.000000
1839.000000,1829.000000,1268.000000
1835.000000,1826.000000,1267.000000
1832.000000,1821.000000,1265.000000
1831.000000,1815.000000,1261.000000
1830.000000,1816.000000,1262.000000
1830.000000,1815.000000,1262.000000
1829.000000,1815.000000,1262.000000
1829.000000,1814.000000,1261.000000
1829.000000,1814.000000,1261.000000
1829.000000,1814.000000,1261.000000
1829.000000,1814.000000,1261.000000
1829.000000,1815.000000,1262.000000
1830.000000,1815.000000,1262.000000
1831.000000,1817.000000,1263.000000
1831.000000,1818.000000,1263.000000
1831.000000,1818.000000,1264.000000
1832.000000,1820.000000,1264.000000
1833.000000,1821.000000,1264.000000
1832.000000,1821.000000,1264.000000
1829.000000,1816.000000,1262.000000
1826.000000,1810.000000,1260.000000
1825.000000,1808.000000,1258.000000
1823.000000,1805.000000,1257.000000
1823.000000,1804.000000,1257.000000
1822.000000,1803.000000,1256.000000
1823.000000,1803.000000,1256.000000
1823.000000,1803.000000,1256.000000
1821.000000,1802.000000,1256.000000
1823.000000,1803.000000,1256.000000
1824.000000,1805.000000,1257.000000
1824.000000,1805.000000,1257.000000
1825.000000,1807.000000,1258.000000
1825.000000,1808.000000,1258.000000
1824.000000,1807.000000,1258.000000
1827.000000,1811.000000,1260.000000
1828.000000,1813.000000,1261.000000
1829.000000,1814.000000,1261.000000
1829.000000,1814.000000,1261.000000
1828.000000,1810.000000,1260.000000
1825.000000,1808.000000,1259.000000
1822.000000,1803.000000,1257.000000
1821.000000,1801.000000,1255.000000
1820.000000,1800.000000,1255.000000
1821.000000,1800.000000,1255.000000
1821.000000,1800.000000,1255.000000
1821.000000,1800.000000,1255.000000
1821.000000,1801.000000,1255.000000
1821.000000,1801.000000,1255.000000
1822.000000,1802.000000,1256.000000
1823.000000,1803.000000,1256.000000
1823.000000,1805.000000,1257.000000
1823.000000,1805.000000,1257.000000
1825.000000,1807.000000,1258.000000
1825.000000,1809.000000,1259.000000
1827.000000,1810.000000,1259.000000
1827.000000,1812.000000,1260.000000
1827.000000,1812.000000,1259.000000
1826.000000,1810.000000,1259.000000
1824.000000,1806.000000,1258.000000
1823.000000,1805.000000,1257.000000
1822.000000,1802.000000,1256.000000
1822.000000,1803.000000,1256.000000
1821.000000,1802.000000,1257.000000
1823.000000,1804.000000,1257.000000
1823.000000,1805.000000,1257.000000
1824.000000,1805.000000,1258.000000
1825.000000,1807.000000,1258.000000
1826.000000,1808.000000,1259.000000
1826.000000,1809.000000,1258.000000
1825.000000,1809.000000,1259.000000
1826.000000,1811.000000,1259.000000
1827.000000,1812.000000,1260.000000
1828.000000,1813.000000,1261.000000
1829.000000,1816.000000,1262.000000
1829.000000,1816.000000,1262.000000
1828.000000,1816.000000,1262.000000
1826.000000,1812.000000,1260.000000
1825.000000,1810.000000,1260.000000
1824.000000,1808.000000,1259.000000
1824.000000,1807.000000,1258.000000
1824.000000,1807.000000,1258.000000
1824.000000,1808.000000,1258.000000
1824.000000,1808.000000,1258.000000
1824.000000,1808.000000,1258.000000
1824.000000,1808.000000,1258.000000
1824.000000,1809.000000,1259.000000
1825.000000,1810.000000,1259.000000
1826.000000,1811.000000,1260.000000
1826.000000,1813.000000,1260.000000
1827.000000,1814.000000,1261.000000
1829.000000,1815.000000,1261.000000
1829.000000,1817.000000,1262.000000
1830.000000,1818.000000,1263.000000
1831.000000,1820.000000,1264.000000
1832.000000,1822.000000,1264.000000
1832.000000,1822.000000,1264.000000
1830.000000,1819.000000,1263.000000
1829.000000,1816.000000,1262.000000
1828.000000,1815.000000,1262.000000
1827.000000,1814.000000,1261.000000
1827.000000,1813.000000,1260.000000
1827.000000,1813.000000,1261.000000
1827.000000,1813.000000,1261.000000
1827.000000,1814.000000,1261.000000
1828.000000,1814.000000,1261.000000
1828.000000,1815.000000,1262.000000
1829.000000,1817.000000,1262.000000
1830.000000,1818.000000,1263.000000
1831.000000,1819.000000,1263.000000
1832.000000,1821.000000,1264.000000
1833.000000,1822.000000,1265.000000
1833.000000,1823.000000,1265.000000
1834.000000,1825.000000,1266.000000
1834.000000,1827.000000,1266.000000
1835.000000,1827.000000,1267.000000
1835.000000,1827.000000,1267.000000
1834.000000,1824.000000,1266.000000
1832.000000,1823.000000,1265.000000
1831.000000,1821.000000,1264.000000
1831.000000,1821.000000,1264.000000
1831.000000,1821.000000,1264.000000
1831.000000,1821.000000,1264.000000
1832.000000,1822.000000,1264.000000
1832.000000,1822.000000,1264.000000
1832.000000,1823.000000,1265.000000
1833.000000,1824.000000,1265.000000
1834.000000,1825.000000,1266.000000
1835.000000,1826.000000,1266.000000
1835.000000,1828.000000,1267.000000
1836.000000,1829.000000,1267.000000
1837.000000,1830.000000,1268.000000
1837.000000,1832.000000,1269.000000
1838.000000,1832.000000,1269.000000
1839.000000,1834.000000,1270.000000
1839.000000,1835.000000,1270.000000
1839.000000,1835.000000,1270.000000
1838.000000,1833.000000,1269.000000
1837.000000,1831.000000,1268.000000
1836.000000,1830.000000,1268.000000
1836.000000,1829.000000,1268.000000
1836.000000,1829.000000,1268.000000
1836.000000,1830.000000,1268.000000
1837.000000,1830.000000,1268.000000
1837.000000,1830.000000,1268.000000
1837.000000,1831.000000,1268.000000
1837.000000,1831.000000,1269.000000
1838.000000,1832.000000,1269.000000
1838.000000,1833.000000,1269.000000
1839.000000,1834.000000,1270.000000
1840.000000,1835.000000,1270.000000
1840.000000,1836.000000,1271.000000
1841.000000,1838.000000,1271.000000
1841.000000,1838.000000,1272.000000
1842.000000,1840.000000,1272.000000
1843.000000,1841.000000,1273.000000
1843.000000,1842.000000,1273.000000
1842.000000,1840.000000,1272.000000
1841.000000,1838.000000,1271.000000
1840.000000,1837.000000,1271.000000
1840.000000,1837.000000,1271.000000
1840.000000,1837.000000,1271.000000
1841.000000,1837.000000,1271.000000
1841.000000,1838.000000,1271.000000
1841.000000,1838.000000,1271.000000
1841.000000,1838.000000,1272.000000
1842.000000,1839.000000,1272.000000
1842.000000,1841.000000,1273.000000
1843.000000,1841.000000,1273.000000
1844.000000,1843.000000,1273.000000
1844.000000,1844.000000,1274.000000
1846.000000,1845.000000,1274.000000
1847.000000,1847.000000,1275.000000
1847.000000,1848.000000,1276.000000
1848.000000,1849.000000,1276.000000
1848.000000,1850.000000,1276.000000
1848.000000,1848.000000,1276.000000
1846.000000,1847.000000,1276.000000
1845.000000,1846.000000,1275.000000
1845.000000,1846.000000,1275.000000
1846.000000,1847.000000,1275.000000
1846.000000,1847.000000,1275.000000
1847.000000,1847.000000,1275.000000
1849.000000,1850.000000,1277.000000
1849.000000,1851.000000,1277.000000
1850.000000,1851.000000,1277.000000
1850.000000,1851.000000,1278.000000
1851.000000,1853.000000,1278.000000
1851.000000,1854.000000,1279.000000
1852.000000,1855.000000,1279.000000
1852.000000,1856.000000,1280.000000
1853.000000,1857.000000,1280.000000
1854.000000,1858.000000,1280.000000
1854.000000,1857.000000,1280.000000
1853.000000,1857.000000,1280.000000
1851.000000,1854.000000,1279.000000
1851.000000,1854.000000,1279.000000
1852.000000,1854.000000,1279.000000
1852.000000,1855.000000,1279.000000
1852.000000,1855.000000,1279.000000
1852.000000,1855.000000,1279.000000
1853.000000,1856.000000,1280.000000
1853.000000,1856.000000,1280.000000
1853.000000,1856.000000,1280.000000
1852.000000,1855.000000,1279.000000
1854.000000,1857.000000,1281.000000
1854.000000,1858.000000,1281.000000
1855.000000,1859.000000,1281.000000
1855.000000,1860.000000,1282.000000
1855.000000,1860.000000,1281.000000
1853.000000,1858.000000,1280.000000
1852.000000,1856.000000,1280.000000
1851.000000,1854.000000,1279.000000
1850.000000,1852.000000,1278.000000
1850.000000,1852.000000,1278.000000
1850.000000,1852.000000,1278.000000
1850.000000,1851.000000,1278.000000
1850.000000,1851.000000,1277.000000
1850.000000,1851.000000,1277.000000
1850.000000,1850.000000,1277.000000
1850.000000,1851.000000,1277.000000
1850.000000,1851.000000,1278.000000
1850.000000,1851.000000,1277.000000
1851.000000,1852.000000,1278.000000
1851.000000,1853.000000,1278.000000
1851.000000,1854.000000,1279.000000
1852.000000,1854.000000,1279.000000
1852.000000,1854.000000,1279.000000
1851.000000,1851.000000,1277.000000
1848.000000,1848.000000,1276.000000
1845.000000,1843.000000,1274.000000
1844.000000,1839.000000,1272.000000
1843.000000,1838.000000,1272.000000
1841.000000,1835.000000,1270.000000
1840.000000,1835.000000,1270.000000
1841.000000,1835.000000,1270.000000
1841.000000,1834.000000,1270.000000
1840.000000,1833.000000,1269.000000
1840.000000,1833.000000,1269.000000
1841.000000,1834.000000,1269.000000
1839.000000,1832.000000,1268.000000
1841.000000,1834.000000,1270.000000
1841.000000,1835.000000,1270.000000
1841.000000,1835.000000,1270.000000
1841.000000,1836.000000,1270.000000
1842.000000,1836.000000,1270.000000
1841.000000,1835.000000,1269.000000
1837.000000,1829.000000,1268.000000
1834.000000,1823.000000,1265.000000
1833.000000,1821.000000,1263.000000
1832.000000,1818.000000,1262.000000
1831.000000,1816.000000,1261.000000
1831.000000,1816.000000,1261.000000
1830.000000,1815.000000,1261.000000
1830.000000,1814.000000,1260.000000
1830.000000,1814.000000,1260.000000
1830.000000,1815.000000,1260.000000
1830.000000,1815.000000,1261.000000
1831.000000,1816.000000,1261.000000
1831.000000,1816.000000,1261.000000
1831.000000,1817.000000,1262.000000
1831.000000,1818.000000,1262.000000
1832.000000,1819.000000,1262.000000
1832.000000,1819.000000,1262.000000
1833.000000,1820.000000,1263.000000
1830.000000,1817.000000,1262.000000
1827.000000,1811.000000,1259.000000
1826.000000,1808.000000,1258.000000
1824.000000,1805.000000,1256.000000
1824.000000,1802.000000,1255.000000
1822.000000,1801.000000,1254.000000
1822.000000,1802.000000,1255.000000
1822.000000,1801.000000,1254.000000
1821.000000,1800.000000,1254.000000
1821.000000,1799.000000,1253.000000
1821.000000,1800.000000,1254.000000
1822.000000,1801.000000,1254.000000
1822.000000,1802.000000,1254.000000
1822.000000,1803.000000,1255.000000
1823.000000,1803.000000,1255.000000
1823.000000,1804.000000,1256.000000
1824.000000,1805.000000,1256.000000
1825.000000,1806.000000,1256.000000
1825.000000,1806.000000,1257.000000
1823.000000,1801.000000,1255.000000
1820.000000,1799.000000,1253.000000
1818.000000,1795.000000,1251.000000
1818.000000,1792.000000,1250.000000
1817.000000,1792.000000,1250.000000
1817.000000,1792.000000,1250.000000
1817.000000,1792.000000,1250.000000
1817.000000,1791.000000,1250.000000
1815.000000,1789.000000,1248.000000
1817.000000,1792.000000,1250.000000
1817.000000,1793.000000,1250.000000
1818.000000,1794.000000,1251.000000
1819.000000,1795.000000,1252.000000
1819.000000,1796.000000,1252.000000
1820.000000,1798.000000,1252.000000
1819.000000,1796.000000,1253.000000
1822.000000,1801.000000,1254.000000
1823.000000,1802.000000,1255.000000
1822.000000,1802.000000,1254.000000
1819.000000,1797.000000,1252.000000
1817.000000,1794.000000,1250.000000
1816.000000,1793.000000,1250.000000
1816.000000,1792.000000,1249.000000
1816.000000,1792.000000,1249.000000
1816.000000,1792.000000,1249.000000
1816.000000,1792.000000,1249.000000
1817.000000,1793.000000,1250.000000
1817.000000,1793.000000,1250.000000
1817.000000,1793.000000,1250.000000
1817.000000,1792.000000,1250.000000
1816.000000,1791.000000,1249.000000
1815.000000,1790.000000,1248.000000
1816.000000,1791.000000,1249.000000
1816.000000,1791.000000,1249.000000
1816.000000,1791.000000,1249.000000
1815.000000,1790.000000,1248.000000
1814.000000,1789.000000,1247.000000
1811.000000,1783.000000,1245.000000
1808.000000,1776.000000,1242.000000
1806.000000,1774.000000,1240.000000
1805.000000,1770.000000,1239.000000
1804.000000,1768.000000,1238.000000
1803.000000,1768.000000,1238.000000
1803.000000,1767.000000,1237.000000
1804.000000,1768.000000,1238.000000
1804.000000,1769.000000,1239.000000
1805.000000,1771.000000,1240.000000
1806.000000,1774.000000,1241.000000
1807.000000,1775.000000,1241.000000
1808.000000,1777.000000,1242.000000
1809.000000,1780.000000,1244.000000
1810.000000,1781.000000,1244.000000
1812.000000,1784.000000,1245.000000
1812.000000,1786.000000,1247.000000
1814.000000,1787.000000,1247.000000
1815.000000,1789.000000,1248.000000
1815.000000,1790.000000,1248.000000
1815.000000,1790.000000,1249.000000
1815.000000,1791.000000,1249.000000
1816.000000,1793.000000,1250.000000
1817.000000,1793.000000,1250.000000
1818.000000,1795.000000,1251.000000
1818.000000,1797.000000,1251.000000
1819.000000,1797.000000,1252.000000
1820.000000,1799.000000,1253.000000
1821.000000,1801.000000,1253.000000
1822.000000,1802.000000,1254.000000
1823.000000,1805.000000,1255.000000
1824.000000,1806.000000,1256.000000
1825.000000,1808.000000,1256.000000
1826.000000,1810.000000,1257.000000
1827.000000,1811.000000,1258.000000
1827.000000,1812.000000,1258.000000
1827.000000,1811.000000,1258.000000
1826.000000,1811.000000,1258.000000
1826.000000,1811.000000,1258.000000
1827.000000,1812.000000,1259.000000
1827.000000,1813.000000,1259.000000
1828.000000,1814.000000,1259.000000
1829.000000,1815.000000,1260.000000
1829.000000,1815.000000,1260.000000
1830.000000,1816.000000,1261.000000
1830.000000,1818.000000,1261.000000
1831.000000,1818.000000,1262.000000
1832.000000,1820.000000,1262.000000
1833.000000,1821.000000,1263.000000
1833.000000,1822.000000,1263.000000
1834.000000,1823.000000,1264.000000
1833.000000,1823.000000,1264.000000
1833.000000,1822.000000,1263.000000
1832.000000,1821.000000,1263.000000
1832.000000,1820.000000,1263.000000
1832.000000,1820.000000,1263.000000
1832.000000,1821.000000,1263.000000
1832.000000,1822.000000,1263.000000
1833.000000,1822.000000,1263.000000
1833.000000,1823.000000,1263.000000
1833.000000,1823.000000,1264.000000
1834.000000,1824.000000,1264.000000
1834.000000,1825.000000,1265.000000
1835.000000,1826.000000,1265.000000
1835.000000,1827.000000,1265.000000
1836.000000,1828.000000,1266.000000
1836.000000,1828.000000,1266.000000
1836.000000,1828.000000,1266.000000
1834.000000,1826.000000,1265.000000
1833.000000,1823.000000,1264.000000
1832.000000,1822.000000,1263.000000
1832.000000,1820.000000,1263.000000
1831.000000,1820.000000,1263.000000
1832.000000,1820.000000,1262.000000
1832.000000,1820.000000,1263.000000
1831.000000,1820.000000,1262.000000
1831.000000,1820.000000,1262.000000
1832.000000,1820.000000,1263.000000
1832.000000,1821.000000,1263.000000
1832.000000,1822.000000,1263.000000
1833.000000,1823.000000,1264.000000
1833.000000,1823.000000,1264.000000
1834.000000,1824.000000,1264.000000
1834.000000,1825.000000,1265.000000
1834.000000,1825.000000,1264.000000
1832.000000,1822.000000,1263.000000
1829.000000,1817.000000,1261.000000
1828.000000,1814.000000,1259.000000
1826.000000,1811.000000,1258.000000
1826.000000,1810.000000,1258.000000
1825.000000,1809.000000,1257.000000
1825.000000,1808.000000,1257.000000
1824.000000,1808.000000,1257.000000
1824.000000,1807.000000,1257.000000
1824.000000,1807.000000,1257.000000
1824.000000,1807.000000,1257.000000
1825.000000,1808.000000,1258.000000
1827.000000,1811.000000,1259.000000
1827.000000,1811.000000,1259.000000
1826.000000,1810.000000,1258.000000
1826.000000,1811.000000,1258.000000
1826.000000,1812.000000,1259.000000
1826.000000,1811.000000,1258.000000
1823.000000,1807.000000,1257.000000
1821.000000,1801.000000,1254.000000
1819.000000,1799.000000,1253.000000
1817.000000,1795.000000,1251.000000
1817.000000,1794.000000,1250.000000
1816.000000,1793.000000,1250.000000
1815.000000,1792.000000,1250.000000
1815.000000,1791.000000,1249.000000
1815.000000,1791.000000,1249.000000
1815.000000,1791.000000,1249.000000
1815.000000,1791.000000,1249.000000
1815.000000,1792.000000,1250.000000
1816.000000,1793.000000,1250.000000
1816.000000,1793.000000,1251.000000
1817.000000,1795.000000,1251.000000
1817.000000,1796.000000,1251.000000
1818.000000,1797.000000,1252.000000
1818.000000,1797.000000,1252.000000
1815.000000,1793.000000,1250.000000
1814.000000,1790.000000,1248.000000
1812.000000,1786.000000,1247.000000
1810.000000,1783.000000,1246.000000
1810.000000,1782.000000,1245.000000
1810.000000,1782.000000,1245.000000
1809.000000,1782.000000,1245.000000
1809.000000,1781.000000,1244.000000
1809.000000,1781.000000,1244.000000
1809.000000,1782.000000,1245.000000
1810.000000,1782.000000,1245.000000
1810.000000,1783.000000,1245.000000
1811.000000,1785.000000,1246.000000
1812.000000,1786.000000,1247.000000
1812.000000,1787.000000,1247.000000
1813.000000,1789.000000,1248.000000
1814.000000,1789.000000,1248.000000
1814.000000,1790.000000,1249.000000
1813.000000,1788.000000,1248.000000
1811.000000,1785.000000,1247.000000
1809.000000,1781.000000,1245.000000
1808.000000,1779.000000,1244.000000
1808.000000,1778.000000,1243.000000
1808.000000,1778.000000,1243.000000
1808.000000,1778.000000,1243.000000
1808.000000,1778.000000,1243.000000
1808.000000,1779.000000,1243.000000
1808.000000,1780.000000,1244.000000
1809.000000,1780.000000,1244.000000
1810.000000,1782.000000,1245.000000
1810.000000,1783.000000,1245.000000
1811.000000,1784.000000,1246.000000
1812.000000,1786.000000,1247.000000
1813.000000,1788.000000,1248.000000
1814.000000,1789.000000,1248.000000
1815.000000,1791.000000,1249.000000
1815.000000,1793.000000,1250.000000
1815.000000,1792.000000,1250.000000
1813.000000,1790.000000,1249.000000
1812.000000,1787.000000,1247.000000
1811.000000,1785.000000,1247.000000
1811.000000,1785.000000,1246.000000
1811.000000,1784.000000,1246.000000
1811.000000,1785.000000,1246.000000
1812.000000,1786.000000,1246.000000
1812.000000,1786.000000,1247.000000
1812.000000,1787.000000,1247.000000
1813.000000,1788.000000,1248.000000
1814.000000,1789.000000,1248.000000
1815.000000,1790.000000,1249.000000
1815.000000,1792.000000,1249.000000
1816.000000,1793.000000,1250.000000
1817.000000,1795.000000,1251.000000
1819.000000,1797.000000,1252.000000
1819.000000,1798.000000,1253.000000
1820.000000,1800.000000,1253.000000
1820.000000,1800.000000,1253.000000
1819.000000,1799.000000,1252.000000
1818.000000,1797.000000,1252.000000
1817.000000,1796.000000,1251.000000
1817.000000,1796.000000,1251.000000
1818.000000,1796.000000,1251.000000
1818.000000,1797.000000,1252.000000
1818.000000,1797.000000,1252.000000
1819.000000,1798.000000,1252.000000
1819.000000,1799.000000,1253.000000
1820.000000,1800.000000,1253.000000
1821.000000,1801.000000,1253.000000
1821.000000,1803.000000,1254.000000
1822.000000,1804.000000,1255.000000
1823.000000,1805.000000,1255.000000
1824.000000,1807.000000,1256.000000
1825.000000,1808.000000,1257.000000
1826.000000,1810.000000,1257.000000
1826.000000,1812.000000,1258.000000
1827.000000,1812.000000,1258.000000
1826.000000,1810.000000,1258.000000
1825.000000,1808.000000,1257.000000
1824.000000,1808.000000,1257.000000
1824.000000,1807.000000,1256.000000
1824.000000,1807.000000,1256.000000
1824.000000,1807.000000,1257.000000
1824.000000,1808.000000,1257.000000
1824.000000,1808.000000,1257.000000
1824.000000,1808.000000,1257.000000
1825.000000,1809.000000,1257.000000
1826.000000,1810.000000,1258.000000
1827.000000,1811.000000,1258.000000
1827.000000,1813.000000,1259.000000
1828.000000,1813.000000,1259.000000
1829.000000,1815.000000,1260.000000
1830.000000,1817.000000,1261.000000
1831.000000,1819.000000,1262.000000
1833.000000,1821.000000,1263.000000
1833.000000,1822.000000,1263.000000
1831.000000,1819.000000,1261.000000
1829.000000,1817.000000,1261.000000
1829.000000,1816.000000,1260.000000
1829.000000,1815.000000,1260.000000
1829.000000,1815.000000,1260.000000
1829.000000,1816.000000,1260.000000
1829.000000,1816.000000,1261.000000
1830.000000,1817.000000,1261.000000
1830.000000,1818.000000,1261.000000
1831.000000,1819.000000,1262.000000
1832.000000,1821.000000,1262.000000
1833.000000,1822.000000,1263.000000
1833.000000,1823.000000,1263.000000
1834.000000,1825.000000,1264.000000
1835.000000,1827.000000,1265.000000
1836.000000,1827.000000,1265.000000
1837.000000,1829.000000,1266.000000
1838.000000,1831.000000,1267.000000
1838.000000,1831.000000,1267.000000
1838.000000,1831.000000,1267.000000
1836.000000,1829.000000,1266.000000
1836.000000,1829.000000,1266.000000
1835.000000,1828.000000,1265.000000
1835.000000,1828.000000,1266.000000
1836.000000,1828.000000,1266.000000
1836.000000,1829.000000,1266.000000
1837.000000,1830.000000,1266.000000
1837.000000,1830.000000,1266.000000
1838.000000,1831.000000,1267.000000
1838.000000,1832.000000,1267.000000
1839.000000,1832.000000,1267.000000
1840.000000,1834.000000,1268.000000
1840.000000,1835.000000,1269.000000
1841.000000,1836.000000,1269.000000
1842.000000,1838.000000,1270.000000
1842.000000,1839.000000,1270.000000
1843.000000,1840.000000,1270.000000
1844.000000,1841.000000,1271.000000
1844.000000,1842.000000,1271.000000
1843.000000,1841.000000,1271.000000
1842.000000,1839.000000,1270.000000
1842.000000,1839.000000,1270.000000
1842.000000,1839.000000,1270.000000
1843.000000,1840.000000,1271.000000
1843.000000,1840.000000,1271.000000
1843.000000,1841.000000,1271.000000
1844.000000,1842.000000,1271.000000
1844.000000,1842.000000,1272.000000
1845.000000,1843.000000,1272.000000
1845.000000,1844.000000,1272.000000
1846.000000,1845.000000,1273.000000
1847.000000,1846.000000,1273.000000
1848.000000,1848.000000,1274.000000
1848.000000,1849.000000,1274.000000
1849.000000,1850.000000,1275.000000
1850.000000,1851.000000,1275.000000
1849.000000,1851.000000,1275.000000
1848.000000,1850.000000,1275.000000
1847.000000,1848.000000,1274.000000
1847.000000,1847.000000,1274.000000
1847.000000,1847.000000,1274.000000
1847.000000,1848.000000,1274.000000
1848.000000,1848.000000,1274.000000
1848.000000,1849.000000,1275.000000
1849.000000,1849.000000,1275.000000
1848.000000,1849.000000,1275.000000
1849.000000,1850.000000,1275.000000
1850.000000,1851.000000,1276.000000
1850.000000,1852.000000,1276.000000
1851.000000,1853.000000,1276.000000
1851.000000,1854.000000,1277.000000
1851.000000,1854.000000,1277.000000
1852.000000,1855.000000,1277.000000
1852.000000,1856.000000,1277.000000
1851.000000,1855.000000,1277.000000
1850.000000,1852.000000,1276.000000
1849.000000,1850.000000,1275.000000
1848.000000,1849.000000,1275.000000
1848.000000,1849.000000,1275.000000
1848.000000,1849.000000,1275.000000
1849.000000,1850.000000,1275.000000
1849.000000,1850.000000,1275.000000
1849.000000,1850.000000,1275.000000
1849.000000,1850.000000,1275.000000
1849.000000,1851.000000,1275.000000
1850.000000,1852.000000,1276.000000
1850.000000,1852.000000,1276.000000
1851.000000,1853.000000,1276.000000
1851.000000,1854.000000,1277.000000
1852.000000,1855.000000,1277.000000
1852.000000,1856.000000,1277.000000
1853.000000,1856.000000,1277.000000
1851.000000,1854.000000,1277.000000
1849.000000,1850.000000,1275.000000
1848.000000,1848.000000,1274.000000
1847.000000,1846.000000,1273.000000
1846.000000,1845.000000,1273.000000
1846.000000,1845.000000,1273.000000
1846.000000,1845.000000,1273.000000
