7170.000000,7491.000000,5610.000000,1.000000,280.029785
7170.000000,7490.000000,5610.000000,1.000000,280.029785
7170.000000,7485.000000,5608.000000,1.000000,280.029785
7170.000000,7485.000000,5608.000000,1.000000,280.029785
7170.000000,7485.000000,5608.000000,1.000000,280.029785
7170.000000,7483.000000,5606.000000,1.000000,280.029785
7170.000000,7482.000000,5607.000000,1.000000,280.029785
7170.000000,7482.000000,5607.000000,1.000000,280.029785
7170.000000,7482.000000,5607.000000,1.000000,280.029785
7170.000000,7481.000000,5607.000000,1.000000,280.029785
7170.000000,7482.000000,5606.000000,1.000000,280.029785
7170.000000,7484.000000,5606.000000,1.000000,280.029785
7170.000000,7484.000000,5609.000000,1.000000,280.029785
7170.000000,7487.000000,5609.000000,1.000000,280.029785
7170.000000,7487.000000,5607.000000,1.000000,280.029785
7170.000000,7484.000000,5606.000000,1.000000,280.029785
7170.000000,7489.000000,5608.000000,1.000000,280.029785
7170.000000,7486.000000,5608.000000,1.000000,280.029785
7170.000000,7484.000000,5606.000000,1.000000,280.029785
7170.000000,7476.000000,5603.000000,1.000000,280.029785
7170.000000,7483.000000,5604.000000,1.000000,280.029785
7170.000000,7483.000000,5607.000000,1.000000,280.029785
7170.000000,7484.000000,5607.000000,1.000000,280.029785
7170.000000,7484.000000,5607.000000,1.000000,280.029785
7170.000000,7484.000000,5606.000000,1.000000,280.029785
7170.000000,7487.000000,5608.000000,1.000000,280.029785
7170.000000,7487.000000,5607.000000,1.000000,280.029785
7170.000000,7490.000000,5608.000000,1.000000,280.029785
7170.000000,7488.000000,5608.000000,1.000000,280.029785
7170.000000,7491.000000,5609.000000,1.000000,280.029785
7170.000000,7493.000000,5610.000000,0.000000,198.857910
7170.000000,7493.000000,5611.000000,0.000000,198.857910
7170.000000,7490.000000,5609.000000,0.000000,198.857910
7170.000000,7490.000000,5610.000000,0.000000,198.857910
7170.000000,7489.000000,5608.000000,0.000000,198.857910
7170.000000,7489.000000,5608.000000,0.000000,198.857910
7170.000000,7490.000000,5608.000000,0.000000,198.857910
7170.000000,7481.000000,5603.000000,0.000000,198.857910
7170.000000,7482.000000,5602.000000,0.000000,198.857910
7170.000000,7482.000000,5601.000000,0.000000,198.857910
7170.000000,7482.000000,5603.000000,0.000000,198.857910
7170.000000,7484.000000,5604.000000,0.000000,198.857910
7170.000000,7484.000000,5602.000000,0.000000,198.857910
7170.000000,7487.000000,5604.000000,0.000000,198.857910
7170.000000,7489.000000,5605.000000,0.000000,198.857910
7170.000000,7489.000000,5604.000000,0.000000,198.857910
7170.000000,7489.000000,5604.000000,0.000000,198.857910
7170.000000,7487.000000,5605.000000,0.000000,198.857910
7170.000000,7487.000000,5604.000000,0.000000,198.857910
7170.000000,7486.000000,5605.000000,0.000000,198.857910
7170.000000,7485.000000,5603.000000,0.000000,198.857910
7170.000000,7486.000000,5605.000000,0.000000,198.857910
7170.000000,7490.000000,5606.000000,0.000000,198.857910
7170.000000,7491.000000,5605.000000,0.000000,198.857910
7170.000000,7491.000000,5607.000000,0.000000,198.857910
7170.000000,7491.000000,5607.000000,0.000000,198.857910
7170.000000,7492.000000,5608.000000,0.000000,198.857910
7170.000000,7492.000000,5607.000000,0.000000,198.857910
7170.000000,7495.000000,5608.000000,0.000000,198.857910
7170.000000,7497.000000,5609.000000,0.000000,198.857910
7170.000000,7498.000000,5609.000000,0.000000,198.857910
7170.000000,7496.000000,5608.000000,0.000000,198.857910
7170.000000,7495.000000,5608.000000,0.000000,198.857910
7170.000000,7495.000000,5608.000000,0.000000,198.857910
7170.000000,7494.000000,5608.000000,0.000000,198.857910
7170.000000,7494.000000,5609.000000,0.000000,198.857910
7170.000000,7496.000000,5609.000000,0.000000,198.857910
7170.000000,7498.000000,5610.000000,0.000000,198.857910
7170.000000,7498.000000,5608.000000,0.000000,198.857910
7170.000000,7499.000000,5610.000000,0.000000,198.857910
7170.000000,7499.000000,5610.000000,0.000000,198.857910
7170.000000,7501.000000,5610.000000,0.000000,198.857910
7170.000000,7501.000000,5610.000000,0.000000,198.857910
7170.000000,7503.000000,5610.000000,0.000000,198.857910
7170.000000,7503.000000,5610.000000,0.000000,198.857910
7170.000000,7504.000000,5610.000000,0.000000,198.857910
7170.000000,7506.000000,5611.000000,0.000000,198.857910
7170.000000,7505.000000,5609.000000,0.000000,198.857910
7170.000000,7503.000000,5611.000000,0.000000,198.857910
7170.000000,7502.000000,5610.000000,0.000000,198.857910
7170.000000,7502.000000,5610.000000,0.000000,198.857910
7170.000000,7502.000000,5611.000000,0.000000,198.857910
7170.000000,7504.000000,5611.000000,0.000000,198.857910
7170.000000,7504.000000,5610.000000,0.000000,198.857910
7170.000000,7505.000000,5609.000000,0.000000,198.857910
7170.000000,7507.000000,5612.000000,0.000000,198.857910
7170.000000,7507.000000,5611.000000,0.000000,198.857910
7170.000000,7509.000000,5613.000000,0.000000,198.857910
7170.000000,7510.000000,5612.000000,0.000000,198.857910
7170.000000,7511.000000,5613.000000,0.000000,198.857910
7170.000000,7511.000000,5613.000000,0.000000,198.857910
7170.000000,7511.000000,5613.000000,0.000000,198.857910
7170.000000,7512.000000,5615.000000,0.000000,198.857910
7170.000000,7512.000000,5614.000000,0.000000,198.857910
7170.000000,7512.000000,5614.000000,0.000000,198.857910
7170.000000,7510.000000,5614.000000,0.000000,198.857910
7170.000000,7509.000000,5612.000000,0.000000,198.857910
7171.000000,7511.000000,5612.000000,0.000000,198.857910
7170.000000,7511.000000,5613.000000,0.000000,198.857910
7170.000000,7510.000000,5613.000000,0.000000,198.857910
7170.000000,7510.000000,5613.000000,0.000000,198.857910
7170.000000,7512.000000,5613.000000,0.000000,198.857910
7171.000000,7514.000000,5615.000000,0.000000,198.857910
7170.000000,7514.000000,5616.000000,0.000000,198.857910
7171.000000,7516.000000,5617.000000,0.000000,198.857910
7171.000000,7517.000000,5617.000000,0.000000,198.857910
7170.000000,7519.000000,5617.000000,0.000000,198.857910
7171.000000,7522.000000,5619.000000,0.000000,198.857910
7171.000000,7521.000000,5618.000000,0.000000,198.857910
7171.000000,7521.000000,5617.000000,0.000000,198.857910
7171.000000,7520.000000,5617.000000,0.000000,198.857910
7170.000000,7519.000000,5616.000000,0.000000,198.857910
7170.000000,7519.000000,5617.000000,0.000000,198.857910
7170.000000,7518.000000,5617.000000,0.000000,198.857910
7171.000000,7519.000000,5617.000000,0.000000,198.857910
7170.000000,7519.000000,5617.000000,0.000000,198.857910
7171.000000,7521.000000,5618.000000,0.000000,198.857910
7171.000000,7521.000000,5617.000000,0.000000,198.857910
7171.000000,7521.000000,5619.000000,0.000000,198.857910
7171.000000,7522.000000,5619.000000,0.000000,198.857910
7171.000000,7525.000000,5620.000000,0.000000,198.857910
7171.000000,7524.000000,5621.000000,0.000000,198.857910
7171.000000,7526.000000,5622.000000,0.000000,198.857910
7171.000000,7528.000000,5622.000000,0.000000,198.857910
7171.000000,7529.000000,5623.000000,0.000000,198.857910
7171.000000,7527.000000,5621.000000,0.000000,198.857910
7171.000000,7526.000000,5620.000000,0.000000,198.857910
7171.000000,7526.000000,5619.000000,0.000000,198.857910
7171.000000,7523.000000,5619.000000,0.000000,198.857910
7171.000000,7524.000000,5620.000000,0.000000,198.857910
7171.000000,7523.000000,5619.000000,0.000000,198.857910
7171.000000,7525.000000,5621.000000,0.000000,198.857910
7171.000000,7525.000000,5620.000000,0.000000,198.857910
7171.000000,7526.000000,5622.000000,0.000000,198.857910
7171.000000,7528.000000,5622.000000,0.000000,198.857910
7171.000000,7528.000000,5621.000000,0.000000,198.857910
7171.000000,7528.000000,5622.000000,0.000000,198.857910
7171.000000,7529.000000,5622.000000,0.000000,198.857910
7171.000000,7530.000000,5623.000000,0.000000,198.857910
7171.000000,7530.000000,5623.000000,0.000000,198.857910
7171.000000,7531.000000,5623.000000,0.000000,198.857910
7171.000000,7530.000000,5623.000000,0.000000,198.857910
7171.000000,7529.000000,5622.000000,0.000000,198.857910
7171.000000,7527.000000,5622.000000,0.000000,198.857910
7171.000000,7527.000000,5620.000000,0.000000,198.857910
7171.000000,7530.000000,5621.000000,0.000000,198.857910
7171.000000,7530.000000,5621.000000,0.000000,198.857910
7171.000000,7541.000000,5630.000000,0.000000,198.857910
7171.000000,7542.000000,5632.000000,0.000000,198.857910
7171.000000,7540.000000,5630.000000,0.000000,198.857910
7171.000000,7542.000000,5631.000000,1.000000,59.413574
7171.000000,7542.000000,5632.000000,1.000000,59.413574
7171.000000,7545.000000,5632.000000,1.000000,59.413574
7171.000000,7546.000000,5634.000000,1.000000,59.413574
7171.000000,7547.000000,5632.000000,1.000000,59.413574
7171.000000,7543.000000,5630.000000,1.000000,59.413574
7171.000000,7542.000000,5631.000000,1.000000,59.413574
7171.000000,7534.000000,5624.000000,1.000000,59.413574
7171.000000,7531.000000,5623.000000,1.000000,59.413574
7171.000000,7530.000000,5622.000000,1.000000,59.413574
7171.000000,7530.000000,5621.000000,1.000000,59.413574
7171.000000,7528.000000,5621.000000,1.000000,59.413574
7171.000000,7529.000000,5623.000000,1.000000,59.413574
7171.000000,7529.000000,5623.000000,1.000000,59.413574
7171.000000,7530.000000,5622.000000,1.000000,59.413574
7171.000000,7530.000000,5623.000000,1.000000,59.413574
7171.000000,7531.000000,5623.000000,1.000000,59.413574
7171.000000,7532.000000,5623.000000,1.000000,59.413574
7171.000000,7535.000000,5625.000000,1.000000,59.413574
7171.000000,7535.000000,5625.000000,1.000000,59.413574
7171.000000,7536.000000,5625.000000,1.000000,59.413574
7171.000000,7538.000000,5627.000000,1.000000,59.413574
7171.000000,7538.000000,5627.000000,1.000000,59.413574
7171.000000,7537.000000,5625.000000,1.000000,59.413574
7171.000000,7535.000000,5623.000000,1.000000,59.413574
7171.000000,7531.000000,5622.000000,1.000000,59.413574
7171.000000,7530.000000,5622.000000,1.000000,59.413574
7171.000000,7528.000000,5622.000000,1.000000,59.413574
7171.000000,7528.000000,5622.000000,1.000000,59.413574
7171.000000,7529.000000,5622.000000,1.000000,59.413574
7171.000000,7528.000000,5621.000000,1.000000,59.413574
7171.000000,7530.000000,5621.000000,1.000000,59.413574
7171.000000,7529.000000,5621.000000,1.000000,59.413574
7171.000000,7529.000000,5621.000000,1.000000,59.413574
7171.000000,7530.000000,5620.000000,1.000000,59.413574
7171.000000,7530.000000,5620.000000,1.000000,59.413574
7171.000000,7531.000000,5620.000000,1.000000,59.413574
7171.000000,7531.000000,5621.000000,1.000000,59.413574
7171.000000,7532.000000,5621.000000,1.000000,59.413574
7171.000000,7535.000000,5623.000000,1.000000,59.413574
7171.000000,7534.000000,5623.000000,1.000000,59.413574
7171.000000,7532.000000,5620.000000,1.000000,59.413574
7171.000000,7529.000000,5619.000000,1.000000,59.413574
7171.000000,7527.000000,5619.000000,1.000000,59.413574
7171.000000,7526.000000,5618.000000,1.000000,59.413574
7170.000000,7527.000000,5619.000000,1.000000,59.413574
7170.000000,7526.000000,5619.000000,1.000000,59.413574
7170.000000,7526.000000,5619.000000,1.000000,59.413574
7171.000000,7526.000000,5619.000000,1.000000,59.413574
7171.000000,7526.000000,5618.000000,1.000000,59.413574
7171.000000,7525.000000,5617.000000,1.000000,59.413574
7171.000000,7525.000000,5617.000000,1.000000,59.413574
7171.000000,7526.000000,5617.000000,1.000000,59.413574
7171.000000,7528.000000,5619.000000,1.000000,59.413574
7171.000000,7530.000000,5620.000000,1.000000,59.413574
7171.000000,7529.000000,5619.000000,1.000000,59.413574
7171.000000,7529.000000,5618.000000,1.000000,59.413574
7171.000000,7527.000000,5618.000000,1.000000,59.413574
7171.000000,7523.000000,5617.000000,1.000000,59.413574
7171.000000,7522.000000,5615.000000,1.000000,59.413574
7171.000000,7521.000000,5615.000000,1.000000,59.413574
7171.000000,7523.000000,5616.000000,1.000000,59.413574
7171.000000,7522.000000,5614.000000,1.000000,59.413574
7171.000000,7523.000000,5615.000000,1.000000,59.413574
7171.000000,7522.000000,5615.000000,1.000000,59.413574
7171.000000,7522.000000,5615.000000,1.000000,59.413574
7171.000000,7522.000000,5615.000000,1.000000,59.413574
7171.000000,7524.000000,5616.000000,1.000000,59.413574
7171.000000,7524.000000,5617.000000,1.000000,59.413574
7171.000000,7524.000000,5617.000000,1.000000,59.413574
7171.000000,7526.000000,5618.000000,1.000000,59.413574
7171.000000,7527.000000,5619.000000,1.000000,59.413574
7171.000000,7525.000000,5617.000000,1.000000,59.413574
7171.000000,7523.000000,5616.000000,1.000000,59.413574
7171.000000,7523.000000,5615.000000,1.000000,59.413574
7171.000000,7522.000000,5615.000000,1.000000,59.413574
7171.000000,7521.000000,5614.000000,1.000000,59.413574
7171.000000,7520.000000,5613.000000,1.000000,59.413574
7171.000000,7522.000000,5615.000000,1.000000,59.413574
7171.000000,7521.000000,5615.000000,1.000000,59.413574
7171.000000,7522.000000,5615.000000,1.000000,59.413574
7171.000000,7522.000000,5614.000000,1.000000,59.413574
7171.000000,7523.000000,5616.000000,1.000000,59.413574
7171.000000,7523.000000,5617.000000,1.000000,59.413574
7171.000000,7525.000000,5617.000000,1.000000,59.413574
7171.000000,7525.000000,5618.000000,1.000000,59.413574
7171.000000,7526.000000,5616.000000,1.000000,59.413574
7171.000000,7528.000000,5618.000000,1.000000,59.413574
7171.000000,7525.000000,5617.000000,1.000000,59.413574
7171.000000,7523.000000,5616.000000,1.000000,59.413574
7171.000000,7521.000000,5613.000000,1.000000,59.413574
7171.000000,7522.000000,5614.000000,1.000000,59.413574
7171.000000,7522.000000,5614.000000,1.000000,59.413574
7170.000000,7520.000000,5614.000000,1.000000,59.413574
7171.000000,7521.000000,5614.000000,1.000000,59.413574
7171.000000,7519.000000,5614.000000,1.000000,59.413574
7171.000000,7519.000000,5612.000000,1.000000,59.413574
7171.000000,7520.000000,5614.000000,1.000000,59.413574
7171.000000,7519.000000,5613.000000,1.000000,59.413574
7171.000000,7520.000000,5614.000000,1.000000,59.413574
7171.000000,7523.000000,5614.000000,1.000000,59.413574
7171.000000,7524.000000,5616.000000,1.000000,59.413574
7171.000000,7524.000000,5616.000000,1.000000,59.413574
7171.000000,7523.000000,5614.000000,1.000000,59.413574
7171.000000,7525.000000,5616.000000,1.000000,59.413574
7171.000000,7522.000000,5615.000000,1.000000,59.413574
7170.000000,7520.000000,5613.000000,1.000000,59.413574
7171.000000,7518.000000,5612.000000,1.000000,59.413574
7171.000000,7517.000000,5611.000000,1.000000,59.413574
7171.000000,7517.000000,5612.000000,1.000000,59.413574
7171.000000,7517.000000,5612.000000,1.000000,59.413574
7171.000000,7517.000000,5612.000000,1.000000,59.413574
7170.000000,7517.000000,5612.000000,1.000000,59.413574
7170.000000,7518.000000,5612.000000,1.000000,59.413574
7170.000000,7519.000000,5613.000000,1.000000,59.413574
7170.000000,7520.000000,5613.000000,1.000000,59.413574
7171.000000,7533.000000,5623.000000,1.000000,59.413574
7171.000000,7535.000000,5624.000000,1.000000,59.413574
7171.000000,7527.000000,5618.000000,1.000000,59.413574
7171.000000,7533.000000,5622.000000,1.000000,59.413574
7171.000000,7533.000000,5624.000000,0.000000,29.171387
7171.000000,7532.000000,5625.000000,0.000000,29.171387
7171.000000,7529.000000,5623.000000,0.000000,29.171387
7171.000000,7521.000000,5616.000000,0.000000,29.171387
7171.000000,7529.000000,5622.000000,0.000000,29.171387
7171.000000,7529.000000,5621.000000,0.000000,29.171387
7171.000000,7529.000000,5621.000000,0.000000,29.171387
7171.000000,7521.000000,5616.000000,0.000000,29.171387
7170.000000,7515.000000,5611.000000,0.000000,29.171387
7170.000000,7517.000000,5612.000000,0.000000,29.171387
7171.000000,7515.000000,5611.000000,0.000000,29.171387
7170.000000,7517.000000,5611.000000,0.000000,29.171387
7171.000000,7517.000000,5612.000000,0.000000,29.171387
7171.000000,7517.000000,5611.000000,0.000000,29.171387
7171.000000,7517.000000,5613.000000,0.000000,29.171387
7170.000000,7520.000000,5613.000000,0.000000,29.171387
7171.000000,7519.000000,5613.000000,0.000000,29.171387
7171.000000,7518.000000,5611.000000,0.000000,29.171387
7171.000000,7517.000000,5612.000000,0.000000,29.171387
7171.000000,7516.000000,5611.000000,0.000000,29.171387
7170.000000,7515.000000,5610.000000,0.000000,29.171387
7170.000000,7514.000000,5610.000000,0.000000,29.171387
7171.000000,7515.000000,5611.000000,0.000000,29.171387
7171.000000,7515.000000,5609.000000,0.000000,29.171387
7170.000000,7515.000000,5609.000000,0.000000,29.171387
7171.000000,7515.000000,5610.000000,0.000000,29.171387
7171.000000,7516.000000,5611.000000,0.000000,29.171387
7170.000000,7515.000000,5610.000000,0.000000,29.171387
7171.000000,7516.000000,5610.000000,0.000000,29.171387
7170.000000,7516.000000,5610.000000,0.000000,29.171387
7171.000000,7518.000000,5613.000000,0.000000,29.171387
7171.000000,7519.000000,5613.000000,0.000000,29.171387
7171.000000,7518.000000,5613.000000,0.000000,29.171387
7171.000000,7518.000000,5613.000000,0.000000,29.171387
7171.000000,7519.000000,5612.000000,0.000000,29.171387
7171.000000,7518.000000,5611.000000,0.000000,29.171387
7171.000000,7515.000000,5610.000000,0.000000,29.171387
7171.000000,7513.000000,5609.000000,0.000000,29.171387
7170.000000,7514.000000,5609.000000,0.000000,29.171387
7170.000000,7514.000000,5608.000000,0.000000,29.171387
7170.000000,7514.000000,5610.000000,0.000000,29.171387
7170.000000,7515.000000,5610.000000,0.000000,29.171387
7170.000000,7515.000000,5611.000000,0.000000,29.171387
7170.000000,7516.000000,5611.000000,0.000000,29.171387
7170.000000,7516.000000,5611.000000,0.000000,29.171387
7170.000000,7516.000000,5611.000000,0.000000,29.171387
7171.000000,7517.000000,5612.000000,0.000000,29.171387
7171.000000,7519.000000,5613.000000,0.000000,29.171387
7171.000000,7520.000000,5612.000000,0.000000,29.171387
7171.000000,7520.000000,5613.000000,0.000000,29.171387
7171.000000,7520.000000,5613.000000,0.000000,29.171387
7171.000000,7520.000000,5611.000000,0.000000,29.171387
7171.000000,7517.000000,5611.000000,0.000000,29.171387
7170.000000,7516.000000,5609.000000,0.000000,29.171387
7170.000000,7514.000000,5610.000000,0.000000,29.171387
7171.000000,7513.000000,5610.000000,0.000000,29.171387
7171.000000,7514.000000,5611.000000,0.000000,29.171387
7170.000000,7514.000000,5610.000000,0.000000,29.171387
7171.000000,7515.000000,5611.000000,0.000000,29.171387
7171.000000,7514.000000,5610.000000,0.000000,29.171387
7171.000000,7514.000000,5611.000000,0.000000,29.171387
7170.000000,7515.000000,5611.000000,0.000000,29.171387
7171.000000,7517.000000,5611.000000,0.000000,29.171387
7171.000000,7517.000000,5612.000000,0.000000,29.171387
7171.000000,7518.000000,5611.000000,0.000000,29.171387
7171.000000,7521.000000,5613.000000,0.000000,29.171387
7171.000000,7522.000000,5615.000000,0.000000,29.171387
7171.000000,7522.000000,5614.000000,0.000000,29.171387
7171.000000,7519.000000,5612.000000,0.000000,29.171387
7171.000000,7519.000000,5612.000000,0.000000,29.171387
7171.000000,7520.000000,5612.000000,0.000000,29.171387
7171.000000,7518.000000,5612.000000,0.000000,29.171387
7171.000000,7520.000000,5613.000000,0.000000,29.171387
7170.000000,7518.000000,5612.000000,0.000000,29.171387
7171.000000,7519.000000,5611.000000,0.000000,29.171387
7171.000000,7518.000000,5611.000000,0.000000,29.171387
7171.000000,7518.000000,5612.000000,0.000000,29.171387
7171.000000,7519.000000,5611.000000,0.000000,29.171387
7171.000000,7519.000000,5612.000000,0.000000,29.171387
7171.000000,7519.000000,5612.000000,0.000000,29.171387
7170.000000,7520.000000,5613.000000,0.000000,29.171387
7171.000000,7521.000000,5614.000000,0.000000,29.171387
7171.000000,7522.000000,5614.000000,0.000000,29.171387
7171.000000,7523.000000,5614.000000,0.000000,29.171387
7171.000000,7523.000000,5616.000000,0.000000,29.171387
7171.000000,7521.000000,5616.000000,0.000000,29.171387
7171.000000,7519.000000,5613.000000,0.000000,29.171387
7171.000000,7519.000000,5612.000000,0.000000,29.171387
7171.000000,7519.000000,5612.000000,0.000000,29.171387
7171.000000,7517.000000,5611.000000,0.000000,29.171387
7171.000000,7517.000000,5611.000000,0.000000,29.171387
7171.000000,7516.000000,5611.000000,0.000000,29.171387
7171.000000,7519.000000,5613.000000,0.000000,29.171387
7171.000000,7517.000000,5613.000000,0.000000,29.171387
7171.000000,7518.000000,5613.000000,0.000000,29.171387
7171.000000,7520.000000,5612.000000,0.000000,29.171387
7171.000000,7521.000000,5614.000000,0.000000,29.171387
7171.000000,7521.000000,5614.000000,0.000000,29.171387
7171.000000,7520.000000,5613.000000,0.000000,29.171387
7171.000000,7523.000000,5615.000000,0.000000,29.171387
7171.000000,7525.000000,5616.000000,0.000000,29.171387
7171.000000,7522.000000,5615.000000,0.000000,29.171387
7171.000000,7521.000000,5615.000000,0.000000,29.171387
7171.000000,7519.000000,5614.000000,0.000000,29.171387
7171.000000,7519.000000,5613.000000,0.000000,29.171387
7171.000000,7518.000000,5613.000000,0.000000,29.171387
7170.000000,7518.000000,5611.000000,0.000000,29.171387
7170.000000,7517.000000,5611.000000,0.000000,29.171387
7171.000000,7517.000000,5612.000000,0.000000,29.171387
7170.000000,7517.000000,5610.000000,0.000000,29.171387
7170.000000,7516.000000,5611.000000,0.000000,29.171387
7170.000000,7517.000000,5612.000000,0.000000,29.171387
7170.000000,7518.000000,5611.000000,0.000000,29.171387
7171.000000,7518.000000,5612.000000,0.000000,29.171387
7171.000000,7521.000000,5613.000000,0.000000,29.171387
7171.000000,7521.000000,5614.000000,0.000000,29.171387
7171.000000,7523.000000,5614.000000,0.000000,29.171387
7171.000000,7520.000000,5613.000000,0.000000,29.171387
7171.000000,7521.000000,5613.000000,0.000000,29.171387
7171.000000,7518.000000,5611.000000,0.000000,29.171387
7171.000000,7517.000000,5610.000000,1.000000,19.585449
7170.000000,7515.000000,5610.000000,1.000000,19.585449
7171.000000,7515.000000,5611.000000,1.000000,19.585449
7170.000000,7526.000000,5620.000000,1.000000,19.585449
7171.000000,7527.000000,5621.000000,1.000000,19.585449
7171.000000,7527.000000,5620.000000,1.000000,19.585449
7171.000000,7527.000000,5620.000000,1.000000,19.585449
7171.000000,7527.000000,5618.000000,1.000000,19.585449
7171.000000,7528.000000,5620.000000,1.000000,19.585449
7171.000000,7528.000000,5622.000000,1.000000,19.585449
7171.000000,7530.000000,5622.000000,1.000000,19.585449
7171.000000,7524.000000,5615.000000,1.000000,19.585449
7171.000000,7528.000000,5617.000000,1.000000,19.585449
7171.000000,7533.000000,5622.000000,1.000000,19.585449
7171.000000,7538.000000,5626.000000,1.000000,19.585449
7192.000000,7562.000000,5648.000000,1.000000,19.585449
7236.000000,7584.000000,5663.000000,1.000000,19.585449
7290.000000,7619.000000,5686.000000,1.000000,19.585449
7290.000000,7793.000000,5834.000000,1.000000,19.585449
7416.000000,7793.000000,5834.000000,1.000000,19.585449
7581.000000,8052.000000,6062.000000,1.000000,19.585449
7540.000000,8064.000000,6079.000000,1.000000,19.585449
7469.000000,8025.000000,6068.000000,1.000000,19.585449
7425.000000,7963.000000,6025.000000,1.000000,19.585449
7404.000000,7925.000000,5976.000000,1.000000,19.585449
7408.000000,7899.000000,5917.000000,1.000000,19.585449
7402.000000,7857.000000,5871.000000,1.000000,19.585449
7402.000000,7831.000000,5863.000000,1.000000,19.585449
7400.000000,7831.000000,5863.000000,1.000000,19.585449
7401.000000,7827.000000,5862.000000,1.000000,19.585449
7400.000000,7828.000000,5859.000000,1.000000,19.585449
7402.000000,7831.000000,5854.000000,1.000000,19.585449
7406.000000,7833.000000,5847.000000,1.000000,19.585449
7396.000000,7831.000000,5843.000000,1.000000,19.585449
7391.000000,7831.000000,5841.000000,1.000000,19.585449
7386.000000,7829.000000,5838.000000,1.000000,19.585449
7386.000000,7825.000000,5834.000000,1.000000,19.585449
7382.000000,7825.000000,5831.000000,1.000000,19.585449
7378.000000,7822.000000,5831.000000,1.000000,19.585449
7375.000000,7820.000000,5829.000000,1.000000,19.585449
7372.000000,7818.000000,5826.000000,1.000000,19.585449
7369.000000,7819.000000,5826.000000,1.000000,19.585449
7365.000000,7815.000000,5823.000000,1.000000,19.585449
7362.000000,7814.000000,5822.000000,1.000000,19.585449
7359.000000,7813.000000,5820.000000,1.000000,19.585449
7359.000000,7809.000000,5817.000000,1.000000,19.585449
7353.000000,7809.000000,5809.000000,1.000000,19.585449
7341.000000,7796.000000,5809.000000,1.000000,19.585449
7343.000000,7799.000000,5813.000000,1.000000,19.585449
7338.000000,7795.000000,5811.000000,1.000000,19.585449
7331.000000,7790.000000,5806.000000,1.000000,19.585449
7330.000000,7789.000000,5805.000000,1.000000,19.585449
7319.000000,7775.000000,5797.000000,1.000000,19.585449
7325.000000,7782.000000,5802.000000,1.000000,19.585449
7325.000000,7779.000000,5800.000000,1.000000,19.585449
7323.000000,7779.000000,5799.000000,1.000000,19.585449
7321.000000,7776.000000,5799.000000,1.000000,19.585449
7319.000000,7775.000000,5799.000000,1.000000,19.585449
7318.000000,7774.000000,5798.000000,1.000000,19.585449
7314.000000,7771.000000,5796.000000,1.000000,19.585449
7315.000000,7770.000000,5796.000000,1.000000,19.585449
7310.000000,7764.000000,5792.000000,1.000000,19.585449
7306.000000,7759.000000,5789.000000,1.000000,19.585449
7302.000000,7753.000000,5786.000000,1.000000,19.585449
7302.000000,7753.000000,5785.000000,1.000000,19.585449
7301.000000,7750.000000,5785.000000,1.000000,19.585449
7296.000000,7748.000000,5784.000000,1.000000,19.585449
7291.000000,7744.000000,5782.000000,1.000000,19.585449
7288.000000,7740.000000,5778.000000,1.000000,19.585449
7289.000000,7737.000000,5779.000000,1.000000,19.585449
7288.000000,7736.000000,5777.000000,1.000000,19.585449
7287.000000,7734.000000,5776.000000,1.000000,19.585449
7285.000000,7731.000000,5775.000000,1.000000,19.585449
7285.000000,7731.000000,5775.000000,1.000000,19.585449
7284.000000,7731.000000,5775.000000,1.000000,19.585449
7275.000000,7723.000000,5768.000000,1.000000,19.585449
7278.000000,7723.000000,5770.000000,1.000000,19.585449
7274.000000,7721.000000,5769.000000,1.000000,19.585449
7272.000000,7716.000000,5767.000000,1.000000,19.585449
7266.000000,7713.000000,5762.000000,1.000000,19.585449
7258.000000,7704.000000,5757.000000,1.000000,19.585449
7261.000000,7708.000000,5759.000000,1.000000,19.585449
7261.000000,7707.000000,5760.000000,1.000000,19.585449
7261.000000,7707.000000,5760.000000,1.000000,19.585449
7257.000000,7705.000000,5757.000000,1.000000,19.585449
7255.000000,7700.000000,5755.000000,1.000000,19.585449
7255.000000,7700.000000,5756.000000,1.000000,19.585449
7256.000000,7700.000000,5756.000000,1.000000,19.585449
7255.000000,7698.000000,5755.000000,1.000000,19.585449
7254.000000,7699.000000,5754.000000,1.000000,19.585449
7256.000000,7700.000000,5755.000000,1.000000,19.585449
7256.000000,7695.000000,5756.000000,1.000000,19.585449
7259.000000,7695.000000,5756.000000,1.000000,19.585449
7255.000000,7690.000000,5754.000000,1.000000,19.585449
7247.000000,7683.000000,5750.000000,1.000000,19.585449
7245.000000,7680.000000,5748.000000,1.000000,19.585449
7243.000000,7679.000000,5748.000000,1.000000,19.585449
7241.000000,7675.000000,5745.000000,1.000000,19.585449
7240.000000,7676.000000,5744.000000,1.000000,19.585449
7239.000000,7673.000000,5743.000000,1.000000,19.585449
7239.000000,7673.000000,5742.000000,1.000000,19.585449
7240.000000,7673.000000,5742.000000,1.000000,19.585449
7236.000000,7672.000000,5742.000000,1.000000,19.585449
7230.000000,7666.000000,5739.000000,1.000000,19.585449
7240.000000,7672.000000,5742.000000,1.000000,19.585449
7240.000000,7672.000000,5741.000000,1.000000,19.585449
7241.000000,7674.000000,5742.000000,1.000000,19.585449
7240.000000,7673.000000,5742.000000,1.000000,19.585449
7232.000000,7665.000000,5739.000000,1.000000,19.585449
7232.000000,7667.000000,5741.000000,1.000000,19.585449
7235.000000,7667.000000,5738.000000,1.000000,19.585449
7229.000000,7661.000000,5738.000000,1.000000,19.585449
7231.000000,7660.000000,5737.000000,1.000000,19.585449
7232.000000,7661.000000,5738.000000,1.000000,19.585449
7232.000000,7658.000000,5737.000000,1.000000,19.585449
7232.000000,7660.000000,5737.000000,1.000000,19.585449
7231.000000,7659.000000,5736.000000,1.000000,19.585449
7233.000000,7659.000000,5738.000000,1.000000,19.585449
7231.000000,7659.000000,5737.000000,1.000000,19.585449
7231.000000,7659.000000,5735.000000,1.000000,19.585449
7234.000000,7662.000000,5738.000000,0.000000,536.122070
7237.000000,7667.000000,5740.000000,0.000000,536.122070
7238.000000,7665.000000,5739.000000,0.000000,536.122070
7237.000000,7665.000000,5739.000000,0.000000,536.122070
7237.000000,7662.000000,5737.000000,0.000000,536.122070
7236.000000,7662.000000,5737.000000,0.000000,536.122070
7234.000000,7659.000000,5737.000000,0.000000,536.122070
7231.000000,7656.000000,5733.000000,0.000000,536.122070
7216.000000,7643.000000,5725.000000,0.000000,536.122070
7218.000000,7643.000000,5725.000000,0.000000,536.122070
7218.000000,7643.000000,5726.000000,0.000000,536.122070
7218.000000,7644.000000,5726.000000,0.000000,536.122070
7220.000000,7646.000000,5726.000000,0.000000,536.122070
7220.000000,7648.000000,5728.000000,0.000000,536.122070
7221.000000,7648.000000,5728.000000,0.000000,536.122070
7219.000000,7648.000000,5727.000000,0.000000,536.122070
7221.000000,7651.000000,5728.000000,0.000000,536.122070
7225.000000,7653.000000,5729.000000,0.000000,536.122070
7226.000000,7655.000000,5730.000000,0.000000,536.122070
7230.000000,7659.000000,5732.000000,0.000000,536.122070
7230.000000,7658.000000,5730.000000,0.000000,536.122070
7229.000000,7656.000000,5731.000000,0.000000,536.122070
7229.000000,7655.000000,5731.000000,0.000000,536.122070
7227.000000,7655.000000,5729.000000,0.000000,536.122070
7226.000000,7653.000000,5729.000000,0.000000,536.122070
7226.000000,7655.000000,5729.000000,0.000000,536.122070
7227.000000,7655.000000,5729.000000,0.000000,536.122070
7226.000000,7657.000000,5730.000000,0.000000,536.122070
7229.000000,7657.000000,5728.000000,0.000000,536.122070
7229.000000,7658.000000,5729.000000,0.000000,536.122070
7230.000000,7660.000000,5731.000000,0.000000,536.122070
7230.000000,7665.000000,5733.000000,0.000000,536.122070
7234.000000,7665.000000,5734.000000,0.000000,536.122070
7233.000000,7667.000000,5734.000000,0.000000,536.122070
7238.000000,7670.000000,5736.000000,0.000000,536.122070
7240.000000,7672.000000,5736.000000,0.000000,536.122070
7240.000000,7673.000000,5736.000000,0.000000,536.122070
7241.000000,7673.000000,5737.000000,0.000000,536.122070
7239.000000,7672.000000,5737.000000,0.000000,536.122070
7236.000000,7670.000000,5735.000000,0.000000,536.122070
7236.000000,7670.000000,5736.000000,0.000000,536.122070
7238.000000,7670.000000,5734.000000,0.000000,536.122070
7237.000000,7668.000000,5734.000000,0.000000,536.122070
7239.000000,7670.000000,5736.000000,0.000000,536.122070
7239.000000,7671.000000,5736.000000,0.000000,536.122070
7240.000000,7673.000000,5736.000000,0.000000,536.122070
7241.000000,7674.000000,5735.000000,0.000000,536.122070
7243.000000,7674.000000,5736.000000,0.000000,536.122070
7243.000000,7675.000000,5734.000000,0.000000,536.122070
7243.000000,7678.000000,5737.000000,0.000000,536.122070
7246.000000,7678.000000,5737.000000,0.000000,536.122070
7248.000000,7680.000000,5738.000000,0.000000,536.122070
7248.000000,7683.000000,5740.000000,0.000000,536.122070
7249.000000,7683.000000,5738.000000,0.000000,536.122070
7249.000000,7680.000000,5738.000000,0.000000,536.122070
7248.000000,7679.000000,5737.000000,0.000000,536.122070
7246.000000,7680.000000,5737.000000,0.000000,536.122070
7248.000000,7679.000000,5737.000000,0.000000,536.122070
7247.000000,7681.000000,5737.000000,0.000000,536.122070
7248.000000,7681.000000,5736.000000,0.000000,536.122070
7248.000000,7683.000000,5738.000000,0.000000,536.122070
7248.000000,7684.000000,5738.000000,0.000000,536.122070
7251.000000,7684.000000,5740.000000,0.000000,536.122070
7253.000000,7687.000000,5740.000000,0.000000,536.122070
7254.000000,7689.000000,5741.000000,0.000000,536.122070
7257.000000,7691.000000,5742.000000,0.000000,536.122070
7258.000000,7693.000000,5744.000000,0.000000,536.122070
7259.000000,7695.000000,5745.000000,0.000000,536.122070
7262.000000,7697.000000,5747.000000,0.000000,536.122070
7262.000000,7698.000000,5746.000000,0.000000,536.122070
7260.000000,7696.000000,5745.000000,0.000000,536.122070
7260.000000,7696.000000,5744.000000,0.000000,536.122070
7260.000000,7695.000000,5744.000000,0.000000,536.122070
7261.000000,7694.000000,5745.000000,0.000000,536.122070
7259.000000,7695.000000,5744.000000,0.000000,536.122070
7260.000000,7697.000000,5745.000000,0.000000,536.122070
7260.000000,7695.000000,5745.000000,0.000000,536.122070
7262.000000,7697.000000,5746.000000,0.000000,536.122070
7262.000000,7697.000000,5746.000000,0.000000,536.122070
7262.000000,7698.000000,5746.000000,0.000000,536.122070
7262.000000,7698.000000,5747.000000,0.000000,536.122070
7263.000000,7699.000000,5747.000000,0.000000,536.122070
7265.000000,7702.000000,5749.000000,0.000000,536.122070
7268.000000,7706.000000,5751.000000,0.000000,536.122070
7269.000000,7708.000000,5752.000000,0.000000,536.122070
7272.000000,7708.000000,5753.000000,0.000000,536.122070
7272.000000,7708.000000,5753.000000,0.000000,536.122070
7270.000000,7704.000000,5750.000000,0.000000,536.122070
7268.000000,7703.000000,5750.000000,0.000000,536.122070
7268.000000,7702.000000,5750.000000,0.000000,536.122070
7267.000000,7702.000000,5750.000000,0.000000,536.122070
7268.000000,7704.000000,5750.000000,0.000000,536.122070
7267.000000,7704.000000,5749.000000,0.000000,536.122070
7267.000000,7704.000000,5749.000000,0.000000,536.122070
7266.000000,7705.000000,5749.000000,0.000000,536.122070
7267.000000,7704.000000,5749.000000,0.000000,536.122070
7270.000000,7705.000000,5750.000000,0.000000,536.122070
7271.000000,7707.000000,5751.000000,0.000000,536.122070
7271.000000,7709.000000,5752.000000,0.000000,536.122070
7271.000000,7709.000000,5752.000000,0.000000,536.122070
7271.000000,7708.000000,5752.000000,0.000000,536.122070
7270.000000,7709.000000,5750.000000,0.000000,536.122070
7272.000000,7710.000000,5752.000000,0.000000,536.122070
7272.000000,7710.000000,5752.000000,0.000000,536.122070
7272.000000,7708.000000,5751.000000,0.000000,536.122070
7269.000000,7707.000000,5750.000000,0.000000,536.122070
7269.000000,7706.000000,5750.000000,0.000000,536.122070
7269.000000,7705.000000,5748.000000,0.000000,536.122070
7268.000000,7705.000000,5748.000000,0.000000,536.122070
7268.000000,7706.000000,5748.000000,0.000000,536.122070
7267.000000,7705.000000,5748.000000,0.000000,536.122070
7268.000000,7707.000000,5748.000000,0.000000,536.122070
7270.000000,7706.000000,5748.000000,0.000000,536.122070
7269.000000,7707.000000,5748.000000,0.000000,536.122070
7271.000000,7706.000000,5750.000000,0.000000,536.122070
7271.000000,7708.000000,5750.000000,0.000000,536.122070
7271.000000,7710.000000,5752.000000,0.000000,536.122070
7274.000000,7710.000000,5753.000000,0.000000,536.122070
7275.000000,7712.000000,5753.000000,0.000000,536.122070
7276.000000,7712.000000,5754.000000,0.000000,536.122070
7273.000000,7710.000000,5751.000000,1.000000,68.756348
7273.000000,7709.000000,5750.000000,1.000000,68.756348
7271.000000,7709.000000,5750.000000,1.000000,68.756348
7271.000000,7708.000000,5750.000000,1.000000,68.756348
7281.000000,7717.000000,5757.000000,1.000000,68.756348
7285.000000,7718.000000,5759.000000,1.000000,68.756348
7284.000000,7718.000000,5759.000000,1.000000,68.756348
7280.000000,7717.000000,5757.000000,1.000000,68.756348
7283.000000,7719.000000,5759.000000,1.000000,68.756348
7274.000000,7713.000000,5753.000000,1.000000,68.756348
7285.000000,7720.000000,5760.000000,1.000000,68.756348
7285.000000,7720.000000,5761.000000,1.000000,68.756348
7288.000000,7723.000000,5761.000000,1.000000,68.756348
7287.000000,7723.000000,5760.000000,1.000000,68.756348
7289.000000,7724.000000,5761.000000,1.000000,68.756348
7290.000000,7723.000000,5761.000000,1.000000,68.756348
7283.000000,7719.000000,5759.000000,1.000000,68.756348
7283.000000,7719.000000,5759.000000,1.000000,68.756348
7283.000000,7719.000000,5759.000000,1.000000,68.756348
7282.000000,7717.000000,5758.000000,1.000000,68.756348
7282.000000,7718.000000,5758.000000,1.000000,68.756348
7282.000000,7718.000000,5758.000000,1.000000,68.756348
7282.000000,7717.000000,5758.000000,1.000000,68.756348
7282.000000,7718.000000,5759.000000,1.000000,68.756348
7282.000000,7717.000000,5758.000000,1.000000,68.756348
7280.000000,7718.000000,5757.000000,1.000000,68.756348
7283.000000,7719.000000,5758.000000,1.000000,68.756348
7286.000000,7721.000000,5759.000000,1.000000,68.756348
7287.000000,7722.000000,5760.000000,1.000000,68.756348
7287.000000,7723.000000,5760.000000,1.000000,68.756348
7288.000000,7723.000000,5760.000000,1.000000,68.756348
7283.000000,7719.000000,5757.000000,1.000000,68.756348
7280.000000,7718.000000,5757.000000,1.000000,68.756348
7282.000000,7716.000000,5757.000000,1.000000,68.756348
7284.000000,7716.000000,5757.000000,1.000000,68.756348
7283.000000,7715.000000,5757.000000,1.000000,68.756348
7284.000000,7715.000000,5758.000000,1.000000,68.756348
7272.000000,7708.000000,5750.000000,1.000000,68.756348
7272.000000,7716.000000,5757.000000,1.000000,68.756348
7282.000000,7716.000000,5757.000000,1.000000,68.756348
7282.000000,7715.000000,5757.000000,1.000000,68.756348
7283.000000,7716.000000,5757.000000,1.000000,68.756348
7280.000000,7715.000000,5756.000000,1.000000,68.756348
7285.000000,7717.000000,5758.000000,1.000000,68.756348
7286.000000,7719.000000,5759.000000,1.000000,68.756348
7288.000000,7721.000000,5760.000000,1.000000,68.756348
7288.000000,7722.000000,5760.000000,1.000000,68.756348
7288.000000,7722.000000,5760.000000,1.000000,68.756348
7287.000000,7722.000000,5759.000000,1.000000,68.756348
7286.000000,7719.000000,5759.000000,1.000000,68.756348
7283.000000,7717.000000,5757.000000,1.000000,68.756348
7279.000000,7714.000000,5754.000000,1.000000,68.756348
7282.000000,7715.000000,5755.000000,1.000000,68.756348
7281.000000,7715.000000,5757.000000,1.000000,68.756348
7282.000000,7715.000000,5755.000000,1.000000,68.756348
7281.000000,7716.000000,5756.000000,1.000000,68.756348
7281.000000,7716.000000,5756.000000,1.000000,68.756348
7282.000000,7716.000000,5756.000000,1.000000,68.756348
7282.000000,7715.000000,5756.000000,1.000000,68.756348
7283.000000,7716.000000,5756.000000,1.000000,68.756348
7275.000000,7712.000000,5751.000000,1.000000,68.756348
7287.000000,7718.000000,5758.000000,1.000000,68.756348
7290.000000,7722.000000,5760.000000,1.000000,68.756348
7289.000000,7722.000000,5760.000000,1.000000,68.756348
7289.000000,7721.000000,5760.000000,1.000000,68.756348
7277.000000,7715.000000,5753.000000,1.000000,68.756348
7277.000000,7715.000000,5757.000000,1.000000,68.756348
7285.000000,7718.000000,5757.000000,1.000000,68.756348
7280.000000,7715.000000,5753.000000,1.000000,68.756348
7283.000000,7715.000000,5757.000000,1.000000,68.756348
7285.000000,7717.000000,5758.000000,1.000000,68.756348
7283.000000,7716.000000,5757.000000,1.000000,68.756348
7283.000000,7716.000000,5757.000000,1.000000,68.756348
7283.000000,7716.000000,5757.000000,1.000000,68.756348
7284.000000,7716.000000,5757.000000,1.000000,68.756348
7284.000000,7716.000000,5756.000000,1.000000,68.756348
7284.000000,7718.000000,5756.000000,1.000000,68.756348
7284.000000,7717.000000,5757.000000,1.000000,68.756348
7285.000000,7720.000000,5759.000000,1.000000,68.756348
7287.000000,7720.000000,5759.000000,1.000000,68.756348
7290.000000,7722.000000,5760.000000,1.000000,68.756348
7288.000000,7723.000000,5760.000000,1.000000,68.756348
7288.000000,7719.000000,5759.000000,1.000000,68.756348
7286.000000,7720.000000,5758.000000,1.000000,68.756348
7286.000000,7717.000000,5757.000000,1.000000,68.756348
7285.000000,7717.000000,5757.000000,1.000000,68.756348
7284.000000,7716.000000,5756.000000,1.000000,68.756348
7285.000000,7717.000000,5757.000000,1.000000,68.756348
7276.000000,7711.000000,5751.000000,1.000000,68.756348
7287.000000,7718.000000,5758.000000,1.000000,68.756348
7289.000000,7719.000000,5759.000000,1.000000,68.756348
7287.000000,7719.000000,5758.000000,1.000000,68.756348
7287.000000,7720.000000,5758.000000,1.000000,68.756348
7287.000000,7715.000000,5753.000000,1.000000,68.756348
7279.000000,7715.000000,5753.000000,1.000000,68.756348
7289.000000,7721.000000,5758.000000,1.000000,68.756348
7290.000000,7724.000000,5760.000000,1.000000,68.756348
7290.000000,7724.000000,5760.000000,1.000000,68.756348
7290.000000,7724.000000,5760.000000,1.000000,68.756348
7289.000000,7722.000000,5758.000000,1.000000,68.756348
7289.000000,7721.000000,5760.000000,1.000000,68.756348
7286.000000,7719.000000,5758.000000,1.000000,68.756348
7286.000000,7719.000000,5756.000000,1.000000,68.756348
7284.000000,7719.000000,5758.000000,1.000000,68.756348
7287.000000,7721.000000,5758.000000,1.000000,68.756348
7288.000000,7720.000000,5759.000000,1.000000,68.756348
7288.000000,7721.000000,5759.000000,1.000000,68.756348
7288.000000,7721.000000,5758.000000,1.000000,68.756348
7288.000000,7722.000000,5758.000000,1.000000,68.756348
7289.000000,7723.000000,5759.000000,1.000000,68.756348
7289.000000,7724.000000,5759.000000,1.000000,68.756348
7289.000000,7724.000000,5757.000000,1.000000,68.756348
7288.000000,7724.000000,5760.000000,1.000000,68.756348
7291.000000,7726.000000,5760.000000,1.000000,68.756348
7293.000000,7727.000000,5761.000000,1.000000,68.756348
7293.000000,7727.000000,5761.000000,1.000000,68.756348
7283.000000,7719.000000,5754.000000,1.000000,68.756348
7290.000000,7724.000000,5759.000000,1.000000,68.756348
7289.000000,7723.000000,5759.000000,1.000000,68.756348
7286.000000,7721.000000,5757.000000,1.000000,68.756348
7290.000000,7724.000000,5760.000000,0.000000,18.171875
7282.000000,7719.000000,5754.000000,0.000000,18.171875
7287.000000,7724.000000,5758.000000,0.000000,18.171875
7290.000000,7725.000000,5759.000000,0.000000,18.171875
7290.000000,7726.000000,5759.000000,0.000000,18.171875
7290.000000,7727.000000,5759.000000,0.000000,18.171875
7290.000000,7728.000000,5760.000000,0.000000,18.171875
7293.000000,7728.000000,5756.000000,0.000000,18.171875
7286.000000,7723.000000,5756.000000,0.000000,18.171875
7280.000000,7720.000000,5754.000000,0.000000,18.171875
7280.000000,7720.000000,5753.000000,0.000000,18.171875
7278.000000,7718.000000,5751.000000,0.000000,18.171875
7276.000000,7714.000000,5750.000000,0.000000,18.171875
7275.000000,7714.000000,5750.000000,0.000000,18.171875
7273.000000,7714.000000,5749.000000,0.000000,18.171875
7273.000000,7713.000000,5748.000000,0.000000,18.171875
7274.000000,7713.000000,5750.000000,0.000000,18.171875
7275.000000,7713.000000,5750.000000,0.000000,18.171875
7274.000000,7714.000000,5749.000000,0.000000,18.171875
7275.000000,7714.000000,5751.000000,0.000000,18.171875
7276.000000,7715.000000,5751.000000,0.000000,18.171875
7277.000000,7715.000000,5751.000000,0.000000,18.171875
7277.000000,7716.000000,5751.000000,0.000000,18.171875
7277.000000,7716.000000,5751.000000,0.000000,18.171875
7278.000000,7718.000000,5751.000000,0.000000,18.171875
7278.000000,7718.000000,5754.000000,0.000000,18.171875
7279.000000,7720.000000,5754.000000,0.000000,18.171875
7280.000000,7720.000000,5753.000000,0.000000,18.171875
7278.000000,7717.000000,5753.000000,0.000000,18.171875
7275.000000,7715.000000,5751.000000,0.000000,18.171875
7274.000000,7714.000000,5750.000000,0.000000,18.171875
7274.000000,7712.000000,5749.000000,0.000000,18.171875
7272.000000,7713.000000,5748.000000,0.000000,18.171875
7274.000000,7714.000000,5749.000000,0.000000,18.171875
7274.000000,7714.000000,5750.000000,0.000000,18.171875
7275.000000,7714.000000,5750.000000,0.000000,18.171875
7273.000000,7713.000000,5749.000000,0.000000,18.171875
7274.000000,7715.000000,5750.000000,0.000000,18.171875
7275.000000,7715.000000,5750.000000,0.000000,18.171875
7277.000000,7717.000000,5752.000000,0.000000,18.171875
7277.000000,7716.000000,5752.000000,0.000000,18.171875
7279.000000,7718.000000,5752.000000,0.000000,18.171875
7278.000000,7717.000000,5751.000000,0.000000,18.171875
7278.000000,7716.000000,5752.000000,0.000000,18.171875
7277.000000,7716.000000,5752.000000,0.000000,18.171875
7275.000000,7715.000000,5750.000000,0.000000,18.171875
7275.000000,7712.000000,5750.000000,0.000000,18.171875
7274.000000,7713.000000,5749.000000,0.000000,18.171875
7272.000000,7711.000000,5749.000000,0.000000,18.171875
7273.000000,7710.000000,5748.000000,0.000000,18.171875
7272.000000,7710.000000,5748.000000,0.000000,18.171875
7270.000000,7710.000000,5748.000000,0.000000,18.171875
7270.000000,7711.000000,5748.000000,0.000000,18.171875
7271.000000,7711.000000,5748.000000,0.000000,18.171875
7271.000000,7712.000000,5748.000000,0.000000,18.171875
7271.000000,7712.000000,5748.000000,0.000000,18.171875
7273.000000,7714.000000,5749.000000,0.000000,18.171875
7275.000000,7716.000000,5750.000000,0.000000,18.171875
7276.000000,7717.000000,5751.000000,0.000000,18.171875
7276.000000,7717.000000,5751.000000,0.000000,18.171875
7274.000000,7716.000000,5750.000000,0.000000,18.171875
7274.000000,7712.000000,5749.000000,0.000000,18.171875
7271.000000,7712.000000,5748.000000,0.000000,18.171875
7270.000000,7711.000000,5748.000000,0.000000,18.171875
7268.000000,7709.000000,5747.000000,0.000000,18.171875
7270.000000,7709.000000,5746.000000,0.000000,18.171875
7268.000000,7708.000000,5746.000000,0.000000,18.171875
7268.000000,7708.000000,5746.000000,0.000000,18.171875
7269.000000,7707.000000,5747.000000,0.000000,18.171875
7269.000000,7708.000000,5747.000000,0.000000,18.171875
7269.000000,7709.000000,5747.000000,0.000000,18.171875
7269.000000,7709.000000,5746.000000,0.000000,18.171875
7270.000000,7709.000000,5746.000000,0.000000,18.171875
7271.000000,7711.000000,5747.000000,0.000000,18.171875
7273.000000,7710.000000,5747.000000,0.000000,18.171875
7272.000000,7712.000000,5748.000000,0.000000,18.171875
7272.000000,7711.000000,5748.000000,0.000000,18.171875
7269.000000,7709.000000,5746.000000,0.000000,18.171875
7269.000000,7707.000000,5745.000000,0.000000,18.171875
7269.000000,7704.000000,5744.000000,0.000000,18.171875
7266.000000,7704.000000,5743.000000,0.000000,18.171875
7265.000000,7703.000000,5743.000000,0.000000,18.171875
7265.000000,7702.000000,5742.000000,0.000000,18.171875
7264.000000,7703.000000,5743.000000,0.000000,18.171875
7263.000000,7702.000000,5742.000000,0.000000,18.171875
7264.000000,7703.000000,5743.000000,0.000000,18.171875
7265.000000,7703.000000,5743.000000,0.000000,18.171875
7263.000000,7704.000000,5743.000000,0.000000,18.171875
7266.000000,7704.000000,5743.000000,0.000000,18.171875
7266.000000,7704.000000,5744.000000,0.000000,18.171875
7267.000000,7706.000000,5744.000000,0.000000,18.171875
7269.000000,7707.000000,5744.000000,0.000000,18.171875
7269.000000,7707.000000,5744.000000,0.000000,18.171875
7269.000000,7707.000000,5746.000000,0.000000,18.171875
7268.000000,7706.000000,5744.000000,0.000000,18.171875
7265.000000,7703.000000,5743.000000,0.000000,18.171875
7263.000000,7702.000000,5742.000000,0.000000,18.171875
7263.000000,7701.000000,5740.000000,0.000000,18.171875
7263.000000,7701.000000,5741.000000,0.000000,18.171875
7264.000000,7702.000000,5741.000000,0.000000,18.171875
7264.000000,7701.000000,5741.000000,0.000000,18.171875
7264.000000,7702.000000,5741.000000,0.000000,18.171875
7264.000000,7701.000000,5741.000000,0.000000,18.171875
7263.000000,7702.000000,5742.000000,0.000000,18.171875
7266.000000,7703.000000,5743.000000,0.000000,18.171875
7267.000000,7704.000000,5743.000000,0.000000,18.171875
7268.000000,7705.000000,5743.000000,0.000000,18.171875
7268.000000,7706.000000,5744.000000,0.000000,18.171875
7269.000000,7706.000000,5744.000000,0.000000,18.171875
7271.000000,7707.000000,5745.000000,0.000000,18.171875
7271.000000,7709.000000,5746.000000,0.000000,18.171875
7269.000000,7708.000000,5744.000000,0.000000,18.171875
7268.000000,7705.000000,5743.000000,0.000000,18.171875
7265.000000,7703.000000,5743.000000,0.000000,18.171875
7264.000000,7703.000000,5741.000000,0.000000,18.171875
7265.000000,7704.000000,5742.000000,0.000000,18.171875
7265.000000,7704.000000,5742.000000,0.000000,18.171875
7267.000000,7704.000000,5750.000000,0.000000,18.171875
7277.000000,7712.000000,5750.000000,0.000000,18.171875
7282.000000,7715.000000,5754.000000,0.000000,18.171875
7281.000000,7715.000000,5754.000000,1.000000,26.757324
7283.000000,7717.000000,5754.000000,1.000000,26.757324
7283.000000,7717.000000,5756.000000,1.000000,26.757324
7284.000000,7718.000000,5756.000000,1.000000,26.757324
7286.000000,7720.000000,5756.000000,1.000000,26.757324
7287.000000,7722.000000,5757.000000,1.000000,26.757324
7290.000000,7722.000000,5758.000000,1.000000,26.757324
7287.000000,7720.000000,5756.000000,1.000000,26.757324
7274.000000,7710.000000,5747.000000,1.000000,26.757324
7266.000000,7707.000000,5744.000000,1.000000,26.757324
7268.000000,7707.000000,5744.000000,1.000000,26.757324
7268.000000,7707.000000,5744.000000,1.000000,26.757324
7267.000000,7707.000000,5744.000000,1.000000,26.757324
7269.000000,7708.000000,5745.000000,1.000000,26.757324
7269.000000,7707.000000,5745.000000,1.000000,26.757324
7269.000000,7709.000000,5745.000000,1.000000,26.757324
7269.000000,7708.000000,5744.000000,1.000000,26.757324
7268.000000,7709.000000,5744.000000,1.000000,26.757324
7269.000000,7710.000000,5745.000000,1.000000,26.757324
7270.000000,7712.000000,5747.000000,1.000000,26.757324
7270.000000,7714.000000,5749.000000,1.000000,26.757324
7273.000000,7714.000000,5749.000000,1.000000,26.757324
7273.000000,7713.000000,5748.000000,1.000000,26.757324
7274.000000,7715.000000,5749.000000,1.000000,26.757324
7274.000000,7714.000000,5749.000000,1.000000,26.757324
7275.000000,7713.000000,5749.000000,1.000000,26.757324
7271.000000,7712.000000,5747.000000,1.000000,26.757324
7269.000000,7712.000000,5746.000000,1.000000,26.757324
7269.000000,7712.000000,5745.000000,1.000000,26.757324
7269.000000,7712.000000,5744.000000,1.000000,26.757324
7269.000000,7712.000000,5747.000000,1.000000,26.757324
7270.000000,7712.000000,5747.000000,1.000000,26.757324
7271.000000,7712.000000,5747.000000,1.000000,26.757324
7272.000000,7712.000000,5747.000000,1.000000,26.757324
7270.000000,7712.000000,5748.000000,1.000000,26.757324
7271.000000,7713.000000,5747.000000,1.000000,26.757324
7271.000000,7714.000000,5748.000000,1.000000,26.757324
7274.000000,7716.000000,5750.000000,1.000000,26.757324
7274.000000,7716.000000,5751.000000,1.000000,26.757324
7275.000000,7716.000000,5749.000000,1.000000,26.757324
7274.000000,7715.000000,5749.000000,1.000000,26.757324
7275.000000,7715.000000,5750.000000,1.000000,26.757324
7273.000000,7713.000000,5749.000000,1.000000,26.757324
7270.000000,7713.000000,5748.000000,1.000000,26.757324
7270.000000,7711.000000,5748.000000,1.000000,26.757324
7270.000000,7710.000000,5747.000000,1.000000,26.757324
7270.000000,7711.000000,5748.000000,1.000000,26.757324
7270.000000,7713.000000,5746.000000,1.000000,26.757324
7269.000000,7713.000000,5747.000000,1.000000,26.757324
7270.000000,7713.000000,5747.000000,1.000000,26.757324
7269.000000,7712.000000,5748.000000,1.000000,26.757324
7272.000000,7714.000000,5749.000000,1.000000,26.757324
7271.000000,7714.000000,5747.000000,1.000000,26.757324
7273.000000,7715.000000,5749.000000,1.000000,26.757324
7274.000000,7716.000000,5749.000000,1.000000,26.757324
7274.000000,7716.000000,5749.000000,1.000000,26.757324
7272.000000,7715.000000,5749.000000,1.000000,26.757324
7272.000000,7715.000000,5747.000000,1.000000,26.757324
7270.000000,7713.000000,5747.000000,1.000000,26.757324
7267.000000,7711.000000,5747.000000,1.000000,26.757324
7267.000000,7710.000000,5746.000000,1.000000,26.757324
7266.000000,7709.000000,5745.000000,1.000000,26.757324
7265.000000,7710.000000,5745.000000,1.000000,26.757324
7264.000000,7710.000000,5745.000000,1.000000,26.757324
7266.000000,7709.000000,5746.000000,1.000000,26.757324
7267.000000,7710.000000,5746.000000,1.000000,26.757324
7267.000000,7711.000000,5746.000000,1.000000,26.757324
7266.000000,7711.000000,5746.000000,1.000000,26.757324
7266.000000,7711.000000,5745.000000,1.000000,26.757324
7266.000000,7713.000000,5746.000000,1.000000,26.757324
7268.000000,7714.000000,5747.000000,1.000000,26.757324
7268.000000,7712.000000,5747.000000,1.000000,26.757324
7266.000000,7709.000000,5747.000000,1.000000,26.757324
7264.000000,7707.000000,5745.000000,1.000000,26.757324
7261.000000,7705.000000,5744.000000,1.000000,26.757324
7261.000000,7705.000000,5744.000000,1.000000,26.757324
7260.000000,7705.000000,5744.000000,1.000000,26.757324
7262.000000,7705.000000,5743.000000,1.000000,26.757324
7261.000000,7704.000000,5743.000000,1.000000,26.757324
7260.000000,7704.000000,5743.000000,1.000000,26.757324
7260.000000,7703.000000,5741.000000,1.000000,26.757324
7259.000000,7703.000000,5742.000000,1.000000,26.757324
7261.000000,7705.000000,5743.000000,1.000000,26.757324
7258.000000,7706.000000,5742.000000,1.000000,26.757324
7258.000000,7705.000000,5743.000000,1.000000,26.757324
7260.000000,7705.000000,5741.000000,1.000000,26.757324
7259.000000,7704.000000,5741.000000,1.000000,26.757324
7255.000000,7701.000000,5741.000000,1.000000,26.757324
7252.000000,7699.000000,5740.000000,1.000000,26.757324
7251.000000,7697.000000,5739.000000,1.000000,26.757324
7252.000000,7696.000000,5739.000000,1.000000,26.757324
7250.000000,7695.000000,5738.000000,1.000000,26.757324
7250.000000,7695.000000,5737.000000,1.000000,26.757324
7250.000000,7694.000000,5736.000000,1.000000,26.757324
7249.000000,7694.000000,5736.000000,1.000000,26.757324
7251.000000,7695.000000,5736.000000,1.000000,26.757324
7251.000000,7694.000000,5737.000000,1.000000,26.757324
7251.000000,7695.000000,5737.000000,1.000000,26.757324
7248.000000,7698.000000,5738.000000,1.000000,26.757324
7249.000000,7694.000000,5737.000000,1.000000,26.757324
7246.000000,7691.000000,5735.000000,1.000000,26.757324
7246.000000,7688.000000,5733.000000,1.000000,26.757324
7246.000000,7686.000000,5733.000000,1.000000,26.757324
7242.000000,7686.000000,5731.000000,1.000000,26.757324
7240.000000,7684.000000,5731.000000,1.000000,26.757324
7236.000000,7683.000000,5730.000000,1.000000,26.757324
7238.000000,7682.000000,5730.000000,1.000000,26.757324
7237.000000,7681.000000,5729.000000,1.000000,26.757324
7238.000000,7681.000000,5730.000000,1.000000,26.757324
7239.000000,7681.000000,5730.000000,1.000000,26.757324
7238.000000,7680.000000,5730.000000,1.000000,26.757324
7239.000000,7682.000000,5730.000000,1.000000,26.757324
7239.000000,7682.000000,5730.000000,1.000000,26.757324
7236.000000,7679.000000,5730.000000,1.000000,26.757324
7236.000000,7677.000000,5729.000000,1.000000,26.757324
7231.000000,7672.000000,5726.000000,1.000000,26.757324
7233.000000,7671.000000,5729.000000,1.000000,26.757324
7233.000000,7670.000000,5727.000000,1.000000,26.757324
7244.000000,7681.000000,5733.000000,1.000000,26.757324
7245.000000,7681.000000,5733.000000,1.000000,26.757324
7242.000000,7679.000000,5732.000000,0.000000,50.929688
7245.000000,7681.000000,5734.000000,0.000000,50.929688
7245.000000,7680.000000,5732.000000,0.000000,50.929688
7246.000000,7680.000000,5733.000000,0.000000,50.929688
7248.000000,7681.000000,5732.000000,0.000000,50.929688
7246.000000,7682.000000,5734.000000,0.000000,50.929688
7246.000000,7680.000000,5733.000000,0.000000,50.929688
7244.000000,7680.000000,5733.000000,0.000000,50.929688
7237.000000,7671.000000,5728.000000,0.000000,50.929688
7223.000000,7659.000000,5722.000000,0.000000,50.929688
7223.000000,7657.000000,5722.000000,0.000000,50.929688
7223.000000,7657.000000,5722.000000,0.000000,50.929688
7222.000000,7657.000000,5721.000000,0.000000,50.929688
7223.000000,7658.000000,5722.000000,0.000000,50.929688
7223.000000,7657.000000,5723.000000,0.000000,50.929688
7223.000000,7656.000000,5723.000000,0.000000,50.929688
7221.000000,7656.000000,5722.000000,0.000000,50.929688
7224.000000,7658.000000,5722.000000,0.000000,50.929688
7224.000000,7660.000000,5723.000000,0.000000,50.929688
7228.000000,7661.000000,5724.000000,0.000000,50.929688
7230.000000,7662.000000,5723.000000,0.000000,50.929688
7228.000000,7661.000000,5723.000000,0.000000,50.929688
7222.000000,7656.000000,5721.000000,0.000000,50.929688
7221.000000,7654.000000,5721.000000,0.000000,50.929688
7221.000000,7652.000000,5720.000000,0.000000,50.929688
7221.000000,7652.000000,5721.000000,0.000000,50.929688
7220.000000,7654.000000,5721.000000,0.000000,50.929688
7220.000000,7653.000000,5721.000000,0.000000,50.929688
7221.000000,7653.000000,5720.000000,0.000000,50.929688
7222.000000,7653.000000,5721.000000,0.000000,50.929688
7221.000000,7654.000000,5720.000000,0.000000,50.929688
7224.000000,7655.000000,5720.000000,0.000000,50.929688
7226.000000,7656.000000,5720.000000,0.000000,50.929688
7226.000000,7658.000000,5721.000000,0.000000,50.929688
7226.000000,7658.000000,5723.000000,0.000000,50.929688
7228.000000,7660.000000,5723.000000,0.000000,50.929688
7226.000000,7659.000000,5721.000000,0.000000,50.929688
7225.000000,7656.000000,5720.000000,0.000000,50.929688
7224.000000,7654.000000,5719.000000,0.000000,50.929688
7222.000000,7653.000000,5720.000000,0.000000,50.929688
7221.000000,7651.000000,5720.000000,0.000000,50.929688
7222.000000,7652.000000,5719.000000,0.000000,50.929688
7224.000000,7653.000000,5720.000000,0.000000,50.929688
7224.000000,7652.000000,5721.000000,0.000000,50.929688
7224.000000,7652.000000,5721.000000,0.000000,50.929688
7224.000000,7653.000000,5719.000000,0.000000,50.929688
7224.000000,7655.000000,5720.000000,0.000000,50.929688
7226.000000,7658.000000,5720.000000,0.000000,50.929688
7229.000000,7659.000000,5722.000000,0.000000,50.929688
7228.000000,7661.000000,5722.000000,0.000000,50.929688
7230.000000,7664.000000,5723.000000,0.000000,50.929688
7230.000000,7664.000000,5722.000000,0.000000,50.929688
7230.000000,7660.000000,5721.000000,0.000000,50.929688
7228.000000,7660.000000,5721.000000,0.000000,50.929688
7228.000000,7659.000000,5720.000000,0.000000,50.929688
7226.000000,7659.000000,5721.000000,0.000000,50.929688
7228.000000,7659.000000,5721.000000,0.000000,50.929688
7227.000000,7658.000000,5720.000000,0.000000,50.929688
7228.000000,7660.000000,5721.000000,0.000000,50.929688
7231.000000,7660.000000,5720.000000,0.000000,50.929688
7231.000000,7662.000000,5721.000000,0.000000,50.929688
7231.000000,7663.000000,5722.000000,0.000000,50.929688
7232.000000,7663.000000,5722.000000,0.000000,50.929688
7235.000000,7665.000000,5722.000000,0.000000,50.929688
7235.000000,7668.000000,5723.000000,0.000000,50.929688
7236.000000,7669.000000,5725.000000,0.000000,50.929688
7242.000000,7675.000000,5728.000000,0.000000,50.929688
7242.000000,7677.000000,5728.000000,0.000000,50.929688
7242.000000,7676.000000,5726.000000,0.000000,50.929688
7241.000000,7674.000000,5727.000000,0.000000,50.929688
7241.000000,7673.000000,5727.000000,0.000000,50.929688
7240.000000,7673.000000,5726.000000,0.000000,50.929688
7241.000000,7672.000000,5726.000000,0.000000,50.929688
7240.000000,7673.000000,5727.000000,0.000000,50.929688
7242.000000,7673.000000,5727.000000,0.000000,50.929688
7242.000000,7674.000000,5727.000000,0.000000,50.929688
7243.000000,7676.000000,5728.000000,0.000000,50.929688
7244.000000,7676.000000,5728.000000,0.000000,50.929688
7244.000000,7678.000000,5728.000000,0.000000,50.929688
7244.000000,7680.000000,5729.000000,0.000000,50.929688
7248.000000,7680.000000,5729.000000,0.000000,50.929688
7247.000000,7681.000000,5729.000000,0.000000,50.929688
7248.000000,7684.000000,5731.000000,0.000000,50.929688
7251.000000,7686.000000,5731.000000,0.000000,50.929688
7252.000000,7687.000000,5731.000000,0.000000,50.929688
7252.000000,7687.000000,5731.000000,0.000000,50.929688
7251.000000,7686.000000,5731.000000,0.000000,50.929688
7250.000000,7684.000000,5730.000000,0.000000,50.929688
7249.000000,7685.000000,5729.000000,0.000000,50.929688
7249.000000,7685.000000,5730.000000,0.000000,50.929688
7251.000000,7685.000000,5730.000000,0.000000,50.929688
7249.000000,7685.000000,5730.000000,0.000000,50.929688
7251.000000,7687.000000,5731.000000,0.000000,50.929688
7252.000000,7687.000000,5731.000000,0.000000,50.929688
7253.000000,7689.000000,5732.000000,0.000000,50.929688
7254.000000,7691.000000,5733.000000,0.000000,50.929688
7255.000000,7692.000000,5734.000000,0.000000,50.929688
7256.000000,7694.000000,5735.000000,0.000000,50.929688
7258.000000,7696.000000,5735.000000,0.000000,50.929688
7258.000000,7696.000000,5737.000000,0.000000,50.929688
7260.000000,7698.000000,5737.000000,0.000000,50.929688
7259.000000,7695.000000,5736.000000,0.000000,50.929688
7257.000000,7695.000000,5736.000000,0.000000,50.929688
7258.000000,7695.000000,5735.000000,0.000000,50.929688
7258.000000,7695.000000,5735.000000,0.000000,50.929688
7257.000000,7696.000000,5734.000000,0.000000,50.929688
7257.000000,7694.000000,5735.000000,0.000000,50.929688
7257.000000,7697.000000,5736.000000,0.000000,50.929688
7260.000000,7697.000000,5735.000000,0.000000,50.929688
7260.000000,7699.000000,5737.000000,0.000000,50.929688
7259.000000,7699.000000,5738.000000,0.000000,50.929688
7261.000000,7700.000000,5738.000000,0.000000,50.929688
7261.000000,7701.000000,5738.000000,0.000000,50.929688
7263.000000,7703.000000,5739.000000,0.000000,50.929688
7265.000000,7704.000000,5740.000000,0.000000,50.929688
7264.000000,7704.000000,5740.000000,0.000000,50.929688
7263.000000,7702.000000,5740.000000,0.000000,50.929688
7262.000000,7701.000000,5738.000000,0.000000,50.929688
7262.000000,7699.000000,5739.000000,0.000000,50.929688
7262.000000,7699.000000,5738.000000,0.000000,50.929688
7261.000000,7700.000000,5739.000000,1.000000,52.343262
7261.000000,7701.000000,5739.000000,1.000000,52.343262
7263.000000,7702.000000,5739.000000,1.000000,52.343262
7265.000000,7703.000000,5741.000000,1.000000,52.343262
7265.000000,7715.000000,5751.000000,1.000000,52.343262
7280.000000,7715.000000,5751.000000,1.000000,52.343262
7280.000000,7716.000000,5751.000000,1.000000,52.343262
7279.000000,7714.000000,5750.000000,1.000000,52.343262
7275.000000,7712.000000,5747.000000,1.000000,52.343262
7284.000000,7719.000000,5754.000000,1.000000,52.343262
7284.000000,7718.000000,5754.000000,1.000000,52.343262
7282.000000,7716.000000,5754.000000,1.000000,52.343262
7280.000000,7714.000000,5751.000000,1.000000,52.343262
7280.000000,7713.000000,5751.000000,1.000000,52.343262
7280.000000,7713.000000,5751.000000,1.000000,52.343262
7279.000000,7713.000000,5751.000000,1.000000,52.343262
7280.000000,7714.000000,5751.000000,1.000000,52.343262
7279.000000,7712.000000,5749.000000,1.000000,52.343262
7280.000000,7713.000000,5750.000000,1.000000,52.343262
7280.000000,7713.000000,5751.000000,1.000000,52.343262
7280.000000,7714.000000,5753.000000,1.000000,52.343262
7280.000000,7716.000000,5754.000000,1.000000,52.343262
7280.000000,7716.000000,5753.000000,1.000000,52.343262
7282.000000,7716.000000,5754.000000,1.000000,52.343262
7283.000000,7717.000000,5754.000000,1.000000,52.343262
7283.000000,7718.000000,5754.000000,1.000000,52.343262
7280.000000,7714.000000,5751.000000,1.000000,52.343262
7281.000000,7714.000000,5752.000000,1.000000,52.343262
7275.000000,7710.000000,5748.000000,1.000000,52.343262
7274.000000,7710.000000,5748.000000,1.000000,52.343262
7277.000000,7711.000000,5748.000000,1.000000,52.343262
7275.000000,7711.000000,5750.000000,1.000000,52.343262
7275.000000,7711.000000,5748.000000,1.000000,52.343262
7275.000000,7712.000000,5748.000000,1.000000,52.343262
7273.000000,7710.000000,5747.000000,1.000000,52.343262
7274.000000,7710.000000,5747.000000,1.000000,52.343262
7271.000000,7709.000000,5747.000000,1.000000,52.343262
7278.000000,7713.000000,5751.000000,1.000000,52.343262
7278.000000,7713.000000,5750.000000,1.000000,52.343262
7279.000000,7714.000000,5751.000000,1.000000,52.343262
7278.000000,7713.000000,5751.000000,1.000000,52.343262
7278.000000,7713.000000,5750.000000,1.000000,52.343262
7276.000000,7711.000000,5750.000000,1.000000,52.343262
7271.000000,7706.000000,5747.000000,1.000000,52.343262
7270.000000,7706.000000,5747.000000,1.000000,52.343262
7270.000000,7704.000000,5747.000000,1.000000,52.343262
7270.000000,7703.000000,5746.000000,1.000000,52.343262
7270.000000,7703.000000,5745.000000,1.000000,52.343262
7270.000000,7704.000000,5745.000000,1.000000,52.343262
7268.000000,7702.000000,5745.000000,1.000000,52.343262
7268.000000,7703.000000,5745.000000,1.000000,52.343262
7270.000000,7703.000000,5745.000000,1.000000,52.343262
7266.000000,7701.000000,5744.000000,1.000000,52.343262
7268.000000,7702.000000,5744.000000,1.000000,52.343262
7268.000000,7704.000000,5745.000000,1.000000,52.343262
7269.000000,7705.000000,5745.000000,1.000000,52.343262
7260.000000,7699.000000,5742.000000,1.000000,52.343262
7260.000000,7698.000000,5741.000000,1.000000,52.343262
7262.000000,7696.000000,5741.000000,1.000000,52.343262
7262.000000,7693.000000,5739.000000,1.000000,52.343262
7260.000000,7693.000000,5739.000000,1.000000,52.343262
7259.000000,7692.000000,5739.000000,1.000000,52.343262
7259.000000,7693.000000,5738.000000,1.000000,52.343262
7256.000000,7690.000000,5738.000000,1.000000,52.343262
7251.000000,7687.000000,5735.000000,1.000000,52.343262
7257.000000,7690.000000,5739.000000,1.000000,52.343262
7257.000000,7691.000000,5739.000000,1.000000,52.343262
7258.000000,7692.000000,5739.000000,1.000000,52.343262
7258.000000,7691.000000,5739.000000,1.000000,52.343262
7256.000000,7691.000000,5739.000000,1.000000,52.343262
7258.000000,7694.000000,5739.000000,1.000000,52.343262
7259.000000,7695.000000,5740.000000,1.000000,52.343262
7256.000000,7691.000000,5738.000000,1.000000,52.343262
7252.000000,7685.000000,5735.000000,1.000000,52.343262
7250.000000,7684.000000,5734.000000,1.000000,52.343262
7250.000000,7681.000000,5733.000000,1.000000,52.343262
7249.000000,7681.000000,5734.000000,1.000000,52.343262
7249.000000,7679.000000,5732.000000,1.000000,52.343262
7247.000000,7679.000000,5734.000000,1.000000,52.343262
7248.000000,7681.000000,5734.000000,1.000000,52.343262
7249.000000,7679.000000,5733.000000,1.000000,52.343262
7248.000000,7680.000000,5733.000000,1.000000,52.343262
7247.000000,7681.000000,5732.000000,1.000000,52.343262
7250.000000,7682.000000,5733.000000,1.000000,52.343262
7246.000000,7679.000000,5732.000000,1.000000,52.343262
7249.000000,7682.000000,5733.000000,1.000000,52.343262
7250.000000,7682.000000,5733.000000,1.000000,52.343262
7250.000000,7682.000000,5733.000000,1.000000,52.343262
7249.000000,7679.000000,5733.000000,1.000000,52.343262
7245.000000,7676.000000,5732.000000,1.000000,52.343262
7243.000000,7674.000000,5732.000000,1.000000,52.343262
7241.000000,7673.000000,5731.000000,1.000000,52.343262
7236.000000,7667.000000,5728.000000,1.000000,52.343262
7242.000000,7674.000000,5733.000000,1.000000,52.343262
7239.000000,7670.000000,5731.000000,1.000000,52.343262
7241.000000,7673.000000,5731.000000,1.000000,52.343262
7241.000000,7673.000000,5732.000000,1.000000,52.343262
7240.000000,7672.000000,5732.000000,1.000000,52.343262
7243.000000,7674.000000,5732.000000,1.000000,52.343262
7243.000000,7676.000000,5731.000000,1.000000,52.343262
7244.000000,7677.000000,5733.000000,1.000000,52.343262
7247.000000,7677.000000,5732.000000,1.000000,52.343262
7242.000000,7675.000000,5732.000000,1.000000,52.343262
7238.000000,7671.000000,5730.000000,1.000000,52.343262
7239.000000,7672.000000,5732.000000,1.000000,52.343262
7239.000000,7668.000000,5729.000000,1.000000,52.343262
7236.000000,7668.000000,5729.000000,1.000000,52.343262
7235.000000,7665.000000,5728.000000,1.000000,52.343262
7235.000000,7667.000000,5729.000000,1.000000,52.343262
7236.000000,7668.000000,5729.000000,1.000000,52.343262
7238.000000,7667.000000,5730.000000,1.000000,52.343262
7237.000000,7670.000000,5731.000000,1.000000,52.343262
7234.000000,7664.000000,5729.000000,1.000000,52.343262
7235.000000,7666.000000,5728.000000,1.000000,52.343262
7235.000000,7673.000000,5731.000000,1.000000,52.343262
7241.000000,7673.000000,5731.000000,1.000000,52.343262
7242.000000,7675.000000,5733.000000,1.000000,52.343262
7243.000000,7675.000000,5731.000000,1.000000,52.343262
7241.000000,7674.000000,5732.000000,1.000000,52.343262
7238.000000,7670.000000,5730.000000,1.000000,52.343262
7225.000000,7657.000000,5730.000000,0.000000,52.544922
7237.000000,7667.000000,5730.000000,0.000000,52.544922
7237.000000,7668.000000,5728.000000,0.000000,52.544922
7238.000000,7667.000000,5729.000000,0.000000,52.544922
7236.000000,7667.000000,5728.000000,0.000000,52.544922
7237.000000,7668.000000,5730.000000,0.000000,52.544922
7239.000000,7667.000000,5729.000000,0.000000,52.544922
7240.000000,7671.000000,5731.000000,0.000000,52.544922
7233.000000,7664.000000,5727.000000,0.000000,52.544922
7233.000000,7659.000000,5722.000000,0.000000,52.544922
7228.000000,7659.000000,5722.000000,0.000000,52.544922
7229.000000,7660.000000,5723.000000,0.000000,52.544922
7228.000000,7661.000000,5723.000000,0.000000,52.544922
7227.000000,7659.000000,5721.000000,0.000000,52.544922
7224.000000,7656.000000,5720.000000,0.000000,52.544922
7222.000000,7655.000000,5721.000000,0.000000,52.544922
7222.000000,7655.000000,5721.000000,0.000000,52.544922
7224.000000,7655.000000,5721.000000,0.000000,52.544922
7224.000000,7657.000000,5721.000000,0.000000,52.544922
7223.000000,7657.000000,5721.000000,0.000000,52.544922
7222.000000,7656.000000,5720.000000,0.000000,52.544922
7222.000000,7656.000000,5722.000000,0.000000,52.544922
7223.000000,7658.000000,5721.000000,0.000000,52.544922
7224.000000,7657.000000,5720.000000,0.000000,52.544922
7227.000000,7660.000000,5722.000000,0.000000,52.544922
7229.000000,7662.000000,5722.000000,0.000000,52.544922
7231.000000,7663.000000,5723.000000,0.000000,52.544922
7231.000000,7662.000000,5723.000000,0.000000,52.544922
7227.000000,7662.000000,5721.000000,0.000000,52.544922
7227.000000,7659.000000,5721.000000,0.000000,52.544922
7225.000000,7656.000000,5720.000000,0.000000,52.544922
7224.000000,7657.000000,5720.000000,0.000000,52.544922
7223.000000,7657.000000,5720.000000,0.000000,52.544922
7222.000000,7656.000000,5720.000000,0.000000,52.544922
7224.000000,7658.000000,5721.000000,0.000000,52.544922
7226.000000,7657.000000,5722.000000,0.000000,52.544922
7226.000000,7658.000000,5721.000000,0.000000,52.544922
7226.000000,7658.000000,5722.000000,0.000000,52.544922
7226.000000,7659.000000,5722.000000,0.000000,52.544922
7227.000000,7660.000000,5722.000000,0.000000,52.544922
7227.000000,7662.000000,5723.000000,0.000000,52.544922
7230.000000,7665.000000,5725.000000,0.000000,52.544922
7233.000000,7666.000000,5724.000000,0.000000,52.544922
7230.000000,7664.000000,5723.000000,0.000000,52.544922
7228.000000,7661.000000,5723.000000,0.000000,52.544922
7228.000000,7659.000000,5721.000000,0.000000,52.544922
7225.000000,7659.000000,5721.000000,0.000000,52.544922
7227.000000,7659.000000,5721.000000,0.000000,52.544922
7225.000000,7660.000000,5721.000000,0.000000,52.544922
7224.000000,7660.000000,5721.000000,0.000000,52.544922
7227.000000,7660.000000,5721.000000,0.000000,52.544922
7227.000000,7661.000000,5722.000000,0.000000,52.544922
7227.000000,7662.000000,5722.000000,0.000000,52.544922
7228.000000,7664.000000,5723.000000,0.000000,52.544922
7230.000000,7665.000000,5723.000000,0.000000,52.544922
7230.000000,7665.000000,5723.000000,0.000000,52.544922
7229.000000,7665.000000,5723.000000,0.000000,52.544922
7232.000000,7668.000000,5725.000000,0.000000,52.544922
7233.000000,7668.000000,5725.000000,0.000000,52.544922
7233.000000,7666.000000,5723.000000,0.000000,52.544922
7230.000000,7664.000000,5722.000000,0.000000,52.544922
7228.000000,7661.000000,5721.000000,0.000000,52.544922
7227.000000,7661.000000,5722.000000,0.000000,52.544922
7229.000000,7661.000000,5722.000000,0.000000,52.544922
7229.000000,7661.000000,5722.000000,0.000000,52.544922
7227.000000,7662.000000,5722.000000,0.000000,52.544922
7227.000000,7662.000000,5722.000000,0.000000,52.544922
7228.000000,7663.000000,5723.000000,0.000000,52.544922
7228.000000,7664.000000,5724.000000,0.000000,52.544922
7229.000000,7666.000000,5724.000000,0.000000,52.544922
7230.000000,7668.000000,5726.000000,0.000000,52.544922
7231.000000,7670.000000,5726.000000,0.000000,52.544922
7234.000000,7671.000000,5727.000000,0.000000,52.544922
7234.000000,7671.000000,5727.000000,0.000000,52.544922
7235.000000,7671.000000,5727.000000,0.000000,52.544922
7231.000000,7668.000000,5726.000000,0.000000,52.544922
7227.000000,7665.000000,5724.000000,0.000000,52.544922
7224.000000,7663.000000,5722.000000,0.000000,52.544922
7225.000000,7664.000000,5723.000000,0.000000,52.544922
7226.000000,7664.000000,5723.000000,0.000000,52.544922
7226.000000,7664.000000,5723.000000,0.000000,52.544922
7227.000000,7663.000000,5723.000000,0.000000,52.544922
7227.000000,7665.000000,5724.000000,0.000000,52.544922
7227.000000,7665.000000,5724.000000,0.000000,52.544922
7229.000000,7666.000000,5723.000000,0.000000,52.544922
7230.000000,7668.000000,5726.000000,0.000000,52.544922
7230.000000,7668.000000,5725.000000,0.000000,52.544922
7234.000000,7673.000000,5728.000000,0.000000,52.544922
7236.000000,7673.000000,5728.000000,0.000000,52.544922
7237.000000,7674.000000,5728.000000,0.000000,52.544922
7234.000000,7670.000000,5727.000000,0.000000,52.544922
7234.000000,7669.000000,5725.000000,0.000000,52.544922
7232.000000,7669.000000,5724.000000,0.000000,52.544922
7229.000000,7666.000000,5724.000000,0.000000,52.544922
7226.000000,7664.000000,5723.000000,0.000000,52.544922
7228.000000,7665.000000,5723.000000,0.000000,52.544922
7228.000000,7666.000000,5725.000000,0.000000,52.544922
7229.000000,7666.000000,5724.000000,0.000000,52.544922
7228.000000,7666.000000,5725.000000,0.000000,52.544922
7227.000000,7667.000000,5726.000000,0.000000,52.544922
7227.000000,7668.000000,5727.000000,0.000000,52.544922
7230.000000,7668.000000,5727.000000,0.000000,52.544922
7232.000000,7668.000000,5727.000000,0.000000,52.544922
7233.000000,7671.000000,5727.000000,0.000000,52.544922
7235.000000,7672.000000,5727.000000,0.000000,52.544922
7235.000000,7673.000000,5729.000000,0.000000,52.544922
7234.000000,7671.000000,5726.000000,0.000000,52.544922
7229.000000,7667.000000,5725.000000,0.000000,52.544922
7229.000000,7664.000000,5723.000000,0.000000,52.544922
7229.000000,7663.000000,5723.000000,0.000000,52.544922
7227.000000,7663.000000,5724.000000,0.000000,52.544922
7229.000000,7660.000000,5724.000000,0.000000,52.544922
7228.000000,7662.000000,5723.000000,0.000000,52.544922
7227.000000,7662.000000,5723.000000,0.000000,52.544922
7227.000000,7662.000000,5723.000000,0.000000,52.544922
7227.000000,7664.000000,5724.000000,0.000000,52.544922
7229.000000,7667.000000,5725.000000,0.000000,52.544922
7229.000000,7668.000000,5726.000000,0.000000,52.544922
7237.000000,7674.000000,5729.000000,0.000000,52.544922
7237.000000,7674.000000,5733.000000,0.000000,52.544922
7243.000000,7679.000000,5732.000000,1.000000,18.293945
7243.000000,7678.000000,5732.000000,1.000000,18.293945
7241.000000,7676.000000,5732.000000,1.000000,18.293945
7240.000000,7673.000000,5732.000000,1.000000,18.293945
7240.000000,7674.000000,5732.000000,1.000000,18.293945
7240.000000,7674.000000,5732.000000,1.000000,18.293945
7241.000000,7675.000000,5734.000000,1.000000,18.293945
7240.000000,7673.000000,5732.000000,1.000000,18.293945
7241.000000,7674.000000,5732.000000,1.000000,18.293945
7228.000000,7662.000000,5724.000000,1.000000,18.293945
7225.000000,7659.000000,5723.000000,1.000000,18.293945
7226.000000,7661.000000,5724.000000,1.000000,18.293945
7226.000000,7662.000000,5723.000000,1.000000,18.293945
7226.000000,7665.000000,5724.000000,1.000000,18.293945
7228.000000,7665.000000,5725.000000,1.000000,18.293945
7230.000000,7666.000000,5725.000000,1.000000,18.293945
7230.000000,7664.000000,5725.000000,1.000000,18.293945
7229.000000,7662.000000,5722.000000,1.000000,18.293945
7224.000000,7659.000000,5722.000000,1.000000,18.293945
7224.000000,7657.000000,5722.000000,1.000000,18.293945
7223.000000,7657.000000,5720.000000,1.000000,18.293945
7223.000000,7656.000000,5721.000000,1.000000,18.293945
7223.000000,7657.000000,5722.000000,1.000000,18.293945
7224.000000,7657.000000,5720.000000,1.000000,18.293945
7224.000000,7657.000000,5720.000000,1.000000,18.293945
7225.000000,7659.000000,5721.000000,1.000000,18.293945
7224.000000,7659.000000,5722.000000,1.000000,18.293945
7225.000000,7660.000000,5722.000000,1.000000,18.293945
7226.000000,7662.000000,5722.000000,1.000000,18.293945
7230.000000,7663.000000,5724.000000,1.000000,18.293945
7229.000000,7665.000000,5724.000000,1.000000,18.293945
7229.000000,7663.000000,5723.000000,1.000000,18.293945
7229.000000,7663.000000,5723.000000,1.000000,18.293945
7227.000000,7662.000000,5723.000000,1.000000,18.293945
7227.000000,7659.000000,5722.000000,1.000000,18.293945
7225.000000,7658.000000,5721.000000,1.000000,18.293945
7226.000000,7658.000000,5722.000000,1.000000,18.293945
7226.000000,7657.000000,5721.000000,1.000000,18.293945
7224.000000,7657.000000,5720.000000,1.000000,18.293945
7225.000000,7658.000000,5722.000000,1.000000,18.293945
7226.000000,7657.000000,5722.000000,1.000000,18.293945
7226.000000,7657.000000,5722.000000,1.000000,18.293945
7226.000000,7659.000000,5722.000000,1.000000,18.293945
7227.000000,7660.000000,5723.000000,1.000000,18.293945
7228.000000,7662.000000,5723.000000,1.000000,18.293945
7227.000000,7664.000000,5724.000000,1.000000,18.293945
7230.000000,7665.000000,5724.000000,1.000000,18.293945
7230.000000,7667.000000,5726.000000,1.000000,18.293945
7227.000000,7663.000000,5724.000000,1.000000,18.293945
7226.000000,7660.000000,5723.000000,1.000000,18.293945
7226.000000,7658.000000,5722.000000,1.000000,18.293945
7224.000000,7658.000000,5722.000000,1.000000,18.293945
7223.000000,7658.000000,5722.000000,1.000000,18.293945
7224.000000,7658.000000,5722.000000,1.000000,18.293945
7224.000000,7658.000000,5722.000000,1.000000,18.293945
7225.000000,7658.000000,5722.000000,1.000000,18.293945
7225.000000,7659.000000,5723.000000,1.000000,18.293945
7226.000000,7661.000000,5723.000000,1.000000,18.293945
7227.000000,7661.000000,5723.000000,1.000000,18.293945
7227.000000,7663.000000,5722.000000,1.000000,18.293945
7228.000000,7663.000000,5722.000000,1.000000,18.293945
7230.000000,7666.000000,5725.000000,1.000000,18.293945
7230.000000,7667.000000,5725.000000,1.000000,18.293945
7229.000000,7667.000000,5725.000000,1.000000,18.293945
7228.000000,7663.000000,5723.000000,1.000000,18.293945
7225.000000,7660.000000,5722.000000,1.000000,18.293945
7223.000000,7658.000000,5720.000000,1.000000,18.293945
7222.000000,7658.000000,5721.000000,1.000000,18.293945
7222.000000,7659.000000,5721.000000,1.000000,18.293945
7223.000000,7659.000000,5722.000000,1.000000,18.293945
7222.000000,7657.000000,5722.000000,1.000000,18.293945
7223.000000,7658.000000,5722.000000,1.000000,18.293945
7224.000000,7659.000000,5722.000000,1.000000,18.293945
7222.000000,7660.000000,5722.000000,1.000000,18.293945
7225.000000,7660.000000,5723.000000,1.000000,18.293945
7225.000000,7663.000000,5723.000000,1.000000,18.293945
7227.000000,7665.000000,5723.000000,1.000000,18.293945
7227.000000,7665.000000,5724.000000,1.000000,18.293945
7229.000000,7665.000000,5723.000000,1.000000,18.293945
7227.000000,7664.000000,5723.000000,1.000000,18.293945
7226.000000,7661.000000,5722.000000,1.000000,18.293945
7221.000000,7657.000000,5721.000000,1.000000,18.293945
7220.000000,7656.000000,5720.000000,1.000000,18.293945
7218.000000,7655.000000,5720.000000,1.000000,18.293945
7221.000000,7655.000000,5721.000000,1.000000,18.293945
7221.000000,7655.000000,5720.000000,1.000000,18.293945
7221.000000,7655.000000,5721.000000,1.000000,18.293945
7222.000000,7655.000000,5721.000000,1.000000,18.293945
7220.000000,7655.000000,5721.000000,1.000000,18.293945
7221.000000,7655.000000,5722.000000,1.000000,18.293945
7223.000000,7659.000000,5722.000000,1.000000,18.293945
7224.000000,7660.000000,5722.000000,1.000000,18.293945
7226.000000,7661.000000,5722.000000,1.000000,18.293945
7226.000000,7663.000000,5723.000000,1.000000,18.293945
7229.000000,7664.000000,5724.000000,1.000000,18.293945
7225.000000,7661.000000,5721.000000,1.000000,18.293945
7225.000000,7661.000000,5722.000000,1.000000,18.293945
7224.000000,7657.000000,5722.000000,1.000000,18.293945
7221.000000,7654.000000,5721.000000,1.000000,18.293945
7220.000000,7654.000000,5721.000000,1.000000,18.293945
7220.000000,7655.000000,5721.000000,1.000000,18.293945
7220.000000,7654.000000,5721.000000,1.000000,18.293945
7222.000000,7654.000000,5721.000000,1.000000,18.293945
7221.000000,7655.000000,5721.000000,1.000000,18.293945
7220.000000,7655.000000,5720.000000,1.000000,18.293945
7220.000000,7656.000000,5721.000000,1.000000,18.293945
7221.000000,7656.000000,5721.000000,1.000000,18.293945
7222.000000,7658.000000,5721.000000,1.000000,18.293945
7224.000000,7660.000000,5722.000000,1.000000,18.293945
7225.000000,7662.000000,5723.000000,1.000000,18.293945
7227.000000,7664.000000,5723.000000,1.000000,18.293945
7227.000000,7659.000000,5723.000000,1.000000,18.293945
7224.000000,7656.000000,5722.000000,1.000000,18.293945
7222.000000,7654.000000,5721.000000,1.000000,18.293945
7222.000000,7654.000000,5722.000000,1.000000,18.293945
7221.000000,7654.000000,5722.000000,1.000000,18.293945
7221.000000,7653.000000,5721.000000,1.000000,18.293945
7220.000000,7653.000000,5721.000000,1.000000,18.293945
7226.000000,7659.000000,5724.000000,1.000000,18.293945
7236.000000,7669.000000,5730.000000,1.000000,18.293945
7236.000000,7668.000000,5730.000000,0.000000,25.877930
7236.000000,7670.000000,5730.000000,0.000000,25.877930
7240.000000,7672.000000,5731.000000,0.000000,25.877930
7241.000000,7673.000000,5733.000000,0.000000,25.877930
7243.000000,7675.000000,5733.000000,0.000000,25.877930
7234.000000,7667.000000,5728.000000,0.000000,25.877930
7240.000000,7673.000000,5731.000000,0.000000,25.877930
7238.000000,7672.000000,5733.000000,0.000000,25.877930
7238.000000,7668.000000,5729.000000,0.000000,25.877930
7234.000000,7668.000000,5721.000000,0.000000,25.877930
7219.000000,7654.000000,5721.000000,0.000000,25.877930
7218.000000,7651.000000,5720.000000,0.000000,25.877930
7219.000000,7651.000000,5721.000000,0.000000,25.877930
7218.000000,7651.000000,5721.000000,0.000000,25.877930
7217.000000,7653.000000,5721.000000,0.000000,25.877930
7219.000000,7653.000000,5722.000000,0.000000,25.877930
7219.000000,7654.000000,5721.000000,0.000000,25.877930
7219.000000,7655.000000,5721.000000,0.000000,25.877930
7219.000000,7655.000000,5721.000000,0.000000,25.877930
7220.000000,7656.000000,5721.000000,0.000000,25.877930
7222.000000,7657.000000,5722.000000,0.000000,25.877930
7225.000000,7660.000000,5723.000000,0.000000,25.877930
7223.000000,7657.000000,5722.000000,0.000000,25.877930
7220.000000,7654.000000,5721.000000,0.000000,25.877930
7219.000000,7651.000000,5720.000000,0.000000,25.877930
7218.000000,7650.000000,5719.000000,0.000000,25.877930
7217.000000,7650.000000,5721.000000,0.000000,25.877930
7217.000000,7651.000000,5721.000000,0.000000,25.877930
7218.000000,7651.000000,5721.000000,0.000000,25.877930
7218.000000,7649.000000,5720.000000,0.000000,25.877930
7218.000000,7650.000000,5720.000000,0.000000,25.877930
7217.000000,7650.000000,5720.000000,0.000000,25.877930
7218.000000,7653.000000,5721.000000,0.000000,25.877930
7219.000000,7654.000000,5721.000000,0.000000,25.877930
7221.000000,7655.000000,5721.000000,0.000000,25.877930
7222.000000,7658.000000,5721.000000,0.000000,25.877930
7222.000000,7660.000000,5722.000000,0.000000,25.877930
7222.000000,7660.000000,5722.000000,0.000000,25.877930
7221.000000,7656.000000,5721.000000,0.000000,25.877930
7218.000000,7654.000000,5720.000000,0.000000,25.877930
7218.000000,7651.000000,5720.000000,0.000000,25.877930
7217.000000,7649.000000,5720.000000,0.000000,25.877930
7216.000000,7648.000000,5719.000000,0.000000,25.877930
7216.000000,7648.000000,5720.000000,0.000000,25.877930
7216.000000,7650.000000,5721.000000,0.000000,25.877930
7216.000000,7651.000000,5720.000000,0.000000,25.877930
7217.000000,7651.000000,5721.000000,0.000000,25.877930
7216.000000,7650.000000,5721.000000,0.000000,25.877930
7218.000000,7651.000000,5720.000000,0.000000,25.877930
7218.000000,7652.000000,5720.000000,0.000000,25.877930
7219.000000,7654.000000,5721.000000,0.000000,25.877930
7218.000000,7655.000000,5721.000000,0.000000,25.877930
7219.000000,7655.000000,5721.000000,0.000000,25.877930
7218.000000,7652.000000,5720.000000,0.000000,25.877930
7218.000000,7648.000000,5719.000000,0.000000,25.877930
7216.000000,7648.000000,5719.000000,0.000000,25.877930
7214.000000,7646.000000,5719.000000,0.000000,25.877930
7211.000000,7645.000000,5718.000000,0.000000,25.877930
7212.000000,7644.000000,5718.000000,0.000000,25.877930
7214.000000,7646.000000,5719.000000,0.000000,25.877930
7213.000000,7646.000000,5719.000000,0.000000,25.877930
7214.000000,7647.000000,5719.000000,0.000000,25.877930
7213.000000,7648.000000,5719.000000,0.000000,25.877930
7213.000000,7649.000000,5719.000000,0.000000,25.877930
7216.000000,7649.000000,5720.000000,0.000000,25.877930
7217.000000,7651.000000,5720.000000,0.000000,25.877930
7217.000000,7653.000000,5721.000000,0.000000,25.877930
7216.000000,7652.000000,5720.000000,0.000000,25.877930
7214.000000,7648.000000,5719.000000,0.000000,25.877930
7211.000000,7645.000000,5718.000000,0.000000,25.877930
7209.000000,7641.000000,5716.000000,0.000000,25.877930
7210.000000,7642.000000,5714.000000,0.000000,25.877930
7208.000000,7641.000000,5715.000000,0.000000,25.877930
7208.000000,7641.000000,5717.000000,0.000000,25.877930
7209.000000,7641.000000,5717.000000,0.000000,25.877930
7212.000000,7642.000000,5716.000000,0.000000,25.877930
7210.000000,7643.000000,5717.000000,0.000000,25.877930
7210.000000,7644.000000,5717.000000,0.000000,25.877930
7212.000000,7645.000000,5719.000000,0.000000,25.877930
7211.000000,7646.000000,5719.000000,0.000000,25.877930
7214.000000,7648.000000,5720.000000,0.000000,25.877930
7214.000000,7647.000000,5720.000000,0.000000,25.877930
7214.000000,7643.000000,5718.000000,0.000000,25.877930
7212.000000,7643.000000,5718.000000,0.000000,25.877930
7206.000000,7640.000000,5715.000000,0.000000,25.877930
7203.000000,7639.000000,5714.000000,0.000000,25.877930
7203.000000,7639.000000,5715.000000,0.000000,25.877930
7202.000000,7638.000000,5714.000000,0.000000,25.877930
7203.000000,7638.000000,5714.000000,0.000000,25.877930
7203.000000,7638.000000,5715.000000,0.000000,25.877930
7204.000000,7638.000000,5713.000000,0.000000,25.877930
7204.000000,7638.000000,5714.000000,0.000000,25.877930
7207.000000,7638.000000,5714.000000,0.000000,25.877930
7208.000000,7640.000000,5714.000000,0.000000,25.877930
7209.000000,7641.000000,5716.000000,0.000000,25.877930
7213.000000,7643.000000,5718.000000,0.000000,25.877930
7213.000000,7644.000000,5717.000000,0.000000,25.877930
7210.000000,7641.000000,5715.000000,0.000000,25.877930
7205.000000,7637.000000,5713.000000,0.000000,25.877930
7203.000000,7637.000000,5713.000000,0.000000,25.877930
7203.000000,7635.000000,5713.000000,0.000000,25.877930
7201.000000,7635.000000,5713.000000,0.000000,25.877930
7202.000000,7636.000000,5713.000000,0.000000,25.877930
7203.000000,7637.000000,5713.000000,0.000000,25.877930
7203.000000,7636.000000,5713.000000,0.000000,25.877930
7203.000000,7637.000000,5713.000000,0.000000,25.877930
7203.000000,7636.000000,5712.000000,0.000000,25.877930
7207.000000,7637.000000,5712.000000,0.000000,25.877930
7205.000000,7640.000000,5714.000000,0.000000,25.877930
7205.000000,7642.000000,5715.000000,0.000000,25.877930
7210.000000,7642.000000,5717.000000,0.000000,25.877930
7213.000000,7643.000000,5717.000000,0.000000,25.877930
7211.000000,7645.000000,5716.000000,0.000000,25.877930
7208.000000,7641.000000,5714.000000,0.000000,25.877930
7204.000000,7639.000000,5713.000000,0.000000,25.877930
7203.000000,7636.000000,5712.000000,0.000000,25.877930
7203.000000,7636.000000,5713.000000,0.000000,25.877930
7204.000000,7636.000000,5713.000000,0.000000,25.877930
7204.000000,7635.000000,5713.000000,0.000000,25.877930
7204.000000,7635.000000,5712.000000,0.000000,25.877930
7206.000000,7637.000000,5713.000000,1.000000,38.343750
7208.000000,7638.000000,5714.000000,1.000000,38.343750
7208.000000,7639.000000,5714.000000,1.000000,38.343750
7208.000000,7645.000000,5718.000000,1.000000,38.343750
7212.000000,7645.000000,5725.000000,1.000000,38.343750
7225.000000,7656.000000,5725.000000,1.000000,38.343750
7221.000000,7650.000000,5721.000000,1.000000,38.343750
7230.000000,7660.000000,5725.000000,1.000000,38.343750
7227.000000,7658.000000,5723.000000,1.000000,38.343750
7223.000000,7653.000000,5722.000000,1.000000,38.343750
7222.000000,7652.000000,5722.000000,1.000000,38.343750
7221.000000,7652.000000,5723.000000,1.000000,38.343750
7221.000000,7654.000000,5722.000000,1.000000,38.343750
7223.000000,7654.000000,5723.000000,1.000000,38.343750
7222.000000,7653.000000,5723.000000,1.000000,38.343750
7224.000000,7655.000000,5723.000000,1.000000,38.343750
7223.000000,7655.000000,5723.000000,1.000000,38.343750
7226.000000,7656.000000,5724.000000,1.000000,38.343750
7223.000000,7655.000000,5723.000000,1.000000,38.343750
7229.000000,7660.000000,5725.000000,1.000000,38.343750
7231.000000,7662.000000,5726.000000,1.000000,38.343750
7232.000000,7665.000000,5727.000000,1.000000,38.343750
7232.000000,7665.000000,5729.000000,1.000000,38.343750
7233.000000,7666.000000,5729.000000,1.000000,38.343750
7231.000000,7662.000000,5726.000000,1.000000,38.343750
7227.000000,7657.000000,5725.000000,1.000000,38.343750
7218.000000,7648.000000,5721.000000,1.000000,38.343750
7223.000000,7654.000000,5724.000000,1.000000,38.343750
7225.000000,7656.000000,5724.000000,1.000000,38.343750
7227.000000,7656.000000,5724.000000,1.000000,38.343750
7227.000000,7658.000000,5724.000000,1.000000,38.343750
7227.000000,7658.000000,5726.000000,1.000000,38.343750
7227.000000,7659.000000,5726.000000,1.000000,38.343750
7229.000000,7660.000000,5727.000000,1.000000,38.343750
7223.000000,7655.000000,5723.000000,1.000000,38.343750
7230.000000,7662.000000,5726.000000,1.000000,38.343750
7233.000000,7666.000000,5727.000000,1.000000,38.343750
7235.000000,7668.000000,5730.000000,1.000000,38.343750
7234.000000,7667.000000,5728.000000,1.000000,38.343750
7230.000000,7664.000000,5726.000000,1.000000,38.343750
7230.000000,7660.000000,5725.000000,1.000000,38.343750
7229.000000,7660.000000,5725.000000,1.000000,38.343750
7228.000000,7657.000000,5724.000000,1.000000,38.343750
7226.000000,7658.000000,5725.000000,1.000000,38.343750
7225.000000,7656.000000,5723.000000,1.000000,38.343750
7228.000000,7659.000000,5726.000000,1.000000,38.343750
7225.000000,7657.000000,5724.000000,1.000000,38.343750
7228.000000,7659.000000,5724.000000,1.000000,38.343750
7227.000000,7661.000000,5726.000000,1.000000,38.343750
7227.000000,7664.000000,5726.000000,1.000000,38.343750
7230.000000,7664.000000,5729.000000,1.000000,38.343750
7233.000000,7666.000000,5729.000000,1.000000,38.343750
7234.000000,7669.000000,5731.000000,1.000000,38.343750
7230.000000,7667.000000,5729.000000,1.000000,38.343750
7225.000000,7663.000000,5727.000000,1.000000,38.343750
7232.000000,7668.000000,5730.000000,1.000000,38.343750
7229.000000,7662.000000,5727.000000,1.000000,38.343750
7225.000000,7661.000000,5726.000000,1.000000,38.343750
7225.000000,7660.000000,5724.000000,1.000000,38.343750
7226.000000,7660.000000,5725.000000,1.000000,38.343750
7227.000000,7661.000000,5725.000000,1.000000,38.343750
7227.000000,7659.000000,5724.000000,1.000000,38.343750
7219.000000,7652.000000,5721.000000,1.000000,38.343750
7227.000000,7661.000000,5725.000000,1.000000,38.343750
7228.000000,7662.000000,5725.000000,1.000000,38.343750
7229.000000,7664.000000,5727.000000,1.000000,38.343750
7230.000000,7667.000000,5728.000000,1.000000,38.343750
7230.000000,7668.000000,5729.000000,1.000000,38.343750
7233.000000,7668.000000,5729.000000,1.000000,38.343750
7234.000000,7670.000000,5729.000000,1.000000,38.343750
7234.000000,7670.000000,5730.000000,1.000000,38.343750
7233.000000,7669.000000,5729.000000,1.000000,38.343750
7230.000000,7665.000000,5728.000000,1.000000,38.343750
7229.000000,7662.000000,5726.000000,1.000000,38.343750
7226.000000,7659.000000,5725.000000,1.000000,38.343750
7225.000000,7659.000000,5725.000000,1.000000,38.343750
7225.000000,7658.000000,5727.000000,1.000000,38.343750
7225.000000,7658.000000,5726.000000,1.000000,38.343750
7226.000000,7659.000000,5726.000000,1.000000,38.343750
7222.000000,7655.000000,5724.000000,1.000000,38.343750
7224.000000,7657.000000,5725.000000,1.000000,38.343750
7225.000000,7659.000000,5726.000000,1.000000,38.343750
7219.000000,7654.000000,5724.000000,1.000000,38.343750
7229.000000,7662.000000,5727.000000,1.000000,38.343750
7231.000000,7665.000000,5729.000000,1.000000,38.343750
7233.000000,7669.000000,5730.000000,1.000000,38.343750
7233.000000,7669.000000,5730.000000,1.000000,38.343750
7234.000000,7670.000000,5730.000000,1.000000,38.343750
7230.000000,7667.000000,5729.000000,1.000000,38.343750
7229.000000,7663.000000,5728.000000,1.000000,38.343750
7219.000000,7654.000000,5723.000000,1.000000,38.343750
7223.000000,7659.000000,5727.000000,1.000000,38.343750
7223.000000,7658.000000,5725.000000,1.000000,38.343750
7223.000000,7657.000000,5725.000000,1.000000,38.343750
7224.000000,7658.000000,5726.000000,1.000000,38.343750
7224.000000,7655.000000,5724.000000,1.000000,38.343750
7222.000000,7655.000000,5724.000000,1.000000,38.343750
7225.000000,7658.000000,5726.000000,1.000000,38.343750
7226.000000,7658.000000,5726.000000,1.000000,38.343750
7226.000000,7662.000000,5728.000000,1.000000,38.343750
7228.000000,7664.000000,5728.000000,1.000000,38.343750
7231.000000,7666.000000,5729.000000,1.000000,38.343750
7231.000000,7668.000000,5730.000000,1.000000,38.343750
7231.000000,7668.000000,5731.000000,1.000000,38.343750
7231.000000,7662.000000,5728.000000,1.000000,38.343750
7227.000000,7662.000000,5728.000000,1.000000,38.343750
7226.000000,7659.000000,5727.000000,1.000000,38.343750
7224.000000,7657.000000,5726.000000,1.000000,38.343750
7222.000000,7655.000000,5725.000000,1.000000,38.343750
7222.000000,7655.000000,5726.000000,1.000000,38.343750
7214.000000,7647.000000,5720.000000,1.000000,38.343750
7222.000000,7654.000000,5726.000000,1.000000,38.343750
7222.000000,7653.000000,5725.000000,1.000000,38.343750
7222.000000,7652.000000,5724.000000,1.000000,38.343750
7220.000000,7652.000000,5726.000000,1.000000,38.343750
7223.000000,7655.000000,5726.000000,1.000000,38.343750
7225.000000,7657.000000,5726.000000,1.000000,38.343750
7226.000000,7659.000000,5727.000000,1.000000,38.343750
7221.000000,7655.000000,5725.000000,1.000000,38.343750
7228.000000,7662.000000,5728.000000,1.000000,38.343750
7227.000000,7659.000000,5728.000000,0.000000,32.757812
7219.000000,7652.000000,5725.000000,0.000000,32.757812
7207.000000,7640.000000,5717.000000,0.000000,32.757812
7203.000000,7638.000000,5715.000000,0.000000,32.757812
7200.000000,7637.000000,5714.000000,0.000000,32.757812
7201.000000,7637.000000,5714.000000,0.000000,32.757812
7202.000000,7636.000000,5716.000000,0.000000,32.757812
7201.000000,7636.000000,5715.000000,0.000000,32.757812
7201.000000,7636.000000,5714.000000,0.000000,32.757812
7203.000000,7636.000000,5714.000000,0.000000,32.757812
7203.000000,7637.000000,5714.000000,0.000000,32.757812
7204.000000,7638.000000,5715.000000,0.000000,32.757812
7205.000000,7639.000000,5716.000000,0.000000,32.757812
7205.000000,7642.000000,5717.000000,0.000000,32.757812
7205.000000,7642.000000,5716.000000,0.000000,32.757812
7203.000000,7639.000000,5714.000000,0.000000,32.757812
7201.000000,7635.000000,5716.000000,0.000000,32.757812
7201.000000,7635.000000,5714.000000,0.000000,32.757812
7195.000000,7634.000000,5714.000000,0.000000,32.757812
7194.000000,7632.000000,5713.000000,0.000000,32.757812
7194.000000,7630.000000,5712.000000,0.000000,32.757812
7193.000000,7630.000000,5712.000000,0.000000,32.757812
7195.000000,7630.000000,5713.000000,0.000000,32.757812
7195.000000,7629.000000,5712.000000,0.000000,32.757812
7196.000000,7629.000000,5712.000000,0.000000,32.757812
7196.000000,7631.000000,5713.000000,0.000000,32.757812
7196.000000,7632.000000,5713.000000,0.000000,32.757812
7195.000000,7632.000000,5713.000000,0.000000,32.757812
7198.000000,7633.000000,5714.000000,0.000000,32.757812
7200.000000,7633.000000,5715.000000,0.000000,32.757812
7200.000000,7636.000000,5714.000000,0.000000,32.757812
7201.000000,7633.000000,5715.000000,0.000000,32.757812
7194.000000,7629.000000,5712.000000,0.000000,32.757812
7187.000000,7626.000000,5711.000000,0.000000,32.757812
7186.000000,7625.000000,5711.000000,0.000000,32.757812
7186.000000,7624.000000,5709.000000,0.000000,32.757812
7185.000000,7624.000000,5709.000000,0.000000,32.757812
7187.000000,7624.000000,5710.000000,0.000000,32.757812
7188.000000,7624.000000,5710.000000,0.000000,32.757812
7189.000000,7626.000000,5712.000000,0.000000,32.757812
7190.000000,7624.000000,5711.000000,0.000000,32.757812
7190.000000,7627.000000,5711.000000,0.000000,32.757812
7192.000000,7628.000000,5711.000000,0.000000,32.757812
7195.000000,7629.000000,5711.000000,0.000000,32.757812
7195.000000,7630.000000,5712.000000,0.000000,32.757812
7197.000000,7630.000000,5713.000000,0.000000,32.757812
7201.000000,7632.000000,5713.000000,0.000000,32.757812
7199.000000,7632.000000,5713.000000,0.000000,32.757812
7195.000000,7630.000000,5712.000000,0.000000,32.757812
7187.000000,7624.000000,5710.000000,0.000000,32.757812
7184.000000,7622.000000,5709.000000,0.000000,32.757812
7182.000000,7622.000000,5708.000000,0.000000,32.757812
7181.000000,7621.000000,5707.000000,0.000000,32.757812
7181.000000,7621.000000,5707.000000,0.000000,32.757812
7183.000000,7621.000000,5708.000000,0.000000,32.757812
7184.000000,7622.000000,5708.000000,0.000000,32.757812
7183.000000,7621.000000,5708.000000,0.000000,32.757812
7184.000000,7624.000000,5709.000000,0.000000,32.757812
7188.000000,7624.000000,5709.000000,0.000000,32.757812
7191.000000,7625.000000,5710.000000,0.000000,32.757812
7195.000000,7628.000000,5711.000000,0.000000,32.757812
7197.000000,7630.000000,5713.000000,0.000000,32.757812
7198.000000,7631.000000,5713.000000,0.000000,32.757812
7198.000000,7630.000000,5712.000000,0.000000,32.757812
7195.000000,7630.000000,5712.000000,0.000000,32.757812
7189.000000,7626.000000,5710.000000,0.000000,32.757812
7188.000000,7623.000000,5710.000000,0.000000,32.757812
7186.000000,7622.000000,5710.000000,0.000000,32.757812
7183.000000,7623.000000,5709.000000,0.000000,32.757812
7182.000000,7622.000000,5709.000000,0.000000,32.757812
7185.000000,7624.000000,5710.000000,0.000000,32.757812
7184.000000,7623.000000,5711.000000,0.000000,32.757812
7184.000000,7624.000000,5709.000000,0.000000,32.757812
7185.000000,7624.000000,5711.000000,0.000000,32.757812
7187.000000,7625.000000,5711.000000,0.000000,32.757812
7190.000000,7627.000000,5710.000000,0.000000,32.757812
7193.000000,7628.000000,5710.000000,0.000000,32.757812
7197.000000,7630.000000,5712.000000,0.000000,32.757812
7198.000000,7632.000000,5713.000000,0.000000,32.757812
7199.000000,7632.000000,5713.000000,0.000000,32.757812
7194.000000,7628.000000,5712.000000,0.000000,32.757812
7189.000000,7626.000000,5712.000000,0.000000,32.757812
7189.000000,7626.000000,5709.000000,0.000000,32.757812
7187.000000,7623.000000,5709.000000,0.000000,32.757812
7186.000000,7622.000000,5710.000000,0.000000,32.757812
7186.000000,7622.000000,5709.000000,0.000000,32.757812
7186.000000,7624.000000,5711.000000,0.000000,32.757812
7187.000000,7624.000000,5711.000000,0.000000,32.757812
7188.000000,7624.000000,5711.000000,0.000000,32.757812
7191.000000,7626.000000,5711.000000,0.000000,32.757812
7191.000000,7627.000000,5710.000000,0.000000,32.757812
7191.000000,7630.000000,5712.000000,0.000000,32.757812
7196.000000,7630.000000,5712.000000,0.000000,32.757812
7196.000000,7630.000000,5711.000000,0.000000,32.757812
7199.000000,7632.000000,5713.000000,0.000000,32.757812
7199.000000,7632.000000,5713.000000,0.000000,32.757812
7194.000000,7628.000000,5712.000000,0.000000,32.757812
7187.000000,7625.000000,5711.000000,0.000000,32.757812
7185.000000,7624.000000,5709.000000,0.000000,32.757812
7184.000000,7623.000000,5709.000000,0.000000,32.757812
7184.000000,7622.000000,5709.000000,0.000000,32.757812
7184.000000,7622.000000,5709.000000,0.000000,32.757812
7185.000000,7623.000000,5710.000000,0.000000,32.757812
7183.000000,7623.000000,5710.000000,0.000000,32.757812
7188.000000,7625.000000,5712.000000,0.000000,32.757812
7192.000000,7627.000000,5712.000000,0.000000,32.757812
7193.000000,7628.000000,5712.000000,0.000000,32.757812
7198.000000,7630.000000,5713.000000,0.000000,32.757812
7199.000000,7633.000000,5713.000000,0.000000,32.757812
7199.000000,7633.000000,5713.000000,0.000000,32.757812
7201.000000,7633.000000,5714.000000,0.000000,32.757812
7199.000000,7632.000000,5714.000000,0.000000,32.757812
7193.000000,7628.000000,5712.000000,0.000000,32.757812
7188.000000,7625.000000,5712.000000,0.000000,32.757812
7188.000000,7625.000000,5713.000000,0.000000,32.757812
7189.000000,7625.000000,5712.000000,0.000000,32.757812
7188.000000,7625.000000,5710.000000,0.000000,32.757812
7187.000000,7625.000000,5711.000000,0.000000,32.757812
7187.000000,7626.000000,5711.000000,0.000000,32.757812
7189.000000,7626.000000,5713.000000,0.000000,32.757812
7202.000000,7633.000000,5716.000000,1.000000,37.999023
7205.000000,7636.000000,5716.000000,1.000000,37.999023
7198.000000,7631.000000,5712.000000,1.000000,37.999023
7199.000000,7632.000000,5714.000000,1.000000,37.999023
7199.000000,7633.000000,5713.000000,1.000000,37.999023
7201.000000,7633.000000,5714.000000,1.000000,37.999023
7198.000000,7631.000000,5714.000000,1.000000,37.999023
7195.000000,7628.000000,5711.000000,1.000000,37.999023
7191.000000,7626.000000,5711.000000,1.000000,37.999023
7189.000000,7624.000000,5711.000000,1.000000,37.999023
7189.000000,7625.000000,5713.000000,1.000000,37.999023
7185.000000,7623.000000,5709.000000,1.000000,37.999023
7192.000000,7625.000000,5713.000000,1.000000,37.999023
7192.000000,7625.000000,5711.000000,1.000000,37.999023
7189.000000,7625.000000,5712.000000,1.000000,37.999023
7188.000000,7626.000000,5712.000000,1.000000,37.999023
7191.000000,7626.000000,5712.000000,1.000000,37.999023
7194.000000,7629.000000,5712.000000,1.000000,37.999023
7198.000000,7632.000000,5714.000000,1.000000,37.999023
7199.000000,7632.000000,5713.000000,1.000000,37.999023
7200.000000,7634.000000,5715.000000,1.000000,37.999023
7195.000000,7631.000000,5713.000000,1.000000,37.999023
7195.000000,7627.000000,5710.000000,1.000000,37.999023
7187.000000,7627.000000,5711.000000,1.000000,37.999023
7185.000000,7623.000000,5711.000000,1.000000,37.999023
7183.000000,7624.000000,5711.000000,1.000000,37.999023
7182.000000,7623.000000,5710.000000,1.000000,37.999023
7184.000000,7624.000000,5710.000000,1.000000,37.999023
7184.000000,7624.000000,5710.000000,1.000000,37.999023
7185.000000,7625.000000,5710.000000,1.000000,37.999023
7187.000000,7626.000000,5711.000000,1.000000,37.999023
7188.000000,7627.000000,5710.000000,1.000000,37.999023
7192.000000,7629.000000,5711.000000,1.000000,37.999023
7195.000000,7630.000000,5712.000000,1.000000,37.999023
7195.000000,7631.000000,5713.000000,1.000000,37.999023
7195.000000,7631.000000,5713.000000,1.000000,37.999023
7193.000000,7628.000000,5712.000000,1.000000,37.999023
7187.000000,7626.000000,5711.000000,1.000000,37.999023
7183.000000,7623.000000,5709.000000,1.000000,37.999023
7181.000000,7622.000000,5709.000000,1.000000,37.999023
7182.000000,7623.000000,5709.000000,1.000000,37.999023
7182.000000,7623.000000,5710.000000,1.000000,37.999023
7186.000000,7624.000000,5710.000000,1.000000,37.999023
7186.000000,7625.000000,5709.000000,1.000000,37.999023
7185.000000,7625.000000,5711.000000,1.000000,37.999023
7187.000000,7625.000000,5711.000000,1.000000,37.999023
7187.000000,7626.000000,5710.000000,1.000000,37.999023
7188.000000,7628.000000,5712.000000,1.000000,37.999023
7192.000000,7630.000000,5713.000000,1.000000,37.999023
7192.000000,7630.000000,5714.000000,1.000000,37.999023
7189.000000,7627.000000,5712.000000,1.000000,37.999023
7183.000000,7624.000000,5710.000000,1.000000,37.999023
7183.000000,7620.000000,5709.000000,1.000000,37.999023
7174.000000,7620.000000,5709.000000,1.000000,37.999023
7174.000000,7619.000000,5709.000000,1.000000,37.999023
7174.000000,7620.000000,5709.000000,1.000000,37.999023
7177.000000,7620.000000,5708.000000,1.000000,37.999023
7179.000000,7620.000000,5709.000000,1.000000,37.999023
7177.000000,7620.000000,5709.000000,1.000000,37.999023
7178.000000,7622.000000,5709.000000,1.000000,37.999023
7183.000000,7623.000000,5710.000000,1.000000,37.999023
7183.000000,7625.000000,5712.000000,1.000000,37.999023
7186.000000,7625.000000,5713.000000,1.000000,37.999023
7188.000000,7627.000000,5713.000000,1.000000,37.999023
7192.000000,7628.000000,5710.000000,1.000000,37.999023
7194.000000,7630.000000,5714.000000,1.000000,37.999023
7188.000000,7627.000000,5713.000000,1.000000,37.999023
7180.000000,7622.000000,5712.000000,1.000000,37.999023
7176.000000,7617.000000,5707.000000,1.000000,37.999023
7175.000000,7618.000000,5707.000000,1.000000,37.999023
7177.000000,7618.000000,5707.000000,1.000000,37.999023
7177.000000,7618.000000,5708.000000,1.000000,37.999023
7179.000000,7619.000000,5708.000000,1.000000,37.999023
7179.000000,7618.000000,5709.000000,1.000000,37.999023
7180.000000,7619.000000,5710.000000,1.000000,37.999023
7183.000000,7621.000000,5710.000000,1.000000,37.999023
7187.000000,7622.000000,5711.000000,1.000000,37.999023
7191.000000,7625.000000,5711.000000,1.000000,37.999023
7194.000000,7627.000000,5713.000000,1.000000,37.999023
7195.000000,7627.000000,5713.000000,1.000000,37.999023
7195.000000,7627.000000,5711.000000,1.000000,37.999023
7194.000000,7626.000000,5711.000000,1.000000,37.999023
7188.000000,7623.000000,5711.000000,1.000000,37.999023
7182.000000,7619.000000,5709.000000,1.000000,37.999023
7182.000000,7617.000000,5707.000000,1.000000,37.999023
7176.000000,7616.000000,5707.000000,1.000000,37.999023
7179.000000,7617.000000,5708.000000,1.000000,37.999023
7181.000000,7618.000000,5708.000000,1.000000,37.999023
7181.000000,7620.000000,5710.000000,1.000000,37.999023
7181.000000,7619.000000,5708.000000,1.000000,37.999023
7181.000000,7619.000000,5708.000000,1.000000,37.999023
7184.000000,7621.000000,5710.000000,1.000000,37.999023
7188.000000,7623.000000,5710.000000,1.000000,37.999023
7190.000000,7625.000000,5711.000000,1.000000,37.999023
7190.000000,7626.000000,5710.000000,1.000000,37.999023
7194.000000,7629.000000,5713.000000,1.000000,37.999023
7190.000000,7627.000000,5711.000000,1.000000,37.999023
7183.000000,7623.000000,5709.000000,1.000000,37.999023
7183.000000,7619.000000,5707.000000,1.000000,37.999023
7179.000000,7619.000000,5707.000000,1.000000,37.999023
7176.000000,7618.000000,5707.000000,1.000000,37.999023
7177.000000,7618.000000,5706.000000,1.000000,37.999023
7177.000000,7619.000000,5708.000000,1.000000,37.999023
7180.000000,7621.000000,5710.000000,1.000000,37.999023
7180.000000,7621.000000,5711.000000,1.000000,37.999023
7181.000000,7622.000000,5709.000000,1.000000,37.999023
7183.000000,7622.000000,5709.000000,1.000000,37.999023
7183.000000,7626.000000,5711.000000,1.000000,37.999023
7189.000000,7626.000000,5712.000000,1.000000,37.999023
7191.000000,7628.000000,5712.000000,1.000000,37.999023
7192.000000,7629.000000,5712.000000,1.000000,37.999023
7197.000000,7631.000000,5713.000000,1.000000,37.999023
7197.000000,7630.000000,5713.000000,1.000000,37.999023
7189.000000,7625.000000,5710.000000,1.000000,37.999023
7183.000000,7623.000000,5711.000000,1.000000,37.999023
7181.000000,7621.000000,5710.000000,1.000000,37.999023
7181.000000,7621.000000,5710.000000,1.000000,37.999023
7183.000000,7621.000000,5711.000000,1.000000,37.999023
7184.000000,7623.000000,5711.000000,1.000000,37.999023
7184.000000,7622.000000,5710.000000,1.000000,37.999023
7185.000000,7625.000000,5711.000000,0.000000,19.585449
7185.000000,7623.000000,5710.000000,0.000000,19.585449
7187.000000,7623.000000,5715.000000,0.000000,19.585449
7196.000000,7629.000000,5715.000000,0.000000,19.585449
7210.000000,7637.000000,5719.000000,0.000000,19.585449
7211.000000,7640.000000,5720.000000,0.000000,19.585449
7214.000000,7642.000000,5721.000000,0.000000,19.585449
7212.000000,7640.000000,5721.000000,0.000000,19.585449
7208.000000,7635.000000,5719.000000,0.000000,19.585449
7206.000000,7632.000000,5718.000000,0.000000,19.585449
7206.000000,7630.000000,5716.000000,0.000000,19.585449
7200.000000,7630.000000,5714.000000,0.000000,19.585449
7189.000000,7625.000000,5714.000000,0.000000,19.585449
7204.000000,7630.000000,5716.000000,0.000000,19.585449
7204.000000,7632.000000,5718.000000,0.000000,19.585449
7205.000000,7632.000000,5718.000000,0.000000,19.585449
7207.000000,7635.000000,5718.000000,0.000000,19.585449
7207.000000,7637.000000,5719.000000,0.000000,19.585449
7203.000000,7634.000000,5718.000000,0.000000,19.585449
7209.000000,7638.000000,5720.000000,0.000000,19.585449
7209.000000,7638.000000,5720.000000,0.000000,19.585449
7212.000000,7640.000000,5720.000000,0.000000,19.585449
7214.000000,7640.000000,5721.000000,0.000000,19.585449
7211.000000,7638.000000,5720.000000,0.000000,19.585449
7206.000000,7634.000000,5718.000000,0.000000,19.585449
7203.000000,7631.000000,5717.000000,0.000000,19.585449
7201.000000,7632.000000,5717.000000,0.000000,19.585449
7200.000000,7631.000000,5717.000000,0.000000,19.585449
7205.000000,7631.000000,5717.000000,0.000000,19.585449
7205.000000,7631.000000,5718.000000,0.000000,19.585449
7205.000000,7634.000000,5718.000000,0.000000,19.585449
7194.000000,7628.000000,5714.000000,0.000000,19.585449
7207.000000,7636.000000,5719.000000,0.000000,19.585449
7206.000000,7636.000000,5718.000000,0.000000,19.585449
7209.000000,7637.000000,5720.000000,0.000000,19.585449
7212.000000,7639.000000,5720.000000,0.000000,19.585449
7213.000000,7640.000000,5720.000000,0.000000,19.585449
7215.000000,7643.000000,5722.000000,0.000000,19.585449
7215.000000,7640.000000,5722.000000,0.000000,19.585449
7213.000000,7640.000000,5722.000000,0.000000,19.585449
7200.000000,7631.000000,5716.000000,0.000000,19.585449
7206.000000,7634.000000,5717.000000,0.000000,19.585449
7204.000000,7633.000000,5718.000000,0.000000,19.585449
7205.000000,7633.000000,5719.000000,0.000000,19.585449
7204.000000,7634.000000,5719.000000,0.000000,19.585449
7208.000000,7634.000000,5718.000000,0.000000,19.585449
7207.000000,7635.000000,5718.000000,0.000000,19.585449
7207.000000,7636.000000,5720.000000,0.000000,19.585449
7208.000000,7636.000000,5720.000000,0.000000,19.585449
7210.000000,7637.000000,5720.000000,0.000000,19.585449
7212.000000,7638.000000,5721.000000,0.000000,19.585449
7214.000000,7641.000000,5721.000000,0.000000,19.585449
7216.000000,7644.000000,5722.000000,0.000000,19.585449
7215.000000,7645.000000,5722.000000,0.000000,19.585449
7218.000000,7646.000000,5722.000000,0.000000,19.585449
7215.000000,7641.000000,5721.000000,0.000000,19.585449
7215.000000,7637.000000,5720.000000,0.000000,19.585449
7211.000000,7637.000000,5719.000000,0.000000,19.585449
7209.000000,7636.000000,5719.000000,0.000000,19.585449
7197.000000,7629.000000,5714.000000,0.000000,19.585449
7208.000000,7634.000000,5718.000000,0.000000,19.585449
7210.000000,7636.000000,5719.000000,0.000000,19.585449
7207.000000,7636.000000,5718.000000,0.000000,19.585449
7212.000000,7638.000000,5720.000000,0.000000,19.585449
7211.000000,7639.000000,5719.000000,0.000000,19.585449
7211.000000,7639.000000,5721.000000,0.000000,19.585449
7215.000000,7639.000000,5722.000000,0.000000,19.585449
7215.000000,7643.000000,5722.000000,0.000000,19.585449
7208.000000,7639.000000,5718.000000,0.000000,19.585449
7217.000000,7647.000000,5722.000000,0.000000,19.585449
7215.000000,7647.000000,5722.000000,0.000000,19.585449
7217.000000,7644.000000,5722.000000,0.000000,19.585449
7214.000000,7639.000000,5721.000000,0.000000,19.585449
7212.000000,7636.000000,5720.000000,0.000000,19.585449
7211.000000,7639.000000,5719.000000,0.000000,19.585449
7211.000000,7639.000000,5720.000000,0.000000,19.585449
7211.000000,7640.000000,5720.000000,0.000000,19.585449
7211.000000,7639.000000,5719.000000,0.000000,19.585449
7212.000000,7639.000000,5719.000000,0.000000,19.585449
7208.000000,7638.000000,5719.000000,0.000000,19.585449
7214.000000,7639.000000,5720.000000,0.000000,19.585449
7215.000000,7640.000000,5721.000000,0.000000,19.585449
7216.000000,7644.000000,5722.000000,0.000000,19.585449
7218.000000,7646.000000,5723.000000,0.000000,19.585449
7218.000000,7646.000000,5724.000000,0.000000,19.585449
7217.000000,7650.000000,5724.000000,0.000000,19.585449
7219.000000,7650.000000,5725.000000,0.000000,19.585449
7206.000000,7637.000000,5718.000000,0.000000,19.585449
7211.000000,7638.000000,5720.000000,0.000000,19.585449
7212.000000,7638.000000,5720.000000,0.000000,19.585449
7208.000000,7636.000000,5719.000000,0.000000,19.585449
7211.000000,7637.000000,5721.000000,0.000000,19.585449
7211.000000,7636.000000,5720.000000,0.000000,19.585449
7211.000000,7636.000000,5720.000000,0.000000,19.585449
7211.000000,7636.000000,5720.000000,0.000000,19.585449
7212.000000,7637.000000,5720.000000,0.000000,19.585449
7207.000000,7636.000000,5717.000000,0.000000,19.585449
7208.000000,7637.000000,5718.000000,0.000000,19.585449
7216.000000,7642.000000,5722.000000,0.000000,19.585449
7217.000000,7644.000000,5722.000000,0.000000,19.585449
7217.000000,7647.000000,5722.000000,0.000000,19.585449
7217.000000,7645.000000,5722.000000,0.000000,19.585449
7217.000000,7639.000000,5721.000000,0.000000,19.585449
7216.000000,7639.000000,5721.000000,0.000000,19.585449
7211.000000,7637.000000,5719.000000,0.000000,19.585449
7208.000000,7634.000000,5717.000000,0.000000,19.585449
7208.000000,7635.000000,5718.000000,0.000000,19.585449
7209.000000,7636.000000,5719.000000,0.000000,19.585449
7210.000000,7637.000000,5720.000000,0.000000,19.585449
7207.000000,7636.000000,5718.000000,0.000000,19.585449
7211.000000,7637.000000,5720.000000,0.000000,19.585449
7211.000000,7638.000000,5719.000000,0.000000,19.585449
7211.000000,7638.000000,5720.000000,0.000000,19.585449
7212.000000,7639.000000,5720.000000,0.000000,19.585449
7213.000000,7638.000000,5721.000000,0.000000,19.585449
7205.000000,7637.000000,5718.000000,0.000000,19.585449
7217.000000,7645.000000,5722.000000,0.000000,19.585449
7216.000000,7646.000000,5723.000000,0.000000,19.585449
7215.000000,7640.000000,5720.000000,0.000000,19.585449
7210.000000,7637.000000,5718.000000,0.000000,19.585449
7209.000000,7635.000000,5718.000000,1.000000,26.515137
7205.000000,7632.000000,5717.000000,1.000000,26.515137
7187.000000,7623.000000,5712.000000,1.000000,26.515137
7184.000000,7623.000000,5712.000000,1.000000,26.515137
7187.000000,7622.000000,5710.000000,1.000000,26.515137
7189.000000,7624.000000,5713.000000,1.000000,26.515137
7189.000000,7624.000000,5713.000000,1.000000,26.515137
7190.000000,7625.000000,5713.000000,1.000000,26.515137
7190.000000,7625.000000,5711.000000,1.000000,26.515137
7193.000000,7626.000000,5713.000000,1.000000,26.515137
7195.000000,7630.000000,5713.000000,1.000000,26.515137
7198.000000,7632.000000,5716.000000,1.000000,26.515137
7200.000000,7632.000000,5715.000000,1.000000,26.515137
7196.000000,7629.000000,5714.000000,1.000000,26.515137
7191.000000,7625.000000,5711.000000,1.000000,26.515137
7191.000000,7625.000000,5711.000000,1.000000,26.515137
7186.000000,7623.000000,5711.000000,1.000000,26.515137
7187.000000,7623.000000,5710.000000,1.000000,26.515137
7180.000000,7621.000000,5710.000000,1.000000,26.515137
7182.000000,7622.000000,5711.000000,1.000000,26.515137
7185.000000,7621.000000,5710.000000,1.000000,26.515137
7187.000000,7623.000000,5712.000000,1.000000,26.515137
7190.000000,7623.000000,5712.000000,1.000000,26.515137
7190.000000,7624.000000,5711.000000,1.000000,26.515137
7190.000000,7626.000000,5710.000000,1.000000,26.515137
7192.000000,7626.000000,5710.000000,1.000000,26.515137
7193.000000,7629.000000,5711.000000,1.000000,26.515137
7196.000000,7631.000000,5713.000000,1.000000,26.515137
7198.000000,7633.000000,5715.000000,1.000000,26.515137
7199.000000,7632.000000,5714.000000,1.000000,26.515137
7194.000000,7630.000000,5712.000000,1.000000,26.515137
7189.000000,7627.000000,5711.000000,1.000000,26.515137
7185.000000,7624.000000,5711.000000,1.000000,26.515137
7185.000000,7624.000000,5711.000000,1.000000,26.515137
7184.000000,7624.000000,5711.000000,1.000000,26.515137
7185.000000,7623.000000,5711.000000,1.000000,26.515137
7183.000000,7623.000000,5711.000000,1.000000,26.515137
7185.000000,7624.000000,5712.000000,1.000000,26.515137
7187.000000,7624.000000,5711.000000,1.000000,26.515137
7189.000000,7627.000000,5712.000000,1.000000,26.515137
7191.000000,7627.000000,5713.000000,1.000000,26.515137
7196.000000,7630.000000,5715.000000,1.000000,26.515137
7196.000000,7631.000000,5715.000000,1.000000,26.515137
7198.000000,7631.000000,5717.000000,1.000000,26.515137
7198.000000,7633.000000,5717.000000,1.000000,26.515137
7198.000000,7635.000000,5717.000000,1.000000,26.515137
7197.000000,7633.000000,5716.000000,1.000000,26.515137
7190.000000,7628.000000,5714.000000,1.000000,26.515137
7186.000000,7626.000000,5712.000000,1.000000,26.515137
7184.000000,7625.000000,5712.000000,1.000000,26.515137
7183.000000,7624.000000,5712.000000,1.000000,26.515137
7183.000000,7624.000000,5711.000000,1.000000,26.515137
7183.000000,7624.000000,5713.000000,1.000000,26.515137
7186.000000,7625.000000,5713.000000,1.000000,26.515137
7188.000000,7626.000000,5713.000000,1.000000,26.515137
7189.000000,7626.000000,5713.000000,1.000000,26.515137
7191.000000,7628.000000,5714.000000,1.000000,26.515137
7192.000000,7630.000000,5714.000000,1.000000,26.515137
7195.000000,7632.000000,5714.000000,1.000000,26.515137
7199.000000,7634.000000,5716.000000,1.000000,26.515137
7199.000000,7635.000000,5715.000000,1.000000,26.515137
7199.000000,7635.000000,5715.000000,1.000000,26.515137
7198.000000,7632.000000,5715.000000,1.000000,26.515137
7194.000000,7631.000000,5714.000000,1.000000,26.515137
7189.000000,7626.000000,5712.000000,1.000000,26.515137
7188.000000,7626.000000,5713.000000,1.000000,26.515137
7189.000000,7626.000000,5713.000000,1.000000,26.515137
7188.000000,7627.000000,5712.000000,1.000000,26.515137
7189.000000,7626.000000,5711.000000,1.000000,26.515137
7191.000000,7626.000000,5712.000000,1.000000,26.515137
7191.000000,7626.000000,5712.000000,1.000000,26.515137
7194.000000,7626.000000,5712.000000,1.000000,26.515137
7196.000000,7629.000000,5714.000000,1.000000,26.515137
7200.000000,7631.000000,5715.000000,1.000000,26.515137
7201.000000,7633.000000,5716.000000,1.000000,26.515137
7203.000000,7637.000000,5716.000000,1.000000,26.515137
7204.000000,7637.000000,5715.000000,1.000000,26.515137
7205.000000,7637.000000,5715.000000,1.000000,26.515137
7202.000000,7634.000000,5715.000000,1.000000,26.515137
7202.000000,7634.000000,5714.000000,1.000000,26.515137
7199.000000,7632.000000,5714.000000,1.000000,26.515137
7195.000000,7630.000000,5714.000000,1.000000,26.515137
7194.000000,7628.000000,5712.000000,1.000000,26.515137
7195.000000,7629.000000,5715.000000,1.000000,26.515137
7195.000000,7628.000000,5713.000000,1.000000,26.515137
7193.000000,7630.000000,5712.000000,1.000000,26.515137
7196.000000,7630.000000,5712.000000,1.000000,26.515137
7198.000000,7633.000000,5715.000000,1.000000,26.515137
7198.000000,7633.000000,5716.000000,1.000000,26.515137
7197.000000,7633.000000,5716.000000,1.000000,26.515137
7200.000000,7633.000000,5715.000000,1.000000,26.515137
7202.000000,7636.000000,5715.000000,1.000000,26.515137
7205.000000,7639.000000,5716.000000,1.000000,26.515137
7208.000000,7641.000000,5719.000000,1.000000,26.515137
7211.000000,7641.000000,5719.000000,1.000000,26.515137
7209.000000,7640.000000,5717.000000,1.000000,26.515137
7205.000000,7636.000000,5716.000000,1.000000,26.515137
7205.000000,7634.000000,5715.000000,1.000000,26.515137
7202.000000,7634.000000,5715.000000,1.000000,26.515137
7201.000000,7632.000000,5715.000000,1.000000,26.515137
7199.000000,7631.000000,5715.000000,1.000000,26.515137
7200.000000,7633.000000,5715.000000,1.000000,26.515137
7199.000000,7632.000000,5715.000000,1.000000,26.515137
7199.000000,7632.000000,5715.000000,1.000000,26.515137
7199.000000,7634.000000,5715.000000,1.000000,26.515137
7201.000000,7636.000000,5716.000000,1.000000,26.515137
