8022.000000,8376.000000,6244.000000,0.000000,21504.000000
8012.000000,8367.000000,6237.000000,0.000000,21504.000000
8019.000000,8372.000000,6243.000000,0.000000,21504.000000
8019.000000,8372.000000,6242.000000,0.000000,21504.000000
8019.000000,8369.000000,6241.000000,0.000000,21504.000000
8021.000000,8369.000000,6241.000000,0.000000,21504.000000
8021.000000,8366.000000,6238.000000,0.000000,21504.000000
8016.000000,8366.000000,6238.000000,0.000000,21504.000000
8018.000000,8366.000000,6240.000000,0.000000,21504.000000
8013.000000,8361.000000,6236.000000,0.000000,21504.000000
8014.000000,8363.000000,6236.000000,0.000000,21504.000000
8018.000000,8367.000000,6239.000000,0.000000,21504.000000
8018.000000,8367.000000,6240.000000,0.000000,21504.000000
8018.000000,8367.000000,6239.000000,0.000000,21504.000000
8018.000000,8370.000000,6240.000000,0.000000,21504.000000
8018.000000,8369.000000,6239.000000,0.000000,21504.000000
8018.000000,8369.000000,6241.000000,0.000000,21504.000000
8020.000000,8372.000000,6241.000000,0.000000,21504.000000
8019.000000,8373.000000,6240.000000,0.000000,21504.000000
8021.000000,8374.000000,6241.000000,0.000000,21504.000000
8020.000000,8373.000000,6241.000000,0.000000,21504.000000
8019.000000,8371.000000,6240.000000,0.000000,21504.000000
8017.000000,8368.000000,6237.000000,0.000000,21504.000000
8015.000000,8366.000000,6237.000000,0.000000,21504.000000
8015.000000,8366.000000,6237.000000,0.000000,21504.000000
8016.000000,8366.000000,6235.000000,0.000000,21504.000000
8015.000000,8364.000000,6235.000000,0.000000,21504.000000
8015.000000,8364.000000,6236.000000,0.000000,21504.000000
8013.000000,8362.000000,6233.000000,0.000000,21504.000000
8007.000000,8357.000000,6230.000000,0.000000,21504.000000
8015.000000,8365.000000,6236.000000,0.000000,21504.000000
8016.000000,8365.000000,6237.000000,0.000000,21504.000000
8016.000000,8367.000000,6237.000000,0.000000,21504.000000
8018.000000,8368.000000,6238.000000,0.000000,21504.000000
8018.000000,8368.000000,6238.000000,0.000000,21504.000000
8018.000000,8371.000000,6238.000000,0.000000,21504.000000
8017.000000,8371.000000,6237.000000,0.000000,21504.000000
8015.000000,8369.000000,6236.000000,0.000000,21504.000000
8013.000000,8366.000000,6234.000000,0.000000,21504.000000
8013.000000,8366.000000,6234.000000,0.000000,21504.000000
8016.000000,8367.000000,6236.000000,0.000000,21504.000000
8014.000000,8366.000000,6235.000000,0.000000,21504.000000
8014.000000,8365.000000,6233.000000,0.000000,21504.000000
8014.000000,8365.000000,6233.000000,0.000000,21504.000000
8013.000000,8364.000000,6233.000000,0.000000,21504.000000
8013.000000,8366.000000,6234.000000,0.000000,21504.000000
8014.000000,8364.000000,6234.000000,0.000000,21504.000000
8016.000000,8365.000000,6235.000000,0.000000,21504.000000
8016.000000,8366.000000,6234.000000,0.000000,21504.000000
8012.000000,8363.000000,6232.000000,0.000000,21504.000000
8016.000000,8368.000000,6235.000000,0.000000,21504.000000
8015.000000,8368.000000,6235.000000,0.000000,21504.000000
8015.000000,8369.000000,6236.000000,0.000000,21504.000000
8017.000000,8369.000000,6236.000000,0.000000,21504.000000
8015.000000,8369.000000,6235.000000,0.000000,21504.000000
8016.000000,8369.000000,6236.000000,0.000000,21504.000000
8013.000000,8364.000000,6233.000000,0.000000,21504.000000
8005.000000,8355.000000,6227.000000,0.000000,21504.000000
8009.000000,8361.000000,6230.000000,0.000000,21504.000000
8007.000000,8359.000000,6228.000000,0.000000,21504.000000
8005.000000,8357.000000,6227.000000,0.000000,21504.000000
8006.000000,8358.000000,6228.000000,1.000000,21504.000000
8007.000000,8357.000000,6227.000000,1.000000,21504.000000
8005.000000,8358.000000,6226.000000,1.000000,21504.000000
8003.000000,8355.000000,6226.000000,1.000000,21504.000000
8003.000000,8355.000000,6224.000000,1.000000,21504.000000
8001.000000,8352.000000,6224.000000,1.000000,21504.000000
8007.000000,8357.000000,6227.000000,1.000000,21504.000000
8010.000000,8360.000000,6229.000000,1.000000,21504.000000
8010.000000,8361.000000,6229.000000,1.000000,21504.000000
8009.000000,8359.000000,6227.000000,1.000000,21504.000000
8011.000000,8362.000000,6229.000000,1.000000,21504.000000
8012.000000,8362.000000,6229.000000,1.000000,21504.000000
8007.000000,8359.000000,6227.000000,1.000000,21504.000000
8007.000000,8357.000000,6226.000000,1.000000,21504.000000
8006.000000,8357.000000,6226.000000,1.000000,21504.000000
8004.000000,8357.000000,6225.000000,1.000000,21504.000000
8004.000000,8356.000000,6226.000000,1.000000,21504.000000
8003.000000,8355.000000,6225.000000,1.000000,21504.000000
8004.000000,8353.000000,6224.000000,1.000000,21504.000000
8003.000000,8354.000000,6225.000000,1.000000,21504.000000
7994.000000,8344.000000,6219.000000,1.000000,21504.000000
7990.000000,8340.000000,6217.000000,1.000000,21504.000000
7990.000000,8340.000000,6217.000000,1.000000,21504.000000
7991.000000,8340.000000,6217.000000,1.000000,21504.000000
7991.000000,8340.000000,6217.000000,1.000000,21504.000000
7990.000000,8340.000000,6217.000000,1.000000,21504.000000
7990.000000,8340.000000,6217.000000,1.000000,21504.000000
7990.000000,8343.000000,6218.000000,1.000000,21504.000000
7992.000000,8344.000000,6217.000000,1.000000,21504.000000
7993.000000,8346.000000,6219.000000,1.000000,21504.000000
7993.000000,8345.000000,6218.000000,1.000000,21504.000000
7993.000000,8342.000000,6217.000000,1.000000,21504.000000
7993.000000,8342.000000,6214.000000,1.000000,21504.000000
7988.000000,8338.000000,6214.000000,1.000000,21504.000000
7987.000000,8337.000000,6214.000000,1.000000,21504.000000
7987.000000,8336.000000,6213.000000,1.000000,21504.000000
7986.000000,8336.000000,6213.000000,1.000000,21504.000000
7986.000000,8336.000000,6212.000000,1.000000,21504.000000
7985.000000,8334.000000,6212.000000,1.000000,21504.000000
7985.000000,8333.000000,6211.000000,1.000000,21504.000000
7984.000000,8334.000000,6211.000000,1.000000,21504.000000
7984.000000,8334.000000,6213.000000,1.000000,21504.000000
7985.000000,8334.000000,6213.000000,1.000000,21504.000000
7986.000000,8335.000000,6212.000000,1.000000,21504.000000
7986.000000,8334.000000,6212.000000,1.000000,21504.000000
7986.000000,8336.000000,6213.000000,1.000000,21504.000000
7987.000000,8336.000000,6213.000000,1.000000,21504.000000
7988.000000,8337.000000,6213.000000,1.000000,21504.000000
7989.000000,8337.000000,6214.000000,1.000000,21504.000000
7988.000000,8338.000000,6213.000000,1.000000,21504.000000
7988.000000,8338.000000,6212.000000,1.000000,21504.000000
7987.000000,8336.000000,6212.000000,1.000000,21504.000000
7985.000000,8334.000000,6210.000000,1.000000,21504.000000
7985.000000,8332.000000,6211.000000,1.000000,21504.000000
7984.000000,8332.000000,6210.000000,1.000000,21504.000000
7984.000000,8331.000000,6210.000000,1.000000,21504.000000
7984.000000,8330.000000,6210.000000,1.000000,21504.000000
7983.000000,8330.000000,6210.000000,1.000000,21504.000000
7982.000000,8329.000000,6209.000000,1.000000,21504.000000
7982.000000,8328.000000,6209.000000,1.000000,21504.000000
7983.000000,8328.000000,6209.000000,1.000000,21504.000000
7982.000000,8330.000000,6208.000000,1.000000,21504.000000
7983.000000,8329.000000,6209.000000,1.000000,21504.000000
7983.000000,8330.000000,6209.000000,1.000000,21504.000000
7984.000000,8332.000000,6210.000000,1.000000,21504.000000
7984.000000,8332.000000,6209.000000,1.000000,21504.000000
7985.000000,8333.000000,6210.000000,1.000000,21504.000000
7986.000000,8334.000000,6211.000000,1.000000,21504.000000
7986.000000,8333.000000,6210.000000,1.000000,21504.000000
7985.000000,8333.000000,6209.000000,1.000000,21504.000000
7985.000000,8330.000000,6209.000000,1.000000,21504.000000
7984.000000,8329.000000,6208.000000,1.000000,21504.000000
7982.000000,8329.000000,6208.000000,1.000000,21504.000000
7983.000000,8328.000000,6207.000000,1.000000,21504.000000
7983.000000,8327.000000,6206.000000,1.000000,21504.000000
7983.000000,8327.000000,6207.000000,1.000000,21504.000000
7982.000000,8327.000000,6205.000000,1.000000,21504.000000
7982.000000,8325.000000,6206.000000,1.000000,21504.000000
7982.000000,8325.000000,6205.000000,1.000000,21504.000000
7981.000000,8325.000000,6205.000000,1.000000,21504.000000
7981.000000,8324.000000,6204.000000,1.000000,21504.000000
7982.000000,8324.000000,6205.000000,1.000000,21504.000000
7982.000000,8326.000000,6206.000000,1.000000,21504.000000
7983.000000,8330.000000,6206.000000,1.000000,21504.000000
7985.000000,8330.000000,6207.000000,1.000000,21504.000000
7982.000000,8330.000000,6206.000000,1.000000,21504.000000
7983.000000,8329.000000,6206.000000,1.000000,21504.000000
7983.000000,8329.000000,6206.000000,1.000000,21504.000000
7982.000000,8329.000000,6206.000000,1.000000,21504.000000
7982.000000,8329.000000,6205.000000,1.000000,21504.000000
7982.000000,8326.000000,6203.000000,1.000000,21504.000000
7982.000000,8325.000000,6204.000000,1.000000,21504.000000
7981.000000,8324.000000,6203.000000,1.000000,21504.000000
7980.000000,8322.000000,6202.000000,1.000000,21504.000000
7979.000000,8322.000000,6200.000000,1.000000,21504.000000
7980.000000,8321.000000,6199.000000,1.000000,21504.000000
7980.000000,8320.000000,6200.000000,1.000000,21504.000000
7978.000000,8320.000000,6200.000000,1.000000,21504.000000
7979.000000,8321.000000,6199.000000,1.000000,21504.000000
7978.000000,8320.000000,6200.000000,1.000000,21504.000000
7978.000000,8319.000000,6199.000000,1.000000,21504.000000
7978.000000,8321.000000,6200.000000,1.000000,21504.000000
7978.000000,8320.000000,6199.000000,1.000000,21504.000000
7977.000000,8320.000000,6199.000000,1.000000,21504.000000
7977.000000,8320.000000,6199.000000,1.000000,21504.000000
7977.000000,8319.000000,6198.000000,1.000000,21504.000000
7977.000000,8319.000000,6198.000000,1.000000,21504.000000
7975.000000,8317.000000,6197.000000,1.000000,21504.000000
7975.000000,8316.000000,6197.000000,1.000000,21504.000000
7972.000000,8315.000000,6195.000000,1.000000,21504.000000
7972.000000,8315.000000,6194.000000,1.000000,21504.000000
7972.000000,8313.000000,6194.000000,1.000000,21504.000000
7970.000000,8312.000000,6193.000000,1.000000,21504.000000
7969.000000,8312.000000,6193.000000,1.000000,21504.000000
7969.000000,8311.000000,6192.000000,1.000000,21504.000000
7967.000000,8311.000000,6193.000000,1.000000,21504.000000
7970.000000,8311.000000,6193.000000,1.000000,21504.000000
7969.000000,8310.000000,6194.000000,1.000000,21504.000000
7970.000000,8311.000000,6193.000000,1.000000,21504.000000
7970.000000,8311.000000,6193.000000,1.000000,21504.000000
7971.000000,8312.000000,6193.000000,0.000000,21504.000000
7970.000000,8314.000000,6194.000000,0.000000,21504.000000
7971.000000,8314.000000,6195.000000,0.000000,21504.000000
7972.000000,8314.000000,6194.000000,0.000000,21504.000000
7971.000000,8314.000000,6193.000000,0.000000,21504.000000
7970.000000,8312.000000,6192.000000,0.000000,21504.000000
7968.000000,8310.000000,6190.000000,0.000000,21504.000000
7968.000000,8310.000000,6190.000000,0.000000,21504.000000
7967.000000,8308.000000,6190.000000,0.000000,21504.000000
7966.000000,8306.000000,6188.000000,0.000000,21504.000000
7977.000000,8316.000000,6197.000000,0.000000,21504.000000
7978.000000,8316.000000,6197.000000,0.000000,21504.000000
7977.000000,8315.000000,6196.000000,0.000000,21504.000000
7977.000000,8315.000000,6196.000000,0.000000,21504.000000
7975.000000,8314.000000,6195.000000,0.000000,21504.000000
7976.000000,8314.000000,6197.000000,0.000000,21504.000000
7976.000000,8310.000000,6191.000000,0.000000,21504.000000
7971.000000,8310.000000,6191.000000,0.000000,21504.000000
7975.000000,8314.000000,6195.000000,0.000000,21504.000000
7977.000000,8316.000000,6197.000000,0.000000,21504.000000
7978.000000,8317.000000,6197.000000,0.000000,21504.000000
7977.000000,8318.000000,6197.000000,0.000000,21504.000000
7978.000000,8316.000000,6196.000000,0.000000,21504.000000
7977.000000,8319.000000,6197.000000,0.000000,21504.000000
7974.000000,8316.000000,6195.000000,0.000000,21504.000000
7974.000000,8312.000000,6193.000000,0.000000,21504.000000
7973.000000,8312.000000,6193.000000,0.000000,21504.000000
7967.000000,8307.000000,6189.000000,0.000000,21504.000000
7969.000000,8309.000000,6191.000000,0.000000,21504.000000
7968.000000,8309.000000,6191.000000,0.000000,21504.000000
7970.000000,8308.000000,6191.000000,0.000000,21504.000000
7968.000000,8309.000000,6190.000000,0.000000,21504.000000
7968.000000,8307.000000,6190.000000,0.000000,21504.000000
7968.000000,8308.000000,6190.000000,0.000000,21504.000000
7968.000000,8307.000000,6190.000000,0.000000,21504.000000
7968.000000,8307.000000,6188.000000,0.000000,21504.000000
7966.000000,8306.000000,6188.000000,0.000000,21504.000000
7967.000000,8307.000000,6190.000000,0.000000,21504.000000
7966.000000,8307.000000,6189.000000,0.000000,21504.000000
7970.000000,8308.000000,6190.000000,0.000000,21504.000000
7970.000000,8309.000000,6190.000000,0.000000,21504.000000
7970.000000,8310.000000,6191.000000,0.000000,21504.000000
7970.000000,8309.000000,6191.000000,0.000000,21504.000000
7970.000000,8310.000000,6190.000000,0.000000,21504.000000
7970.000000,8310.000000,6185.000000,0.000000,21504.000000
7963.000000,8303.000000,6185.000000,0.000000,21504.000000
7963.000000,8304.000000,6186.000000,0.000000,21504.000000
7964.000000,8303.000000,6186.000000,0.000000,21504.000000
7963.000000,8304.000000,6185.000000,0.000000,21504.000000
7961.000000,8302.000000,6184.000000,0.000000,21504.000000
7963.000000,8302.000000,6185.000000,0.000000,21504.000000
7963.000000,8301.000000,6184.000000,0.000000,21504.000000
7962.000000,8301.000000,6185.000000,0.000000,21504.000000
7962.000000,8301.000000,6183.000000,0.000000,21504.000000
7962.000000,8301.000000,6183.000000,0.000000,21504.000000
7959.000000,8298.000000,6180.000000,0.000000,21504.000000
7964.000000,8303.000000,6184.000000,0.000000,21504.000000
7966.000000,8303.000000,6185.000000,0.000000,21504.000000
7965.000000,8304.000000,6185.000000,0.000000,21504.000000
7963.000000,8305.000000,6185.000000,0.000000,21504.000000
7966.000000,8305.000000,6186.000000,0.000000,21504.000000
7965.000000,8303.000000,6184.000000,0.000000,21504.000000
7965.000000,8300.000000,6183.000000,0.000000,21504.000000
7964.000000,8300.000000,6183.000000,0.000000,21504.000000
7964.000000,8299.000000,6182.000000,0.000000,21504.000000
7962.000000,8299.000000,6182.000000,0.000000,21504.000000
7961.000000,8298.000000,6180.000000,0.000000,21504.000000
7960.000000,8298.000000,6181.000000,0.000000,21504.000000
7961.000000,8297.000000,6181.000000,0.000000,21504.000000
7961.000000,8296.000000,6181.000000,0.000000,21504.000000
7959.000000,8295.000000,6178.000000,0.000000,21504.000000
7959.000000,8297.000000,6180.000000,0.000000,21504.000000
7961.000000,8297.000000,6177.000000,0.000000,21504.000000
7957.000000,8294.000000,6177.000000,0.000000,21504.000000
7958.000000,8297.000000,6178.000000,0.000000,21504.000000
7961.000000,8298.000000,6180.000000,0.000000,21504.000000
7962.000000,8299.000000,6180.000000,0.000000,21504.000000
7961.000000,8300.000000,6181.000000,0.000000,21504.000000
7961.000000,8300.000000,6181.000000,0.000000,21504.000000
7960.000000,8298.000000,6178.000000,0.000000,21504.000000
7960.000000,8294.000000,6177.000000,0.000000,21504.000000
7958.000000,8294.000000,6177.000000,0.000000,21504.000000
7958.000000,8293.000000,6177.000000,0.000000,21504.000000
7951.000000,8286.000000,6171.000000,0.000000,21504.000000
7956.000000,8291.000000,6175.000000,0.000000,21504.000000
7957.000000,8290.000000,6174.000000,0.000000,21504.000000
7955.000000,8292.000000,6174.000000,0.000000,21504.000000
7955.000000,8288.000000,6173.000000,0.000000,21504.000000
7955.000000,8289.000000,6173.000000,0.000000,21504.000000
7955.000000,8290.000000,6173.000000,0.000000,21504.000000
7955.000000,8290.000000,6172.000000,0.000000,21504.000000
7954.000000,8288.000000,6172.000000,0.000000,21504.000000
7953.000000,8289.000000,6172.000000,0.000000,21504.000000
7954.000000,8289.000000,6173.000000,0.000000,21504.000000
7956.000000,8290.000000,6173.000000,0.000000,21504.000000
7956.000000,8293.000000,6173.000000,0.000000,21504.000000
7958.000000,8294.000000,6174.000000,0.000000,21504.000000
7957.000000,8293.000000,6174.000000,0.000000,21504.000000
7955.000000,8290.000000,6173.000000,0.000000,21504.000000
7955.000000,8290.000000,6171.000000,0.000000,21504.000000
7953.000000,8287.000000,6171.000000,0.000000,21504.000000
7950.000000,8281.000000,6167.000000,0.000000,21504.000000
7947.000000,8276.000000,6166.000000,0.000000,21504.000000
7950.000000,8280.000000,6169.000000,0.000000,21504.000000
7951.000000,8280.000000,6169.000000,0.000000,21504.000000
7951.000000,8281.000000,6168.000000,0.000000,21504.000000
7950.000000,8281.000000,6167.000000,0.000000,21504.000000
7950.000000,8279.000000,6167.000000,0.000000,21504.000000
7950.000000,8282.000000,6167.000000,0.000000,21504.000000
7950.000000,8282.000000,6167.000000,0.000000,21504.000000
7950.000000,8280.000000,6166.000000,0.000000,21504.000000
7946.000000,8275.000000,6162.000000,0.000000,21504.000000
7951.000000,8283.000000,6168.000000,0.000000,21504.000000
7950.000000,8281.000000,6166.000000,0.000000,21504.000000
7952.000000,8284.000000,6168.000000,0.000000,21504.000000
7952.000000,8285.000000,6169.000000,0.000000,21504.000000
7952.000000,8286.000000,6169.000000,0.000000,21504.000000
7952.000000,8283.000000,6168.000000,0.000000,21504.000000
7950.000000,8283.000000,6167.000000,0.000000,21504.000000
7949.000000,8282.000000,6167.000000,0.000000,21504.000000
7947.000000,8279.000000,6165.000000,1.000000,21504.000000
7946.000000,8276.000000,6164.000000,1.000000,21504.000000
7946.000000,8276.000000,6164.000000,1.000000,21504.000000
7944.000000,8275.000000,6162.000000,1.000000,21504.000000
7944.000000,8274.000000,6162.000000,1.000000,21504.000000
7944.000000,8274.000000,6163.000000,1.000000,21504.000000
7945.000000,8273.000000,6162.000000,1.000000,21504.000000
7946.000000,8273.000000,6162.000000,1.000000,21504.000000
7943.000000,8271.000000,6160.000000,1.000000,21504.000000
7941.000000,8269.000000,6158.000000,1.000000,21504.000000
7941.000000,8269.000000,6162.000000,1.000000,21504.000000
7945.000000,8274.000000,6162.000000,1.000000,21504.000000
7946.000000,8276.000000,6162.000000,1.000000,21504.000000
7947.000000,8277.000000,6163.000000,1.000000,21504.000000
7939.000000,8267.000000,6155.000000,1.000000,21504.000000
7938.000000,8266.000000,6155.000000,1.000000,21504.000000
7939.000000,8267.000000,6155.000000,1.000000,21504.000000
7938.000000,8265.000000,6154.000000,1.000000,21504.000000
7934.000000,8263.000000,6153.000000,1.000000,21504.000000
7934.000000,8263.000000,6151.000000,1.000000,21504.000000
7934.000000,8260.000000,6151.000000,1.000000,21504.000000
7933.000000,8257.000000,6149.000000,1.000000,21504.000000
7932.000000,8258.000000,6149.000000,1.000000,21504.000000
7931.000000,8254.000000,6147.000000,1.000000,21504.000000
7933.000000,8255.000000,6148.000000,1.000000,21504.000000
7929.000000,8254.000000,6147.000000,1.000000,21504.000000
7929.000000,8254.000000,6147.000000,1.000000,21504.000000
7930.000000,8255.000000,6147.000000,1.000000,21504.000000
7930.000000,8257.000000,6148.000000,1.000000,21504.000000
7933.000000,8257.000000,6148.000000,1.000000,21504.000000
7932.000000,8256.000000,6149.000000,1.000000,21504.000000
7932.000000,8258.000000,6149.000000,1.000000,21504.000000
7933.000000,8258.000000,6149.000000,1.000000,21504.000000
7932.000000,8259.000000,6150.000000,1.000000,21504.000000
7934.000000,8259.000000,6150.000000,1.000000,21504.000000
7932.000000,8258.000000,6150.000000,1.000000,21504.000000
7930.000000,8257.000000,6148.000000,1.000000,21504.000000
7930.000000,8254.000000,6146.000000,1.000000,21504.000000
7929.000000,8254.000000,6145.000000,1.000000,21504.000000
7928.000000,8251.000000,6145.000000,1.000000,21504.000000
7926.000000,8252.000000,6144.000000,1.000000,21504.000000
7926.000000,8248.000000,6143.000000,1.000000,21504.000000
7927.000000,8248.000000,6144.000000,1.000000,21504.000000
7925.000000,8247.000000,6142.000000,1.000000,21504.000000
7924.000000,8246.000000,6141.000000,1.000000,21504.000000
7924.000000,8247.000000,6143.000000,1.000000,21504.000000
7924.000000,8245.000000,6140.000000,1.000000,21504.000000
7923.000000,8245.000000,6141.000000,1.000000,21504.000000
7924.000000,8247.000000,6141.000000,1.000000,21504.000000
7924.000000,8247.000000,6143.000000,1.000000,21504.000000
7923.000000,8248.000000,6142.000000,1.000000,21504.000000
7927.000000,8251.000000,6143.000000,1.000000,21504.000000
7926.000000,8253.000000,6144.000000,1.000000,21504.000000
7928.000000,8254.000000,6144.000000,1.000000,21504.000000
7927.000000,8252.000000,6143.000000,1.000000,21504.000000
7925.000000,8250.000000,6142.000000,1.000000,21504.000000
7925.000000,8250.000000,6140.000000,1.000000,21504.000000
7923.000000,8247.000000,6140.000000,1.000000,21504.000000
7922.000000,8244.000000,6139.000000,1.000000,21504.000000
7920.000000,8244.000000,6139.000000,1.000000,21504.000000
7921.000000,8242.000000,6138.000000,1.000000,21504.000000
7921.000000,8242.000000,6138.000000,1.000000,21504.000000
7919.000000,8242.000000,6138.000000,1.000000,21504.000000
7921.000000,8243.000000,6138.000000,1.000000,21504.000000
7920.000000,8241.000000,6137.000000,1.000000,21504.000000
7920.000000,8241.000000,6137.000000,1.000000,21504.000000
7920.000000,8241.000000,6137.000000,1.000000,21504.000000
7921.000000,8243.000000,6138.000000,1.000000,21504.000000
7921.000000,8241.000000,6137.000000,1.000000,21504.000000
7922.000000,8242.000000,6138.000000,1.000000,21504.000000
7922.000000,8245.000000,6138.000000,1.000000,21504.000000
7924.000000,8246.000000,6139.000000,1.000000,21504.000000
7925.000000,8248.000000,6140.000000,1.000000,21504.000000
7924.000000,8246.000000,6139.000000,1.000000,21504.000000
7924.000000,8245.000000,6137.000000,1.000000,21504.000000
7923.000000,8245.000000,6137.000000,1.000000,21504.000000
7921.000000,8241.000000,6135.000000,1.000000,21504.000000
7921.000000,8241.000000,6136.000000,1.000000,21504.000000
7920.000000,8240.000000,6134.000000,1.000000,21504.000000
7920.000000,8236.000000,6132.000000,1.000000,21504.000000
7918.000000,8234.000000,6130.000000,1.000000,21504.000000
7918.000000,8235.000000,6132.000000,1.000000,21504.000000
7917.000000,8233.000000,6132.000000,1.000000,21504.000000
7917.000000,8233.000000,6132.000000,1.000000,21504.000000
7917.000000,8233.000000,6131.000000,1.000000,21504.000000
7917.000000,8235.000000,6131.000000,1.000000,21504.000000
7918.000000,8235.000000,6131.000000,1.000000,21504.000000
7918.000000,8235.000000,6131.000000,1.000000,21504.000000
7918.000000,8235.000000,6131.000000,1.000000,21504.000000
7919.000000,8240.000000,6134.000000,1.000000,21504.000000
7920.000000,8240.000000,6134.000000,1.000000,21504.000000
7920.000000,8239.000000,6134.000000,1.000000,21504.000000
7920.000000,8240.000000,6134.000000,1.000000,21504.000000
7921.000000,8240.000000,6134.000000,1.000000,21504.000000
7920.000000,8240.000000,6134.000000,1.000000,21504.000000
7920.000000,8238.000000,6133.000000,1.000000,21504.000000
7918.000000,8234.000000,6131.000000,1.000000,21504.000000
7916.000000,8232.000000,6130.000000,1.000000,21504.000000
7916.000000,8229.000000,6128.000000,1.000000,21504.000000
7915.000000,8228.000000,6127.000000,1.000000,21504.000000
7915.000000,8227.000000,6126.000000,1.000000,21504.000000
7914.000000,8227.000000,6125.000000,1.000000,21504.000000
7914.000000,8227.000000,6126.000000,1.000000,21504.000000
7914.000000,8226.000000,6126.000000,1.000000,21504.000000
7913.000000,8226.000000,6124.000000,1.000000,21504.000000
7914.000000,8226.000000,6125.000000,1.000000,21504.000000
7914.000000,8227.000000,6126.000000,1.000000,21504.000000
7915.000000,8228.000000,6127.000000,1.000000,21504.000000
7916.000000,8228.000000,6127.000000,1.000000,21504.000000
7917.000000,8228.000000,6126.000000,1.000000,21504.000000
7917.000000,8231.000000,6129.000000,1.000000,21504.000000
7917.000000,8231.000000,6127.000000,1.000000,21504.000000
7916.000000,8231.000000,6127.000000,1.000000,21504.000000
7916.000000,8231.000000,6126.000000,1.000000,21504.000000
7917.000000,8229.000000,6128.000000,1.000000,21504.000000
7914.000000,8229.000000,6127.000000,1.000000,21504.000000
7914.000000,8226.000000,6125.000000,1.000000,21504.000000
7914.000000,8225.000000,6124.000000,1.000000,21504.000000
7913.000000,8224.000000,6123.000000,1.000000,21504.000000
7912.000000,8223.000000,6123.000000,1.000000,21504.000000
7912.000000,8224.000000,6125.000000,0.000000,21504.000000
7910.000000,8222.000000,6123.000000,0.000000,21504.000000
7911.000000,8222.000000,6123.000000,0.000000,21504.000000
7911.000000,8232.000000,6130.000000,0.000000,21504.000000
7922.000000,8232.000000,6130.000000,0.000000,21504.000000
7921.000000,8233.000000,6130.000000,0.000000,21504.000000
7922.000000,8233.000000,6131.000000,0.000000,21504.000000
7924.000000,8233.000000,6132.000000,0.000000,21504.000000
7922.000000,8234.000000,6131.000000,0.000000,21504.000000
7923.000000,8234.000000,6132.000000,0.000000,21504.000000
7922.000000,8234.000000,6132.000000,0.000000,21504.000000
7917.000000,8227.000000,6126.000000,0.000000,21504.000000
7917.000000,8231.000000,6129.000000,0.000000,21504.000000
7920.000000,8231.000000,6126.000000,0.000000,21504.000000
7919.000000,8227.000000,6126.000000,0.000000,21504.000000
7919.000000,8228.000000,6126.000000,0.000000,21504.000000
7916.000000,8225.000000,6125.000000,0.000000,21504.000000
7917.000000,8224.000000,6125.000000,0.000000,21504.000000
7916.000000,8223.000000,6125.000000,0.000000,21504.000000
7917.000000,8223.000000,6126.000000,0.000000,21504.000000
7916.000000,8223.000000,6125.000000,0.000000,21504.000000
7916.000000,8223.000000,6125.000000,0.000000,21504.000000
7916.000000,8223.000000,6122.000000,0.000000,21504.000000
7915.000000,8223.000000,6122.000000,0.000000,21504.000000
7916.000000,8224.000000,6125.000000,0.000000,21504.000000
7917.000000,8224.000000,6124.000000,0.000000,21504.000000
7918.000000,8226.000000,6124.000000,0.000000,21504.000000
7917.000000,8226.000000,6124.000000,0.000000,21504.000000
7919.000000,8228.000000,6125.000000,0.000000,21504.000000
7916.000000,8226.000000,6124.000000,0.000000,21504.000000
7914.000000,8223.000000,6124.000000,0.000000,21504.000000
7914.000000,8223.000000,6125.000000,0.000000,21504.000000
7916.000000,8223.000000,6125.000000,0.000000,21504.000000
7916.000000,8221.000000,6124.000000,0.000000,21504.000000
7914.000000,8221.000000,6124.000000,0.000000,21504.000000
7914.000000,8220.000000,6124.000000,0.000000,21504.000000
7914.000000,8220.000000,6124.000000,0.000000,21504.000000
7915.000000,8220.000000,6125.000000,0.000000,21504.000000
7914.000000,8220.000000,6125.000000,0.000000,21504.000000
7907.000000,8219.000000,6124.000000,0.000000,21504.000000
7907.000000,8219.000000,6124.000000,0.000000,21504.000000
7913.000000,8220.000000,6124.000000,0.000000,21504.000000
7913.000000,8220.000000,6124.000000,0.000000,21504.000000
7909.000000,8221.000000,6123.000000,0.000000,21504.000000
7913.000000,8221.000000,6124.000000,0.000000,21504.000000
7914.000000,8221.000000,6123.000000,0.000000,21504.000000
7913.000000,8222.000000,6122.000000,0.000000,21504.000000
7914.000000,8223.000000,6123.000000,0.000000,21504.000000
7913.000000,8223.000000,6124.000000,0.000000,21504.000000
7913.000000,8222.000000,6123.000000,0.000000,21504.000000
7913.000000,8222.000000,6123.000000,0.000000,21504.000000
7913.000000,8220.000000,6124.000000,0.000000,21504.000000
7910.000000,8220.000000,6124.000000,0.000000,21504.000000
7907.000000,8219.000000,6124.000000,0.000000,21504.000000
7908.000000,8219.000000,6124.000000,0.000000,21504.000000
7908.000000,8219.000000,6125.000000,0.000000,21504.000000
7907.000000,8219.000000,6124.000000,0.000000,21504.000000
7903.000000,8217.000000,6124.000000,0.000000,21504.000000
7903.000000,8217.000000,6123.000000,0.000000,21504.000000
7903.000000,8217.000000,6124.000000,0.000000,21504.000000
7907.000000,8219.000000,6124.000000,0.000000,21504.000000
7907.000000,8219.000000,6124.000000,0.000000,21504.000000
7908.000000,8220.000000,6124.000000,0.000000,21504.000000
7908.000000,8220.000000,6123.000000,0.000000,21504.000000
7908.000000,8220.000000,6123.000000,0.000000,21504.000000
7910.000000,8219.000000,6124.000000,0.000000,21504.000000
7910.000000,8221.000000,6123.000000,0.000000,21504.000000
7910.000000,8221.000000,6123.000000,0.000000,21504.000000
7905.000000,8221.000000,6123.000000,0.000000,21504.000000
7910.000000,8221.000000,6123.000000,0.000000,21504.000000
7911.000000,8220.000000,6123.000000,0.000000,21504.000000
7910.000000,8220.000000,6123.000000,0.000000,21504.000000
7907.000000,8220.000000,6124.000000,0.000000,21504.000000
7906.000000,8219.000000,6124.000000,0.000000,21504.000000
7904.000000,8218.000000,6124.000000,0.000000,21504.000000
7906.000000,8219.000000,6124.000000,0.000000,21504.000000
7905.000000,8219.000000,6125.000000,0.000000,21504.000000
7905.000000,8219.000000,6124.000000,0.000000,21504.000000
7906.000000,8218.000000,6124.000000,0.000000,21504.000000
7904.000000,8219.000000,6124.000000,0.000000,21504.000000
7904.000000,8218.000000,6125.000000,0.000000,21504.000000
7903.000000,8219.000000,6124.000000,0.000000,21504.000000
7905.000000,8220.000000,6124.000000,0.000000,21504.000000
7906.000000,8219.000000,6124.000000,0.000000,21504.000000
7907.000000,8220.000000,6123.000000,0.000000,21504.000000
7904.000000,8218.000000,6122.000000,0.000000,21504.000000
7904.000000,8218.000000,6122.000000,0.000000,21504.000000
7905.000000,8219.000000,6122.000000,0.000000,21504.000000
7908.000000,8220.000000,6123.000000,0.000000,21504.000000
7910.000000,8221.000000,6122.000000,0.000000,21504.000000
7909.000000,8220.000000,6124.000000,0.000000,21504.000000
7908.000000,8220.000000,6123.000000,0.000000,21504.000000
7907.000000,8219.000000,6124.000000,0.000000,21504.000000
7906.000000,8219.000000,6124.000000,0.000000,21504.000000
7905.000000,8218.000000,6124.000000,0.000000,21504.000000
7905.000000,8208.000000,6117.000000,0.000000,21504.000000
7896.000000,8208.000000,6117.000000,0.000000,21504.000000
7902.000000,8218.000000,6123.000000,0.000000,21504.000000
7905.000000,8219.000000,6124.000000,0.000000,21504.000000
7905.000000,8219.000000,6123.000000,0.000000,21504.000000
7904.000000,8218.000000,6123.000000,0.000000,21504.000000
7905.000000,8219.000000,6123.000000,0.000000,21504.000000
7906.000000,8219.000000,6124.000000,0.000000,21504.000000
7906.000000,8220.000000,6123.000000,0.000000,21504.000000
7906.000000,8220.000000,6123.000000,0.000000,21504.000000
7904.000000,8220.000000,6123.000000,0.000000,21504.000000
7906.000000,8220.000000,6123.000000,0.000000,21504.000000
7905.000000,8219.000000,6122.000000,0.000000,21504.000000
7908.000000,8221.000000,6122.000000,0.000000,21504.000000
7908.000000,8220.000000,6123.000000,0.000000,21504.000000
7906.000000,8221.000000,6122.000000,0.000000,21504.000000
7905.000000,8220.000000,6123.000000,0.000000,21504.000000
7904.000000,8219.000000,6122.000000,0.000000,21504.000000
7904.000000,8216.000000,6120.000000,0.000000,21504.000000
7901.000000,8216.000000,6118.000000,0.000000,21504.000000
7899.000000,8212.000000,6118.000000,0.000000,21504.000000
7902.000000,8217.000000,6121.000000,0.000000,21504.000000
7901.000000,8213.000000,6119.000000,0.000000,21504.000000
7902.000000,8215.000000,6118.000000,0.000000,21504.000000
7904.000000,8216.000000,6120.000000,0.000000,21504.000000
7900.000000,8215.000000,6117.000000,1.000000,21504.000000
7902.000000,8215.000000,6119.000000,1.000000,21504.000000
7902.000000,8216.000000,6118.000000,1.000000,21504.000000
7897.000000,8209.000000,6114.000000,1.000000,21504.000000
7902.000000,8217.000000,6119.000000,1.000000,21504.000000
7904.000000,8218.000000,6119.000000,1.000000,21504.000000
7904.000000,8218.000000,6120.000000,1.000000,21504.000000
7905.000000,8219.000000,6120.000000,1.000000,21504.000000
7902.000000,8217.000000,6119.000000,1.000000,21504.000000
7903.000000,8217.000000,6118.000000,1.000000,21504.000000
7900.000000,8216.000000,6117.000000,1.000000,21504.000000
7901.000000,8214.000000,6117.000000,1.000000,21504.000000
7901.000000,8212.000000,6115.000000,1.000000,21504.000000
7899.000000,8211.000000,6115.000000,1.000000,21504.000000
7899.000000,8210.000000,6114.000000,1.000000,21504.000000
7899.000000,8208.000000,6113.000000,1.000000,21504.000000
7898.000000,8208.000000,6111.000000,1.000000,21504.000000
7897.000000,8207.000000,6111.000000,1.000000,21504.000000
7893.000000,8202.000000,6108.000000,1.000000,21504.000000
7887.000000,8194.000000,6104.000000,1.000000,21504.000000
7887.000000,8194.000000,6103.000000,1.000000,21504.000000
7888.000000,8195.000000,6104.000000,1.000000,21504.000000
7887.000000,8192.000000,6103.000000,1.000000,21504.000000
7887.000000,8194.000000,6103.000000,1.000000,21504.000000
7887.000000,8196.000000,6104.000000,1.000000,21504.000000
7888.000000,8196.000000,6103.000000,1.000000,21504.000000
7889.000000,8197.000000,6103.000000,1.000000,21504.000000
7888.000000,8196.000000,6103.000000,1.000000,21504.000000
7888.000000,8196.000000,6104.000000,1.000000,21504.000000
7887.000000,8191.000000,6102.000000,1.000000,21504.000000
7886.000000,8189.000000,6100.000000,1.000000,21504.000000
7886.000000,8187.000000,6099.000000,1.000000,21504.000000
7883.000000,8184.000000,6096.000000,1.000000,21504.000000
7883.000000,8184.000000,6097.000000,1.000000,21504.000000
7883.000000,8184.000000,6096.000000,1.000000,21504.000000
7882.000000,8182.000000,6096.000000,1.000000,21504.000000
7881.000000,8182.000000,6094.000000,1.000000,21504.000000
7880.000000,8180.000000,6095.000000,1.000000,21504.000000
7881.000000,8180.000000,6094.000000,1.000000,21504.000000
7882.000000,8182.000000,6095.000000,1.000000,21504.000000
7883.000000,8182.000000,6095.000000,1.000000,21504.000000
7882.000000,8183.000000,6095.000000,1.000000,21504.000000
7883.000000,8184.000000,6095.000000,1.000000,21504.000000
7883.000000,8184.000000,6096.000000,1.000000,21504.000000
7885.000000,8186.000000,6096.000000,1.000000,21504.000000
7885.000000,8186.000000,6096.000000,1.000000,21504.000000
7885.000000,8189.000000,6097.000000,1.000000,21504.000000
7884.000000,8190.000000,6098.000000,1.000000,21504.000000
7882.000000,8187.000000,6096.000000,1.000000,21504.000000
7882.000000,8185.000000,6094.000000,1.000000,21504.000000
7881.000000,8181.000000,6094.000000,1.000000,21504.000000
7879.000000,8178.000000,6092.000000,1.000000,21504.000000
7879.000000,8175.000000,6091.000000,1.000000,21504.000000
7879.000000,8175.000000,6091.000000,1.000000,21504.000000
7877.000000,8175.000000,6090.000000,1.000000,21504.000000
7877.000000,8175.000000,6089.000000,1.000000,21504.000000
7877.000000,8174.000000,6089.000000,1.000000,21504.000000
7876.000000,8174.000000,6089.000000,1.000000,21504.000000
7878.000000,8174.000000,6089.000000,1.000000,21504.000000
7876.000000,8174.000000,6088.000000,1.000000,21504.000000
7877.000000,8174.000000,6088.000000,1.000000,21504.000000
7877.000000,8174.000000,6087.000000,1.000000,21504.000000
7877.000000,8174.000000,6090.000000,1.000000,21504.000000
7879.000000,8176.000000,6090.000000,1.000000,21504.000000
7879.000000,8178.000000,6090.000000,1.000000,21504.000000
7881.000000,8178.000000,6090.000000,1.000000,21504.000000
7881.000000,8179.000000,6091.000000,1.000000,21504.000000
7881.000000,8180.000000,6091.000000,1.000000,21504.000000
7880.000000,8179.000000,6090.000000,1.000000,21504.000000
7878.000000,8175.000000,6088.000000,1.000000,21504.000000
7878.000000,8174.000000,6088.000000,1.000000,21504.000000
7878.000000,8174.000000,6085.000000,1.000000,21504.000000
7875.000000,8170.000000,6085.000000,1.000000,21504.000000
7875.000000,8168.000000,6084.000000,1.000000,21504.000000
7874.000000,8167.000000,6082.000000,1.000000,21504.000000
7873.000000,8165.000000,6082.000000,1.000000,21504.000000
7871.000000,8164.000000,6081.000000,1.000000,21504.000000
7872.000000,8163.000000,6082.000000,1.000000,21504.000000
7872.000000,8164.000000,6081.000000,1.000000,21504.000000
7872.000000,8164.000000,6081.000000,1.000000,21504.000000
7872.000000,8164.000000,6081.000000,1.000000,21504.000000
7873.000000,8165.000000,6081.000000,1.000000,21504.000000
7873.000000,8166.000000,6081.000000,1.000000,21504.000000
7873.000000,8167.000000,6081.000000,1.000000,21504.000000
7875.000000,8168.000000,6082.000000,1.000000,21504.000000
7876.000000,8170.000000,6081.000000,1.000000,21504.000000
7876.000000,8172.000000,6082.000000,1.000000,21504.000000
7876.000000,8172.000000,6082.000000,1.000000,21504.000000
7874.000000,8168.000000,6081.000000,1.000000,21504.000000
7874.000000,8168.000000,6080.000000,1.000000,21504.000000
7874.000000,8167.000000,6080.000000,1.000000,21504.000000
7871.000000,8164.000000,6081.000000,1.000000,21504.000000
7871.000000,8163.000000,6079.000000,1.000000,21504.000000
7870.000000,8161.000000,6078.000000,1.000000,21504.000000
7870.000000,8160.000000,6078.000000,1.000000,21504.000000
7868.000000,8158.000000,6076.000000,1.000000,21504.000000
7868.000000,8158.000000,6076.000000,1.000000,21504.000000
7867.000000,8157.000000,6075.000000,1.000000,21504.000000
7867.000000,8158.000000,6075.000000,1.000000,21504.000000
7869.000000,8158.000000,6075.000000,1.000000,21504.000000
7868.000000,8158.000000,6075.000000,1.000000,21504.000000
7868.000000,8158.000000,6076.000000,1.000000,21504.000000
7867.000000,8158.000000,6076.000000,1.000000,21504.000000
7869.000000,8161.000000,6077.000000,1.000000,21504.000000
7870.000000,8162.000000,6077.000000,1.000000,21504.000000
7872.000000,8164.000000,6078.000000,1.000000,21504.000000
7872.000000,8164.000000,6077.000000,1.000000,21504.000000
7872.000000,8163.000000,6076.000000,1.000000,21504.000000
7870.000000,8163.000000,6076.000000,1.000000,21504.000000
7869.000000,8161.000000,6076.000000,1.000000,21504.000000
7866.000000,8157.000000,6074.000000,1.000000,21504.000000
7866.000000,8156.000000,6073.000000,1.000000,21504.000000
7864.000000,8154.000000,6073.000000,1.000000,21504.000000
7865.000000,8151.000000,6071.000000,1.000000,21504.000000
7864.000000,8150.000000,6071.000000,1.000000,21504.000000
7864.000000,8150.000000,6070.000000,1.000000,21504.000000
7864.000000,8149.000000,6071.000000,1.000000,21504.000000
7863.000000,8149.000000,6070.000000,1.000000,21504.000000
7863.000000,8148.000000,6070.000000,1.000000,21504.000000
7863.000000,8150.000000,6070.000000,1.000000,21504.000000
7862.000000,8149.000000,6069.000000,0.000000,21504.000000
7864.000000,8149.000000,6069.000000,0.000000,21504.000000
7863.000000,8150.000000,6070.000000,0.000000,21504.000000
7864.000000,8152.000000,6070.000000,0.000000,21504.000000
7865.000000,8155.000000,6072.000000,0.000000,21504.000000
7866.000000,8155.000000,6072.000000,0.000000,21504.000000
7866.000000,8156.000000,6072.000000,0.000000,21504.000000
7870.000000,8159.000000,6074.000000,0.000000,21504.000000
7872.000000,8163.000000,6078.000000,0.000000,21504.000000
7872.000000,8160.000000,6076.000000,0.000000,21504.000000
7872.000000,8160.000000,6076.000000,0.000000,21504.000000
7871.000000,8158.000000,6074.000000,0.000000,21504.000000
7871.000000,8156.000000,6074.000000,0.000000,21504.000000
7869.000000,8153.000000,6073.000000,0.000000,21504.000000
7869.000000,8150.000000,6072.000000,0.000000,21504.000000
7861.000000,8143.000000,6067.000000,0.000000,21504.000000
7869.000000,8151.000000,6072.000000,0.000000,21504.000000
7869.000000,8152.000000,6071.000000,0.000000,21504.000000
7869.000000,8151.000000,6070.000000,0.000000,21504.000000
7869.000000,8151.000000,6071.000000,0.000000,21504.000000
7870.000000,8150.000000,6071.000000,0.000000,21504.000000
7871.000000,8152.000000,6071.000000,0.000000,21504.000000
7871.000000,8153.000000,6072.000000,0.000000,21504.000000
7873.000000,8155.000000,6073.000000,0.000000,21504.000000
7872.000000,8156.000000,6073.000000,0.000000,21504.000000
7868.000000,8151.000000,6068.000000,0.000000,21504.000000
7873.000000,8157.000000,6073.000000,0.000000,21504.000000
7873.000000,8156.000000,6073.000000,0.000000,21504.000000
7871.000000,8156.000000,6073.000000,0.000000,21504.000000
7872.000000,8154.000000,6073.000000,0.000000,21504.000000
7870.000000,8152.000000,6071.000000,0.000000,21504.000000
7868.000000,8150.000000,6070.000000,0.000000,21504.000000
7867.000000,8148.000000,6069.000000,0.000000,21504.000000
7866.000000,8146.000000,6068.000000,0.000000,21504.000000
7865.000000,8144.000000,6067.000000,0.000000,21504.000000
7865.000000,8145.000000,6068.000000,0.000000,21504.000000
7864.000000,8142.000000,6065.000000,0.000000,21504.000000
7864.000000,8142.000000,6066.000000,0.000000,21504.000000
7867.000000,8144.000000,6066.000000,0.000000,21504.000000
7866.000000,8146.000000,6067.000000,0.000000,21504.000000
7865.000000,8144.000000,6067.000000,0.000000,21504.000000
7867.000000,8146.000000,6067.000000,0.000000,21504.000000
7868.000000,8146.000000,6067.000000,0.000000,21504.000000
7861.000000,8139.000000,6061.000000,0.000000,21504.000000
7867.000000,8148.000000,6067.000000,0.000000,21504.000000
7869.000000,8149.000000,6069.000000,0.000000,21504.000000
7869.000000,8149.000000,6067.000000,0.000000,21504.000000
7868.000000,8148.000000,6067.000000,0.000000,21504.000000
7868.000000,8149.000000,6068.000000,0.000000,21504.000000
7867.000000,8145.000000,6067.000000,0.000000,21504.000000
7866.000000,8145.000000,6066.000000,0.000000,21504.000000
7864.000000,8142.000000,6064.000000,0.000000,21504.000000
7865.000000,8140.000000,6063.000000,0.000000,21504.000000
7859.000000,8133.000000,6060.000000,0.000000,21504.000000
7860.000000,8135.000000,6060.000000,0.000000,21504.000000
7860.000000,8138.000000,6062.000000,0.000000,21504.000000
7862.000000,8138.000000,6062.000000,0.000000,21504.000000
7862.000000,8136.000000,6061.000000,0.000000,21504.000000
7863.000000,8136.000000,6061.000000,0.000000,21504.000000
7865.000000,8139.000000,6062.000000,0.000000,21504.000000
7864.000000,8139.000000,6062.000000,0.000000,21504.000000
7865.000000,8140.000000,6063.000000,0.000000,21504.000000
7864.000000,8140.000000,6063.000000,0.000000,21504.000000
7866.000000,8142.000000,6063.000000,0.000000,21504.000000
7866.000000,8144.000000,6063.000000,0.000000,21504.000000
7867.000000,8144.000000,6065.000000,0.000000,21504.000000
7867.000000,8146.000000,6065.000000,0.000000,21504.000000
7866.000000,8146.000000,6064.000000,0.000000,21504.000000
7862.000000,8139.000000,6060.000000,0.000000,21504.000000
7863.000000,8138.000000,6061.000000,0.000000,21504.000000
7862.000000,8135.000000,6059.000000,0.000000,21504.000000
7856.000000,8128.000000,6054.000000,0.000000,21504.000000
7861.000000,8132.000000,6058.000000,0.000000,21504.000000
7861.000000,8131.000000,6058.000000,0.000000,21504.000000
7859.000000,8131.000000,6058.000000,0.000000,21504.000000
7860.000000,8131.000000,6058.000000,0.000000,21504.000000
7859.000000,8133.000000,6056.000000,0.000000,21504.000000
7859.000000,8132.000000,6057.000000,0.000000,21504.000000
7859.000000,8132.000000,6057.000000,0.000000,21504.000000
7860.000000,8133.000000,6057.000000,0.000000,21504.000000
7862.000000,8136.000000,6059.000000,0.000000,21504.000000
7859.000000,8133.000000,6056.000000,0.000000,21504.000000
7859.000000,8135.000000,6057.000000,0.000000,21504.000000
7859.000000,8135.000000,6060.000000,0.000000,21504.000000
7864.000000,8141.000000,6060.000000,0.000000,21504.000000
7864.000000,8140.000000,6060.000000,0.000000,21504.000000
7863.000000,8141.000000,6060.000000,0.000000,21504.000000
7863.000000,8138.000000,6059.000000,0.000000,21504.000000
7861.000000,8137.000000,6058.000000,0.000000,21504.000000
7858.000000,8133.000000,6055.000000,0.000000,21504.000000
7859.000000,8129.000000,6054.000000,0.000000,21504.000000
7856.000000,8127.000000,6053.000000,0.000000,21504.000000
7856.000000,8126.000000,6053.000000,0.000000,21504.000000
7856.000000,8126.000000,6053.000000,0.000000,21504.000000
7854.000000,8126.000000,6051.000000,0.000000,21504.000000
7856.000000,8125.000000,6052.000000,0.000000,21504.000000
7857.000000,8127.000000,6053.000000,0.000000,21504.000000
7858.000000,8128.000000,6054.000000,0.000000,21504.000000
7857.000000,8129.000000,6053.000000,0.000000,21504.000000
7850.000000,8120.000000,6047.000000,0.000000,21504.000000
7859.000000,8129.000000,6055.000000,0.000000,21504.000000
7859.000000,8132.000000,6055.000000,0.000000,21504.000000
7860.000000,8132.000000,6055.000000,0.000000,21504.000000
7861.000000,8134.000000,6055.000000,0.000000,21504.000000
7862.000000,8136.000000,6056.000000,0.000000,21504.000000
7862.000000,8137.000000,6057.000000,0.000000,21504.000000
7862.000000,8136.000000,6056.000000,0.000000,21504.000000
7860.000000,8133.000000,6054.000000,0.000000,21504.000000
7858.000000,8129.000000,6053.000000,0.000000,21504.000000
7856.000000,8122.000000,6049.000000,0.000000,21504.000000
7856.000000,8119.000000,6047.000000,0.000000,21504.000000
7851.000000,8119.000000,6051.000000,0.000000,21504.000000
7856.000000,8123.000000,6051.000000,0.000000,21504.000000
7854.000000,8125.000000,6050.000000,0.000000,21504.000000
7854.000000,8124.000000,6050.000000,0.000000,21504.000000
7856.000000,8123.000000,6050.000000,0.000000,21504.000000
7855.000000,8123.000000,6050.000000,0.000000,21504.000000
7856.000000,8125.000000,6050.000000,0.000000,21504.000000
7855.000000,8125.000000,6050.000000,0.000000,21504.000000
7855.000000,8126.000000,6051.000000,0.000000,21504.000000
7856.000000,8126.000000,6050.000000,1.000000,21504.000000
7857.000000,8128.000000,6051.000000,1.000000,21504.000000
7861.000000,8131.000000,6054.000000,1.000000,21504.000000
7861.000000,8133.000000,6055.000000,1.000000,21504.000000
7862.000000,8133.000000,6055.000000,1.000000,21504.000000
7859.000000,8134.000000,6053.000000,1.000000,21504.000000
7861.000000,8131.000000,6052.000000,1.000000,21504.000000
7852.000000,8123.000000,6047.000000,1.000000,21504.000000
7858.000000,8126.000000,6051.000000,1.000000,21504.000000
7856.000000,8126.000000,6050.000000,1.000000,21504.000000
7856.000000,8123.000000,6049.000000,1.000000,21504.000000
7849.000000,8115.000000,6044.000000,1.000000,21504.000000
7849.000000,8107.000000,6039.000000,1.000000,21504.000000
7843.000000,8107.000000,6039.000000,1.000000,21504.000000
7843.000000,8108.000000,6039.000000,1.000000,21504.000000
7844.000000,8108.000000,6039.000000,1.000000,21504.000000
7844.000000,8109.000000,6039.000000,1.000000,21504.000000
7844.000000,8108.000000,6039.000000,1.000000,21504.000000
7844.000000,8108.000000,6038.000000,1.000000,21504.000000
7843.000000,8109.000000,6038.000000,1.000000,21504.000000
7844.000000,8110.000000,6038.000000,1.000000,21504.000000
7844.000000,8113.000000,6038.000000,1.000000,21504.000000
7845.000000,8113.000000,6039.000000,1.000000,21504.000000
7845.000000,8114.000000,6039.000000,1.000000,21504.000000
7845.000000,8116.000000,6037.000000,1.000000,21504.000000
7846.000000,8115.000000,6037.000000,1.000000,21504.000000
7845.000000,8112.000000,6037.000000,1.000000,21504.000000
7842.000000,8110.000000,6036.000000,1.000000,21504.000000
7841.000000,8108.000000,6035.000000,1.000000,21504.000000
7841.000000,8106.000000,6033.000000,1.000000,21504.000000
7840.000000,8106.000000,6033.000000,1.000000,21504.000000
7840.000000,8106.000000,6033.000000,1.000000,21504.000000
7841.000000,8105.000000,6033.000000,1.000000,21504.000000
7841.000000,8103.000000,6033.000000,1.000000,21504.000000
7841.000000,8102.000000,6033.000000,1.000000,21504.000000
7841.000000,8102.000000,6033.000000,1.000000,21504.000000
7841.000000,8105.000000,6033.000000,1.000000,21504.000000
7842.000000,8107.000000,6033.000000,1.000000,21504.000000
7841.000000,8106.000000,6034.000000,1.000000,21504.000000
7840.000000,8106.000000,6033.000000,1.000000,21504.000000
7841.000000,8108.000000,6034.000000,1.000000,21504.000000
7844.000000,8110.000000,6035.000000,1.000000,21504.000000
7844.000000,8112.000000,6035.000000,1.000000,21504.000000
7844.000000,8111.000000,6035.000000,1.000000,21504.000000
7843.000000,8111.000000,6032.000000,1.000000,21504.000000
7841.000000,8107.000000,6032.000000,1.000000,21504.000000
7841.000000,8106.000000,6030.000000,1.000000,21504.000000
7840.000000,8104.000000,6032.000000,1.000000,21504.000000
7838.000000,8104.000000,6030.000000,1.000000,21504.000000
7839.000000,8104.000000,6030.000000,1.000000,21504.000000
7839.000000,8102.000000,6030.000000,1.000000,21504.000000
7838.000000,8101.000000,6029.000000,1.000000,21504.000000
7838.000000,8101.000000,6028.000000,1.000000,21504.000000
7838.000000,8101.000000,6029.000000,1.000000,21504.000000
7838.000000,8103.000000,6029.000000,1.000000,21504.000000
7839.000000,8102.000000,6029.000000,1.000000,21504.000000
7839.000000,8104.000000,6030.000000,1.000000,21504.000000
7840.000000,8104.000000,6031.000000,1.000000,21504.000000
7840.000000,8104.000000,6030.000000,1.000000,21504.000000
7841.000000,8105.000000,6032.000000,1.000000,21504.000000
7841.000000,8107.000000,6031.000000,1.000000,21504.000000
7842.000000,8108.000000,6032.000000,1.000000,21504.000000
7842.000000,8108.000000,6030.000000,1.000000,21504.000000
7841.000000,8106.000000,6030.000000,1.000000,21504.000000
7839.000000,8104.000000,6029.000000,1.000000,21504.000000
7839.000000,8102.000000,6028.000000,1.000000,21504.000000
7836.000000,8101.000000,6027.000000,1.000000,21504.000000
7837.000000,8101.000000,6027.000000,1.000000,21504.000000
7836.000000,8101.000000,6026.000000,1.000000,21504.000000
7835.000000,8101.000000,6025.000000,1.000000,21504.000000
7835.000000,8101.000000,6025.000000,1.000000,21504.000000
7835.000000,8101.000000,6025.000000,1.000000,21504.000000
7834.000000,8101.000000,6025.000000,1.000000,21504.000000
7834.000000,8101.000000,6025.000000,1.000000,21504.000000
7834.000000,8101.000000,6024.000000,1.000000,21504.000000
7836.000000,8101.000000,6026.000000,1.000000,21504.000000
7836.000000,8102.000000,6027.000000,1.000000,21504.000000
7838.000000,8102.000000,6026.000000,1.000000,21504.000000
7838.000000,8102.000000,6027.000000,1.000000,21504.000000
7839.000000,8102.000000,6026.000000,1.000000,21504.000000
7839.000000,8104.000000,6027.000000,1.000000,21504.000000
7840.000000,8104.000000,6027.000000,1.000000,21504.000000
7840.000000,8103.000000,6027.000000,1.000000,21504.000000
7837.000000,8102.000000,6025.000000,1.000000,21504.000000
7835.000000,8101.000000,6024.000000,1.000000,21504.000000
7836.000000,8101.000000,6023.000000,1.000000,21504.000000
7835.000000,8101.000000,6022.000000,1.000000,21504.000000
7834.000000,8101.000000,6022.000000,1.000000,21504.000000
7833.000000,8100.000000,6021.000000,1.000000,21504.000000
7833.000000,8101.000000,6021.000000,1.000000,21504.000000
7834.000000,8101.000000,6021.000000,1.000000,21504.000000
7831.000000,8101.000000,6021.000000,1.000000,21504.000000
7832.000000,8101.000000,6020.000000,1.000000,21504.000000
7834.000000,8101.000000,6020.000000,1.000000,21504.000000
7835.000000,8101.000000,6022.000000,1.000000,21504.000000
7833.000000,8101.000000,6022.000000,1.000000,21504.000000
7834.000000,8101.000000,6022.000000,1.000000,21504.000000
7834.000000,8101.000000,6023.000000,1.000000,21504.000000
7834.000000,8101.000000,6022.000000,1.000000,21504.000000
7835.000000,8101.000000,6023.000000,1.000000,21504.000000
7836.000000,8102.000000,6023.000000,1.000000,21504.000000
7838.000000,8102.000000,6023.000000,1.000000,21504.000000
7835.000000,8101.000000,6023.000000,1.000000,21504.000000
7835.000000,8101.000000,6021.000000,1.000000,21504.000000
7834.000000,8101.000000,6020.000000,1.000000,21504.000000
7831.000000,8101.000000,6019.000000,1.000000,21504.000000
7832.000000,8101.000000,6020.000000,1.000000,21504.000000
7832.000000,8101.000000,6019.000000,1.000000,21504.000000
7832.000000,8101.000000,6018.000000,1.000000,21504.000000
7832.000000,8101.000000,6018.000000,1.000000,21504.000000
7832.000000,8101.000000,6018.000000,1.000000,21504.000000
7831.000000,8101.000000,6018.000000,1.000000,21504.000000
7832.000000,8101.000000,6017.000000,1.000000,21504.000000
7831.000000,8101.000000,6018.000000,1.000000,21504.000000
7832.000000,8101.000000,6019.000000,1.000000,21504.000000
7833.000000,8101.000000,6018.000000,1.000000,21504.000000
7833.000000,8101.000000,6019.000000,1.000000,21504.000000
7833.000000,8101.000000,6019.000000,1.000000,21504.000000
7833.000000,8101.000000,6019.000000,1.000000,21504.000000
7835.000000,8101.000000,6019.000000,1.000000,21504.000000
7834.000000,8101.000000,6019.000000,0.000000,21504.000000
7842.000000,8104.000000,6025.000000,0.000000,21504.000000
7845.000000,8104.000000,6027.000000,0.000000,21504.000000
7843.000000,8102.000000,6026.000000,0.000000,21504.000000
7843.000000,8101.000000,6025.000000,0.000000,21504.000000
7844.000000,8101.000000,6024.000000,0.000000,21504.000000
7842.000000,8101.000000,6024.000000,0.000000,21504.000000
7840.000000,8100.000000,6023.000000,0.000000,21504.000000
7841.000000,8100.000000,6023.000000,0.000000,21504.000000
7841.000000,8101.000000,6023.000000,0.000000,21504.000000
7840.000000,8101.000000,6021.000000,0.000000,21504.000000
7837.000000,8101.000000,6021.000000,0.000000,21504.000000
7843.000000,8100.000000,6024.000000,0.000000,21504.000000
7843.000000,8101.000000,6024.000000,0.000000,21504.000000
7843.000000,8101.000000,6025.000000,0.000000,21504.000000
7844.000000,8103.000000,6026.000000,0.000000,21504.000000
7844.000000,8105.000000,6026.000000,0.000000,21504.000000
7846.000000,8105.000000,6026.000000,0.000000,21504.000000
7846.000000,8103.000000,6020.000000,0.000000,21504.000000
7840.000000,8103.000000,6016.000000,0.000000,21504.000000
7834.000000,8101.000000,6016.000000,0.000000,21504.000000
7833.000000,8101.000000,6014.000000,0.000000,21504.000000
7832.000000,8101.000000,6014.000000,0.000000,21504.000000
7831.000000,8101.000000,6013.000000,0.000000,21504.000000
7830.000000,8100.000000,6013.000000,0.000000,21504.000000
7830.000000,8100.000000,6011.000000,0.000000,21504.000000
7830.000000,8100.000000,6011.000000,0.000000,21504.000000
7828.000000,8101.000000,6011.000000,0.000000,21504.000000
7828.000000,8101.000000,6010.000000,0.000000,21504.000000
7828.000000,8100.000000,6010.000000,0.000000,21504.000000
7829.000000,8100.000000,6012.000000,0.000000,21504.000000
7830.000000,8100.000000,6011.000000,0.000000,21504.000000
7829.000000,8101.000000,6011.000000,0.000000,21504.000000
7831.000000,8101.000000,6014.000000,0.000000,21504.000000
7832.000000,8101.000000,6013.000000,0.000000,21504.000000
7831.000000,8101.000000,6014.000000,0.000000,21504.000000
7833.000000,8101.000000,6014.000000,0.000000,21504.000000
7833.000000,8101.000000,6014.000000,0.000000,21504.000000
7833.000000,8101.000000,6014.000000,0.000000,21504.000000
7831.000000,8101.000000,6013.000000,0.000000,21504.000000
7831.000000,8101.000000,6012.000000,0.000000,21504.000000
7829.000000,8101.000000,6010.000000,0.000000,21504.000000
7828.000000,8099.000000,6010.000000,0.000000,21504.000000
7827.000000,8099.000000,6009.000000,0.000000,21504.000000
7828.000000,8099.000000,6009.000000,0.000000,21504.000000
7828.000000,8100.000000,6009.000000,0.000000,21504.000000
7828.000000,8099.000000,6009.000000,0.000000,21504.000000
7828.000000,8099.000000,6009.000000,0.000000,21504.000000
7827.000000,8099.000000,6009.000000,0.000000,21504.000000
7827.000000,8099.000000,6008.000000,0.000000,21504.000000
7827.000000,8098.000000,6008.000000,0.000000,21504.000000
7827.000000,8098.000000,6009.000000,0.000000,21504.000000
7827.000000,8099.000000,6008.000000,0.000000,21504.000000
7828.000000,8100.000000,6009.000000,0.000000,21504.000000
7828.000000,8100.000000,6010.000000,0.000000,21504.000000
7828.000000,8100.000000,6009.000000,0.000000,21504.000000
7829.000000,8100.000000,6010.000000,0.000000,21504.000000
7828.000000,8101.000000,6010.000000,0.000000,21504.000000
7827.000000,8100.000000,6008.000000,0.000000,21504.000000
7826.000000,8099.000000,6008.000000,0.000000,21504.000000
7826.000000,8098.000000,6007.000000,0.000000,21504.000000
7825.000000,8096.000000,6007.000000,0.000000,21504.000000
7825.000000,8095.000000,6006.000000,0.000000,21504.000000
7825.000000,8095.000000,6006.000000,0.000000,21504.000000
7825.000000,8094.000000,6005.000000,0.000000,21504.000000
7824.000000,8094.000000,6005.000000,0.000000,21504.000000
7824.000000,8095.000000,6005.000000,0.000000,21504.000000
7823.000000,8091.000000,6002.000000,0.000000,21504.000000
7824.000000,8094.000000,6004.000000,0.000000,21504.000000
7824.000000,8093.000000,6004.000000,0.000000,21504.000000
7823.000000,8094.000000,6004.000000,0.000000,21504.000000
7824.000000,8094.000000,6005.000000,0.000000,21504.000000
7825.000000,8094.000000,6005.000000,0.000000,21504.000000
7825.000000,8095.000000,6005.000000,0.000000,21504.000000
7825.000000,8095.000000,6006.000000,0.000000,21504.000000
7826.000000,8097.000000,6006.000000,0.000000,21504.000000
7826.000000,8099.000000,6006.000000,0.000000,21504.000000
7826.000000,8099.000000,6007.000000,0.000000,21504.000000
7825.000000,8098.000000,6005.000000,0.000000,21504.000000
7824.000000,8096.000000,6004.000000,0.000000,21504.000000
7823.000000,8091.000000,6003.000000,0.000000,21504.000000
7822.000000,8090.000000,6004.000000,0.000000,21504.000000
7822.000000,8090.000000,6003.000000,0.000000,21504.000000
7822.000000,8088.000000,6003.000000,0.000000,21504.000000
7821.000000,8088.000000,6003.000000,0.000000,21504.000000
7821.000000,8087.000000,6002.000000,0.000000,21504.000000
7821.000000,8086.000000,6002.000000,0.000000,21504.000000
7822.000000,8086.000000,6001.000000,0.000000,21504.000000
7822.000000,8087.000000,6002.000000,0.000000,21504.000000
7821.000000,8084.000000,6001.000000,0.000000,21504.000000
7822.000000,8086.000000,6001.000000,0.000000,21504.000000
7822.000000,8087.000000,6002.000000,0.000000,21504.000000
7822.000000,8089.000000,6001.000000,0.000000,21504.000000
7822.000000,8089.000000,6001.000000,0.000000,21504.000000
7822.000000,8090.000000,6002.000000,0.000000,21504.000000
7823.000000,8089.000000,6001.000000,0.000000,21504.000000
7823.000000,8089.000000,6002.000000,0.000000,21504.000000
7822.000000,8088.000000,6001.000000,0.000000,21504.000000
7820.000000,8084.000000,6000.000000,0.000000,21504.000000
7820.000000,8083.000000,5999.000000,0.000000,21504.000000
7819.000000,8079.000000,5998.000000,0.000000,21504.000000
7819.000000,8082.000000,5999.000000,0.000000,21504.000000
7820.000000,8082.000000,5998.000000,0.000000,21504.000000
7818.000000,8080.000000,5998.000000,0.000000,21504.000000
7818.000000,8080.000000,5998.000000,0.000000,21504.000000
7819.000000,8077.000000,5998.000000,0.000000,21504.000000
7818.000000,8078.000000,5998.000000,0.000000,21504.000000
7819.000000,8078.000000,5998.000000,0.000000,21504.000000
7818.000000,8079.000000,5998.000000,0.000000,21504.000000
7819.000000,8081.000000,5999.000000,0.000000,21504.000000
7819.000000,8083.000000,5998.000000,0.000000,21504.000000
7820.000000,8083.000000,6000.000000,0.000000,21504.000000
7820.000000,8084.000000,6000.000000,0.000000,21504.000000
7821.000000,8086.000000,5999.000000,0.000000,21504.000000
7821.000000,8085.000000,5998.000000,0.000000,21504.000000
7819.000000,8080.000000,5998.000000,0.000000,21504.000000
7817.000000,8078.000000,5995.000000,0.000000,21504.000000
7816.000000,8075.000000,5996.000000,0.000000,21504.000000
7811.000000,8072.000000,5992.000000,0.000000,21504.000000
7812.000000,8071.000000,5991.000000,0.000000,21504.000000
7811.000000,8071.000000,5992.000000,1.000000,21504.000000
7812.000000,8070.000000,5991.000000,1.000000,21504.000000
7809.000000,8069.000000,5990.000000,1.000000,21504.000000
7809.000000,8069.000000,5990.000000,1.000000,21504.000000
7808.000000,8070.000000,5990.000000,1.000000,21504.000000
7808.000000,8070.000000,5990.000000,1.000000,21504.000000
7809.000000,8070.000000,5991.000000,1.000000,21504.000000
7812.000000,8072.000000,5992.000000,1.000000,21504.000000
7822.000000,8084.000000,6000.000000,1.000000,21504.000000
7823.000000,8085.000000,6001.000000,1.000000,21504.000000
7823.000000,8087.000000,6000.000000,1.000000,21504.000000
7825.000000,8087.000000,6000.000000,1.000000,21504.000000
7825.000000,8087.000000,6002.000000,1.000000,21504.000000
7825.000000,8092.000000,6002.000000,1.000000,21504.000000
7825.000000,8085.000000,6000.000000,1.000000,21504.000000
7821.000000,8081.000000,5997.000000,1.000000,21504.000000
7822.000000,8079.000000,5999.000000,1.000000,21504.000000
7821.000000,8076.000000,5998.000000,1.000000,21504.000000
7820.000000,8076.000000,5998.000000,1.000000,21504.000000
7817.000000,8074.000000,5995.000000,1.000000,21504.000000
7812.000000,8071.000000,5992.000000,1.000000,21504.000000
7812.000000,8072.000000,5996.000000,1.000000,21504.000000
7818.000000,8072.000000,5996.000000,1.000000,21504.000000
7819.000000,8074.000000,5996.000000,1.000000,21504.000000
7820.000000,8074.000000,5997.000000,1.000000,21504.000000
7820.000000,8074.000000,5996.000000,1.000000,21504.000000
7816.000000,8073.000000,5994.000000,1.000000,21504.000000
7819.000000,8073.000000,5996.000000,1.000000,21504.000000
7820.000000,8074.000000,5995.000000,1.000000,21504.000000
7822.000000,8075.000000,5996.000000,1.000000,21504.000000
7822.000000,8074.000000,5993.000000,1.000000,21504.000000
7817.000000,8074.000000,5995.000000,1.000000,21504.000000
7819.000000,8079.000000,5995.000000,1.000000,21504.000000
7822.000000,8079.000000,5996.000000,1.000000,21504.000000
7821.000000,8079.000000,5995.000000,1.000000,21504.000000
7820.000000,8076.000000,5995.000000,1.000000,21504.000000
7815.000000,8073.000000,5993.000000,1.000000,21504.000000
7817.000000,8070.000000,5992.000000,1.000000,21504.000000
7816.000000,8071.000000,5991.000000,1.000000,21504.000000
7816.000000,8069.000000,5990.000000,1.000000,21504.000000
7814.000000,8069.000000,5990.000000,1.000000,21504.000000
7812.000000,8068.000000,5990.000000,1.000000,21504.000000
7810.000000,8067.000000,5989.000000,1.000000,21504.000000
7811.000000,8068.000000,5988.000000,1.000000,21504.000000
7810.000000,8068.000000,5988.000000,1.000000,21504.000000
7812.000000,8068.000000,5989.000000,1.000000,21504.000000
7811.000000,8068.000000,5989.000000,1.000000,21504.000000
7809.000000,8068.000000,5987.000000,1.000000,21504.000000
7807.000000,8067.000000,5986.000000,1.000000,21504.000000
7807.000000,8067.000000,5990.000000,1.000000,21504.000000
7816.000000,8071.000000,5990.000000,1.000000,21504.000000
7817.000000,8071.000000,5991.000000,1.000000,21504.000000
7818.000000,8073.000000,5992.000000,1.000000,21504.000000
7818.000000,8075.000000,5992.000000,1.000000,21504.000000
7817.000000,8073.000000,5992.000000,1.000000,21504.000000
7815.000000,8071.000000,5991.000000,1.000000,21504.000000
7813.000000,8069.000000,5989.000000,1.000000,21504.000000
7808.000000,8067.000000,5986.000000,1.000000,21504.000000
7808.000000,8065.000000,5984.000000,1.000000,21504.000000
7804.000000,8065.000000,5984.000000,1.000000,21504.000000
7806.000000,8064.000000,5983.000000,1.000000,21504.000000
7808.000000,8067.000000,5986.000000,1.000000,21504.000000
7807.000000,8068.000000,5986.000000,1.000000,21504.000000
7807.000000,8067.000000,5985.000000,1.000000,21504.000000
7807.000000,8067.000000,5986.000000,1.000000,21504.000000
7807.000000,8067.000000,5985.000000,1.000000,21504.000000
7806.000000,8067.000000,5984.000000,1.000000,21504.000000
7806.000000,8067.000000,5986.000000,1.000000,21504.000000
7807.000000,8067.000000,5984.000000,1.000000,21504.000000
7805.000000,8066.000000,5984.000000,1.000000,21504.000000
7810.000000,8068.000000,5987.000000,1.000000,21504.000000
7811.000000,8069.000000,5986.000000,1.000000,21504.000000
7812.000000,8069.000000,5987.000000,1.000000,21504.000000
7813.000000,8069.000000,5988.000000,1.000000,21504.000000
7811.000000,8069.000000,5986.000000,1.000000,21504.000000
7809.000000,8067.000000,5985.000000,1.000000,21504.000000
7809.000000,8061.000000,5979.000000,1.000000,21504.000000
7801.000000,8061.000000,5982.000000,1.000000,21504.000000
7804.000000,8066.000000,5982.000000,1.000000,21504.000000
7804.000000,8065.000000,5982.000000,1.000000,21504.000000
7805.000000,8065.000000,5981.000000,1.000000,21504.000000
7804.000000,8065.000000,5980.000000,1.000000,21504.000000
7803.000000,8065.000000,5981.000000,1.000000,21504.000000
7802.000000,8064.000000,5980.000000,1.000000,21504.000000
7803.000000,8066.000000,5980.000000,1.000000,21504.000000
7806.000000,8065.000000,5981.000000,1.000000,21504.000000
7806.000000,8065.000000,5980.000000,1.000000,21504.000000
7803.000000,8062.000000,5980.000000,1.000000,21504.000000
7804.000000,8063.000000,5979.000000,1.000000,21504.000000
7808.000000,8065.000000,5982.000000,1.000000,21504.000000
7805.000000,8064.000000,5981.000000,1.000000,21504.000000
7810.000000,8067.000000,5982.000000,1.000000,21504.000000
7810.000000,8067.000000,5982.000000,1.000000,21504.000000
7806.000000,8065.000000,5981.000000,1.000000,21504.000000
7805.000000,8064.000000,5980.000000,1.000000,21504.000000
7805.000000,8064.000000,5979.000000,1.000000,21504.000000
7804.000000,8063.000000,5979.000000,1.000000,21504.000000
7802.000000,8060.000000,5979.000000,1.000000,21504.000000
7802.000000,8058.000000,5978.000000,1.000000,21504.000000
7805.000000,8058.000000,5978.000000,1.000000,21504.000000
7800.000000,8055.000000,5977.000000,1.000000,21504.000000
7803.000000,8058.000000,5978.000000,1.000000,21504.000000
7802.000000,8058.000000,5977.000000,1.000000,21504.000000
7802.000000,8056.000000,5978.000000,1.000000,21504.000000
7802.000000,8049.000000,5972.000000,1.000000,21504.000000
7797.000000,8049.000000,5972.000000,1.000000,21504.000000
7803.000000,8060.000000,5978.000000,1.000000,21504.000000
7803.000000,8063.000000,5978.000000,1.000000,21504.000000
7804.000000,8062.000000,5978.000000,1.000000,21504.000000
7806.000000,8062.000000,5979.000000,1.000000,21504.000000
7806.000000,8064.000000,5979.000000,1.000000,21504.000000
7802.000000,8062.000000,5978.000000,1.000000,21504.000000
7803.000000,8062.000000,5978.000000,1.000000,21504.000000
7803.000000,8058.000000,5977.000000,1.000000,21504.000000
7801.000000,8058.000000,5972.000000,1.000000,21504.000000
7797.000000,8053.000000,5972.000000,1.000000,21504.000000
7794.000000,8049.000000,5972.000000,1.000000,21504.000000
7797.000000,8051.000000,5973.000000,1.000000,21504.000000
7799.000000,8049.000000,5973.000000,1.000000,21504.000000
7797.000000,8048.000000,5973.000000,1.000000,21504.000000
7798.000000,8048.000000,5973.000000,0.000000,21504.000000
7795.000000,8044.000000,5970.000000,0.000000,21504.000000
7798.000000,8048.000000,5973.000000,0.000000,21504.000000
7798.000000,8048.000000,5973.000000,0.000000,21504.000000
7798.000000,8048.000000,5973.000000,0.000000,21504.000000
7797.000000,8050.000000,5973.000000,0.000000,21504.000000
7797.000000,8050.000000,5973.000000,0.000000,21504.000000
7798.000000,8051.000000,5973.000000,0.000000,21504.000000
7798.000000,8052.000000,5974.000000,0.000000,21504.000000
7797.000000,8054.000000,5975.000000,0.000000,21504.000000
7799.000000,8057.000000,5976.000000,0.000000,21504.000000
7800.000000,8055.000000,5975.000000,0.000000,21504.000000
7790.000000,8040.000000,5966.000000,0.000000,21504.000000
7785.000000,8038.000000,5964.000000,0.000000,21504.000000
7783.000000,8037.000000,5963.000000,0.000000,21504.000000
7783.000000,8037.000000,5962.000000,0.000000,21504.000000
7781.000000,8035.000000,5962.000000,0.000000,21504.000000
7780.000000,8033.000000,5961.000000,0.000000,21504.000000
7779.000000,8032.000000,5961.000000,0.000000,21504.000000
7780.000000,8031.000000,5960.000000,0.000000,21504.000000
7779.000000,8032.000000,5961.000000,0.000000,21504.000000
7779.000000,8032.000000,5961.000000,0.000000,21504.000000
7782.000000,8032.000000,5961.000000,0.000000,21504.000000
7779.000000,8033.000000,5962.000000,0.000000,21504.000000
7779.000000,8033.000000,5961.000000,0.000000,21504.000000
7780.000000,8033.000000,5961.000000,0.000000,21504.000000
7781.000000,8033.000000,5961.000000,0.000000,21504.000000
7781.000000,8033.000000,5959.000000,0.000000,21504.000000
7785.000000,8036.000000,5961.000000,0.000000,21504.000000
7786.000000,8034.000000,5961.000000,0.000000,21504.000000
7785.000000,8036.000000,5960.000000,0.000000,21504.000000
7786.000000,8037.000000,5961.000000,0.000000,21504.000000
7784.000000,8035.000000,5961.000000,0.000000,21504.000000
7784.000000,8034.000000,5960.000000,0.000000,21504.000000
7781.000000,8034.000000,5959.000000,0.000000,21504.000000
7779.000000,8033.000000,5959.000000,0.000000,21504.000000
7781.000000,8031.000000,5959.000000,0.000000,21504.000000
7780.000000,8029.000000,5959.000000,0.000000,21504.000000
7779.000000,8028.000000,5957.000000,0.000000,21504.000000
7780.000000,8028.000000,5960.000000,0.000000,21504.000000
7779.000000,8026.000000,5958.000000,0.000000,21504.000000
7779.000000,8026.000000,5958.000000,0.000000,21504.000000
7779.000000,8027.000000,5958.000000,0.000000,21504.000000
7780.000000,8027.000000,5957.000000,0.000000,21504.000000
7780.000000,8027.000000,5957.000000,0.000000,21504.000000
7780.000000,8026.000000,5957.000000,0.000000,21504.000000
7780.000000,8028.000000,5957.000000,0.000000,21504.000000
7781.000000,8028.000000,5958.000000,0.000000,21504.000000
7781.000000,8031.000000,5958.000000,0.000000,21504.000000
7782.000000,8032.000000,5958.000000,0.000000,21504.000000
7782.000000,8032.000000,5958.000000,0.000000,21504.000000
7782.000000,8031.000000,5958.000000,0.000000,21504.000000
7782.000000,8031.000000,5957.000000,0.000000,21504.000000
7780.000000,8029.000000,5957.000000,0.000000,21504.000000
7779.000000,8027.000000,5956.000000,0.000000,21504.000000
7779.000000,8027.000000,5957.000000,0.000000,21504.000000
7779.000000,8025.000000,5957.000000,0.000000,21504.000000
7779.000000,8021.000000,5956.000000,0.000000,21504.000000
7779.000000,8023.000000,5955.000000,0.000000,21504.000000
7780.000000,8022.000000,5955.000000,0.000000,21504.000000
7779.000000,8022.000000,5955.000000,0.000000,21504.000000
7779.000000,8022.000000,5956.000000,0.000000,21504.000000
7779.000000,8022.000000,5956.000000,0.000000,21504.000000
7779.000000,8022.000000,5955.000000,0.000000,21504.000000
7779.000000,8023.000000,5955.000000,0.000000,21504.000000
7779.000000,8025.000000,5956.000000,0.000000,21504.000000
7780.000000,8024.000000,5955.000000,0.000000,21504.000000
7780.000000,8024.000000,5955.000000,0.000000,21504.000000
7781.000000,8027.000000,5955.000000,0.000000,21504.000000
7780.000000,8027.000000,5955.000000,0.000000,21504.000000
7780.000000,8024.000000,5955.000000,0.000000,21504.000000
7779.000000,8024.000000,5955.000000,0.000000,21504.000000
7779.000000,8021.000000,5955.000000,0.000000,21504.000000
7779.000000,8018.000000,5954.000000,0.000000,21504.000000
7778.000000,8017.000000,5953.000000,0.000000,21504.000000
7778.000000,8015.000000,5953.000000,0.000000,21504.000000
7779.000000,8015.000000,5953.000000,0.000000,21504.000000
7778.000000,8013.000000,5953.000000,0.000000,21504.000000
7777.000000,8014.000000,5953.000000,0.000000,21504.000000
7777.000000,8013.000000,5952.000000,0.000000,21504.000000
7777.000000,8013.000000,5953.000000,0.000000,21504.000000
7777.000000,8014.000000,5953.000000,0.000000,21504.000000
7777.000000,8015.000000,5953.000000,0.000000,21504.000000
7778.000000,8016.000000,5953.000000,0.000000,21504.000000
7777.000000,8018.000000,5954.000000,0.000000,21504.000000
7779.000000,8018.000000,5953.000000,0.000000,21504.000000
7779.000000,8018.000000,5953.000000,0.000000,21504.000000
7779.000000,8021.000000,5954.000000,0.000000,21504.000000
7779.000000,8019.000000,5954.000000,0.000000,21504.000000
7779.000000,8019.000000,5952.000000,0.000000,21504.000000
7778.000000,8018.000000,5952.000000,0.000000,21504.000000
7777.000000,8014.000000,5952.000000,0.000000,21504.000000
7775.000000,8011.000000,5949.000000,0.000000,21504.000000
7772.000000,8008.000000,5947.000000,0.000000,21504.000000
7773.000000,8010.000000,5949.000000,0.000000,21504.000000
7771.000000,8009.000000,5948.000000,0.000000,21504.000000
7770.000000,8007.000000,5946.000000,0.000000,21504.000000
7770.000000,8006.000000,5946.000000,0.000000,21504.000000
7770.000000,8006.000000,5944.000000,0.000000,21504.000000
7771.000000,8005.000000,5944.000000,0.000000,21504.000000
7770.000000,8006.000000,5945.000000,0.000000,21504.000000
7769.000000,8008.000000,5945.000000,0.000000,21504.000000
7773.000000,8008.000000,5946.000000,0.000000,21504.000000
7773.000000,8008.000000,5947.000000,0.000000,21504.000000
7774.000000,8009.000000,5947.000000,0.000000,21504.000000
7775.000000,8011.000000,5948.000000,0.000000,21504.000000
7776.000000,8010.000000,5949.000000,0.000000,21504.000000
7776.000000,8010.000000,5948.000000,0.000000,21504.000000
7775.000000,8012.000000,5948.000000,0.000000,21504.000000
7775.000000,8013.000000,5949.000000,0.000000,21504.000000
7774.000000,8009.000000,5947.000000,0.000000,21504.000000
7769.000000,8007.000000,5945.000000,0.000000,21504.000000
7769.000000,8006.000000,5943.000000,0.000000,21504.000000
7768.000000,8005.000000,5942.000000,0.000000,21504.000000
7768.000000,8004.000000,5942.000000,0.000000,21504.000000
7768.000000,8002.000000,5940.000000,0.000000,21504.000000
7768.000000,8001.000000,5940.000000,0.000000,21504.000000
7767.000000,8001.000000,5940.000000,0.000000,21504.000000
7767.000000,8001.000000,5940.000000,0.000000,21504.000000
7768.000000,8002.000000,5940.000000,0.000000,21504.000000
7766.000000,8001.000000,5940.000000,1.000000,21504.000000
7769.000000,8005.000000,5942.000000,1.000000,21504.000000
7780.000000,8012.000000,5951.000000,1.000000,21504.000000
7780.000000,8013.000000,5952.000000,1.000000,21504.000000
7776.000000,8011.000000,5949.000000,1.000000,21504.000000
7778.000000,8014.000000,5950.000000,1.000000,21504.000000
7780.000000,8018.000000,5953.000000,1.000000,21504.000000
7780.000000,8019.000000,5952.000000,1.000000,21504.000000
7780.000000,8014.000000,5951.000000,1.000000,21504.000000
7778.000000,8014.000000,5952.000000,1.000000,21504.000000
7781.000000,8014.000000,5952.000000,1.000000,21504.000000
7779.000000,8014.000000,5950.000000,1.000000,21504.000000
7779.000000,8012.000000,5950.000000,1.000000,21504.000000
7777.000000,8010.000000,5948.000000,1.000000,21504.000000
7777.000000,8010.000000,5949.000000,1.000000,21504.000000
7777.000000,8011.000000,5949.000000,1.000000,21504.000000
7769.000000,8004.000000,5941.000000,1.000000,21504.000000
7769.000000,8009.000000,5947.000000,1.000000,21504.000000
7776.000000,8009.000000,5949.000000,1.000000,21504.000000
7777.000000,8010.000000,5949.000000,1.000000,21504.000000
7775.000000,8009.000000,5947.000000,1.000000,21504.000000
7778.000000,8012.000000,5949.000000,1.000000,21504.000000
7778.000000,8013.000000,5950.000000,1.000000,21504.000000
7779.000000,8014.000000,5950.000000,1.000000,21504.000000
7779.000000,8015.000000,5950.000000,1.000000,21504.000000
7779.000000,8016.000000,5951.000000,1.000000,21504.000000
7781.000000,8016.000000,5951.000000,1.000000,21504.000000
7781.000000,8016.000000,5949.000000,1.000000,21504.000000
7778.000000,8013.000000,5949.000000,1.000000,21504.000000
7779.000000,8012.000000,5949.000000,1.000000,21504.000000
7775.000000,8009.000000,5947.000000,1.000000,21504.000000
7774.000000,8008.000000,5947.000000,1.000000,21504.000000
7769.000000,8005.000000,5942.000000,1.000000,21504.000000
7769.000000,8004.000000,5942.000000,1.000000,21504.000000
7774.000000,8007.000000,5944.000000,1.000000,21504.000000
7773.000000,8007.000000,5944.000000,1.000000,21504.000000
7773.000000,8007.000000,5944.000000,1.000000,21504.000000
7773.000000,8007.000000,5944.000000,1.000000,21504.000000
7774.000000,8007.000000,5943.000000,1.000000,21504.000000
7775.000000,8007.000000,5945.000000,1.000000,21504.000000
7774.000000,8009.000000,5945.000000,1.000000,21504.000000
7773.000000,8009.000000,5943.000000,1.000000,21504.000000
7777.000000,8011.000000,5947.000000,1.000000,21504.000000
7776.000000,8012.000000,5947.000000,1.000000,21504.000000
7771.000000,8007.000000,5940.000000,1.000000,21504.000000
7771.000000,8014.000000,5948.000000,1.000000,21504.000000
7778.000000,8014.000000,5948.000000,1.000000,21504.000000
7775.000000,8011.000000,5946.000000,1.000000,21504.000000
7775.000000,8009.000000,5945.000000,1.000000,21504.000000
7775.000000,8007.000000,5943.000000,1.000000,21504.000000
7772.000000,8005.000000,5942.000000,1.000000,21504.000000
7769.000000,8001.000000,5939.000000,1.000000,21504.000000
7771.000000,8003.000000,5941.000000,1.000000,21504.000000
7769.000000,8002.000000,5939.000000,1.000000,21504.000000
7769.000000,8003.000000,5939.000000,1.000000,21504.000000
7772.000000,8003.000000,5940.000000,1.000000,21504.000000
7772.000000,8002.000000,5940.000000,1.000000,21504.000000
7772.000000,8002.000000,5939.000000,1.000000,21504.000000
7773.000000,8004.000000,5940.000000,1.000000,21504.000000
7774.000000,8006.000000,5941.000000,1.000000,21504.000000
7772.000000,8004.000000,5939.000000,1.000000,21504.000000
7772.000000,8005.000000,5941.000000,1.000000,21504.000000
7776.000000,8008.000000,5943.000000,1.000000,21504.000000
7776.000000,8010.000000,5944.000000,1.000000,21504.000000
7778.000000,8010.000000,5943.000000,1.000000,21504.000000
7776.000000,8009.000000,5943.000000,1.000000,21504.000000
7776.000000,8006.000000,5942.000000,1.000000,21504.000000
7775.000000,8004.000000,5940.000000,1.000000,21504.000000
7772.000000,8003.000000,5938.000000,1.000000,21504.000000
7773.000000,8000.000000,5939.000000,1.000000,21504.000000
7771.000000,7999.000000,5936.000000,1.000000,21504.000000
7771.000000,8000.000000,5937.000000,1.000000,21504.000000
7761.000000,7988.000000,5928.000000,1.000000,21504.000000
7761.000000,7988.000000,5937.000000,1.000000,21504.000000
7771.000000,7998.000000,5937.000000,1.000000,21504.000000
7771.000000,7997.000000,5936.000000,1.000000,21504.000000
7771.000000,7999.000000,5935.000000,1.000000,21504.000000
7772.000000,8001.000000,5936.000000,1.000000,21504.000000
7772.000000,8001.000000,5936.000000,1.000000,21504.000000
7772.000000,8002.000000,5936.000000,1.000000,21504.000000
7774.000000,8005.000000,5938.000000,1.000000,21504.000000
7774.000000,8007.000000,5939.000000,1.000000,21504.000000
7774.000000,8009.000000,5941.000000,1.000000,21504.000000
7777.000000,8009.000000,5941.000000,1.000000,21504.000000
7774.000000,8006.000000,5938.000000,1.000000,21504.000000
7774.000000,8005.000000,5937.000000,1.000000,21504.000000
7771.000000,8003.000000,5936.000000,1.000000,21504.000000
7772.000000,8002.000000,5936.000000,1.000000,21504.000000
7767.000000,7996.000000,5932.000000,1.000000,21504.000000
7765.000000,7994.000000,5929.000000,1.000000,21504.000000
7769.000000,7998.000000,5934.000000,1.000000,21504.000000
7769.000000,7998.000000,5932.000000,1.000000,21504.000000
7768.000000,7998.000000,5932.000000,1.000000,21504.000000
7767.000000,7998.000000,5933.000000,1.000000,21504.000000
7766.000000,7995.000000,5930.000000,1.000000,21504.000000
7770.000000,7999.000000,5934.000000,1.000000,21504.000000
7770.000000,8000.000000,5934.000000,1.000000,21504.000000
7769.000000,8002.000000,5934.000000,1.000000,21504.000000
7769.000000,8002.000000,5934.000000,1.000000,21504.000000
7772.000000,8004.000000,5936.000000,1.000000,21504.000000
7772.000000,7997.000000,5930.000000,1.000000,21504.000000
7765.000000,7997.000000,5937.000000,1.000000,21504.000000
7773.000000,8007.000000,5937.000000,1.000000,21504.000000
7772.000000,8006.000000,5935.000000,1.000000,21504.000000
7772.000000,8004.000000,5935.000000,1.000000,21504.000000
7768.000000,8001.000000,5931.000000,1.000000,21504.000000
7769.000000,8001.000000,5933.000000,1.000000,21504.000000
7769.000000,8001.000000,5932.000000,1.000000,21504.000000
7768.000000,8000.000000,5932.000000,1.000000,21504.000000
7768.000000,8000.000000,5931.000000,1.000000,21504.000000
7769.000000,8000.000000,5930.000000,1.000000,21504.000000
7768.000000,7998.000000,5930.000000,1.000000,21504.000000
7768.000000,8000.000000,5930.000000,1.000000,21504.000000
7768.000000,7999.000000,5931.000000,1.000000,21504.000000
7770.000000,7999.000000,5931.000000,1.000000,21504.000000
7769.000000,7998.000000,5930.000000,1.000000,21504.000000
7770.000000,8001.000000,5931.000000,1.000000,21504.000000
7766.000000,7997.000000,5927.000000,1.000000,21504.000000
7771.000000,8005.000000,5933.000000,1.000000,21504.000000
7771.000000,8005.000000,5934.000000,1.000000,21504.000000
7772.000000,8004.000000,5932.000000,0.000000,21504.000000
7768.000000,8001.000000,5930.000000,0.000000,21504.000000
7768.000000,8000.000000,5930.000000,0.000000,21504.000000
7768.000000,8000.000000,5928.000000,0.000000,21504.000000
7768.000000,7998.000000,5928.000000,0.000000,21504.000000
7768.000000,7995.000000,5928.000000,0.000000,21504.000000
7766.000000,7993.000000,5924.000000,0.000000,21504.000000
7768.000000,7994.000000,5926.000000,0.000000,21504.000000
7758.000000,7986.000000,5920.000000,0.000000,21504.000000
7766.000000,7993.000000,5926.000000,0.000000,21504.000000
7765.000000,7994.000000,5926.000000,0.000000,21504.000000
7765.000000,7994.000000,5926.000000,0.000000,21504.000000
7767.000000,7994.000000,5928.000000,0.000000,21504.000000
7769.000000,7997.000000,5928.000000,0.000000,21504.000000
7769.000000,7997.000000,5928.000000,0.000000,21504.000000
7769.000000,7998.000000,5928.000000,0.000000,21504.000000
7766.000000,7994.000000,5924.000000,0.000000,21504.000000
7757.000000,7985.000000,5918.000000,0.000000,21504.000000
7755.000000,7982.000000,5915.000000,0.000000,21504.000000
7750.000000,7979.000000,5913.000000,0.000000,21504.000000
7751.000000,7977.000000,5912.000000,0.000000,21504.000000
7751.000000,7977.000000,5910.000000,0.000000,21504.000000
7750.000000,7975.000000,5910.000000,0.000000,21504.000000
7749.000000,7973.000000,5911.000000,0.000000,21504.000000
7748.000000,7971.000000,5909.000000,0.000000,21504.000000
7746.000000,7970.000000,5908.000000,0.000000,21504.000000
7747.000000,7971.000000,5907.000000,0.000000,21504.000000
7747.000000,7970.000000,5908.000000,0.000000,21504.000000
7746.000000,7970.000000,5907.000000,0.000000,21504.000000
7747.000000,7971.000000,5907.000000,0.000000,21504.000000
7747.000000,7972.000000,5907.000000,0.000000,21504.000000
7748.000000,7972.000000,5907.000000,0.000000,21504.000000
7747.000000,7972.000000,5909.000000,0.000000,21504.000000
7749.000000,7973.000000,5909.000000,0.000000,21504.000000
7750.000000,7977.000000,5910.000000,0.000000,21504.000000
7749.000000,7975.000000,5909.000000,0.000000,21504.000000
7748.000000,7974.000000,5908.000000,0.000000,21504.000000
7747.000000,7972.000000,5906.000000,0.000000,21504.000000
7746.000000,7969.000000,5905.000000,0.000000,21504.000000
7746.000000,7965.000000,5904.000000,0.000000,21504.000000
7744.000000,7965.000000,5904.000000,0.000000,21504.000000
7744.000000,7963.000000,5903.000000,0.000000,21504.000000
7743.000000,7962.000000,5901.000000,0.000000,21504.000000
7742.000000,7962.000000,5900.000000,0.000000,21504.000000
7742.000000,7960.000000,5899.000000,0.000000,21504.000000
7741.000000,7960.000000,5899.000000,0.000000,21504.000000
7742.000000,7962.000000,5901.000000,0.000000,21504.000000
7742.000000,7961.000000,5900.000000,0.000000,21504.000000
7742.000000,7963.000000,5901.000000,0.000000,21504.000000
7742.000000,7963.000000,5900.000000,0.000000,21504.000000
7742.000000,7963.000000,5900.000000,0.000000,21504.000000
7744.000000,7966.000000,5902.000000,0.000000,21504.000000
7745.000000,7967.000000,5902.000000,0.000000,21504.000000
7745.000000,7969.000000,5902.000000,0.000000,21504.000000
7746.000000,7969.000000,5903.000000,0.000000,21504.000000
7744.000000,7965.000000,5901.000000,0.000000,21504.000000
7744.000000,7964.000000,5902.000000,0.000000,21504.000000
7744.000000,7962.000000,5899.000000,0.000000,21504.000000
7741.000000,7962.000000,5898.000000,0.000000,21504.000000
7741.000000,7959.000000,5898.000000,0.000000,21504.000000
7741.000000,7960.000000,5899.000000,0.000000,21504.000000
7740.000000,7959.000000,5899.000000,0.000000,21504.000000
7740.000000,7958.000000,5897.000000,0.000000,21504.000000
7741.000000,7959.000000,5897.000000,0.000000,21504.000000
7740.000000,7959.000000,5898.000000,0.000000,21504.000000
7739.000000,7960.000000,5897.000000,0.000000,21504.000000
7741.000000,7961.000000,5898.000000,0.000000,21504.000000
7741.000000,7961.000000,5899.000000,0.000000,21504.000000
7742.000000,7961.000000,5899.000000,0.000000,21504.000000
7743.000000,7961.000000,5898.000000,0.000000,21504.000000
7744.000000,7965.000000,5899.000000,0.000000,21504.000000
7743.000000,7965.000000,5900.000000,0.000000,21504.000000
7743.000000,7963.000000,5899.000000,0.000000,21504.000000
7742.000000,7962.000000,5898.000000,0.000000,21504.000000
7740.000000,7959.000000,5897.000000,0.000000,21504.000000
7739.000000,7958.000000,5896.000000,0.000000,21504.000000
7739.000000,7957.000000,5897.000000,0.000000,21504.000000
7738.000000,7957.000000,5897.000000,0.000000,21504.000000
7738.000000,7957.000000,5896.000000,0.000000,21504.000000
7738.000000,7956.000000,5896.000000,0.000000,21504.000000
7738.000000,7954.000000,5896.000000,0.000000,21504.000000
7737.000000,7956.000000,5895.000000,0.000000,21504.000000
7738.000000,7955.000000,5896.000000,0.000000,21504.000000
7739.000000,7957.000000,5897.000000,0.000000,21504.000000
7738.000000,7956.000000,5896.000000,0.000000,21504.000000
7738.000000,7959.000000,5897.000000,0.000000,21504.000000
7739.000000,7959.000000,5897.000000,0.000000,21504.000000
7742.000000,7960.000000,5897.000000,0.000000,21504.000000
7743.000000,7961.000000,5897.000000,0.000000,21504.000000
7742.000000,7959.000000,5896.000000,0.000000,21504.000000
7740.000000,7958.000000,5895.000000,0.000000,21504.000000
7737.000000,7956.000000,5896.000000,0.000000,21504.000000
7735.000000,7953.000000,5894.000000,0.000000,21504.000000
7734.000000,7952.000000,5892.000000,0.000000,21504.000000
7734.000000,7951.000000,5893.000000,0.000000,21504.000000
7734.000000,7951.000000,5893.000000,0.000000,21504.000000
7734.000000,7950.000000,5893.000000,0.000000,21504.000000
7732.000000,7948.000000,5891.000000,0.000000,21504.000000
7732.000000,7950.000000,5892.000000,0.000000,21504.000000
7734.000000,7951.000000,5892.000000,0.000000,21504.000000
7733.000000,7951.000000,5892.000000,0.000000,21504.000000
7736.000000,7953.000000,5893.000000,0.000000,21504.000000
7737.000000,7954.000000,5894.000000,0.000000,21504.000000
7737.000000,7955.000000,5894.000000,0.000000,21504.000000
7739.000000,7955.000000,5895.000000,0.000000,21504.000000
7741.000000,7957.000000,5895.000000,0.000000,21504.000000
7741.000000,7958.000000,5895.000000,0.000000,21504.000000
7740.000000,7958.000000,5894.000000,0.000000,21504.000000
7738.000000,7955.000000,5895.000000,0.000000,21504.000000
7734.000000,7951.000000,5890.000000,0.000000,21504.000000
7732.000000,7948.000000,5889.000000,0.000000,21504.000000
7733.000000,7948.000000,5888.000000,0.000000,21504.000000
7734.000000,7949.000000,5890.000000,0.000000,21504.000000
7734.000000,7949.000000,5889.000000,0.000000,21504.000000
7733.000000,7949.000000,5889.000000,0.000000,21504.000000
7733.000000,7947.000000,5888.000000,0.000000,21504.000000
7734.000000,7946.000000,5889.000000,0.000000,21504.000000
7734.000000,7948.000000,5889.000000,0.000000,21504.000000
7733.000000,7949.000000,5890.000000,0.000000,21504.000000
7735.000000,7950.000000,5890.000000,0.000000,21504.000000
7735.000000,7950.000000,5890.000000,1.000000,21504.000000
7737.000000,7952.000000,5891.000000,1.000000,21504.000000
7738.000000,7953.000000,5892.000000,1.000000,21504.000000
7738.000000,7955.000000,5893.000000,1.000000,21504.000000
7739.000000,7956.000000,5893.000000,1.000000,21504.000000
7739.000000,7956.000000,5895.000000,1.000000,21504.000000
7743.000000,7958.000000,5895.000000,1.000000,21504.000000
7748.000000,7961.000000,5897.000000,1.000000,21504.000000
7747.000000,7959.000000,5897.000000,1.000000,21504.000000
7745.000000,7957.000000,5896.000000,1.000000,21504.000000
7746.000000,7958.000000,5897.000000,1.000000,21504.000000
7746.000000,7958.000000,5895.000000,1.000000,21504.000000
7746.000000,7959.000000,5896.000000,1.000000,21504.000000
7745.000000,7956.000000,5895.000000,1.000000,21504.000000
7745.000000,7957.000000,5895.000000,1.000000,21504.000000
7745.000000,7957.000000,5895.000000,1.000000,21504.000000
7746.000000,7959.000000,5897.000000,1.000000,21504.000000
7740.000000,7955.000000,5892.000000,1.000000,21504.000000
7749.000000,7962.000000,5897.000000,1.000000,21504.000000
7749.000000,7963.000000,5898.000000,1.000000,21504.000000
7751.000000,7965.000000,5899.000000,1.000000,21504.000000
7751.000000,7966.000000,5899.000000,1.000000,21504.000000
7751.000000,7967.000000,5899.000000,1.000000,21504.000000
7751.000000,7964.000000,5897.000000,1.000000,21504.000000
7750.000000,7964.000000,5897.000000,1.000000,21504.000000
7750.000000,7963.000000,5897.000000,1.000000,21504.000000
7751.000000,7962.000000,5897.000000,1.000000,21504.000000
7750.000000,7962.000000,5898.000000,1.000000,21504.000000
7748.000000,7960.000000,5897.000000,1.000000,21504.000000
7740.000000,7955.000000,5891.000000,1.000000,21504.000000
7747.000000,7959.000000,5896.000000,1.000000,21504.000000
7748.000000,7961.000000,5896.000000,1.000000,21504.000000
7748.000000,7960.000000,5897.000000,1.000000,21504.000000
7749.000000,7960.000000,5896.000000,1.000000,21504.000000
7748.000000,7960.000000,5896.000000,1.000000,21504.000000
7747.000000,7960.000000,5896.000000,1.000000,21504.000000
7749.000000,7962.000000,5897.000000,1.000000,21504.000000
7751.000000,7966.000000,5898.000000,1.000000,21504.000000
7750.000000,7966.000000,5898.000000,1.000000,21504.000000
7751.000000,7968.000000,5898.000000,1.000000,21504.000000
7752.000000,7969.000000,5899.000000,1.000000,21504.000000
7752.000000,7968.000000,5898.000000,1.000000,21504.000000
7752.000000,7968.000000,5897.000000,1.000000,21504.000000
7751.000000,7966.000000,5897.000000,1.000000,21504.000000
7750.000000,7965.000000,5897.000000,1.000000,21504.000000
7742.000000,7958.000000,5892.000000,1.000000,21504.000000
7746.000000,7961.000000,5895.000000,1.000000,21504.000000
7749.000000,7962.000000,5896.000000,1.000000,21504.000000
7749.000000,7962.000000,5896.000000,1.000000,21504.000000
7749.000000,7962.000000,5896.000000,1.000000,21504.000000
7748.000000,7961.000000,5896.000000,1.000000,21504.000000
7748.000000,7961.000000,5897.000000,1.000000,21504.000000
7749.000000,7962.000000,5897.000000,1.000000,21504.000000
7749.000000,7962.000000,5897.000000,1.000000,21504.000000
7750.000000,7964.000000,5897.000000,1.000000,21504.000000
7750.000000,7965.000000,5897.000000,1.000000,21504.000000
7750.000000,7965.000000,5897.000000,1.000000,21504.000000
7744.000000,7962.000000,5892.000000,1.000000,21504.000000
7752.000000,7969.000000,5898.000000,1.000000,21504.000000
7753.000000,7968.000000,5898.000000,1.000000,21504.000000
7753.000000,7966.000000,5898.000000,1.000000,21504.000000
7751.000000,7966.000000,5898.000000,1.000000,21504.000000
7750.000000,7962.000000,5897.000000,1.000000,21504.000000
7749.000000,7962.000000,5895.000000,1.000000,21504.000000
7748.000000,7960.000000,5895.000000,1.000000,21504.000000
7747.000000,7962.000000,5895.000000,1.000000,21504.000000
7745.000000,7960.000000,5893.000000,1.000000,21504.000000
7747.000000,7960.000000,5894.000000,1.000000,21504.000000
7748.000000,7961.000000,5895.000000,1.000000,21504.000000
7748.000000,7961.000000,5894.000000,1.000000,21504.000000
7746.000000,7961.000000,5894.000000,1.000000,21504.000000
7746.000000,7961.000000,5894.000000,1.000000,21504.000000
7747.000000,7961.000000,5894.000000,1.000000,21504.000000
7742.000000,7959.000000,5891.000000,1.000000,21504.000000
7745.000000,7961.000000,5894.000000,1.000000,21504.000000
7749.000000,7965.000000,5895.000000,1.000000,21504.000000
7750.000000,7965.000000,5897.000000,1.000000,21504.000000
7750.000000,7965.000000,5895.000000,1.000000,21504.000000
7750.000000,7966.000000,5896.000000,1.000000,21504.000000
7749.000000,7966.000000,5895.000000,1.000000,21504.000000
7748.000000,7963.000000,5895.000000,1.000000,21504.000000
7744.000000,7962.000000,5892.000000,1.000000,21504.000000
7745.000000,7960.000000,5891.000000,1.000000,21504.000000
7743.000000,7958.000000,5890.000000,1.000000,21504.000000
7743.000000,7958.000000,5889.000000,1.000000,21504.000000
7735.000000,7949.000000,5884.000000,1.000000,21504.000000
7742.000000,7956.000000,5889.000000,1.000000,21504.000000
7740.000000,7954.000000,5886.000000,1.000000,21504.000000
7740.000000,7954.000000,5888.000000,1.000000,21504.000000
7742.000000,7955.000000,5888.000000,1.000000,21504.000000
7741.000000,7956.000000,5887.000000,1.000000,21504.000000
7742.000000,7956.000000,5888.000000,1.000000,21504.000000
7744.000000,7958.000000,5890.000000,1.000000,21504.000000
7745.000000,7959.000000,5890.000000,1.000000,21504.000000
7746.000000,7962.000000,5892.000000,1.000000,21504.000000
7746.000000,7962.000000,5893.000000,1.000000,21504.000000
7747.000000,7962.000000,5893.000000,1.000000,21504.000000
7747.000000,7962.000000,5891.000000,1.000000,21504.000000
7745.000000,7959.000000,5891.000000,1.000000,21504.000000
7742.000000,7955.000000,5887.000000,1.000000,21504.000000
7741.000000,7953.000000,5886.000000,1.000000,21504.000000
7738.000000,7948.000000,5884.000000,1.000000,21504.000000
7737.000000,7947.000000,5883.000000,1.000000,21504.000000
7738.000000,7949.000000,5884.000000,1.000000,21504.000000
7737.000000,7948.000000,5884.000000,1.000000,21504.000000
7735.000000,7946.000000,5883.000000,1.000000,21504.000000
7735.000000,7944.000000,5883.000000,1.000000,21504.000000
7736.000000,7944.000000,5883.000000,1.000000,21504.000000
7736.000000,7944.000000,5883.000000,1.000000,21504.000000
7735.000000,7943.000000,5882.000000,1.000000,21504.000000
7737.000000,7946.000000,5883.000000,1.000000,21504.000000
7737.000000,7947.000000,5883.000000,1.000000,21504.000000
7738.000000,7949.000000,5884.000000,1.000000,21504.000000
7733.000000,7942.000000,5880.000000,1.000000,21504.000000
7736.000000,7949.000000,5884.000000,1.000000,21504.000000
7736.000000,7949.000000,5883.000000,1.000000,21504.000000
7738.000000,7949.000000,5883.000000,1.000000,21504.000000
7737.000000,7948.000000,5883.000000,1.000000,21504.000000
7736.000000,7944.000000,5883.000000,1.000000,21504.000000
7735.000000,7942.000000,5882.000000,1.000000,21504.000000
7732.000000,7939.000000,5882.000000,0.000000,21504.000000
7732.000000,7939.000000,5881.000000,0.000000,21504.000000
7734.000000,7940.000000,5881.000000,0.000000,21504.000000
7734.000000,7938.000000,5881.000000,0.000000,21504.000000
7733.000000,7937.000000,5881.000000,0.000000,21504.000000
7732.000000,7937.000000,5880.000000,0.000000,21504.000000
7733.000000,7937.000000,5879.000000,0.000000,21504.000000
7733.000000,7938.000000,5880.000000,0.000000,21504.000000
7733.000000,7938.000000,5878.000000,0.000000,21504.000000
7730.000000,7936.000000,5878.000000,0.000000,21504.000000
7729.000000,7936.000000,5875.000000,0.000000,21504.000000
7734.000000,7939.000000,5881.000000,0.000000,21504.000000
7734.000000,7940.000000,5881.000000,0.000000,21504.000000
7735.000000,7939.000000,5881.000000,0.000000,21504.000000
7734.000000,7938.000000,5880.000000,0.000000,21504.000000
7731.000000,7935.000000,5877.000000,0.000000,21504.000000
7731.000000,7932.000000,5876.000000,0.000000,21504.000000
7731.000000,7932.000000,5875.000000,0.000000,21504.000000
7730.000000,7932.000000,5875.000000,0.000000,21504.000000
7730.000000,7931.000000,5875.000000,0.000000,21504.000000
7729.000000,7931.000000,5875.000000,0.000000,21504.000000
7715.000000,7918.000000,5869.000000,0.000000,21504.000000
7715.000000,7917.000000,5868.000000,0.000000,21504.000000
7716.000000,7917.000000,5868.000000,0.000000,21504.000000
7715.000000,7916.000000,5868.000000,0.000000,21504.000000
7717.000000,7918.000000,5868.000000,0.000000,21504.000000
7717.000000,7919.000000,5869.000000,0.000000,21504.000000
7718.000000,7919.000000,5869.000000,0.000000,21504.000000
7716.000000,7920.000000,5869.000000,0.000000,21504.000000
7717.000000,7920.000000,5869.000000,0.000000,21504.000000
7716.000000,7920.000000,5869.000000,0.000000,21504.000000
7717.000000,7921.000000,5869.000000,0.000000,21504.000000
7714.000000,7916.000000,5868.000000,0.000000,21504.000000
7711.000000,7912.000000,5868.000000,0.000000,21504.000000
7711.000000,7911.000000,5868.000000,0.000000,21504.000000
7711.000000,7908.000000,5867.000000,0.000000,21504.000000
7711.000000,7908.000000,5867.000000,0.000000,21504.000000
7709.000000,7906.000000,5867.000000,0.000000,21504.000000
7709.000000,7904.000000,5866.000000,0.000000,21504.000000
7711.000000,7903.000000,5866.000000,0.000000,21504.000000
7711.000000,7903.000000,5867.000000,0.000000,21504.000000
7709.000000,7904.000000,5867.000000,0.000000,21504.000000
7710.000000,7904.000000,5867.000000,0.000000,21504.000000
7711.000000,7905.000000,5867.000000,0.000000,21504.000000
7711.000000,7906.000000,5867.000000,0.000000,21504.000000
7710.000000,7906.000000,5868.000000,0.000000,21504.000000
7710.000000,7909.000000,5868.000000,0.000000,21504.000000
7710.000000,7907.000000,5868.000000,0.000000,21504.000000
7711.000000,7908.000000,5867.000000,0.000000,21504.000000
7710.000000,7909.000000,5867.000000,0.000000,21504.000000
7711.000000,7907.000000,5867.000000,0.000000,21504.000000
7709.000000,7903.000000,5866.000000,0.000000,21504.000000
7708.000000,7900.000000,5865.000000,0.000000,21504.000000
7708.000000,7896.000000,5863.000000,0.000000,21504.000000
7708.000000,7896.000000,5864.000000,0.000000,21504.000000
7707.000000,7897.000000,5864.000000,0.000000,21504.000000
7706.000000,7895.000000,5862.000000,0.000000,21504.000000
7705.000000,7894.000000,5861.000000,0.000000,21504.000000
7704.000000,7893.000000,5860.000000,0.000000,21504.000000
7706.000000,7895.000000,5862.000000,0.000000,21504.000000
7705.000000,7894.000000,5862.000000,0.000000,21504.000000
7707.000000,7897.000000,5863.000000,0.000000,21504.000000
7706.000000,7898.000000,5863.000000,0.000000,21504.000000
7706.000000,7898.000000,5863.000000,0.000000,21504.000000
7707.000000,7899.000000,5863.000000,0.000000,21504.000000
7707.000000,7899.000000,5863.000000,0.000000,21504.000000
7709.000000,7900.000000,5865.000000,0.000000,21504.000000
7708.000000,7903.000000,5865.000000,0.000000,21504.000000
7708.000000,7903.000000,5865.000000,0.000000,21504.000000
7708.000000,7902.000000,5865.000000,0.000000,21504.000000
7705.000000,7899.000000,5864.000000,0.000000,21504.000000
7705.000000,7894.000000,5860.000000,0.000000,21504.000000
7705.000000,7892.000000,5860.000000,0.000000,21504.000000
7704.000000,7892.000000,5860.000000,0.000000,21504.000000
7704.000000,7891.000000,5859.000000,0.000000,21504.000000
7704.000000,7890.000000,5859.000000,0.000000,21504.000000
7704.000000,7890.000000,5858.000000,0.000000,21504.000000
7705.000000,7889.000000,5857.000000,0.000000,21504.000000
7705.000000,7890.000000,5858.000000,0.000000,21504.000000
7705.000000,7890.000000,5859.000000,0.000000,21504.000000
7705.000000,7891.000000,5858.000000,0.000000,21504.000000
7705.000000,7891.000000,5858.000000,0.000000,21504.000000
7705.000000,7891.000000,5857.000000,0.000000,21504.000000
7704.000000,7891.000000,5857.000000,0.000000,21504.000000
7704.000000,7894.000000,5859.000000,0.000000,21504.000000
7706.000000,7895.000000,5859.000000,0.000000,21504.000000
7707.000000,7896.000000,5861.000000,0.000000,21504.000000
7707.000000,7896.000000,5861.000000,0.000000,21504.000000
7703.000000,7892.000000,5859.000000,0.000000,21504.000000
7705.000000,7891.000000,5858.000000,0.000000,21504.000000
7705.000000,7890.000000,5857.000000,0.000000,21504.000000
7703.000000,7890.000000,5856.000000,0.000000,21504.000000
7704.000000,7888.000000,5856.000000,0.000000,21504.000000
7703.000000,7889.000000,5856.000000,0.000000,21504.000000
7703.000000,7887.000000,5855.000000,0.000000,21504.000000
7702.000000,7887.000000,5855.000000,0.000000,21504.000000
7703.000000,7889.000000,5857.000000,0.000000,21504.000000
7703.000000,7886.000000,5854.000000,0.000000,21504.000000
7705.000000,7889.000000,5856.000000,0.000000,21504.000000
7704.000000,7890.000000,5856.000000,0.000000,21504.000000
7704.000000,7890.000000,5857.000000,0.000000,21504.000000
7702.000000,7890.000000,5857.000000,0.000000,21504.000000
7704.000000,7892.000000,5857.000000,0.000000,21504.000000
7705.000000,7893.000000,5858.000000,0.000000,21504.000000
7704.000000,7892.000000,5858.000000,0.000000,21504.000000
7704.000000,7892.000000,5857.000000,0.000000,21504.000000
7704.000000,7891.000000,5856.000000,0.000000,21504.000000
7704.000000,7889.000000,5855.000000,0.000000,21504.000000
7702.000000,7885.000000,5852.000000,0.000000,21504.000000
7702.000000,7885.000000,5854.000000,0.000000,21504.000000
7703.000000,7886.000000,5854.000000,0.000000,21504.000000
7703.000000,7885.000000,5851.000000,0.000000,21504.000000
7702.000000,7884.000000,5852.000000,0.000000,21504.000000
7702.000000,7882.000000,5850.000000,0.000000,21504.000000
7701.000000,7883.000000,5851.000000,0.000000,21504.000000
7702.000000,7883.000000,5850.000000,0.000000,21504.000000
7702.000000,7885.000000,5852.000000,0.000000,21504.000000
7703.000000,7886.000000,5852.000000,0.000000,21504.000000
7703.000000,7887.000000,5853.000000,0.000000,21504.000000
7702.000000,7887.000000,5853.000000,0.000000,21504.000000
7703.000000,7888.000000,5855.000000,1.000000,21504.000000
7705.000000,7891.000000,5855.000000,1.000000,21504.000000
7705.000000,7891.000000,5855.000000,1.000000,21504.000000
7706.000000,7891.000000,5855.000000,1.000000,21504.000000
7705.000000,7888.000000,5853.000000,1.000000,21504.000000
7705.000000,7886.000000,5853.000000,1.000000,21504.000000
7703.000000,7884.000000,5852.000000,1.000000,21504.000000
7703.000000,7881.000000,5850.000000,1.000000,21504.000000
7702.000000,7880.000000,5849.000000,1.000000,21504.000000
7702.000000,7882.000000,5852.000000,1.000000,21504.000000
7702.000000,7888.000000,5856.000000,1.000000,21504.000000
7708.000000,7888.000000,5856.000000,1.000000,21504.000000
7708.000000,7888.000000,5856.000000,1.000000,21504.000000
7709.000000,7889.000000,5857.000000,1.000000,21504.000000
7706.000000,7885.000000,5852.000000,1.000000,21504.000000
7708.000000,7891.000000,5856.000000,1.000000,21504.000000
7709.000000,7890.000000,5856.000000,1.000000,21504.000000
7707.000000,7889.000000,5855.000000,1.000000,21504.000000
7708.000000,7891.000000,5857.000000,1.000000,21504.000000
7708.000000,7894.000000,5858.000000,1.000000,21504.000000
7710.000000,7894.000000,5859.000000,1.000000,21504.000000
7710.000000,7894.000000,5859.000000,1.000000,21504.000000
7710.000000,7894.000000,5858.000000,1.000000,21504.000000
7709.000000,7891.000000,5857.000000,1.000000,21504.000000
7708.000000,7890.000000,5856.000000,1.000000,21504.000000
7708.000000,7888.000000,5856.000000,1.000000,21504.000000
7707.000000,7886.000000,5854.000000,1.000000,21504.000000
7707.000000,7886.000000,5853.000000,1.000000,21504.000000
7708.000000,7886.000000,5855.000000,1.000000,21504.000000
7708.000000,7886.000000,5851.000000,1.000000,21504.000000
7702.000000,7881.000000,5851.000000,1.000000,21504.000000
7706.000000,7885.000000,5853.000000,1.000000,21504.000000
7708.000000,7886.000000,5854.000000,1.000000,21504.000000
7706.000000,7886.000000,5854.000000,1.000000,21504.000000
7708.000000,7888.000000,5855.000000,1.000000,21504.000000
7708.000000,7889.000000,5855.000000,1.000000,21504.000000
7707.000000,7888.000000,5855.000000,1.000000,21504.000000
7708.000000,7889.000000,5855.000000,1.000000,21504.000000
7708.000000,7889.000000,5854.000000,1.000000,21504.000000
7708.000000,7889.000000,5854.000000,1.000000,21504.000000
7709.000000,7893.000000,5855.000000,1.000000,21504.000000
7708.000000,7892.000000,5856.000000,1.000000,21504.000000
7706.000000,7886.000000,5851.000000,1.000000,21504.000000
7708.000000,7890.000000,5855.000000,1.000000,21504.000000
7707.000000,7888.000000,5854.000000,1.000000,21504.000000
7708.000000,7886.000000,5853.000000,1.000000,21504.000000
7708.000000,7886.000000,5853.000000,1.000000,21504.000000
7708.000000,7884.000000,5850.000000,1.000000,21504.000000
7705.000000,7884.000000,5850.000000,1.000000,21504.000000
7707.000000,7884.000000,5851.000000,1.000000,21504.000000
7708.000000,7885.000000,5852.000000,1.000000,21504.000000
7708.000000,7885.000000,5854.000000,1.000000,21504.000000
7707.000000,7885.000000,5852.000000,1.000000,21504.000000
7709.000000,7886.000000,5853.000000,1.000000,21504.000000
7707.000000,7887.000000,5853.000000,1.000000,21504.000000
7708.000000,7888.000000,5854.000000,1.000000,21504.000000
7708.000000,7891.000000,5854.000000,1.000000,21504.000000
7708.000000,7891.000000,5850.000000,1.000000,21504.000000
7705.000000,7886.000000,5850.000000,1.000000,21504.000000
7708.000000,7892.000000,5854.000000,1.000000,21504.000000
7707.000000,7888.000000,5852.000000,1.000000,21504.000000
7708.000000,7888.000000,5853.000000,1.000000,21504.000000
7708.000000,7886.000000,5852.000000,1.000000,21504.000000
7706.000000,7884.000000,5850.000000,1.000000,21504.000000
7707.000000,7883.000000,5851.000000,1.000000,21504.000000
7707.000000,7884.000000,5850.000000,1.000000,21504.000000
7707.000000,7884.000000,5851.000000,1.000000,21504.000000
7707.000000,7884.000000,5851.000000,1.000000,21504.000000
7706.000000,7882.000000,5849.000000,1.000000,21504.000000
7706.000000,7883.000000,5849.000000,1.000000,21504.000000
7702.000000,7881.000000,5850.000000,1.000000,21504.000000
7708.000000,7885.000000,5851.000000,1.000000,21504.000000
7708.000000,7886.000000,5852.000000,1.000000,21504.000000
7708.000000,7888.000000,5852.000000,1.000000,21504.000000
7709.000000,7889.000000,5852.000000,1.000000,21504.000000
7709.000000,7889.000000,5854.000000,1.000000,21504.000000
7709.000000,7891.000000,5854.000000,1.000000,21504.000000
7710.000000,7891.000000,5853.000000,1.000000,21504.000000
7710.000000,7888.000000,5854.000000,1.000000,21504.000000
7709.000000,7886.000000,5852.000000,1.000000,21504.000000
7707.000000,7883.000000,5850.000000,1.000000,21504.000000
7704.000000,7880.000000,5847.000000,1.000000,21504.000000
7705.000000,7879.000000,5847.000000,1.000000,21504.000000
7705.000000,7881.000000,5846.000000,1.000000,21504.000000
7705.000000,7879.000000,5846.000000,1.000000,21504.000000
7705.000000,7879.000000,5846.000000,1.000000,21504.000000
7701.000000,7875.000000,5846.000000,1.000000,21504.000000
7705.000000,7879.000000,5847.000000,1.000000,21504.000000
7706.000000,7881.000000,5847.000000,1.000000,21504.000000
7707.000000,7882.000000,5848.000000,1.000000,21504.000000
7707.000000,7881.000000,5848.000000,1.000000,21504.000000
7707.000000,7884.000000,5850.000000,1.000000,21504.000000
7709.000000,7886.000000,5851.000000,1.000000,21504.000000
7709.000000,7889.000000,5851.000000,1.000000,21504.000000
7709.000000,7889.000000,5851.000000,1.000000,21504.000000
7710.000000,7889.000000,5851.000000,1.000000,21504.000000
7708.000000,7886.000000,5850.000000,1.000000,21504.000000
7708.000000,7882.000000,5850.000000,1.000000,21504.000000
7703.000000,7877.000000,5845.000000,1.000000,21504.000000
7704.000000,7878.000000,5845.000000,1.000000,21504.000000
7704.000000,7879.000000,5846.000000,1.000000,21504.000000
7704.000000,7878.000000,5847.000000,1.000000,21504.000000
7704.000000,7877.000000,5846.000000,1.000000,21504.000000
7702.000000,7877.000000,5846.000000,1.000000,21504.000000
7701.000000,7877.000000,5846.000000,1.000000,21504.000000
7703.000000,7879.000000,5845.000000,1.000000,21504.000000
7703.000000,7878.000000,5845.000000,1.000000,21504.000000
7704.000000,7878.000000,5845.000000,1.000000,21504.000000
7703.000000,7879.000000,5845.000000,1.000000,21504.000000
7705.000000,7881.000000,5846.000000,1.000000,21504.000000
7705.000000,7881.000000,5846.000000,1.000000,21504.000000
7705.000000,7885.000000,5848.000000,1.000000,21504.000000
7707.000000,7885.000000,5850.000000,1.000000,21504.000000
7708.000000,7886.000000,5850.000000,1.000000,21504.000000
7703.000000,7880.000000,5845.000000,1.000000,21504.000000
7705.000000,7880.000000,5845.000000,1.000000,21504.000000
7703.000000,7880.000000,5845.000000,1.000000,21504.000000
7703.000000,7879.000000,5845.000000,1.000000,21504.000000
7703.000000,7878.000000,5845.000000,1.000000,21504.000000
7702.000000,7877.000000,5847.000000,1.000000,21504.000000
7703.000000,7876.000000,5845.000000,0.000000,21504.000000
7702.000000,7875.000000,5845.000000,0.000000,21504.000000
7702.000000,7876.000000,5846.000000,0.000000,21504.000000
7701.000000,7875.000000,5843.000000,0.000000,21504.000000
7701.000000,7877.000000,5845.000000,0.000000,21504.000000
7703.000000,7877.000000,5845.000000,0.000000,21504.000000
7701.000000,7873.000000,5840.000000,0.000000,21504.000000
7704.000000,7877.000000,5843.000000,0.000000,21504.000000
7705.000000,7880.000000,5843.000000,0.000000,21504.000000
7704.000000,7881.000000,5843.000000,0.000000,21504.000000
7706.000000,7881.000000,5844.000000,0.000000,21504.000000
7707.000000,7881.000000,5845.000000,0.000000,21504.000000
7705.000000,7879.000000,5845.000000,0.000000,21504.000000
7705.000000,7877.000000,5844.000000,0.000000,21504.000000
7703.000000,7877.000000,5836.000000,0.000000,21504.000000
7696.000000,7864.000000,5836.000000,0.000000,21504.000000
7695.000000,7862.000000,5833.000000,0.000000,21504.000000
7694.000000,7862.000000,5833.000000,0.000000,21504.000000
7695.000000,7862.000000,5833.000000,0.000000,21504.000000
7693.000000,7860.000000,5832.000000,0.000000,21504.000000
7693.000000,7860.000000,5831.000000,0.000000,21504.000000
7694.000000,7859.000000,5830.000000,0.000000,21504.000000
7694.000000,7862.000000,5833.000000,0.000000,21504.000000
7694.000000,7862.000000,5832.000000,0.000000,21504.000000
7695.000000,7861.000000,5832.000000,0.000000,21504.000000
7695.000000,7864.000000,5834.000000,0.000000,21504.000000
7696.000000,7865.000000,5834.000000,0.000000,21504.000000
7695.000000,7866.000000,5833.000000,0.000000,21504.000000
7697.000000,7868.000000,5835.000000,0.000000,21504.000000
7696.000000,7868.000000,5834.000000,0.000000,21504.000000
7696.000000,7865.000000,5834.000000,0.000000,21504.000000
7695.000000,7862.000000,5833.000000,0.000000,21504.000000
7695.000000,7862.000000,5831.000000,0.000000,21504.000000
7694.000000,7860.000000,5831.000000,0.000000,21504.000000
7692.000000,7859.000000,5830.000000,0.000000,21504.000000
7693.000000,7858.000000,5831.000000,0.000000,21504.000000
7692.000000,7858.000000,5829.000000,0.000000,21504.000000
7692.000000,7858.000000,5828.000000,0.000000,21504.000000
7691.000000,7859.000000,5830.000000,0.000000,21504.000000
7692.000000,7859.000000,5829.000000,0.000000,21504.000000
7693.000000,7858.000000,5828.000000,0.000000,21504.000000
7693.000000,7859.000000,5829.000000,0.000000,21504.000000
7693.000000,7859.000000,5829.000000,0.000000,21504.000000
7692.000000,7861.000000,5828.000000,0.000000,21504.000000
7693.000000,7864.000000,5830.000000,0.000000,21504.000000
7696.000000,7865.000000,5832.000000,0.000000,21504.000000
7697.000000,7868.000000,5833.000000,0.000000,21504.000000
7696.000000,7868.000000,5831.000000,0.000000,21504.000000
7695.000000,7862.000000,5832.000000,0.000000,21504.000000
7694.000000,7859.000000,5827.000000,0.000000,21504.000000
7694.000000,7857.000000,5826.000000,0.000000,21504.000000
7692.000000,7857.000000,5826.000000,0.000000,21504.000000
7691.000000,7856.000000,5826.000000,0.000000,21504.000000
7691.000000,7855.000000,5825.000000,0.000000,21504.000000
7691.000000,7855.000000,5824.000000,0.000000,21504.000000
7689.000000,7854.000000,5823.000000,0.000000,21504.000000
7690.000000,7855.000000,5825.000000,0.000000,21504.000000
7691.000000,7855.000000,5825.000000,0.000000,21504.000000
7690.000000,7853.000000,5823.000000,0.000000,21504.000000
7690.000000,7855.000000,5826.000000,0.000000,21504.000000
7690.000000,7855.000000,5826.000000,0.000000,21504.000000
7692.000000,7858.000000,5826.000000,0.000000,21504.000000
7692.000000,7857.000000,5826.000000,0.000000,21504.000000
7693.000000,7860.000000,5826.000000,0.000000,21504.000000
7693.000000,7861.000000,5828.000000,0.000000,21504.000000
7696.000000,7865.000000,5829.000000,0.000000,21504.000000
7696.000000,7865.000000,5829.000000,0.000000,21504.000000
7694.000000,7863.000000,5830.000000,0.000000,21504.000000
7694.000000,7858.000000,5825.000000,0.000000,21504.000000
7692.000000,7858.000000,5824.000000,0.000000,21504.000000
7692.000000,7857.000000,5824.000000,0.000000,21504.000000
7690.000000,7855.000000,5823.000000,0.000000,21504.000000
7689.000000,7854.000000,5824.000000,0.000000,21504.000000
7688.000000,7852.000000,5821.000000,0.000000,21504.000000
7688.000000,7852.000000,5821.000000,0.000000,21504.000000
7689.000000,7853.000000,5821.000000,0.000000,21504.000000
7688.000000,7853.000000,5821.000000,0.000000,21504.000000
7688.000000,7852.000000,5822.000000,0.000000,21504.000000
7688.000000,7852.000000,5821.000000,0.000000,21504.000000
7689.000000,7852.000000,5821.000000,0.000000,21504.000000
7689.000000,7855.000000,5822.000000,0.000000,21504.000000
7689.000000,7856.000000,5822.000000,0.000000,21504.000000
7691.000000,7857.000000,5822.000000,0.000000,21504.000000
7693.000000,7859.000000,5824.000000,0.000000,21504.000000
7692.000000,7859.000000,5824.000000,0.000000,21504.000000
7692.000000,7859.000000,5823.000000,0.000000,21504.000000
7691.000000,7858.000000,5823.000000,0.000000,21504.000000
7691.000000,7858.000000,5822.000000,0.000000,21504.000000
7689.000000,7854.000000,5822.000000,0.000000,21504.000000
7689.000000,7853.000000,5821.000000,0.000000,21504.000000
7689.000000,7851.000000,5819.000000,0.000000,21504.000000
7686.000000,7849.000000,5818.000000,0.000000,21504.000000
7686.000000,7849.000000,5819.000000,0.000000,21504.000000
7686.000000,7848.000000,5818.000000,0.000000,21504.000000
7684.000000,7849.000000,5818.000000,0.000000,21504.000000
7684.000000,7849.000000,5818.000000,0.000000,21504.000000
7684.000000,7849.000000,5819.000000,0.000000,21504.000000
7685.000000,7849.000000,5819.000000,0.000000,21504.000000
7684.000000,7849.000000,5818.000000,0.000000,21504.000000
7686.000000,7851.000000,5818.000000,0.000000,21504.000000
7687.000000,7851.000000,5818.000000,0.000000,21504.000000
7688.000000,7851.000000,5818.000000,0.000000,21504.000000
7688.000000,7853.000000,5819.000000,0.000000,21504.000000
7689.000000,7855.000000,5821.000000,0.000000,21504.000000
7690.000000,7857.000000,5822.000000,0.000000,21504.000000
7690.000000,7853.000000,5819.000000,0.000000,21504.000000
7688.000000,7853.000000,5819.000000,0.000000,21504.000000
7687.000000,7851.000000,5819.000000,0.000000,21504.000000
7685.000000,7849.000000,5819.000000,0.000000,21504.000000
7684.000000,7849.000000,5819.000000,0.000000,21504.000000
7684.000000,7849.000000,5817.000000,0.000000,21504.000000
7684.000000,7849.000000,5817.000000,0.000000,21504.000000
7684.000000,7848.000000,5819.000000,0.000000,21504.000000
7685.000000,7848.000000,5818.000000,0.000000,21504.000000
7685.000000,7848.000000,5818.000000,0.000000,21504.000000
7685.000000,7848.000000,5818.000000,0.000000,21504.000000
7685.000000,7849.000000,5818.000000,0.000000,21504.000000
7686.000000,7849.000000,5817.000000,0.000000,21504.000000
7685.000000,7849.000000,5818.000000,0.000000,21504.000000
7686.000000,7848.000000,5817.000000,0.000000,21504.000000
7686.000000,7850.000000,5818.000000,1.000000,21504.000000
7687.000000,7851.000000,5818.000000,1.000000,21504.000000
7687.000000,7851.000000,5818.000000,1.000000,21504.000000
7687.000000,7851.000000,5818.000000,1.000000,21504.000000
7687.000000,7851.000000,5818.000000,1.000000,21504.000000
7687.000000,7851.000000,5816.000000,1.000000,21504.000000
7692.000000,7856.000000,5823.000000,1.000000,21504.000000
7696.000000,7859.000000,5826.000000,1.000000,21504.000000
7696.000000,7858.000000,5824.000000,1.000000,21504.000000
7693.000000,7854.000000,5822.000000,1.000000,21504.000000
7692.000000,7851.000000,5820.000000,1.000000,21504.000000
7692.000000,7852.000000,5821.000000,1.000000,21504.000000
7692.000000,7852.000000,5821.000000,1.000000,21504.000000
7690.000000,7851.000000,5820.000000,1.000000,21504.000000
7691.000000,7852.000000,5821.000000,1.000000,21504.000000
7690.000000,7851.000000,5819.000000,1.000000,21504.000000
7690.000000,7851.000000,5819.000000,1.000000,21504.000000
7686.000000,7850.000000,5819.000000,1.000000,21504.000000
7691.000000,7852.000000,5820.000000,1.000000,21504.000000
7691.000000,7852.000000,5819.000000,1.000000,21504.000000
7691.000000,7854.000000,5821.000000,1.000000,21504.000000
7693.000000,7854.000000,5821.000000,1.000000,21504.000000
7694.000000,7856.000000,5822.000000,1.000000,21504.000000
7694.000000,7857.000000,5823.000000,1.000000,21504.000000
7692.000000,7855.000000,5822.000000,1.000000,21504.000000
7692.000000,7853.000000,5820.000000,1.000000,21504.000000
7691.000000,7851.000000,5819.000000,1.000000,21504.000000
7690.000000,7849.000000,5818.000000,1.000000,21504.000000
7688.000000,7848.000000,5819.000000,1.000000,21504.000000
7688.000000,7845.000000,5816.000000,1.000000,21504.000000
7683.000000,7845.000000,5818.000000,1.000000,21504.000000
7687.000000,7846.000000,5818.000000,1.000000,21504.000000
7687.000000,7847.000000,5820.000000,1.000000,21504.000000
7687.000000,7847.000000,5820.000000,1.000000,21504.000000
7685.000000,7847.000000,5820.000000,1.000000,21504.000000
7685.000000,7847.000000,5819.000000,1.000000,21504.000000
7686.000000,7847.000000,5819.000000,1.000000,21504.000000
7688.000000,7847.000000,5819.000000,1.000000,21504.000000
7688.000000,7847.000000,5819.000000,1.000000,21504.000000
7688.000000,7847.000000,5818.000000,1.000000,21504.000000
7688.000000,7848.000000,5818.000000,1.000000,21504.000000
7689.000000,7849.000000,5818.000000,1.000000,21504.000000
7690.000000,7850.000000,5818.000000,1.000000,21504.000000
7689.000000,7849.000000,5818.000000,1.000000,21504.000000
7688.000000,7849.000000,5818.000000,1.000000,21504.000000
7677.000000,7841.000000,5814.000000,1.000000,21504.000000
7684.000000,7847.000000,5819.000000,1.000000,21504.000000
7684.000000,7845.000000,5819.000000,1.000000,21504.000000
7684.000000,7845.000000,5819.000000,1.000000,21504.000000
7684.000000,7844.000000,5819.000000,1.000000,21504.000000
7683.000000,7845.000000,5818.000000,1.000000,21504.000000
7681.000000,7843.000000,5818.000000,1.000000,21504.000000
7683.000000,7844.000000,5819.000000,1.000000,21504.000000
7682.000000,7843.000000,5818.000000,1.000000,21504.000000
7683.000000,7843.000000,5819.000000,1.000000,21504.000000
7680.000000,7841.000000,5817.000000,1.000000,21504.000000
7679.000000,7841.000000,5816.000000,1.000000,21504.000000
7679.000000,7840.000000,5815.000000,1.000000,21504.000000
7677.000000,7840.000000,5815.000000,1.000000,21504.000000
7682.000000,7843.000000,5817.000000,1.000000,21504.000000
7685.000000,7846.000000,5819.000000,1.000000,21504.000000
7686.000000,7846.000000,5818.000000,1.000000,21504.000000
7686.000000,7848.000000,5819.000000,1.000000,21504.000000
7687.000000,7847.000000,5818.000000,1.000000,21504.000000
7683.000000,7844.000000,5818.000000,1.000000,21504.000000
7680.000000,7840.000000,5815.000000,1.000000,21504.000000
7680.000000,7836.000000,5812.000000,1.000000,21504.000000
7676.000000,7836.000000,5812.000000,1.000000,21504.000000
7675.000000,7834.000000,5810.000000,1.000000,21504.000000
7676.000000,7835.000000,5811.000000,1.000000,21504.000000
7673.000000,7830.000000,5809.000000,1.000000,21504.000000
7675.000000,7830.000000,5808.000000,1.000000,21504.000000
7675.000000,7830.000000,5808.000000,1.000000,21504.000000
7667.000000,7824.000000,5803.000000,1.000000,21504.000000
7675.000000,7830.000000,5808.000000,1.000000,21504.000000
7675.000000,7832.000000,5809.000000,1.000000,21504.000000
7676.000000,7832.000000,5809.000000,1.000000,21504.000000
7677.000000,7832.000000,5809.000000,1.000000,21504.000000
7676.000000,7831.000000,5809.000000,1.000000,21504.000000
7678.000000,7835.000000,5811.000000,1.000000,21504.000000
7682.000000,7840.000000,5815.000000,1.000000,21504.000000
7683.000000,7840.000000,5814.000000,1.000000,21504.000000
7684.000000,7843.000000,5816.000000,1.000000,21504.000000
7682.000000,7841.000000,5814.000000,1.000000,21504.000000
7682.000000,7836.000000,5811.000000,1.000000,21504.000000
7678.000000,7836.000000,5808.000000,1.000000,21504.000000
7673.000000,7831.000000,5808.000000,1.000000,21504.000000
