14032.000000,14956.000000,10756.000000,0.000000,21504.000000
14032.000000,14956.000000,10756.000000,0.000000,21504.000000
14032.000000,14956.000000,10756.000000,0.000000,21504.000000
14034.000000,14953.000000,10756.000000,0.000000,21504.000000
14032.000000,14957.000000,10756.000000,0.000000,21504.000000
14032.000000,14957.000000,10756.000000,0.000000,21504.000000
14032.000000,14957.000000,10756.000000,0.000000,21504.000000
14031.000000,14957.000000,10756.000000,0.000000,21504.000000
14032.000000,14956.000000,10756.000000,0.000000,21504.000000
14032.000000,14957.000000,10756.000000,0.000000,21504.000000
14031.000000,14958.000000,10756.000000,0.000000,21504.000000
14031.000000,14958.000000,10756.000000,0.000000,21504.000000
14029.000000,14962.000000,10756.000000,0.000000,21504.000000
14030.000000,14961.000000,10756.000000,0.000000,21504.000000
14029.000000,14962.000000,10756.000000,0.000000,21504.000000
14029.000000,14963.000000,10756.000000,0.000000,21504.000000
14029.000000,14963.000000,10756.000000,0.000000,21504.000000
14029.000000,14961.000000,10756.000000,0.000000,21504.000000
14029.000000,14962.000000,10756.000000,0.000000,21504.000000
14029.000000,14963.000000,10756.000000,0.000000,21504.000000
14029.000000,14963.000000,10756.000000,0.000000,21504.000000
14029.000000,14963.000000,10756.000000,0.000000,21504.000000
14030.000000,14961.000000,10756.000000,0.000000,21504.000000
14029.000000,14963.000000,10756.000000,0.000000,21504.000000
14028.000000,14964.000000,10756.000000,0.000000,21504.000000
14028.000000,14964.000000,10756.000000,0.000000,21504.000000
14028.000000,14964.000000,10756.000000,0.000000,21504.000000
14029.000000,14963.000000,10756.000000,0.000000,21504.000000
14028.000000,14965.000000,10756.000000,0.000000,21504.000000
14027.000000,14966.000000,10756.000000,0.000000,21504.000000
14028.000000,14964.000000,10756.000000,0.000000,21504.000000
14026.000000,14968.000000,10756.000000,0.000000,21504.000000
14027.000000,14966.000000,10756.000000,0.000000,21504.000000
14027.000000,14966.000000,10756.000000,0.000000,21504.000000
14027.000000,14965.000000,10756.000000,0.000000,21504.000000
14028.000000,14965.000000,10756.000000,0.000000,21504.000000
14027.000000,14966.000000,10756.000000,0.000000,21504.000000
14026.000000,14968.000000,10756.000000,0.000000,21504.000000
14027.000000,14965.000000,10756.000000,0.000000,21504.000000
14027.000000,14966.000000,10756.000000,0.000000,21504.000000
14026.000000,14968.000000,10756.000000,0.000000,21504.000000
14026.000000,14969.000000,10756.000000,0.000000,21504.000000
14025.000000,14970.000000,10756.000000,0.000000,21504.000000
14025.000000,14970.000000,10756.000000,0.000000,21504.000000
14025.000000,14970.000000,10756.000000,0.000000,21504.000000
14025.000000,14969.000000,10756.000000,0.000000,21504.000000
14025.000000,14970.000000,10756.000000,0.000000,21504.000000
14026.000000,14972.000000,10756.000000,0.000000,21504.000000
14025.000000,14971.000000,10756.000000,0.000000,21504.000000
14026.000000,14972.000000,10756.000000,0.000000,21504.000000
14024.000000,14974.000000,10756.000000,0.000000,21504.000000
14024.000000,14973.000000,10756.000000,0.000000,21504.000000
14023.000000,14976.000000,10756.000000,0.000000,21504.000000
14023.000000,14976.000000,10756.000000,0.000000,21504.000000
14024.000000,14974.000000,10756.000000,0.000000,21504.000000
14024.000000,14977.000000,10756.000000,0.000000,21504.000000
14023.000000,14976.000000,10756.000000,1.000000,21504.000000
14024.000000,14976.000000,10756.000000,1.000000,21504.000000
14025.000000,14977.000000,10756.000000,1.000000,21504.000000
14024.000000,14976.000000,10756.000000,1.000000,21504.000000
14023.000000,14979.000000,10756.000000,1.000000,21504.000000
14023.000000,14978.000000,10756.000000,1.000000,21504.000000
14023.000000,14978.000000,10756.000000,1.000000,21504.000000
14024.000000,14974.000000,10756.000000,1.000000,21504.000000
14024.000000,14973.000000,10756.000000,1.000000,21504.000000
14025.000000,14973.000000,10756.000000,1.000000,21504.000000
14024.000000,14974.000000,10756.000000,1.000000,21504.000000
14022.000000,14979.000000,10756.000000,1.000000,21504.000000
14024.000000,14978.000000,10756.000000,1.000000,21504.000000
14021.000000,14981.000000,10756.000000,1.000000,21504.000000
14023.000000,14978.000000,10756.000000,1.000000,21504.000000
14022.000000,14978.000000,10756.000000,1.000000,21504.000000
14022.000000,14980.000000,10756.000000,1.000000,21504.000000
14022.000000,14981.000000,10756.000000,1.000000,21504.000000
14022.000000,14981.000000,10756.000000,1.000000,21504.000000
14020.000000,14982.000000,10756.000000,1.000000,21504.000000
14020.000000,14982.000000,10756.000000,1.000000,21504.000000
14020.000000,14986.000000,10756.000000,1.000000,21504.000000
14019.000000,14985.000000,10756.000000,1.000000,21504.000000
14020.000000,14982.000000,10756.000000,1.000000,21504.000000
14021.000000,14982.000000,10756.000000,1.000000,21504.000000
14019.000000,14984.000000,10756.000000,1.000000,21504.000000
14019.000000,14983.000000,10756.000000,1.000000,21504.000000
14019.000000,14983.000000,10756.000000,1.000000,21504.000000
14020.000000,14986.000000,10756.000000,1.000000,21504.000000
14019.000000,14984.000000,10756.000000,1.000000,21504.000000
14020.000000,14985.000000,10756.000000,1.000000,21504.000000
14019.000000,14985.000000,10756.000000,1.000000,21504.000000
14020.000000,14985.000000,10756.000000,1.000000,21504.000000
14018.000000,14987.000000,10756.000000,1.000000,21504.000000
14017.000000,14989.000000,10756.000000,1.000000,21504.000000
14019.000000,14985.000000,10756.000000,1.000000,21504.000000
14019.000000,14985.000000,10756.000000,1.000000,21504.000000
14019.000000,14990.000000,10756.000000,1.000000,21504.000000
14019.000000,14983.000000,10756.000000,1.000000,21504.000000
14019.000000,14988.000000,10756.000000,1.000000,21504.000000
14018.000000,14986.000000,10756.000000,1.000000,21504.000000
14016.000000,14990.000000,10756.000000,1.000000,21504.000000
14016.000000,14993.000000,10756.000000,1.000000,21504.000000
14016.000000,14993.000000,10756.000000,1.000000,21504.000000
14019.000000,14989.000000,10756.000000,1.000000,21504.000000
14019.000000,14992.000000,10756.000000,1.000000,21504.000000
14018.000000,14992.000000,10756.000000,1.000000,21504.000000
14017.000000,14990.000000,10756.000000,1.000000,21504.000000
14016.000000,14994.000000,10756.000000,1.000000,21504.000000
14015.000000,14995.000000,10756.000000,1.000000,21504.000000
14016.000000,14990.000000,10756.000000,1.000000,21504.000000
14016.000000,14992.000000,10756.000000,1.000000,21504.000000
14018.000000,14991.000000,10756.000000,1.000000,21504.000000
14014.000000,14993.000000,10756.000000,1.000000,21504.000000
14014.000000,14996.000000,10756.000000,1.000000,21504.000000
14016.000000,14996.000000,10756.000000,1.000000,21504.000000
14014.000000,14995.000000,10756.000000,1.000000,21504.000000
14015.000000,14994.000000,10756.000000,1.000000,21504.000000
14015.000000,14995.000000,10756.000000,1.000000,21504.000000
14015.000000,14996.000000,10756.000000,1.000000,21504.000000
14014.000000,14996.000000,10756.000000,1.000000,21504.000000
14017.000000,14987.000000,10756.000000,1.000000,21504.000000
14019.000000,14984.000000,10756.000000,1.000000,21504.000000
14018.000000,14984.000000,10756.000000,1.000000,21504.000000
14018.000000,14984.000000,10756.000000,1.000000,21504.000000
14019.000000,14983.000000,10756.000000,1.000000,21504.000000
14019.000000,14981.000000,10756.000000,1.000000,21504.000000
14018.000000,14985.000000,10756.000000,1.000000,21504.000000
14017.000000,14986.000000,10756.000000,1.000000,21504.000000
14018.000000,14983.000000,10756.000000,1.000000,21504.000000
14019.000000,14982.000000,10756.000000,1.000000,21504.000000
14019.000000,14985.000000,10756.000000,1.000000,21504.000000
14018.000000,14985.000000,10756.000000,1.000000,21504.000000
14018.000000,14986.000000,10756.000000,1.000000,21504.000000
14018.000000,14986.000000,10756.000000,1.000000,21504.000000
14017.000000,14986.000000,10756.000000,1.000000,21504.000000
14018.000000,14986.000000,10756.000000,1.000000,21504.000000
14019.000000,14986.000000,10756.000000,1.000000,21504.000000
14017.000000,14990.000000,10756.000000,1.000000,21504.000000
14018.000000,14985.000000,10756.000000,1.000000,21504.000000
14016.000000,14989.000000,10756.000000,1.000000,21504.000000
14016.000000,14988.000000,10756.000000,1.000000,21504.000000
14016.000000,14988.000000,10756.000000,1.000000,21504.000000
14016.000000,14988.000000,10756.000000,1.000000,21504.000000
14016.000000,14989.000000,10756.000000,1.000000,21504.000000
14016.000000,14988.000000,10756.000000,1.000000,21504.000000
14016.000000,14989.000000,10756.000000,1.000000,21504.000000
14017.000000,14988.000000,10756.000000,1.000000,21504.000000
14017.000000,14988.000000,10756.000000,1.000000,21504.000000
14016.000000,14989.000000,10756.000000,1.000000,21504.000000
14015.000000,14992.000000,10756.000000,1.000000,21504.000000
14015.000000,14995.000000,10756.000000,1.000000,21504.000000
14015.000000,14995.000000,10756.000000,1.000000,21504.000000
14016.000000,14990.000000,10756.000000,1.000000,21504.000000
14015.000000,14990.000000,10756.000000,1.000000,21504.000000
14016.000000,14989.000000,10756.000000,1.000000,21504.000000
14015.000000,14993.000000,10756.000000,1.000000,21504.000000
14015.000000,14992.000000,10756.000000,1.000000,21504.000000
14015.000000,14991.000000,10756.000000,1.000000,21504.000000
14015.000000,14991.000000,10756.000000,1.000000,21504.000000
14015.000000,14992.000000,10756.000000,1.000000,21504.000000
14015.000000,14992.000000,10756.000000,1.000000,21504.000000
14014.000000,14992.000000,10756.000000,1.000000,21504.000000
14014.000000,14993.000000,10756.000000,1.000000,21504.000000
14015.000000,14991.000000,10756.000000,1.000000,21504.000000
14014.000000,14993.000000,10756.000000,1.000000,21504.000000
14015.000000,14992.000000,10756.000000,1.000000,21504.000000
14015.000000,14992.000000,10756.000000,1.000000,21504.000000
14015.000000,14990.000000,10756.000000,1.000000,21504.000000
14015.000000,14993.000000,10756.000000,1.000000,21504.000000
14015.000000,14991.000000,10756.000000,1.000000,21504.000000
14015.000000,14991.000000,10756.000000,1.000000,21504.000000
14012.000000,14997.000000,10756.000000,1.000000,21504.000000
14014.000000,14994.000000,10756.000000,1.000000,21504.000000
14013.000000,14995.000000,10756.000000,1.000000,21504.000000
14013.000000,14995.000000,10756.000000,1.000000,21504.000000
14012.000000,14997.000000,10756.000000,1.000000,21504.000000
14012.000000,14997.000000,10756.000000,1.000000,21504.000000
14013.000000,14995.000000,10756.000000,1.000000,21504.000000
14013.000000,15001.000000,10756.000000,1.000000,21504.000000
14010.000000,14997.000000,10756.000000,0.000000,21504.000000
14014.000000,14997.000000,10756.000000,0.000000,21504.000000
14013.000000,14997.000000,10756.000000,0.000000,21504.000000
14014.000000,14997.000000,10756.000000,0.000000,21504.000000
14012.000000,14998.000000,10756.000000,0.000000,21504.000000
14014.000000,14995.000000,10756.000000,0.000000,21504.000000
14013.000000,14998.000000,10756.000000,0.000000,21504.000000
14012.000000,14998.000000,10756.000000,0.000000,21504.000000
14013.000000,14998.000000,10756.000000,0.000000,21504.000000
14014.000000,14997.000000,10756.000000,0.000000,21504.000000
14014.000000,14995.000000,10756.000000,0.000000,21504.000000
14014.000000,14995.000000,10756.000000,0.000000,21504.000000
14013.000000,14998.000000,10756.000000,0.000000,21504.000000
14013.000000,14997.000000,10756.000000,0.000000,21504.000000
14012.000000,14998.000000,10756.000000,0.000000,21504.000000
14013.000000,14996.000000,10756.000000,0.000000,21504.000000
14012.000000,14999.000000,10756.000000,0.000000,21504.000000
14012.000000,14997.000000,10756.000000,0.000000,21504.000000
14012.000000,14997.000000,10756.000000,0.000000,21504.000000
14012.000000,14998.000000,10756.000000,0.000000,21504.000000
14011.000000,14998.000000,10756.000000,0.000000,21504.000000
14011.000000,14997.000000,10756.000000,0.000000,21504.000000
14012.000000,14997.000000,10756.000000,0.000000,21504.000000
14012.000000,14999.000000,10756.000000,0.000000,21504.000000
14012.000000,14999.000000,10756.000000,0.000000,21504.000000
14011.000000,14998.000000,10756.000000,0.000000,21504.000000
14012.000000,14998.000000,10756.000000,0.000000,21504.000000
14013.000000,14999.000000,10756.000000,0.000000,21504.000000
14013.000000,14999.000000,10756.000000,0.000000,21504.000000
14014.000000,14999.000000,10756.000000,0.000000,21504.000000
14013.000000,14998.000000,10756.000000,0.000000,21504.000000
14012.000000,15001.000000,10756.000000,0.000000,21504.000000
14010.000000,15001.000000,10756.000000,0.000000,21504.000000
14009.000000,15002.000000,10756.000000,0.000000,21504.000000
14009.000000,15002.000000,10756.000000,0.000000,21504.000000
14009.000000,15003.000000,10756.000000,0.000000,21504.000000
14012.000000,14998.000000,10756.000000,0.000000,21504.000000
14012.000000,14999.000000,10756.000000,0.000000,21504.000000
14012.000000,14999.000000,10756.000000,0.000000,21504.000000
14011.000000,15004.000000,10756.000000,0.000000,21504.000000
14009.000000,15003.000000,10756.000000,0.000000,21504.000000
14010.000000,15002.000000,10756.000000,0.000000,21504.000000
14011.000000,15001.000000,10756.000000,0.000000,21504.000000
14009.000000,15004.000000,10756.000000,0.000000,21504.000000
14012.000000,15001.000000,10756.000000,0.000000,21504.000000
14011.000000,15003.000000,10756.000000,0.000000,21504.000000
14010.000000,15002.000000,10756.000000,0.000000,21504.000000
14010.000000,14998.000000,10756.000000,0.000000,21504.000000
14012.000000,14998.000000,10756.000000,0.000000,21504.000000
14013.000000,15000.000000,10756.000000,0.000000,21504.000000
14012.000000,15003.000000,10756.000000,0.000000,21504.000000
14017.000000,15006.000000,10756.000000,0.000000,21504.000000
14014.000000,15005.000000,10756.000000,0.000000,21504.000000
14015.000000,15005.000000,10756.000000,0.000000,21504.000000
14014.000000,15005.000000,10756.000000,0.000000,21504.000000
14014.000000,15005.000000,10756.000000,0.000000,21504.000000
14014.000000,15006.000000,10756.000000,0.000000,21504.000000
14013.000000,15006.000000,10756.000000,0.000000,21504.000000
14015.000000,15006.000000,10756.000000,0.000000,21504.000000
14015.000000,15004.000000,10756.000000,0.000000,21504.000000
14014.000000,15006.000000,10756.000000,0.000000,21504.000000
14014.000000,15006.000000,10756.000000,0.000000,21504.000000
14012.000000,15005.000000,10756.000000,0.000000,21504.000000
14014.000000,15004.000000,10756.000000,0.000000,21504.000000
14014.000000,15006.000000,10756.000000,0.000000,21504.000000
14014.000000,15008.000000,10756.000000,0.000000,21504.000000
14013.000000,15008.000000,10756.000000,0.000000,21504.000000
14013.000000,15004.000000,10756.000000,0.000000,21504.000000
14014.000000,15004.000000,10756.000000,0.000000,21504.000000
14015.000000,15002.000000,10756.000000,0.000000,21504.000000
14017.000000,15007.000000,10756.000000,0.000000,21504.000000
14016.000000,15003.000000,10756.000000,0.000000,21504.000000
14015.000000,15003.000000,10756.000000,0.000000,21504.000000
14016.000000,15005.000000,10756.000000,0.000000,21504.000000
14014.000000,15006.000000,10756.000000,0.000000,21504.000000
14014.000000,15006.000000,10756.000000,0.000000,21504.000000
14015.000000,15005.000000,10756.000000,0.000000,21504.000000
14018.000000,15007.000000,10756.000000,0.000000,21504.000000
14016.000000,15003.000000,10756.000000,0.000000,21504.000000
14014.000000,15004.000000,10756.000000,0.000000,21504.000000
14018.000000,15007.000000,10756.000000,0.000000,21504.000000
14014.000000,15002.000000,10756.000000,0.000000,21504.000000
14014.000000,15001.000000,10756.000000,0.000000,21504.000000
14013.000000,15005.000000,10756.000000,0.000000,21504.000000
14013.000000,15005.000000,10756.000000,0.000000,21504.000000
14012.000000,15006.000000,10756.000000,0.000000,21504.000000
14014.000000,15005.000000,10756.000000,0.000000,21504.000000
14012.000000,15006.000000,10756.000000,0.000000,21504.000000
14013.000000,15003.000000,10756.000000,0.000000,21504.000000
14014.000000,15006.000000,10756.000000,0.000000,21504.000000
14012.000000,15008.000000,10756.000000,0.000000,21504.000000
14013.000000,15003.000000,10756.000000,0.000000,21504.000000
14014.000000,15007.000000,10756.000000,0.000000,21504.000000
14014.000000,15005.000000,10756.000000,0.000000,21504.000000
14013.000000,15005.000000,10756.000000,0.000000,21504.000000
14013.000000,15005.000000,10756.000000,0.000000,21504.000000
14012.000000,15008.000000,10756.000000,0.000000,21504.000000
14014.000000,15002.000000,10756.000000,0.000000,21504.000000
14013.000000,15009.000000,10756.000000,0.000000,21504.000000
14012.000000,15012.000000,10756.000000,0.000000,21504.000000
14014.000000,15010.000000,10756.000000,0.000000,21504.000000
14011.000000,15010.000000,10756.000000,0.000000,21504.000000
14011.000000,15011.000000,10756.000000,0.000000,21504.000000
14012.000000,15011.000000,10756.000000,0.000000,21504.000000
14009.000000,15009.000000,10756.000000,0.000000,21504.000000
14011.000000,15008.000000,10756.000000,0.000000,21504.000000
14011.000000,15010.000000,10756.000000,0.000000,21504.000000
14013.000000,15011.000000,10756.000000,0.000000,21504.000000
14015.000000,15007.000000,10756.000000,0.000000,21504.000000
14013.000000,15009.000000,10756.000000,0.000000,21504.000000
14019.000000,15013.000000,10756.000000,0.000000,21504.000000
14013.000000,15009.000000,10756.000000,0.000000,21504.000000
14013.000000,15009.000000,10756.000000,0.000000,21504.000000
14012.000000,15005.000000,10756.000000,0.000000,21504.000000
14014.000000,15008.000000,10756.000000,0.000000,21504.000000
14011.000000,15005.000000,10756.000000,0.000000,21504.000000
14012.000000,15007.000000,10756.000000,0.000000,21504.000000
14011.000000,15004.000000,10756.000000,0.000000,21504.000000
14012.000000,15004.000000,10756.000000,0.000000,21504.000000
14014.000000,14999.000000,10756.000000,0.000000,21504.000000
14011.000000,15002.000000,10756.000000,1.000000,21504.000000
14011.000000,15002.000000,10756.000000,1.000000,21504.000000
14012.000000,15003.000000,10756.000000,1.000000,21504.000000
14012.000000,15003.000000,10756.000000,1.000000,21504.000000
14014.000000,15003.000000,10756.000000,1.000000,21504.000000
14013.000000,15006.000000,10756.000000,1.000000,21504.000000
14010.000000,15007.000000,10756.000000,1.000000,21504.000000
14014.000000,15009.000000,10756.000000,1.000000,21504.000000
14010.000000,15004.000000,10756.000000,1.000000,21504.000000
14012.000000,15002.000000,10756.000000,1.000000,21504.000000
14011.000000,15003.000000,10756.000000,1.000000,21504.000000
14013.000000,15002.000000,10756.000000,1.000000,21504.000000
14013.000000,15000.000000,10756.000000,1.000000,21504.000000
14012.000000,15000.000000,10756.000000,1.000000,21504.000000
14010.000000,15002.000000,10756.000000,1.000000,21504.000000
14010.000000,15001.000000,10756.000000,1.000000,21504.000000
14009.000000,15003.000000,10756.000000,1.000000,21504.000000
14009.000000,15004.000000,10756.000000,1.000000,21504.000000
14008.000000,15005.000000,10756.000000,1.000000,21504.000000
14008.000000,15004.000000,10756.000000,1.000000,21504.000000
14010.000000,15002.000000,10756.000000,1.000000,21504.000000
14010.000000,15004.000000,10756.000000,1.000000,21504.000000
14008.000000,15004.000000,10756.000000,1.000000,21504.000000
14008.000000,15005.000000,10756.000000,1.000000,21504.000000
14008.000000,15005.000000,10756.000000,1.000000,21504.000000
14008.000000,15004.000000,10756.000000,1.000000,21504.000000
14008.000000,15006.000000,10756.000000,1.000000,21504.000000
14007.000000,15006.000000,10756.000000,1.000000,21504.000000
14008.000000,15004.000000,10756.000000,1.000000,21504.000000
14009.000000,15004.000000,10756.000000,1.000000,21504.000000
14009.000000,15003.000000,10756.000000,1.000000,21504.000000
14009.000000,15003.000000,10756.000000,1.000000,21504.000000
14008.000000,15005.000000,10756.000000,1.000000,21504.000000
14009.000000,15003.000000,10756.000000,1.000000,21504.000000
14008.000000,15004.000000,10756.000000,1.000000,21504.000000
14008.000000,15005.000000,10756.000000,1.000000,21504.000000
14008.000000,15005.000000,10756.000000,1.000000,21504.000000
14009.000000,15004.000000,10756.000000,1.000000,21504.000000
14009.000000,15003.000000,10756.000000,1.000000,21504.000000
14008.000000,15004.000000,10756.000000,1.000000,21504.000000
14008.000000,15002.000000,10756.000000,1.000000,21504.000000
14009.000000,15002.000000,10756.000000,1.000000,21504.000000
14009.000000,15003.000000,10756.000000,1.000000,21504.000000
14009.000000,15003.000000,10756.000000,1.000000,21504.000000
14009.000000,15004.000000,10756.000000,1.000000,21504.000000
14008.000000,15003.000000,10756.000000,1.000000,21504.000000
14008.000000,15004.000000,10756.000000,1.000000,21504.000000
14007.000000,15006.000000,10756.000000,1.000000,21504.000000
14009.000000,15002.000000,10756.000000,1.000000,21504.000000
14009.000000,15002.000000,10756.000000,1.000000,21504.000000
14009.000000,15002.000000,10756.000000,1.000000,21504.000000
14010.000000,15001.000000,10756.000000,1.000000,21504.000000
14007.000000,15006.000000,10756.000000,1.000000,21504.000000
14009.000000,15003.000000,10756.000000,1.000000,21504.000000
14010.000000,15001.000000,10756.000000,1.000000,21504.000000
14010.000000,15002.000000,10756.000000,1.000000,21504.000000
14009.000000,15003.000000,10756.000000,1.000000,21504.000000
14009.000000,15003.000000,10756.000000,1.000000,21504.000000
14009.000000,15004.000000,10756.000000,1.000000,21504.000000
14009.000000,15004.000000,10756.000000,1.000000,21504.000000
14009.000000,15004.000000,10756.000000,1.000000,21504.000000
14009.000000,15002.000000,10756.000000,1.000000,21504.000000
14008.000000,15004.000000,10756.000000,1.000000,21504.000000
14008.000000,15004.000000,10756.000000,1.000000,21504.000000
14008.000000,15005.000000,10756.000000,1.000000,21504.000000
14009.000000,15002.000000,10756.000000,1.000000,21504.000000
14008.000000,15004.000000,10756.000000,1.000000,21504.000000
14008.000000,15005.000000,10756.000000,1.000000,21504.000000
14008.000000,15005.000000,10756.000000,1.000000,21504.000000
14008.000000,15005.000000,10756.000000,1.000000,21504.000000
14008.000000,15005.000000,10756.000000,1.000000,21504.000000
14008.000000,15004.000000,10756.000000,1.000000,21504.000000
14008.000000,15003.000000,10756.000000,1.000000,21504.000000
14008.000000,15004.000000,10756.000000,1.000000,21504.000000
14007.000000,15007.000000,10756.000000,1.000000,21504.000000
14008.000000,15005.000000,10756.000000,1.000000,21504.000000
14008.000000,15004.000000,10756.000000,1.000000,21504.000000
14008.000000,15003.000000,10756.000000,1.000000,21504.000000
14009.000000,15003.000000,10756.000000,1.000000,21504.000000
14007.000000,15006.000000,10756.000000,1.000000,21504.000000
14007.000000,15007.000000,10756.000000,1.000000,21504.000000
14008.000000,15005.000000,10756.000000,1.000000,21504.000000
14007.000000,15006.000000,10756.000000,1.000000,21504.000000
14008.000000,15005.000000,10756.000000,1.000000,21504.000000
14006.000000,15008.000000,10756.000000,1.000000,21504.000000
14006.000000,15009.000000,10756.000000,1.000000,21504.000000
14006.000000,15008.000000,10756.000000,1.000000,21504.000000
14006.000000,15008.000000,10756.000000,1.000000,21504.000000
14006.000000,15008.000000,10756.000000,1.000000,21504.000000
14006.000000,15008.000000,10756.000000,1.000000,21504.000000
14007.000000,15007.000000,10756.000000,1.000000,21504.000000
14008.000000,15006.000000,10756.000000,1.000000,21504.000000
14007.000000,15007.000000,10756.000000,1.000000,21504.000000
14007.000000,15006.000000,10756.000000,1.000000,21504.000000
14005.000000,15010.000000,10756.000000,1.000000,21504.000000
14005.000000,15007.000000,10756.000000,1.000000,21504.000000
14007.000000,15007.000000,10756.000000,1.000000,21504.000000
14006.000000,15007.000000,10756.000000,1.000000,21504.000000
14006.000000,15008.000000,10756.000000,1.000000,21504.000000
14006.000000,15009.000000,10756.000000,1.000000,21504.000000
14006.000000,15009.000000,10756.000000,1.000000,21504.000000
14006.000000,15008.000000,10756.000000,1.000000,21504.000000
14006.000000,15009.000000,10756.000000,1.000000,21504.000000
14006.000000,15009.000000,10756.000000,1.000000,21504.000000
14006.000000,15009.000000,10756.000000,1.000000,21504.000000
14006.000000,15009.000000,10756.000000,1.000000,21504.000000
14005.000000,15010.000000,10756.000000,1.000000,21504.000000
14005.000000,15009.000000,10756.000000,1.000000,21504.000000
14005.000000,15010.000000,10756.000000,1.000000,21504.000000
14005.000000,15011.000000,10756.000000,1.000000,21504.000000
14005.000000,15010.000000,10756.000000,1.000000,21504.000000
14005.000000,15009.000000,10756.000000,1.000000,21504.000000
14006.000000,15008.000000,10756.000000,1.000000,21504.000000
14005.000000,15010.000000,10756.000000,1.000000,21504.000000
14005.000000,15011.000000,10756.000000,1.000000,21504.000000
14005.000000,15011.000000,10756.000000,1.000000,21504.000000
14006.000000,15008.000000,10756.000000,1.000000,21504.000000
14007.000000,15005.000000,10756.000000,1.000000,21504.000000
14008.000000,15005.000000,10756.000000,1.000000,21504.000000
14005.000000,15012.000000,10756.000000,1.000000,21504.000000
14006.000000,15008.000000,10756.000000,0.000000,21504.000000
14006.000000,15008.000000,10756.000000,0.000000,21504.000000
14007.000000,15008.000000,10756.000000,0.000000,21504.000000
14008.000000,15005.000000,10756.000000,0.000000,21504.000000
14008.000000,15006.000000,10756.000000,0.000000,21504.000000
14008.000000,15006.000000,10756.000000,0.000000,21504.000000
14006.000000,15009.000000,10756.000000,0.000000,21504.000000
14007.000000,15006.000000,10756.000000,0.000000,21504.000000
14007.000000,15006.000000,10756.000000,0.000000,21504.000000
14007.000000,15009.000000,10756.000000,0.000000,21504.000000
14008.000000,15006.000000,10756.000000,0.000000,21504.000000
14007.000000,15007.000000,10756.000000,0.000000,21504.000000
14005.000000,15009.000000,10756.000000,0.000000,21504.000000
14007.000000,15007.000000,10756.000000,0.000000,21504.000000
14007.000000,15007.000000,10756.000000,0.000000,21504.000000
14007.000000,15007.000000,10756.000000,0.000000,21504.000000
14005.000000,15010.000000,10756.000000,0.000000,21504.000000
14007.000000,15007.000000,10756.000000,0.000000,21504.000000
14007.000000,15007.000000,10756.000000,0.000000,21504.000000
14007.000000,15007.000000,10756.000000,0.000000,21504.000000
14006.000000,15008.000000,10756.000000,0.000000,21504.000000
14007.000000,15006.000000,10756.000000,0.000000,21504.000000
14008.000000,15008.000000,10756.000000,0.000000,21504.000000
14008.000000,15009.000000,10756.000000,0.000000,21504.000000
14007.000000,15009.000000,10756.000000,0.000000,21504.000000
14007.000000,15006.000000,10756.000000,0.000000,21504.000000
14008.000000,15007.000000,10756.000000,0.000000,21504.000000
14007.000000,15008.000000,10756.000000,0.000000,21504.000000
14007.000000,15007.000000,10756.000000,0.000000,21504.000000
14006.000000,15010.000000,10756.000000,0.000000,21504.000000
14006.000000,15009.000000,10756.000000,0.000000,21504.000000
14006.000000,15009.000000,10756.000000,0.000000,21504.000000
14006.000000,15010.000000,10756.000000,0.000000,21504.000000
14005.000000,15010.000000,10756.000000,0.000000,21504.000000
14006.000000,15008.000000,10756.000000,0.000000,21504.000000
14005.000000,15010.000000,10756.000000,0.000000,21504.000000
14004.000000,15012.000000,10756.000000,0.000000,21504.000000
14007.000000,15008.000000,10756.000000,0.000000,21504.000000
14005.000000,15010.000000,10756.000000,0.000000,21504.000000
14005.000000,15010.000000,10756.000000,0.000000,21504.000000
14005.000000,15012.000000,10756.000000,0.000000,21504.000000
14006.000000,15010.000000,10756.000000,0.000000,21504.000000
14006.000000,15010.000000,10756.000000,0.000000,21504.000000
14005.000000,15011.000000,10756.000000,0.000000,21504.000000
14005.000000,15011.000000,10756.000000,0.000000,21504.000000
14004.000000,15012.000000,10756.000000,0.000000,21504.000000
14004.000000,15013.000000,10756.000000,0.000000,21504.000000
14006.000000,15010.000000,10756.000000,0.000000,21504.000000
14005.000000,15012.000000,10756.000000,0.000000,21504.000000
14005.000000,15011.000000,10756.000000,0.000000,21504.000000
14005.000000,15011.000000,10756.000000,0.000000,21504.000000
14005.000000,15010.000000,10756.000000,0.000000,21504.000000
14006.000000,15010.000000,10756.000000,0.000000,21504.000000
14006.000000,15011.000000,10756.000000,0.000000,21504.000000
14004.000000,15013.000000,10756.000000,0.000000,21504.000000
14006.000000,15010.000000,10756.000000,0.000000,21504.000000
14004.000000,15012.000000,10756.000000,0.000000,21504.000000
14005.000000,15011.000000,10756.000000,0.000000,21504.000000
14004.000000,15012.000000,10756.000000,0.000000,21504.000000
14004.000000,15012.000000,10756.000000,0.000000,21504.000000
14005.000000,15012.000000,10756.000000,0.000000,21504.000000
14004.000000,15012.000000,10756.000000,0.000000,21504.000000
14005.000000,15010.000000,10756.000000,0.000000,21504.000000
14005.000000,15010.000000,10756.000000,0.000000,21504.000000
14005.000000,15010.000000,10756.000000,0.000000,21504.000000
14007.000000,15008.000000,10756.000000,0.000000,21504.000000
14005.000000,15012.000000,10756.000000,0.000000,21504.000000
14006.000000,15008.000000,10756.000000,0.000000,21504.000000
14006.000000,15010.000000,10756.000000,0.000000,21504.000000
14007.000000,15008.000000,10756.000000,0.000000,21504.000000
14007.000000,15005.000000,10756.000000,0.000000,21504.000000
14005.000000,15011.000000,10756.000000,0.000000,21504.000000
14005.000000,15014.000000,10756.000000,0.000000,21504.000000
14005.000000,15014.000000,10756.000000,0.000000,21504.000000
14003.000000,15015.000000,10756.000000,0.000000,21504.000000
14001.000000,15017.000000,10756.000000,0.000000,21504.000000
14002.000000,15015.000000,10756.000000,0.000000,21504.000000
14005.000000,15010.000000,10756.000000,0.000000,21504.000000
14005.000000,15012.000000,10756.000000,0.000000,21504.000000
14006.000000,15007.000000,10756.000000,0.000000,21504.000000
14007.000000,15007.000000,10756.000000,0.000000,21504.000000
14005.000000,15011.000000,10756.000000,0.000000,21504.000000
14005.000000,15010.000000,10756.000000,0.000000,21504.000000
14006.000000,15010.000000,10756.000000,0.000000,21504.000000
14006.000000,15010.000000,10756.000000,0.000000,21504.000000
14005.000000,15011.000000,10756.000000,0.000000,21504.000000
14005.000000,15013.000000,10756.000000,0.000000,21504.000000
14005.000000,15011.000000,10756.000000,0.000000,21504.000000
14004.000000,15013.000000,10756.000000,0.000000,21504.000000
14004.000000,15013.000000,10756.000000,0.000000,21504.000000
14005.000000,15011.000000,10756.000000,0.000000,21504.000000
14005.000000,15010.000000,10756.000000,0.000000,21504.000000
14005.000000,15010.000000,10756.000000,0.000000,21504.000000
14007.000000,15007.000000,10756.000000,0.000000,21504.000000
14006.000000,15010.000000,10756.000000,0.000000,21504.000000
14006.000000,15009.000000,10756.000000,0.000000,21504.000000
14004.000000,15012.000000,10756.000000,0.000000,21504.000000
14005.000000,15011.000000,10756.000000,0.000000,21504.000000
14007.000000,15007.000000,10756.000000,0.000000,21504.000000
14003.000000,15015.000000,10756.000000,0.000000,21504.000000
14003.000000,15015.000000,10756.000000,0.000000,21504.000000
14003.000000,15015.000000,10756.000000,0.000000,21504.000000
14005.000000,15011.000000,10756.000000,0.000000,21504.000000
14006.000000,15009.000000,10756.000000,0.000000,21504.000000
14005.000000,15013.000000,10756.000000,0.000000,21504.000000
14004.000000,15012.000000,10756.000000,0.000000,21504.000000
14005.000000,15011.000000,10756.000000,0.000000,21504.000000
14004.000000,15012.000000,10756.000000,0.000000,21504.000000
14005.000000,15011.000000,10756.000000,0.000000,21504.000000
14004.000000,15012.000000,10756.000000,0.000000,21504.000000
14004.000000,15012.000000,10756.000000,0.000000,21504.000000
14004.000000,15012.000000,10756.000000,0.000000,21504.000000
14004.000000,15013.000000,10756.000000,0.000000,21504.000000
14005.000000,15012.000000,10756.000000,0.000000,21504.000000
14003.000000,15013.000000,10756.000000,0.000000,21504.000000
14002.000000,15016.000000,10756.000000,0.000000,21504.000000
14002.000000,15016.000000,10756.000000,0.000000,21504.000000
14003.000000,15015.000000,10756.000000,0.000000,21504.000000
14002.000000,15016.000000,10756.000000,0.000000,21504.000000
14002.000000,15014.000000,10756.000000,0.000000,21504.000000
14001.000000,15018.000000,10756.000000,1.000000,21504.000000
14001.000000,15012.000000,10756.000000,1.000000,21504.000000
14005.000000,15012.000000,10756.000000,1.000000,21504.000000
14004.000000,15012.000000,10756.000000,1.000000,21504.000000
14002.000000,15016.000000,10756.000000,1.000000,21504.000000
14002.000000,15016.000000,10756.000000,1.000000,21504.000000
14004.000000,15012.000000,10756.000000,1.000000,21504.000000
14003.000000,15015.000000,10756.000000,1.000000,21504.000000
14003.000000,15015.000000,10756.000000,1.000000,21504.000000
14003.000000,15015.000000,10756.000000,1.000000,21504.000000
14003.000000,15015.000000,10756.000000,1.000000,21504.000000
14002.000000,15015.000000,10756.000000,1.000000,21504.000000
14003.000000,15014.000000,10756.000000,1.000000,21504.000000
14004.000000,15012.000000,10756.000000,1.000000,21504.000000
14006.000000,15009.000000,10756.000000,1.000000,21504.000000
14004.000000,15012.000000,10756.000000,1.000000,21504.000000
14004.000000,15013.000000,10756.000000,1.000000,21504.000000
14000.000000,15020.000000,10756.000000,1.000000,21504.000000
14000.000000,15021.000000,10756.000000,1.000000,21504.000000
14000.000000,15021.000000,10756.000000,1.000000,21504.000000
14000.000000,15021.000000,10756.000000,1.000000,21504.000000
14001.000000,15019.000000,10756.000000,1.000000,21504.000000
14001.000000,15018.000000,10756.000000,1.000000,21504.000000
14000.000000,15020.000000,10756.000000,1.000000,21504.000000
13999.000000,15022.000000,10756.000000,1.000000,21504.000000
13999.000000,15022.000000,10756.000000,1.000000,21504.000000
14000.000000,15020.000000,10756.000000,1.000000,21504.000000
14001.000000,15018.000000,10756.000000,1.000000,21504.000000
14002.000000,15017.000000,10756.000000,1.000000,21504.000000
14002.000000,15020.000000,10756.000000,1.000000,21504.000000
14000.000000,15020.000000,10756.000000,1.000000,21504.000000
14001.000000,15019.000000,10756.000000,1.000000,21504.000000
14000.000000,15020.000000,10756.000000,1.000000,21504.000000
14000.000000,15021.000000,10756.000000,1.000000,21504.000000
14000.000000,15021.000000,10756.000000,1.000000,21504.000000
14001.000000,15019.000000,10756.000000,1.000000,21504.000000
14000.000000,15021.000000,10756.000000,1.000000,21504.000000
13999.000000,15022.000000,10756.000000,1.000000,21504.000000
13999.000000,15019.000000,10756.000000,1.000000,21504.000000
14000.000000,15019.000000,10756.000000,1.000000,21504.000000
14000.000000,15020.000000,10756.000000,1.000000,21504.000000
14000.000000,15021.000000,10756.000000,1.000000,21504.000000
14001.000000,15018.000000,10756.000000,1.000000,21504.000000
14000.000000,15020.000000,10756.000000,1.000000,21504.000000
13999.000000,15022.000000,10756.000000,1.000000,21504.000000
14000.000000,15020.000000,10756.000000,1.000000,21504.000000
14000.000000,15020.000000,10756.000000,1.000000,21504.000000
14000.000000,15020.000000,10756.000000,1.000000,21504.000000
14000.000000,15020.000000,10756.000000,1.000000,21504.000000
14001.000000,15019.000000,10756.000000,1.000000,21504.000000
14000.000000,15020.000000,10756.000000,1.000000,21504.000000
14000.000000,15020.000000,10756.000000,1.000000,21504.000000
14001.000000,15019.000000,10756.000000,1.000000,21504.000000
13999.000000,15023.000000,10756.000000,1.000000,21504.000000
13999.000000,15023.000000,10756.000000,1.000000,21504.000000
14000.000000,15020.000000,10756.000000,1.000000,21504.000000
14000.000000,15021.000000,10756.000000,1.000000,21504.000000
14000.000000,15021.000000,10756.000000,1.000000,21504.000000
13999.000000,15021.000000,10756.000000,1.000000,21504.000000
14000.000000,15020.000000,10756.000000,1.000000,21504.000000
14000.000000,15020.000000,10756.000000,1.000000,21504.000000
14000.000000,15021.000000,10756.000000,1.000000,21504.000000
14000.000000,15020.000000,10756.000000,1.000000,21504.000000
14000.000000,15020.000000,10756.000000,1.000000,21504.000000
13998.000000,15024.000000,10756.000000,1.000000,21504.000000
13997.000000,15025.000000,10756.000000,1.000000,21504.000000
13997.000000,15023.000000,10756.000000,1.000000,21504.000000
13998.000000,15023.000000,10756.000000,1.000000,21504.000000
13998.000000,15025.000000,10756.000000,1.000000,21504.000000
13998.000000,15025.000000,10756.000000,1.000000,21504.000000
13999.000000,15022.000000,10756.000000,1.000000,21504.000000
13999.000000,15022.000000,10756.000000,1.000000,21504.000000
13999.000000,15022.000000,10756.000000,1.000000,21504.000000
13999.000000,15022.000000,10756.000000,1.000000,21504.000000
13999.000000,15021.000000,10756.000000,1.000000,21504.000000
13999.000000,15026.000000,10756.000000,1.000000,21504.000000
13997.000000,15026.000000,10756.000000,1.000000,21504.000000
13998.000000,15025.000000,10756.000000,1.000000,21504.000000
13997.000000,15026.000000,10756.000000,1.000000,21504.000000
13998.000000,15024.000000,10756.000000,1.000000,21504.000000
13998.000000,15024.000000,10756.000000,1.000000,21504.000000
13998.000000,15023.000000,10756.000000,1.000000,21504.000000
13999.000000,15023.000000,10756.000000,1.000000,21504.000000
13999.000000,15023.000000,10756.000000,1.000000,21504.000000
13999.000000,15022.000000,10756.000000,1.000000,21504.000000
13999.000000,15022.000000,10756.000000,1.000000,21504.000000
13997.000000,15026.000000,10756.000000,1.000000,21504.000000
13998.000000,15024.000000,10756.000000,1.000000,21504.000000
13998.000000,15024.000000,10756.000000,1.000000,21504.000000
13999.000000,15023.000000,10756.000000,1.000000,21504.000000
13999.000000,15023.000000,10756.000000,1.000000,21504.000000
13999.000000,15023.000000,10756.000000,1.000000,21504.000000
13997.000000,15025.000000,10756.000000,1.000000,21504.000000
13998.000000,15023.000000,10756.000000,1.000000,21504.000000
13998.000000,15023.000000,10756.000000,1.000000,21504.000000
13999.000000,15022.000000,10756.000000,1.000000,21504.000000
13998.000000,15024.000000,10756.000000,1.000000,21504.000000
14000.000000,15021.000000,10756.000000,1.000000,21504.000000
13999.000000,15021.000000,10756.000000,1.000000,21504.000000
14000.000000,15021.000000,10756.000000,1.000000,21504.000000
14000.000000,15020.000000,10756.000000,1.000000,21504.000000
13999.000000,15023.000000,10756.000000,1.000000,21504.000000
13999.000000,15023.000000,10756.000000,1.000000,21504.000000
13999.000000,15023.000000,10756.000000,1.000000,21504.000000
13999.000000,15023.000000,10756.000000,1.000000,21504.000000
13999.000000,15022.000000,10756.000000,1.000000,21504.000000
13998.000000,15024.000000,10756.000000,1.000000,21504.000000
13997.000000,15025.000000,10756.000000,1.000000,21504.000000
14000.000000,15020.000000,10756.000000,1.000000,21504.000000
13997.000000,15025.000000,10756.000000,1.000000,21504.000000
13999.000000,15023.000000,10756.000000,1.000000,21504.000000
13999.000000,15023.000000,10756.000000,1.000000,21504.000000
13999.000000,15024.000000,10756.000000,1.000000,21504.000000
13998.000000,15024.000000,10756.000000,1.000000,21504.000000
13998.000000,15024.000000,10756.000000,1.000000,21504.000000
13997.000000,15026.000000,10756.000000,1.000000,21504.000000
13998.000000,15024.000000,10756.000000,1.000000,21504.000000
13998.000000,15025.000000,10756.000000,1.000000,21504.000000
13997.000000,15026.000000,10756.000000,1.000000,21504.000000
13996.000000,15028.000000,10756.000000,1.000000,21504.000000
13996.000000,15028.000000,10756.000000,0.000000,21504.000000
13998.000000,15024.000000,10756.000000,0.000000,21504.000000
13998.000000,15024.000000,10756.000000,0.000000,21504.000000
13998.000000,15024.000000,10756.000000,0.000000,21504.000000
13998.000000,15024.000000,10756.000000,0.000000,21504.000000
13998.000000,15024.000000,10756.000000,0.000000,21504.000000
13997.000000,15026.000000,10756.000000,0.000000,21504.000000
13998.000000,15022.000000,10756.000000,0.000000,21504.000000
13997.000000,15025.000000,10756.000000,0.000000,21504.000000
13997.000000,15025.000000,10756.000000,0.000000,21504.000000
13998.000000,15025.000000,10756.000000,0.000000,21504.000000
13997.000000,15026.000000,10756.000000,0.000000,21504.000000
13998.000000,15024.000000,10756.000000,0.000000,21504.000000
13999.000000,15022.000000,10756.000000,0.000000,21504.000000
13998.000000,15025.000000,10756.000000,0.000000,21504.000000
13998.000000,15023.000000,10756.000000,0.000000,21504.000000
13999.000000,15022.000000,10756.000000,0.000000,21504.000000
13997.000000,15025.000000,10756.000000,0.000000,21504.000000
13997.000000,15026.000000,10756.000000,0.000000,21504.000000
13997.000000,15026.000000,10756.000000,0.000000,21504.000000
13997.000000,15026.000000,10756.000000,0.000000,21504.000000
13997.000000,15026.000000,10756.000000,0.000000,21504.000000
13998.000000,15024.000000,10756.000000,0.000000,21504.000000
13998.000000,15026.000000,10756.000000,0.000000,21504.000000
13998.000000,15025.000000,10756.000000,0.000000,21504.000000
13998.000000,15024.000000,10756.000000,0.000000,21504.000000
13999.000000,15023.000000,10756.000000,0.000000,21504.000000
13999.000000,15025.000000,10756.000000,0.000000,21504.000000
13998.000000,15025.000000,10756.000000,0.000000,21504.000000
13999.000000,15024.000000,10756.000000,0.000000,21504.000000
13997.000000,15026.000000,10756.000000,0.000000,21504.000000
13998.000000,15024.000000,10756.000000,0.000000,21504.000000
13998.000000,15024.000000,10756.000000,0.000000,21504.000000
13996.000000,15029.000000,10756.000000,0.000000,21504.000000
13997.000000,15027.000000,10756.000000,0.000000,21504.000000
13996.000000,15027.000000,10756.000000,0.000000,21504.000000
13995.000000,15029.000000,10756.000000,0.000000,21504.000000
13995.000000,15029.000000,10756.000000,0.000000,21504.000000
13997.000000,15026.000000,10756.000000,0.000000,21504.000000
13997.000000,15027.000000,10756.000000,0.000000,21504.000000
13997.000000,15026.000000,10756.000000,0.000000,21504.000000
13998.000000,15024.000000,10756.000000,0.000000,21504.000000
13997.000000,15027.000000,10756.000000,0.000000,21504.000000
13998.000000,15024.000000,10756.000000,0.000000,21504.000000
13998.000000,15025.000000,10756.000000,0.000000,21504.000000
13997.000000,15026.000000,10756.000000,0.000000,21504.000000
13997.000000,15025.000000,10756.000000,0.000000,21504.000000
13997.000000,15025.000000,10756.000000,0.000000,21504.000000
13997.000000,15027.000000,10756.000000,0.000000,21504.000000
13996.000000,15028.000000,10756.000000,0.000000,21504.000000
13997.000000,15027.000000,10756.000000,0.000000,21504.000000
13997.000000,15026.000000,10756.000000,0.000000,21504.000000
13996.000000,15028.000000,10756.000000,0.000000,21504.000000
13996.000000,15028.000000,10756.000000,0.000000,21504.000000
13998.000000,15025.000000,10756.000000,0.000000,21504.000000
13998.000000,15028.000000,10756.000000,0.000000,21504.000000
13996.000000,15028.000000,10756.000000,0.000000,21504.000000
13996.000000,15027.000000,10756.000000,0.000000,21504.000000
13997.000000,15027.000000,10756.000000,0.000000,21504.000000
13998.000000,15024.000000,10756.000000,0.000000,21504.000000
13998.000000,15025.000000,10756.000000,0.000000,21504.000000
13998.000000,15025.000000,10756.000000,0.000000,21504.000000
13997.000000,15026.000000,10756.000000,0.000000,21504.000000
13998.000000,15024.000000,10756.000000,0.000000,21504.000000
13998.000000,15026.000000,10756.000000,0.000000,21504.000000
13997.000000,15026.000000,10756.000000,0.000000,21504.000000
13997.000000,15026.000000,10756.000000,0.000000,21504.000000
13998.000000,15025.000000,10756.000000,0.000000,21504.000000
13998.000000,15024.000000,10756.000000,0.000000,21504.000000
13997.000000,15026.000000,10756.000000,0.000000,21504.000000
13998.000000,15024.000000,10756.000000,0.000000,21504.000000
13998.000000,15025.000000,10756.000000,0.000000,21504.000000
13998.000000,15025.000000,10756.000000,0.000000,21504.000000
13999.000000,15023.000000,10756.000000,0.000000,21504.000000
13999.000000,15023.000000,10756.000000,0.000000,21504.000000
13999.000000,15023.000000,10756.000000,0.000000,21504.000000
13997.000000,15026.000000,10756.000000,0.000000,21504.000000
13997.000000,15026.000000,10756.000000,0.000000,21504.000000
13997.000000,15027.000000,10756.000000,0.000000,21504.000000
13997.000000,15027.000000,10756.000000,0.000000,21504.000000
13997.000000,15026.000000,10756.000000,0.000000,21504.000000
13996.000000,15028.000000,10756.000000,0.000000,21504.000000
13996.000000,15028.000000,10756.000000,0.000000,21504.000000
13996.000000,15030.000000,10756.000000,0.000000,21504.000000
13995.000000,15030.000000,10756.000000,0.000000,21504.000000
13996.000000,15028.000000,10756.000000,0.000000,21504.000000
13995.000000,15030.000000,10756.000000,0.000000,21504.000000
13996.000000,15029.000000,10756.000000,0.000000,21504.000000
13995.000000,15030.000000,10756.000000,0.000000,21504.000000
13996.000000,15029.000000,10756.000000,0.000000,21504.000000
13994.000000,15033.000000,10756.000000,0.000000,21504.000000
13995.000000,15030.000000,10756.000000,0.000000,21504.000000
13995.000000,15030.000000,10756.000000,0.000000,21504.000000
13995.000000,15030.000000,10756.000000,0.000000,21504.000000
13995.000000,15031.000000,10756.000000,0.000000,21504.000000
13995.000000,15030.000000,10756.000000,0.000000,21504.000000
13994.000000,15033.000000,10756.000000,0.000000,21504.000000
13994.000000,15032.000000,10756.000000,0.000000,21504.000000
13996.000000,15029.000000,10756.000000,0.000000,21504.000000
13994.000000,15032.000000,10756.000000,0.000000,21504.000000
13995.000000,15031.000000,10756.000000,0.000000,21504.000000
13995.000000,15029.000000,10756.000000,0.000000,21504.000000
13996.000000,15029.000000,10756.000000,0.000000,21504.000000
13995.000000,15030.000000,10756.000000,0.000000,21504.000000
13995.000000,15031.000000,10756.000000,0.000000,21504.000000
13994.000000,15032.000000,10756.000000,0.000000,21504.000000
13995.000000,15030.000000,10756.000000,0.000000,21504.000000
13994.000000,15033.000000,10756.000000,0.000000,21504.000000
13994.000000,15033.000000,10756.000000,0.000000,21504.000000
13994.000000,15032.000000,10756.000000,0.000000,21504.000000
13994.000000,15032.000000,10756.000000,0.000000,21504.000000
13994.000000,15032.000000,10756.000000,0.000000,21504.000000
13993.000000,15033.000000,10756.000000,0.000000,21504.000000
13995.000000,15030.000000,10756.000000,0.000000,21504.000000
13994.000000,15032.000000,10756.000000,0.000000,21504.000000
13995.000000,15032.000000,10756.000000,0.000000,21504.000000
13994.000000,15033.000000,10756.000000,0.000000,21504.000000
13995.000000,15031.000000,10756.000000,0.000000,21504.000000
13995.000000,15031.000000,10756.000000,0.000000,21504.000000
13993.000000,15034.000000,10756.000000,0.000000,21504.000000
13994.000000,15033.000000,10756.000000,1.000000,21504.000000
13993.000000,15034.000000,10756.000000,1.000000,21504.000000
13995.000000,15029.000000,10756.000000,1.000000,21504.000000
13995.000000,15031.000000,10756.000000,1.000000,21504.000000
13995.000000,15031.000000,10756.000000,1.000000,21504.000000
13992.000000,15035.000000,10756.000000,1.000000,21504.000000
13994.000000,15033.000000,10756.000000,1.000000,21504.000000
13994.000000,15032.000000,10756.000000,1.000000,21504.000000
13996.000000,15029.000000,10756.000000,1.000000,21504.000000
13996.000000,15029.000000,10756.000000,1.000000,21504.000000
13996.000000,15028.000000,10756.000000,1.000000,21504.000000
13994.000000,15032.000000,10756.000000,1.000000,21504.000000
13994.000000,15033.000000,10756.000000,1.000000,21504.000000
13994.000000,15033.000000,10756.000000,1.000000,21504.000000
13993.000000,15033.000000,10756.000000,1.000000,21504.000000
13994.000000,15031.000000,10756.000000,1.000000,21504.000000
13992.000000,15032.000000,10756.000000,1.000000,21504.000000
13991.000000,15037.000000,10756.000000,1.000000,21504.000000
13993.000000,15034.000000,10756.000000,1.000000,21504.000000
13992.000000,15035.000000,10756.000000,1.000000,21504.000000
13990.000000,15037.000000,10756.000000,1.000000,21504.000000
13990.000000,15038.000000,10756.000000,1.000000,21504.000000
13990.000000,15034.000000,10756.000000,1.000000,21504.000000
13993.000000,15034.000000,10756.000000,1.000000,21504.000000
13991.000000,15035.000000,10756.000000,1.000000,21504.000000
13990.000000,15036.000000,10756.000000,1.000000,21504.000000
13990.000000,15037.000000,10756.000000,1.000000,21504.000000
13991.000000,15037.000000,10756.000000,1.000000,21504.000000
13987.000000,15028.000000,10756.000000,1.000000,21504.000000
13992.000000,15032.000000,10756.000000,1.000000,21504.000000
13986.000000,15026.000000,10756.000000,1.000000,21504.000000
13986.000000,15024.000000,10756.000000,1.000000,21504.000000
13982.000000,15024.000000,10756.000000,1.000000,21504.000000
13982.000000,15015.000000,10756.000000,1.000000,21504.000000
13980.000000,15014.000000,10756.000000,1.000000,21504.000000
13988.000000,15027.000000,10756.000000,1.000000,21504.000000
13993.000000,15034.000000,10756.000000,1.000000,21504.000000
13996.000000,15029.000000,10756.000000,1.000000,21504.000000
13996.000000,15029.000000,10756.000000,1.000000,21504.000000
14009.000000,15058.000000,10756.000000,1.000000,21504.000000
14003.000000,15049.000000,10756.000000,1.000000,21504.000000
14003.000000,15049.000000,10756.000000,1.000000,21504.000000
14013.000000,15055.000000,10756.000000,1.000000,21504.000000
14052.000000,15087.000000,10756.000000,1.000000,21504.000000
14499.000000,15527.000000,11192.000000,1.000000,21504.000000
14443.000000,15498.000000,11110.000000,1.000000,21504.000000
14138.000000,14890.000000,10441.000000,1.000000,21504.000000
14053.000000,14795.000000,10348.000000,1.000000,21504.000000
14133.000000,14773.000000,10345.000000,1.000000,21504.000000
14049.000000,14633.000000,10244.000000,1.000000,21504.000000
14049.000000,14280.000000,10127.000000,1.000000,21504.000000
13938.000000,14280.000000,10127.000000,1.000000,21504.000000
13878.000000,14184.000000,10099.000000,1.000000,21504.000000
13952.000000,14299.000000,10166.000000,1.000000,21504.000000
13946.000000,14340.000000,10195.000000,1.000000,21504.000000
13899.000000,14339.000000,10193.000000,1.000000,21504.000000
13823.000000,14292.000000,10153.000000,1.000000,21504.000000
13779.000000,14254.000000,10132.000000,1.000000,21504.000000
13760.000000,14244.000000,10126.000000,1.000000,21504.000000
13760.000000,14228.000000,10111.000000,1.000000,21504.000000
13740.000000,14228.000000,10156.000000,1.000000,21504.000000
13752.000000,14296.000000,10156.000000,1.000000,21504.000000
13904.000000,14535.000000,10312.000000,1.000000,21504.000000
13775.000000,14466.000000,10258.000000,1.000000,21504.000000
13629.000000,14374.000000,10215.000000,1.000000,21504.000000
13533.000000,14315.000000,10184.000000,1.000000,21504.000000
13465.000000,14251.000000,10148.000000,1.000000,21504.000000
13412.000000,14202.000000,10116.000000,1.000000,21504.000000
13367.000000,14166.000000,10092.000000,1.000000,21504.000000
13367.000000,14166.000000,10073.000000,1.000000,21504.000000
13335.000000,14129.000000,10073.000000,1.000000,21504.000000
13316.000000,14112.000000,10063.000000,1.000000,21504.000000
13295.000000,14089.000000,10048.000000,1.000000,21504.000000
13276.000000,14076.000000,10041.000000,1.000000,21504.000000
13268.000000,14072.000000,10044.000000,1.000000,21504.000000
13262.000000,14073.000000,10049.000000,1.000000,21504.000000
13253.000000,14067.000000,10036.000000,1.000000,21504.000000
13245.000000,14055.000000,10024.000000,1.000000,21504.000000
13245.000000,14056.000000,10030.000000,1.000000,21504.000000
13246.000000,14056.000000,10030.000000,1.000000,21504.000000
13240.000000,14044.000000,10024.000000,1.000000,21504.000000
13257.000000,14057.000000,10036.000000,1.000000,21504.000000
13265.000000,14052.000000,10037.000000,1.000000,21504.000000
13289.000000,14069.000000,10054.000000,1.000000,21504.000000
13284.000000,14057.000000,10048.000000,1.000000,21504.000000
13246.000000,14013.000000,10019.000000,1.000000,21504.000000
13213.000000,13980.000000,9994.000000,1.000000,21504.000000
13213.000000,13966.000000,9982.000000,1.000000,21504.000000
13199.000000,13966.000000,9972.000000,1.000000,21504.000000
13184.000000,13953.000000,9972.000000,1.000000,21504.000000
13167.000000,13939.000000,9960.000000,1.000000,21504.000000
13160.000000,13927.000000,9958.000000,1.000000,21504.000000
13154.000000,13908.000000,9957.000000,1.000000,21504.000000
13154.000000,13903.000000,9957.000000,1.000000,21504.000000
13152.000000,13893.000000,9957.000000,1.000000,21504.000000
13150.000000,13891.000000,9958.000000,1.000000,21504.000000
13150.000000,13893.000000,9959.000000,1.000000,21504.000000
13146.000000,13893.000000,9957.000000,1.000000,21504.000000
13137.000000,13871.000000,9957.000000,1.000000,21504.000000
13107.000000,13838.000000,9932.000000,1.000000,21504.000000
13088.000000,13816.000000,9916.000000,1.000000,21504.000000
13056.000000,13781.000000,9893.000000,1.000000,21504.000000
13045.000000,13767.000000,9887.000000,1.000000,21504.000000
13042.000000,13765.000000,9888.000000,1.000000,21504.000000
13052.000000,13788.000000,9900.000000,1.000000,21504.000000
13058.000000,13793.000000,9898.000000,1.000000,21504.000000
13058.000000,13793.000000,9910.000000,1.000000,21504.000000
13072.000000,13811.000000,9910.000000,1.000000,21504.000000
13053.000000,13791.000000,9897.000000,1.000000,21504.000000
13017.000000,13751.000000,9861.000000,1.000000,21504.000000
12961.000000,13692.000000,9811.000000,1.000000,21504.000000
12917.000000,13661.000000,9790.000000,1.000000,21504.000000
12907.000000,13657.000000,9789.000000,1.000000,21504.000000
12907.000000,13655.000000,9789.000000,1.000000,21504.000000
12907.000000,13653.000000,9790.000000,1.000000,21504.000000
12907.000000,13653.000000,9790.000000,1.000000,21504.000000
12908.000000,13653.000000,9790.000000,1.000000,21504.000000
12908.000000,13657.000000,9789.000000,1.000000,21504.000000
12908.000000,13657.000000,9789.000000,1.000000,21504.000000
12908.000000,13657.000000,9789.000000,1.000000,21504.000000
12907.000000,13654.000000,9790.000000,0.000000,21504.000000
12908.000000,13655.000000,9790.000000,0.000000,21504.000000
12909.000000,13655.000000,9790.000000,0.000000,21504.000000
12907.000000,13658.000000,9789.000000,0.000000,21504.000000
12907.000000,13656.000000,9789.000000,0.000000,21504.000000
12914.000000,13663.000000,9787.000000,0.000000,21504.000000
12935.000000,13672.000000,9788.000000,0.000000,21504.000000
12935.000000,13670.000000,9786.000000,0.000000,21504.000000
12932.000000,13670.000000,9789.000000,0.000000,21504.000000
12946.000000,13675.000000,9789.000000,0.000000,21504.000000
12925.000000,13671.000000,9787.000000,0.000000,21504.000000
12913.000000,13670.000000,9786.000000,0.000000,21504.000000
12910.000000,13668.000000,9786.000000,0.000000,21504.000000
12943.000000,13693.000000,9804.000000,0.000000,21504.000000
12970.000000,13715.000000,9823.000000,0.000000,21504.000000
12981.000000,13731.000000,9834.000000,0.000000,21504.000000
13014.000000,13766.000000,9870.000000,0.000000,21504.000000
13014.000000,13766.000000,9894.000000,0.000000,21504.000000
13042.000000,13783.000000,9894.000000,0.000000,21504.000000
13061.000000,13800.000000,9908.000000,0.000000,21504.000000
13062.000000,13789.000000,9905.000000,0.000000,21504.000000
13056.000000,13774.000000,9900.000000,0.000000,21504.000000
13035.000000,13746.000000,9885.000000,0.000000,21504.000000
13024.000000,13730.000000,9874.000000,0.000000,21504.000000
13012.000000,13714.000000,9865.000000,0.000000,21504.000000
13017.000000,13713.000000,9867.000000,0.000000,21504.000000
13017.000000,13734.000000,9886.000000,0.000000,21504.000000
13047.000000,13734.000000,9886.000000,0.000000,21504.000000
13063.000000,13748.000000,9891.000000,0.000000,21504.000000
13092.000000,13758.000000,9894.000000,0.000000,21504.000000
13062.000000,13727.000000,9872.000000,0.000000,21504.000000
13025.000000,13677.000000,9839.000000,0.000000,21504.000000
13002.000000,13649.000000,9823.000000,0.000000,21504.000000
12979.000000,13624.000000,9804.000000,0.000000,21504.000000
12965.000000,13614.000000,9803.000000,0.000000,21504.000000
12965.000000,13615.000000,9803.000000,0.000000,21504.000000
12941.000000,13615.000000,9803.000000,0.000000,21504.000000
12928.000000,13613.000000,9803.000000,0.000000,21504.000000
12930.000000,13616.000000,9801.000000,0.000000,21504.000000
12969.000000,13625.000000,9799.000000,0.000000,21504.000000
13074.000000,13701.000000,9857.000000,0.000000,21504.000000
13118.000000,13715.000000,9868.000000,0.000000,21504.000000
13042.000000,13638.000000,9800.000000,0.000000,21504.000000
12986.000000,13619.000000,9799.000000,0.000000,21504.000000
12986.000000,13580.000000,9783.000000,0.000000,21504.000000
12931.000000,13580.000000,9775.000000,0.000000,21504.000000
12915.000000,13561.000000,9775.000000,0.000000,21504.000000
12909.000000,13545.000000,9764.000000,0.000000,21504.000000
12907.000000,13527.000000,9755.000000,0.000000,21504.000000
12907.000000,13529.000000,9756.000000,0.000000,21504.000000
12908.000000,13533.000000,9759.000000,0.000000,21504.000000
12910.000000,13549.000000,9768.000000,0.000000,21504.000000
12909.000000,13561.000000,9777.000000,0.000000,21504.000000
12915.000000,13581.000000,9789.000000,0.000000,21504.000000
12915.000000,13581.000000,9790.000000,0.000000,21504.000000
12963.000000,13608.000000,9790.000000,0.000000,21504.000000
12912.000000,13560.000000,9758.000000,0.000000,21504.000000
12911.000000,13548.000000,9750.000000,0.000000,21504.000000
12911.000000,13539.000000,9749.000000,0.000000,21504.000000
12907.000000,13518.000000,9731.000000,0.000000,21504.000000
12906.000000,13488.000000,9711.000000,0.000000,21504.000000
12893.000000,13444.000000,9691.000000,0.000000,21504.000000
12825.000000,13406.000000,9670.000000,0.000000,21504.000000
12825.000000,13406.000000,9649.000000,0.000000,21504.000000
12790.000000,13374.000000,9649.000000,0.000000,21504.000000
12790.000000,13361.000000,9634.000000,0.000000,21504.000000
12790.000000,13357.000000,9627.000000,0.000000,21504.000000
12788.000000,13359.000000,9627.000000,0.000000,21504.000000
12785.000000,13366.000000,9636.000000,0.000000,21504.000000
12765.000000,13354.000000,9627.000000,0.000000,21504.000000
12762.000000,13351.000000,9628.000000,0.000000,21504.000000
12763.000000,13347.000000,9630.000000,0.000000,21504.000000
12763.000000,13326.000000,9621.000000,0.000000,21504.000000
12749.000000,13326.000000,9621.000000,0.000000,21504.000000
12751.000000,13321.000000,9624.000000,0.000000,21504.000000
12766.000000,13331.000000,9634.000000,0.000000,21504.000000
12767.000000,13326.000000,9636.000000,0.000000,21504.000000
12770.000000,13319.000000,9633.000000,0.000000,21504.000000
12784.000000,13322.000000,9635.000000,0.000000,21504.000000
12798.000000,13328.000000,9643.000000,0.000000,21504.000000
12781.000000,13313.000000,9628.000000,0.000000,21504.000000
12781.000000,13276.000000,9602.000000,0.000000,21504.000000
12740.000000,13276.000000,9569.000000,0.000000,21504.000000
12694.000000,13227.000000,9569.000000,0.000000,21504.000000
12678.000000,13209.000000,9554.000000,0.000000,21504.000000
12680.000000,13208.000000,9556.000000,0.000000,21504.000000
12676.000000,13199.000000,9552.000000,0.000000,21504.000000
12669.000000,13187.000000,9546.000000,0.000000,21504.000000
12672.000000,13189.000000,9547.000000,0.000000,21504.000000
12671.000000,13190.000000,9544.000000,0.000000,21504.000000
12671.000000,13191.000000,9546.000000,0.000000,21504.000000
12672.000000,13191.000000,9547.000000,0.000000,21504.000000
12672.000000,13193.000000,9547.000000,0.000000,21504.000000
12668.000000,13191.000000,9546.000000,0.000000,21504.000000
12670.000000,13193.000000,9548.000000,0.000000,21504.000000
12669.000000,13198.000000,9552.000000,0.000000,21504.000000
12671.000000,13207.000000,9558.000000,0.000000,21504.000000
12663.000000,13202.000000,9557.000000,0.000000,21504.000000
12659.000000,13196.000000,9557.000000,0.000000,21504.000000
12648.000000,13174.000000,9548.000000,0.000000,21504.000000
12648.000000,13174.000000,9535.000000,0.000000,21504.000000
12625.000000,13144.000000,9535.000000,0.000000,21504.000000
12626.000000,13141.000000,9536.000000,0.000000,21504.000000
12622.000000,13137.000000,9537.000000,0.000000,21504.000000
12615.000000,13127.000000,9534.000000,0.000000,21504.000000
12611.000000,13118.000000,9525.000000,0.000000,21504.000000
12607.000000,13113.000000,9523.000000,0.000000,21504.000000
12605.000000,13109.000000,9518.000000,0.000000,21504.000000
12602.000000,13106.000000,9513.000000,0.000000,21504.000000
12602.000000,13104.000000,9508.000000,0.000000,21504.000000
12597.000000,13104.000000,9508.000000,0.000000,21504.000000
12593.000000,13098.000000,9501.000000,0.000000,21504.000000
12590.000000,13099.000000,9497.000000,0.000000,21504.000000
12588.000000,13095.000000,9489.000000,0.000000,21504.000000
12584.000000,13096.000000,9487.000000,0.000000,21504.000000
12582.000000,13096.000000,9482.000000,0.000000,21504.000000
12584.000000,13102.000000,9482.000000,0.000000,21504.000000
12588.000000,13116.000000,9485.000000,0.000000,21504.000000
12588.000000,13120.000000,9483.000000,0.000000,21504.000000
12589.000000,13120.000000,9479.000000,0.000000,21504.000000
12598.000000,13135.000000,9476.000000,1.000000,21504.000000
12598.000000,13135.000000,9476.000000,1.000000,21504.000000
12598.000000,13135.000000,9476.000000,1.000000,21504.000000
12598.000000,13135.000000,9476.000000,1.000000,21504.000000
12602.000000,13154.000000,9479.000000,1.000000,21504.000000
12602.000000,13164.000000,9480.000000,1.000000,21504.000000
12605.000000,13164.000000,9481.000000,1.000000,21504.000000
12608.000000,13170.000000,9481.000000,1.000000,21504.000000
12605.000000,13171.000000,9476.000000,1.000000,21504.000000
12608.000000,13182.000000,9480.000000,1.000000,21504.000000
12616.000000,13197.000000,9488.000000,1.000000,21504.000000
12616.000000,13199.000000,9486.000000,1.000000,21504.000000
12632.000000,13222.000000,9497.000000,1.000000,21504.000000
12640.000000,13235.000000,9508.000000,1.000000,21504.000000
12647.000000,13248.000000,9513.000000,1.000000,21504.000000
12647.000000,13248.000000,9520.000000,1.000000,21504.000000
12659.000000,13267.000000,9520.000000,1.000000,21504.000000
12660.000000,13276.000000,9524.000000,1.000000,21504.000000
12664.000000,13286.000000,9529.000000,1.000000,21504.000000
12669.000000,13292.000000,9531.000000,1.000000,21504.000000
12658.000000,13282.000000,9522.000000,1.000000,21504.000000
12659.000000,13290.000000,9523.000000,1.000000,21504.000000
12663.000000,13296.000000,9527.000000,1.000000,21504.000000
12667.000000,13303.000000,9529.000000,1.000000,21504.000000
12667.000000,13310.000000,9534.000000,1.000000,21504.000000
12671.000000,13310.000000,9534.000000,1.000000,21504.000000
12674.000000,13317.000000,9536.000000,1.000000,21504.000000
12680.000000,13324.000000,9539.000000,1.000000,21504.000000
12683.000000,13331.000000,9541.000000,1.000000,21504.000000
12687.000000,13338.000000,9542.000000,1.000000,21504.000000
12693.000000,13348.000000,9546.000000,1.000000,21504.000000
12696.000000,13352.000000,9549.000000,1.000000,21504.000000
12699.000000,13354.000000,9549.000000,1.000000,21504.000000
12699.000000,13359.000000,9552.000000,1.000000,21504.000000
12701.000000,13359.000000,9553.000000,1.000000,21504.000000
12702.000000,13362.000000,9553.000000,1.000000,21504.000000
12704.000000,13364.000000,9554.000000,1.000000,21504.000000
12708.000000,13370.000000,9556.000000,1.000000,21504.000000
12710.000000,13372.000000,9556.000000,1.000000,21504.000000
12711.000000,13375.000000,9557.000000,1.000000,21504.000000
12716.000000,13380.000000,9560.000000,1.000000,21504.000000
12718.000000,13382.000000,9561.000000,1.000000,21504.000000
12718.000000,13388.000000,9563.000000,1.000000,21504.000000
12723.000000,13388.000000,9562.000000,1.000000,21504.000000
12725.000000,13392.000000,9562.000000,1.000000,21504.000000
12728.000000,13399.000000,9565.000000,1.000000,21504.000000
12731.000000,13405.000000,9568.000000,1.000000,21504.000000
12735.000000,13409.000000,9570.000000,1.000000,21504.000000
12738.000000,13413.000000,9570.000000,1.000000,21504.000000
12734.000000,13413.000000,9570.000000,1.000000,21504.000000
12732.000000,13412.000000,9570.000000,1.000000,21504.000000
12734.000000,13417.000000,9572.000000,1.000000,21504.000000
12734.000000,13417.000000,9576.000000,1.000000,21504.000000
12740.000000,13421.000000,9576.000000,1.000000,21504.000000
12743.000000,13425.000000,9577.000000,1.000000,21504.000000
12741.000000,13430.000000,9577.000000,1.000000,21504.000000
12745.000000,13434.000000,9580.000000,1.000000,21504.000000
12747.000000,13436.000000,9582.000000,1.000000,21504.000000
12752.000000,13440.000000,9585.000000,1.000000,21504.000000
12753.000000,13441.000000,9587.000000,1.000000,21504.000000
12756.000000,13443.000000,9588.000000,1.000000,21504.000000
12756.000000,13443.000000,9588.000000,1.000000,21504.000000
12756.000000,13443.000000,9588.000000,1.000000,21504.000000
12757.000000,13445.000000,9590.000000,1.000000,21504.000000
12757.000000,13444.000000,9590.000000,1.000000,21504.000000
12759.000000,13446.000000,9592.000000,1.000000,21504.000000
12761.000000,13447.000000,9592.000000,1.000000,21504.000000
12763.000000,13449.000000,9595.000000,1.000000,21504.000000
12767.000000,13452.000000,9598.000000,1.000000,21504.000000
12766.000000,13452.000000,9598.000000,1.000000,21504.000000
12766.000000,13454.000000,9601.000000,1.000000,21504.000000
12767.000000,13454.000000,9601.000000,1.000000,21504.000000
12767.000000,13456.000000,9602.000000,1.000000,21504.000000
12766.000000,13463.000000,9605.000000,1.000000,21504.000000
12766.000000,13464.000000,9606.000000,1.000000,21504.000000
12764.000000,13466.000000,9607.000000,1.000000,21504.000000
12765.000000,13467.000000,9605.000000,1.000000,21504.000000
12764.000000,13467.000000,9606.000000,1.000000,21504.000000
12763.000000,13472.000000,9607.000000,1.000000,21504.000000
12763.000000,13473.000000,9609.000000,1.000000,21504.000000
12764.000000,13473.000000,9609.000000,1.000000,21504.000000
12764.000000,13471.000000,9609.000000,1.000000,21504.000000
12764.000000,13474.000000,9609.000000,1.000000,21504.000000
12763.000000,13476.000000,9612.000000,1.000000,21504.000000
12763.000000,13478.000000,9611.000000,1.000000,21504.000000
12762.000000,13481.000000,9611.000000,1.000000,21504.000000
12763.000000,13479.000000,9612.000000,1.000000,21504.000000
12762.000000,13484.000000,9612.000000,1.000000,21504.000000
12762.000000,13484.000000,9611.000000,1.000000,21504.000000
12761.000000,13484.000000,9611.000000,1.000000,21504.000000
12761.000000,13486.000000,9611.000000,1.000000,21504.000000
12762.000000,13484.000000,9612.000000,1.000000,21504.000000
12761.000000,13485.000000,9612.000000,1.000000,21504.000000
12761.000000,13489.000000,9613.000000,1.000000,21504.000000
12760.000000,13491.000000,9613.000000,1.000000,21504.000000
12760.000000,13494.000000,9615.000000,1.000000,21504.000000
12760.000000,13498.000000,9614.000000,1.000000,21504.000000
12760.000000,13501.000000,9614.000000,1.000000,21504.000000
12760.000000,13501.000000,9616.000000,1.000000,21504.000000
12762.000000,13502.000000,9616.000000,1.000000,21504.000000
12763.000000,13506.000000,9617.000000,1.000000,21504.000000
12765.000000,13512.000000,9619.000000,1.000000,21504.000000
12761.000000,13511.000000,9618.000000,1.000000,21504.000000
12763.000000,13511.000000,9617.000000,1.000000,21504.000000
12761.000000,13508.000000,9618.000000,1.000000,21504.000000
12759.000000,13510.000000,9616.000000,1.000000,21504.000000
12758.000000,13509.000000,9617.000000,1.000000,21504.000000
12758.000000,13514.000000,9619.000000,1.000000,21504.000000
12762.000000,13514.000000,9619.000000,1.000000,21504.000000
12763.000000,13518.000000,9620.000000,1.000000,21504.000000
12763.000000,13518.000000,9621.000000,1.000000,21504.000000
12762.000000,13518.000000,9621.000000,1.000000,21504.000000
12764.000000,13521.000000,9624.000000,1.000000,21504.000000
12768.000000,13523.000000,9623.000000,1.000000,21504.000000
12772.000000,13525.000000,9625.000000,1.000000,21504.000000
12774.000000,13526.000000,9626.000000,1.000000,21504.000000
12774.000000,13527.000000,9623.000000,1.000000,21504.000000
12770.000000,13527.000000,9624.000000,1.000000,21504.000000
12771.000000,13527.000000,9624.000000,1.000000,21504.000000
12771.000000,13526.000000,9626.000000,1.000000,21504.000000
12771.000000,13529.000000,9626.000000,0.000000,21504.000000
12770.000000,13529.000000,9627.000000,0.000000,21504.000000
12774.000000,13531.000000,9629.000000,0.000000,21504.000000
12777.000000,13533.000000,9630.000000,0.000000,21504.000000
12776.000000,13534.000000,9630.000000,0.000000,21504.000000
12776.000000,13532.000000,9629.000000,0.000000,21504.000000
12777.000000,13536.000000,9631.000000,0.000000,21504.000000
12778.000000,13534.000000,9630.000000,0.000000,21504.000000
12778.000000,13538.000000,9634.000000,0.000000,21504.000000
12777.000000,13538.000000,9647.000000,0.000000,21504.000000
12799.000000,13550.000000,9647.000000,0.000000,21504.000000
12797.000000,13547.000000,9646.000000,0.000000,21504.000000
12795.000000,13546.000000,9645.000000,0.000000,21504.000000
12795.000000,13547.000000,9645.000000,0.000000,21504.000000
12796.000000,13551.000000,9647.000000,0.000000,21504.000000
12799.000000,13554.000000,9648.000000,0.000000,21504.000000
12796.000000,13550.000000,9647.000000,0.000000,21504.000000
12796.000000,13555.000000,9649.000000,0.000000,21504.000000
12798.000000,13555.000000,9650.000000,0.000000,21504.000000
12799.000000,13555.000000,9650.000000,0.000000,21504.000000
12803.000000,13557.000000,9651.000000,0.000000,21504.000000
12802.000000,13558.000000,9650.000000,0.000000,21504.000000
12805.000000,13561.000000,9652.000000,0.000000,21504.000000
12804.000000,13562.000000,9652.000000,0.000000,21504.000000
12807.000000,13562.000000,9652.000000,0.000000,21504.000000
12801.000000,13561.000000,9652.000000,0.000000,21504.000000
12798.000000,13561.000000,9651.000000,0.000000,21504.000000
12798.000000,13561.000000,9646.000000,0.000000,21504.000000
12791.000000,13555.000000,9646.000000,0.000000,21504.000000
12789.000000,13554.000000,9646.000000,0.000000,21504.000000
12800.000000,13563.000000,9653.000000,0.000000,21504.000000
12801.000000,13562.000000,9652.000000,0.000000,21504.000000
12799.000000,13558.000000,9649.000000,0.000000,21504.000000
12797.000000,13561.000000,9651.000000,0.000000,21504.000000
12806.000000,13564.000000,9654.000000,0.000000,21504.000000
12805.000000,13567.000000,9655.000000,0.000000,21504.000000
12805.000000,13569.000000,9656.000000,0.000000,21504.000000
12809.000000,13569.000000,9656.000000,0.000000,21504.000000
12804.000000,13568.000000,9654.000000,0.000000,21504.000000
12807.000000,13570.000000,9655.000000,0.000000,21504.000000
12806.000000,13571.000000,9655.000000,0.000000,21504.000000
12806.000000,13570.000000,9654.000000,0.000000,21504.000000
12806.000000,13571.000000,9654.000000,0.000000,21504.000000
12807.000000,13572.000000,9656.000000,0.000000,21504.000000
12807.000000,13571.000000,9655.000000,0.000000,21504.000000
12807.000000,13573.000000,9655.000000,0.000000,21504.000000
12809.000000,13573.000000,9658.000000,0.000000,21504.000000
12810.000000,13576.000000,9658.000000,0.000000,21504.000000
12809.000000,13576.000000,9658.000000,0.000000,21504.000000
12806.000000,13574.000000,9657.000000,0.000000,21504.000000
12808.000000,13577.000000,9661.000000,0.000000,21504.000000
12808.000000,13576.000000,9659.000000,0.000000,21504.000000
12813.000000,13579.000000,9660.000000,0.000000,21504.000000
12813.000000,13581.000000,9659.000000,0.000000,21504.000000
12813.000000,13580.000000,9659.000000,0.000000,21504.000000
12813.000000,13580.000000,9659.000000,0.000000,21504.000000
12809.000000,13577.000000,9659.000000,0.000000,21504.000000
12798.000000,13571.000000,9652.000000,0.000000,21504.000000
12809.000000,13579.000000,9659.000000,0.000000,21504.000000
12809.000000,13578.000000,9658.000000,0.000000,21504.000000
12807.000000,13578.000000,9658.000000,0.000000,21504.000000
12802.000000,13575.000000,9655.000000,0.000000,21504.000000
12813.000000,13584.000000,9663.000000,0.000000,21504.000000
12812.000000,13583.000000,9663.000000,0.000000,21504.000000
12812.000000,13583.000000,9664.000000,0.000000,21504.000000
12815.000000,13586.000000,9664.000000,0.000000,21504.000000
12816.000000,13587.000000,9665.000000,0.000000,21504.000000
12815.000000,13588.000000,9665.000000,0.000000,21504.000000
12816.000000,13589.000000,9663.000000,0.000000,21504.000000
12811.000000,13590.000000,9662.000000,0.000000,21504.000000
12805.000000,13584.000000,9660.000000,0.000000,21504.000000
12815.000000,13591.000000,9664.000000,0.000000,21504.000000
12814.000000,13588.000000,9663.000000,0.000000,21504.000000
12814.000000,13588.000000,9664.000000,0.000000,21504.000000
12812.000000,13591.000000,9664.000000,0.000000,21504.000000
12814.000000,13591.000000,9665.000000,0.000000,21504.000000
12815.000000,13591.000000,9664.000000,0.000000,21504.000000
12816.000000,13593.000000,9666.000000,0.000000,21504.000000
12816.000000,13593.000000,9666.000000,0.000000,21504.000000
12814.000000,13592.000000,9666.000000,0.000000,21504.000000
12811.000000,13590.000000,9663.000000,0.000000,21504.000000
12818.000000,13595.000000,9665.000000,0.000000,21504.000000
12818.000000,13596.000000,9666.000000,0.000000,21504.000000
12816.000000,13596.000000,9665.000000,0.000000,21504.000000
12816.000000,13596.000000,9665.000000,0.000000,21504.000000
12803.000000,13584.000000,9657.000000,0.000000,21504.000000
12814.000000,13594.000000,9663.000000,0.000000,21504.000000
12817.000000,13596.000000,9665.000000,0.000000,21504.000000
12810.000000,13592.000000,9662.000000,0.000000,21504.000000
12808.000000,13590.000000,9660.000000,0.000000,21504.000000
12819.000000,13598.000000,9667.000000,0.000000,21504.000000
12819.000000,13597.000000,9665.000000,0.000000,21504.000000
12818.000000,13597.000000,9668.000000,0.000000,21504.000000
12823.000000,13602.000000,9668.000000,0.000000,21504.000000
12822.000000,13603.000000,9668.000000,0.000000,21504.000000
12823.000000,13604.000000,9669.000000,0.000000,21504.000000
12824.000000,13606.000000,9669.000000,0.000000,21504.000000
12823.000000,13606.000000,9668.000000,0.000000,21504.000000
12820.000000,13603.000000,9669.000000,0.000000,21504.000000
12820.000000,13605.000000,9668.000000,0.000000,21504.000000
12820.000000,13603.000000,9669.000000,0.000000,21504.000000
12820.000000,13603.000000,9668.000000,0.000000,21504.000000
12817.000000,13602.000000,9668.000000,0.000000,21504.000000
12822.000000,13605.000000,9670.000000,0.000000,21504.000000
12821.000000,13606.000000,9669.000000,0.000000,21504.000000
12824.000000,13609.000000,9671.000000,0.000000,21504.000000
12825.000000,13609.000000,9670.000000,0.000000,21504.000000
12825.000000,13606.000000,9672.000000,0.000000,21504.000000
12827.000000,13612.000000,9671.000000,0.000000,21504.000000
12826.000000,13614.000000,9672.000000,0.000000,21504.000000
12826.000000,13614.000000,9671.000000,0.000000,21504.000000
12827.000000,13614.000000,9671.000000,0.000000,21504.000000
12826.000000,13612.000000,9671.000000,0.000000,21504.000000
12807.000000,13598.000000,9660.000000,0.000000,21504.000000
12823.000000,13613.000000,9670.000000,0.000000,21504.000000
12823.000000,13613.000000,9670.000000,0.000000,21504.000000
12820.000000,13609.000000,9669.000000,0.000000,21504.000000
12816.000000,13605.000000,9667.000000,0.000000,21504.000000
12825.000000,13615.000000,9672.000000,0.000000,21504.000000
12825.000000,13616.000000,9673.000000,0.000000,21504.000000
12829.000000,13615.000000,9672.000000,1.000000,21504.000000
12826.000000,13617.000000,9673.000000,1.000000,21504.000000
12822.000000,13613.000000,9671.000000,1.000000,21504.000000
12822.000000,13613.000000,9675.000000,1.000000,21504.000000
12828.000000,13615.000000,9675.000000,1.000000,21504.000000
12832.000000,13618.000000,9676.000000,1.000000,21504.000000
12829.000000,13616.000000,9674.000000,1.000000,21504.000000
12827.000000,13616.000000,9672.000000,1.000000,21504.000000
12828.000000,13615.000000,9672.000000,1.000000,21504.000000
12827.000000,13616.000000,9674.000000,1.000000,21504.000000
12826.000000,13616.000000,9673.000000,1.000000,21504.000000
12827.000000,13615.000000,9674.000000,1.000000,21504.000000
12827.000000,13615.000000,9674.000000,1.000000,21504.000000
12828.000000,13615.000000,9674.000000,1.000000,21504.000000
12803.000000,13594.000000,9656.000000,1.000000,21504.000000
12801.000000,13591.000000,9653.000000,1.000000,21504.000000
12802.000000,13592.000000,9652.000000,1.000000,21504.000000
12799.000000,13592.000000,9654.000000,1.000000,21504.000000
12801.000000,13592.000000,9653.000000,1.000000,21504.000000
12803.000000,13593.000000,9654.000000,1.000000,21504.000000
12799.000000,13593.000000,9652.000000,1.000000,21504.000000
12799.000000,13592.000000,9652.000000,1.000000,21504.000000
12795.000000,13592.000000,9651.000000,1.000000,21504.000000
12792.000000,13590.000000,9651.000000,1.000000,21504.000000
12796.000000,13591.000000,9651.000000,1.000000,21504.000000
12798.000000,13595.000000,9653.000000,1.000000,21504.000000
12798.000000,13594.000000,9652.000000,1.000000,21504.000000
12797.000000,13594.000000,9653.000000,1.000000,21504.000000
12800.000000,13597.000000,9654.000000,1.000000,21504.000000
12799.000000,13596.000000,9654.000000,1.000000,21504.000000
12799.000000,13602.000000,9656.000000,1.000000,21504.000000
12804.000000,13602.000000,9657.000000,1.000000,21504.000000
12802.000000,13602.000000,9657.000000,1.000000,21504.000000
12802.000000,13601.000000,9656.000000,1.000000,21504.000000
12804.000000,13601.000000,9656.000000,1.000000,21504.000000
12804.000000,13600.000000,9654.000000,1.000000,21504.000000
12801.000000,13599.000000,9654.000000,1.000000,21504.000000
12800.000000,13600.000000,9653.000000,1.000000,21504.000000
12800.000000,13599.000000,9653.000000,1.000000,21504.000000
12802.000000,13596.000000,9653.000000,1.000000,21504.000000
12802.000000,13596.000000,9654.000000,1.000000,21504.000000
12802.000000,13597.000000,9654.000000,1.000000,21504.000000
12803.000000,13600.000000,9655.000000,1.000000,21504.000000
12802.000000,13599.000000,9655.000000,1.000000,21504.000000
12804.000000,13603.000000,9657.000000,1.000000,21504.000000
12803.000000,13605.000000,9657.000000,1.000000,21504.000000
12804.000000,13604.000000,9654.000000,1.000000,21504.000000
12807.000000,13605.000000,9658.000000,1.000000,21504.000000
12806.000000,13602.000000,9655.000000,1.000000,21504.000000
12806.000000,13602.000000,9655.000000,1.000000,21504.000000
12805.000000,13601.000000,9655.000000,1.000000,21504.000000
12804.000000,13601.000000,9655.000000,1.000000,21504.000000
12801.000000,13602.000000,9653.000000,1.000000,21504.000000
12800.000000,13602.000000,9651.000000,1.000000,21504.000000
12804.000000,13605.000000,9654.000000,1.000000,21504.000000
12804.000000,13604.000000,9652.000000,1.000000,21504.000000
12802.000000,13604.000000,9652.000000,1.000000,21504.000000
12803.000000,13604.000000,9653.000000,1.000000,21504.000000
12803.000000,13606.000000,9655.000000,1.000000,21504.000000
12806.000000,13606.000000,9655.000000,1.000000,21504.000000
12806.000000,13606.000000,9653.000000,1.000000,21504.000000
12805.000000,13606.000000,9654.000000,1.000000,21504.000000
12807.000000,13608.000000,9654.000000,1.000000,21504.000000
12808.000000,13605.000000,9654.000000,1.000000,21504.000000
12801.000000,13603.000000,9652.000000,1.000000,21504.000000
12800.000000,13603.000000,9651.000000,1.000000,21504.000000
12801.000000,13602.000000,9651.000000,1.000000,21504.000000
12801.000000,13603.000000,9651.000000,1.000000,21504.000000
12802.000000,13603.000000,9653.000000,1.000000,21504.000000
12804.000000,13603.000000,9653.000000,1.000000,21504.000000
12804.000000,13604.000000,9651.000000,1.000000,21504.000000
12804.000000,13604.000000,9652.000000,1.000000,21504.000000
12804.000000,13606.000000,9653.000000,1.000000,21504.000000
12803.000000,13606.000000,9652.000000,1.000000,21504.000000
12804.000000,13606.000000,9652.000000,1.000000,21504.000000
12804.000000,13607.000000,9654.000000,1.000000,21504.000000
12804.000000,13606.000000,9652.000000,1.000000,21504.000000
12805.000000,13606.000000,9654.000000,1.000000,21504.000000
12805.000000,13606.000000,9654.000000,1.000000,21504.000000
12800.000000,13605.000000,9652.000000,1.000000,21504.000000
12800.000000,13603.000000,9650.000000,1.000000,21504.000000
12800.000000,13605.000000,9651.000000,1.000000,21504.000000
12799.000000,13604.000000,9652.000000,1.000000,21504.000000
12802.000000,13606.000000,9653.000000,1.000000,21504.000000
12803.000000,13606.000000,9653.000000,1.000000,21504.000000
12803.000000,13606.000000,9652.000000,1.000000,21504.000000
12803.000000,13606.000000,9652.000000,1.000000,21504.000000
12803.000000,13606.000000,9652.000000,1.000000,21504.000000
12809.000000,13609.000000,9653.000000,1.000000,21504.000000
12807.000000,13608.000000,9653.000000,1.000000,21504.000000
12807.000000,13608.000000,9655.000000,1.000000,21504.000000
12808.000000,13609.000000,9654.000000,1.000000,21504.000000
12805.000000,13611.000000,9653.000000,1.000000,21504.000000
12806.000000,13610.000000,9654.000000,1.000000,21504.000000
12803.000000,13609.000000,9654.000000,1.000000,21504.000000
12803.000000,13608.000000,9653.000000,1.000000,21504.000000
12802.000000,13608.000000,9653.000000,1.000000,21504.000000
12801.000000,13608.000000,9652.000000,1.000000,21504.000000
12806.000000,13607.000000,9653.000000,1.000000,21504.000000
12807.000000,13609.000000,9653.000000,1.000000,21504.000000
12806.000000,13607.000000,9653.000000,1.000000,21504.000000
12802.000000,13608.000000,9652.000000,1.000000,21504.000000
12807.000000,13612.000000,9655.000000,1.000000,21504.000000
12808.000000,13611.000000,9654.000000,1.000000,21504.000000
12808.000000,13610.000000,9652.000000,1.000000,21504.000000
12806.000000,13610.000000,9651.000000,1.000000,21504.000000
12808.000000,13609.000000,9651.000000,1.000000,21504.000000
12804.000000,13609.000000,9650.000000,1.000000,21504.000000
12806.000000,13607.000000,9650.000000,1.000000,21504.000000
12803.000000,13608.000000,9650.000000,1.000000,21504.000000
12806.000000,13607.000000,9651.000000,1.000000,21504.000000
12805.000000,13607.000000,9650.000000,1.000000,21504.000000
12807.000000,13610.000000,9653.000000,1.000000,21504.000000
12807.000000,13608.000000,9651.000000,1.000000,21504.000000
12806.000000,13608.000000,9651.000000,1.000000,21504.000000
12807.000000,13608.000000,9651.000000,1.000000,21504.000000
12807.000000,13610.000000,9651.000000,1.000000,21504.000000
12808.000000,13611.000000,9652.000000,1.000000,21504.000000
12811.000000,13612.000000,9653.000000,1.000000,21504.000000
12811.000000,13608.000000,9652.000000,1.000000,21504.000000
12812.000000,13614.000000,9654.000000,0.000000,21504.000000
12810.000000,13608.000000,9651.000000,0.000000,21504.000000
12819.000000,13618.000000,9659.000000,0.000000,21504.000000
12828.000000,13629.000000,9666.000000,0.000000,21504.000000
12832.000000,13629.000000,9667.000000,0.000000,21504.000000
12829.000000,13628.000000,9668.000000,0.000000,21504.000000
12829.000000,13628.000000,9667.000000,0.000000,21504.000000
12826.000000,13630.000000,9667.000000,0.000000,21504.000000
12827.000000,13630.000000,9667.000000,0.000000,21504.000000
12831.000000,13633.000000,9670.000000,0.000000,21504.000000
12829.000000,13630.000000,9666.000000,0.000000,21504.000000
12833.000000,13632.000000,9669.000000,0.000000,21504.000000
12831.000000,13633.000000,9668.000000,0.000000,21504.000000
12818.000000,13623.000000,9660.000000,0.000000,21504.000000
12829.000000,13632.000000,9667.000000,0.000000,21504.000000
12829.000000,13632.000000,9668.000000,0.000000,21504.000000
12830.000000,13632.000000,9668.000000,0.000000,21504.000000
12829.000000,13631.000000,9666.000000,0.000000,21504.000000
12814.000000,13621.000000,9658.000000,0.000000,21504.000000
12830.000000,13633.000000,9666.000000,0.000000,21504.000000
12828.000000,13632.000000,9667.000000,0.000000,21504.000000
12824.000000,13632.000000,9667.000000,0.000000,21504.000000
12829.000000,13633.000000,9668.000000,0.000000,21504.000000
12831.000000,13634.000000,9668.000000,0.000000,21504.000000
12831.000000,13634.000000,9669.000000,0.000000,21504.000000
12832.000000,13634.000000,9669.000000,0.000000,21504.000000
12832.000000,13636.000000,9669.000000,0.000000,21504.000000
12831.000000,13637.000000,9669.000000,0.000000,21504.000000
12832.000000,13636.000000,9669.000000,0.000000,21504.000000
12828.000000,13636.000000,9668.000000,0.000000,21504.000000
12827.000000,13635.000000,9667.000000,0.000000,21504.000000
12824.000000,13633.000000,9665.000000,0.000000,21504.000000
12827.000000,13634.000000,9667.000000,0.000000,21504.000000
12827.000000,13632.000000,9666.000000,0.000000,21504.000000
12827.000000,13632.000000,9665.000000,0.000000,21504.000000
12826.000000,13632.000000,9665.000000,0.000000,21504.000000
12828.000000,13635.000000,9667.000000,0.000000,21504.000000
12830.000000,13636.000000,9667.000000,0.000000,21504.000000
12830.000000,13637.000000,9666.000000,0.000000,21504.000000
12830.000000,13637.000000,9668.000000,0.000000,21504.000000
12831.000000,13634.000000,9669.000000,0.000000,21504.000000
12819.000000,13627.000000,9660.000000,0.000000,21504.000000
12829.000000,13632.000000,9665.000000,0.000000,21504.000000
12829.000000,13632.000000,9666.000000,0.000000,21504.000000
12829.000000,13635.000000,9666.000000,0.000000,21504.000000
12828.000000,13632.000000,9665.000000,0.000000,21504.000000
12816.000000,13621.000000,9657.000000,0.000000,21504.000000
12832.000000,13634.000000,9666.000000,0.000000,21504.000000
12830.000000,13636.000000,9666.000000,0.000000,21504.000000
12831.000000,13634.000000,9667.000000,0.000000,21504.000000
12831.000000,13637.000000,9668.000000,0.000000,21504.000000
12829.000000,13635.000000,9668.000000,0.000000,21504.000000
12829.000000,13634.000000,9664.000000,0.000000,21504.000000
12827.000000,13634.000000,9664.000000,0.000000,21504.000000
12834.000000,13637.000000,9668.000000,0.000000,21504.000000
12834.000000,13639.000000,9668.000000,0.000000,21504.000000
12832.000000,13638.000000,9668.000000,0.000000,21504.000000
12831.000000,13636.000000,9666.000000,0.000000,21504.000000
12829.000000,13635.000000,9666.000000,0.000000,21504.000000
12830.000000,13639.000000,9666.000000,0.000000,21504.000000
12826.000000,13636.000000,9665.000000,0.000000,21504.000000
12826.000000,13637.000000,9664.000000,0.000000,21504.000000
12826.000000,13637.000000,9667.000000,0.000000,21504.000000
12828.000000,13640.000000,9667.000000,0.000000,21504.000000
12827.000000,13638.000000,9665.000000,0.000000,21504.000000
12830.000000,13637.000000,9666.000000,0.000000,21504.000000
12829.000000,13637.000000,9666.000000,0.000000,21504.000000
12832.000000,13638.000000,9667.000000,0.000000,21504.000000
12833.000000,13639.000000,9668.000000,0.000000,21504.000000
12820.000000,13632.000000,9659.000000,0.000000,21504.000000
12820.000000,13638.000000,9666.000000,0.000000,21504.000000
12830.000000,13638.000000,9667.000000,0.000000,21504.000000
12832.000000,13638.000000,9667.000000,0.000000,21504.000000
12831.000000,13637.000000,9666.000000,0.000000,21504.000000
12812.000000,13625.000000,9656.000000,0.000000,21504.000000
12834.000000,13641.000000,9666.000000,0.000000,21504.000000
12835.000000,13642.000000,9669.000000,0.000000,21504.000000
12835.000000,13639.000000,9668.000000,0.000000,21504.000000
12834.000000,13640.000000,9667.000000,0.000000,21504.000000
12834.000000,13643.000000,9668.000000,0.000000,21504.000000
12834.000000,13643.000000,9668.000000,0.000000,21504.000000
12836.000000,13640.000000,9668.000000,0.000000,21504.000000
12834.000000,13638.000000,9668.000000,0.000000,21504.000000
12835.000000,13643.000000,9667.000000,0.000000,21504.000000
12832.000000,13641.000000,9666.000000,0.000000,21504.000000
12830.000000,13636.000000,9663.000000,0.000000,21504.000000
12829.000000,13638.000000,9665.000000,0.000000,21504.000000
12830.000000,13637.000000,9666.000000,0.000000,21504.000000
12830.000000,13637.000000,9666.000000,0.000000,21504.000000
12830.000000,13637.000000,9666.000000,0.000000,21504.000000
12831.000000,13637.000000,9666.000000,0.000000,21504.000000
12831.000000,13640.000000,9666.000000,0.000000,21504.000000
12832.000000,13639.000000,9666.000000,0.000000,21504.000000
12832.000000,13640.000000,9666.000000,0.000000,21504.000000
12832.000000,13641.000000,9666.000000,0.000000,21504.000000
12832.000000,13639.000000,9664.000000,0.000000,21504.000000
12831.000000,13642.000000,9666.000000,0.000000,21504.000000
12818.000000,13631.000000,9658.000000,0.000000,21504.000000
12818.000000,13640.000000,9665.000000,0.000000,21504.000000
12832.000000,13640.000000,9665.000000,0.000000,21504.000000
12832.000000,13639.000000,9665.000000,0.000000,21504.000000
12830.000000,13640.000000,9667.000000,0.000000,21504.000000
12815.000000,13630.000000,9656.000000,0.000000,21504.000000
12829.000000,13640.000000,9665.000000,0.000000,21504.000000
12831.000000,13641.000000,9666.000000,0.000000,21504.000000
12833.000000,13641.000000,9667.000000,0.000000,21504.000000
12831.000000,13643.000000,9667.000000,0.000000,21504.000000
12831.000000,13643.000000,9668.000000,0.000000,21504.000000
12834.000000,13643.000000,9667.000000,0.000000,21504.000000
12833.000000,13643.000000,9667.000000,0.000000,21504.000000
12833.000000,13642.000000,9667.000000,0.000000,21504.000000
12832.000000,13642.000000,9667.000000,0.000000,21504.000000
12831.000000,13643.000000,9667.000000,0.000000,21504.000000
12830.000000,13643.000000,9665.000000,0.000000,21504.000000
12826.000000,13643.000000,9664.000000,0.000000,21504.000000
12827.000000,13642.000000,9664.000000,0.000000,21504.000000
12827.000000,13639.000000,9662.000000,0.000000,21504.000000
12823.000000,13639.000000,9666.000000,0.000000,21504.000000
12829.000000,13644.000000,9666.000000,0.000000,21504.000000
12830.000000,13645.000000,9668.000000,0.000000,21504.000000
12832.000000,13645.000000,9669.000000,1.000000,21504.000000
12831.000000,13643.000000,9667.000000,1.000000,21504.000000
12832.000000,13644.000000,9667.000000,1.000000,21504.000000
12832.000000,13647.000000,9667.000000,1.000000,21504.000000
12833.000000,13647.000000,9668.000000,1.000000,21504.000000
12819.000000,13634.000000,9656.000000,1.000000,21504.000000
12831.000000,13644.000000,9665.000000,1.000000,21504.000000
12828.000000,13643.000000,9665.000000,1.000000,21504.000000
12832.000000,13645.000000,9667.000000,1.000000,21504.000000
12816.000000,13634.000000,9656.000000,1.000000,21504.000000
12816.000000,13634.000000,9665.000000,1.000000,21504.000000
12829.000000,13643.000000,9665.000000,1.000000,21504.000000
12829.000000,13645.000000,9667.000000,1.000000,21504.000000
12832.000000,13642.000000,9666.000000,1.000000,21504.000000
12830.000000,13642.000000,9665.000000,1.000000,21504.000000
12829.000000,13641.000000,9666.000000,1.000000,21504.000000
12832.000000,13645.000000,9665.000000,1.000000,21504.000000
12821.000000,13632.000000,9657.000000,1.000000,21504.000000
12807.000000,13623.000000,9649.000000,1.000000,21504.000000
12807.000000,13624.000000,9649.000000,1.000000,21504.000000
12805.000000,13624.000000,9649.000000,1.000000,21504.000000
12802.000000,13623.000000,9648.000000,1.000000,21504.000000
12800.000000,13624.000000,9648.000000,1.000000,21504.000000
12802.000000,13622.000000,9648.000000,1.000000,21504.000000
12801.000000,13623.000000,9648.000000,1.000000,21504.000000
12802.000000,13622.000000,9648.000000,1.000000,21504.000000
12801.000000,13623.000000,9648.000000,1.000000,21504.000000
12803.000000,13624.000000,9648.000000,1.000000,21504.000000
12803.000000,13624.000000,9649.000000,1.000000,21504.000000
12808.000000,13624.000000,9649.000000,1.000000,21504.000000
12805.000000,13622.000000,9649.000000,1.000000,21504.000000
12805.000000,13624.000000,9647.000000,1.000000,21504.000000
12807.000000,13624.000000,9648.000000,1.000000,21504.000000
12804.000000,13622.000000,9645.000000,1.000000,21504.000000
12803.000000,13622.000000,9646.000000,1.000000,21504.000000
12798.000000,13623.000000,9645.000000,1.000000,21504.000000
12798.000000,13623.000000,9644.000000,1.000000,21504.000000
12798.000000,13619.000000,9644.000000,1.000000,21504.000000
12800.000000,13619.000000,9645.000000,1.000000,21504.000000
12801.000000,13623.000000,9645.000000,1.000000,21504.000000
12799.000000,13616.000000,9642.000000,1.000000,21504.000000
12797.000000,13617.000000,9637.000000,1.000000,21504.000000
12795.000000,13615.000000,9635.000000,1.000000,21504.000000
12797.000000,13610.000000,9632.000000,1.000000,21504.000000
12797.000000,13610.000000,9629.000000,1.000000,21504.000000
12800.000000,13609.000000,9628.000000,1.000000,21504.000000
12800.000000,13609.000000,9629.000000,1.000000,21504.000000
12800.000000,13609.000000,9626.000000,1.000000,21504.000000
12796.000000,13608.000000,9626.000000,1.000000,21504.000000
12797.000000,13607.000000,9625.000000,1.000000,21504.000000
12793.000000,13607.000000,9624.000000,1.000000,21504.000000
12797.000000,13604.000000,9624.000000,1.000000,21504.000000
12797.000000,13603.000000,9621.000000,1.000000,21504.000000
12790.000000,13597.000000,9614.000000,1.000000,21504.000000
12784.000000,13584.000000,9604.000000,1.000000,21504.000000
12780.000000,13574.000000,9596.000000,1.000000,21504.000000
12780.000000,13574.000000,9589.000000,1.000000,21504.000000
12775.000000,13567.000000,9589.000000,1.000000,21504.000000
12768.000000,13567.000000,9586.000000,1.000000,21504.000000
12771.000000,13567.000000,9589.000000,1.000000,21504.000000
12776.000000,13574.000000,9596.000000,1.000000,21504.000000
12773.000000,13574.000000,9598.000000,1.000000,21504.000000
12769.000000,13570.000000,9597.000000,1.000000,21504.000000
12769.000000,13572.000000,9598.000000,1.000000,21504.000000
12771.000000,13574.000000,9600.000000,1.000000,21504.000000
12771.000000,13575.000000,9602.000000,1.000000,21504.000000
12772.000000,13575.000000,9602.000000,1.000000,21504.000000
12768.000000,13576.000000,9601.000000,1.000000,21504.000000
12771.000000,13578.000000,9602.000000,1.000000,21504.000000
12772.000000,13578.000000,9602.000000,1.000000,21504.000000
12771.000000,13573.000000,9600.000000,1.000000,21504.000000
12773.000000,13576.000000,9602.000000,1.000000,21504.000000
12770.000000,13576.000000,9600.000000,1.000000,21504.000000
12773.000000,13577.000000,9603.000000,1.000000,21504.000000
12773.000000,13575.000000,9601.000000,1.000000,21504.000000
12769.000000,13575.000000,9601.000000,1.000000,21504.000000
12769.000000,13573.000000,9601.000000,1.000000,21504.000000
12767.000000,13573.000000,9601.000000,1.000000,21504.000000
12768.000000,13571.000000,9599.000000,1.000000,21504.000000
12765.000000,13574.000000,9601.000000,1.000000,21504.000000
12765.000000,13576.000000,9602.000000,1.000000,21504.000000
12764.000000,13575.000000,9602.000000,1.000000,21504.000000
12768.000000,13577.000000,9603.000000,1.000000,21504.000000
12768.000000,13577.000000,9603.000000,1.000000,21504.000000
12768.000000,13577.000000,9605.000000,1.000000,21504.000000
12770.000000,13577.000000,9605.000000,1.000000,21504.000000
12771.000000,13580.000000,9605.000000,1.000000,21504.000000
12772.000000,13583.000000,9606.000000,1.000000,21504.000000
12771.000000,13581.000000,9605.000000,1.000000,21504.000000
12767.000000,13582.000000,9604.000000,1.000000,21504.000000
12762.000000,13577.000000,9600.000000,1.000000,21504.000000
12763.000000,13579.000000,9602.000000,1.000000,21504.000000
12763.000000,13581.000000,9603.000000,1.000000,21504.000000
12763.000000,13581.000000,9604.000000,1.000000,21504.000000
12763.000000,13582.000000,9604.000000,1.000000,21504.000000
12762.000000,13583.000000,9603.000000,1.000000,21504.000000
12763.000000,13580.000000,9603.000000,1.000000,21504.000000
12767.000000,13583.000000,9606.000000,1.000000,21504.000000
12766.000000,13587.000000,9606.000000,1.000000,21504.000000
12769.000000,13587.000000,9608.000000,1.000000,21504.000000
12768.000000,13587.000000,9609.000000,1.000000,21504.000000
12768.000000,13585.000000,9607.000000,1.000000,21504.000000
12768.000000,13584.000000,9604.000000,1.000000,21504.000000
12765.000000,13584.000000,9604.000000,1.000000,21504.000000
12762.000000,13581.000000,9604.000000,1.000000,21504.000000
12762.000000,13581.000000,9605.000000,1.000000,21504.000000
12763.000000,13582.000000,9606.000000,1.000000,21504.000000
12763.000000,13584.000000,9606.000000,1.000000,21504.000000
12765.000000,13584.000000,9607.000000,1.000000,21504.000000
12767.000000,13585.000000,9608.000000,1.000000,21504.000000
12764.000000,13585.000000,9608.000000,1.000000,21504.000000
12764.000000,13587.000000,9608.000000,1.000000,21504.000000
12765.000000,13587.000000,9609.000000,1.000000,21504.000000
12770.000000,13585.000000,9609.000000,1.000000,21504.000000
12771.000000,13584.000000,9610.000000,1.000000,21504.000000
12772.000000,13584.000000,9610.000000,1.000000,21504.000000
12766.000000,13584.000000,9606.000000,1.000000,21504.000000
12765.000000,13580.000000,9604.000000,1.000000,21504.000000
12759.000000,13577.000000,9603.000000,1.000000,21504.000000
12762.000000,13577.000000,9604.000000,1.000000,21504.000000
12756.000000,13577.000000,9604.000000,0.000000,21504.000000
12761.000000,13580.000000,9605.000000,0.000000,21504.000000
12760.000000,13579.000000,9604.000000,0.000000,21504.000000
12760.000000,13578.000000,9604.000000,0.000000,21504.000000
12759.000000,13578.000000,9603.000000,0.000000,21504.000000
12760.000000,13577.000000,9603.000000,0.000000,21504.000000
12763.000000,13582.000000,9604.000000,0.000000,21504.000000
12777.000000,13592.000000,9614.000000,0.000000,21504.000000
12787.000000,13603.000000,9622.000000,0.000000,21504.000000
12791.000000,13606.000000,9623.000000,0.000000,21504.000000
12788.000000,13601.000000,9622.000000,0.000000,21504.000000
12785.000000,13602.000000,9620.000000,0.000000,21504.000000
12787.000000,13604.000000,9621.000000,0.000000,21504.000000
12787.000000,13599.000000,9621.000000,0.000000,21504.000000
12782.000000,13599.000000,9621.000000,0.000000,21504.000000
12785.000000,13601.000000,9621.000000,0.000000,21504.000000
12787.000000,13604.000000,9622.000000,0.000000,21504.000000
12787.000000,13602.000000,9622.000000,0.000000,21504.000000
12784.000000,13603.000000,9622.000000,0.000000,21504.000000
12786.000000,13606.000000,9623.000000,0.000000,21504.000000
12788.000000,13603.000000,9624.000000,0.000000,21504.000000
12787.000000,13605.000000,9624.000000,0.000000,21504.000000
12787.000000,13606.000000,9625.000000,0.000000,21504.000000
12787.000000,13606.000000,9625.000000,0.000000,21504.000000
12790.000000,13606.000000,9626.000000,0.000000,21504.000000
12782.000000,13599.000000,9620.000000,0.000000,21504.000000
12771.000000,13595.000000,9613.000000,0.000000,21504.000000
12783.000000,13606.000000,9623.000000,0.000000,21504.000000
12783.000000,13608.000000,9624.000000,0.000000,21504.000000
12786.000000,13609.000000,9624.000000,0.000000,21504.000000
12784.000000,13603.000000,9623.000000,0.000000,21504.000000
12784.000000,13597.000000,9618.000000,0.000000,21504.000000
12775.000000,13597.000000,9619.000000,0.000000,21504.000000
12775.000000,13602.000000,9619.000000,0.000000,21504.000000
12778.000000,13608.000000,9628.000000,0.000000,21504.000000
12802.000000,13637.000000,9657.000000,0.000000,21504.000000
12816.000000,13658.000000,9680.000000,0.000000,21504.000000
12840.000000,13687.000000,9712.000000,0.000000,21504.000000
13057.000000,13816.000000,9813.000000,0.000000,21504.000000
13062.000000,13497.000000,9592.000000,0.000000,21504.000000
13062.000000,13335.000000,9420.000000,0.000000,21504.000000
12935.000000,13335.000000,9787.000000,0.000000,21504.000000
13149.000000,13670.000000,9787.000000,0.000000,21504.000000
13137.000000,13625.000000,9787.000000,0.000000,21504.000000
13142.000000,13620.000000,9752.000000,0.000000,21504.000000
13198.000000,13667.000000,9802.000000,0.000000,21504.000000
13604.000000,14158.000000,10138.000000,0.000000,21504.000000
13510.000000,14052.000000,10072.000000,0.000000,21504.000000
13441.000000,13965.000000,10014.000000,0.000000,21504.000000
13381.000000,13910.000000,9977.000000,0.000000,21504.000000
13381.000000,13910.000000,9957.000000,0.000000,21504.000000
13317.000000,13864.000000,9957.000000,0.000000,21504.000000
13221.000000,13832.000000,9969.000000,0.000000,21504.000000
13264.000000,13900.000000,10057.000000,0.000000,21504.000000
13236.000000,13863.000000,10042.000000,0.000000,21504.000000
13187.000000,13803.000000,10010.000000,0.000000,21504.000000
13134.000000,13733.000000,9970.000000,0.000000,21504.000000
13112.000000,13663.000000,9958.000000,0.000000,21504.000000
13060.000000,13604.000000,9916.000000,0.000000,21504.000000
13060.000000,13538.000000,9868.000000,0.000000,21504.000000
12996.000000,13538.000000,9868.000000,0.000000,21504.000000
12998.000000,13529.000000,9869.000000,0.000000,21504.000000
12968.000000,13501.000000,9844.000000,0.000000,21504.000000
12965.000000,13492.000000,9844.000000,0.000000,21504.000000
12977.000000,13491.000000,9845.000000,0.000000,21504.000000
13021.000000,13496.000000,9843.000000,0.000000,21504.000000
13182.000000,13361.000000,9712.000000,0.000000,21504.000000
12670.000000,12794.000000,9336.000000,0.000000,21504.000000
12670.000000,12842.000000,9221.000000,0.000000,21504.000000
12824.000000,12842.000000,9143.000000,0.000000,21504.000000
12619.000000,12664.000000,9143.000000,0.000000,21504.000000
12455.000000,12470.000000,9105.000000,0.000000,21504.000000
12810.000000,12858.000000,9408.000000,0.000000,21504.000000
12881.000000,13120.000000,9643.000000,0.000000,21504.000000
12838.000000,13045.000000,9573.000000,0.000000,21504.000000
12776.000000,12969.000000,9503.000000,0.000000,21504.000000
12700.000000,12913.000000,9457.000000,0.000000,21504.000000
12700.000000,12868.000000,9433.000000,0.000000,21504.000000
12656.000000,12868.000000,9408.000000,0.000000,21504.000000
12615.000000,12833.000000,9408.000000,0.000000,21504.000000
12591.000000,12809.000000,9392.000000,0.000000,21504.000000
12561.000000,12782.000000,9372.000000,0.000000,21504.000000
12501.000000,12720.000000,9321.000000,0.000000,21504.000000
12441.000000,12663.000000,9282.000000,0.000000,21504.000000
12374.000000,12593.000000,9228.000000,0.000000,21504.000000
12312.000000,12521.000000,9203.000000,0.000000,21504.000000
12278.000000,12458.000000,9187.000000,0.000000,21504.000000
12278.000000,12458.000000,9135.000000,0.000000,21504.000000
12226.000000,12409.000000,9135.000000,0.000000,21504.000000
12205.000000,12395.000000,9119.000000,0.000000,21504.000000
12219.000000,12416.000000,9134.000000,0.000000,21504.000000
12212.000000,12406.000000,9123.000000,0.000000,21504.000000
12221.000000,12432.000000,9141.000000,0.000000,21504.000000
12213.000000,12416.000000,9127.000000,0.000000,21504.000000
12204.000000,12410.000000,9111.000000,0.000000,21504.000000
12206.000000,12421.000000,9125.000000,0.000000,21504.000000
12206.000000,12421.000000,9141.000000,0.000000,21504.000000
12215.000000,12436.000000,9141.000000,0.000000,21504.000000
12223.000000,12452.000000,9153.000000,0.000000,21504.000000
12216.000000,12444.000000,9147.000000,0.000000,21504.000000
12199.000000,12414.000000,9116.000000,0.000000,21504.000000
12188.000000,12397.000000,9115.000000,0.000000,21504.000000
12176.000000,12392.000000,9120.000000,0.000000,21504.000000
12168.000000,12391.000000,9117.000000,0.000000,21504.000000
12165.000000,12380.000000,9116.000000,0.000000,21504.000000
12165.000000,12375.000000,9111.000000,0.000000,21504.000000
12159.000000,12375.000000,9111.000000,0.000000,21504.000000
12154.000000,12373.000000,9109.000000,0.000000,21504.000000
12152.000000,12374.000000,9106.000000,0.000000,21504.000000
12151.000000,12377.000000,9109.000000,0.000000,21504.000000
12130.000000,12359.000000,9094.000000,0.000000,21504.000000
12128.000000,12356.000000,9093.000000,0.000000,21504.000000
12109.000000,12337.000000,9076.000000,0.000000,21504.000000
12088.000000,12319.000000,9068.000000,0.000000,21504.000000
12088.000000,12284.000000,9042.000000,0.000000,21504.000000
12066.000000,12284.000000,9022.000000,0.000000,21504.000000
12048.000000,12262.000000,9022.000000,0.000000,21504.000000
12039.000000,12255.000000,9015.000000,0.000000,21504.000000
12040.000000,12255.000000,9012.000000,0.000000,21504.000000
12032.000000,12254.000000,9013.000000,0.000000,21504.000000
12031.000000,12253.000000,9008.000000,1.000000,21504.000000
12027.000000,12257.000000,9009.000000,1.000000,21504.000000
12030.000000,12258.000000,9010.000000,1.000000,21504.000000
12032.000000,12265.000000,9011.000000,1.000000,21504.000000
12033.000000,12266.000000,9011.000000,1.000000,21504.000000
12033.000000,12273.000000,9014.000000,1.000000,21504.000000
12031.000000,12272.000000,9012.000000,1.000000,21504.000000
12031.000000,12270.000000,9011.000000,1.000000,21504.000000
12026.000000,12270.000000,9011.000000,1.000000,21504.000000
12024.000000,12267.000000,9008.000000,1.000000,21504.000000
12020.000000,12261.000000,9003.000000,1.000000,21504.000000
12015.000000,12259.000000,9001.000000,1.000000,21504.000000
12016.000000,12261.000000,9001.000000,1.000000,21504.000000
12017.000000,12264.000000,8999.000000,1.000000,21504.000000
12015.000000,12266.000000,8998.000000,1.000000,21504.000000
12013.000000,12266.000000,8998.000000,1.000000,21504.000000
12013.000000,12266.000000,8996.000000,1.000000,21504.000000
12012.000000,12266.000000,8994.000000,1.000000,21504.000000
12008.000000,12263.000000,8994.000000,1.000000,21504.000000
12008.000000,12266.000000,8993.000000,1.000000,21504.000000
12009.000000,12270.000000,8992.000000,1.000000,21504.000000
12006.000000,12269.000000,8989.000000,1.000000,21504.000000
11994.000000,12252.000000,8980.000000,1.000000,21504.000000
11990.000000,12248.000000,8978.000000,1.000000,21504.000000
11989.000000,12246.000000,8975.000000,1.000000,21504.000000
11987.000000,12244.000000,8975.000000,1.000000,21504.000000
11987.000000,12246.000000,8974.000000,1.000000,21504.000000
11987.000000,12246.000000,8974.000000,1.000000,21504.000000
11987.000000,12247.000000,8974.000000,1.000000,21504.000000
11988.000000,12250.000000,8975.000000,1.000000,21504.000000
11989.000000,12255.000000,8979.000000,1.000000,21504.000000
11989.000000,12258.000000,8979.000000,1.000000,21504.000000
11992.000000,12266.000000,8982.000000,1.000000,21504.000000
11991.000000,12269.000000,8980.000000,1.000000,21504.000000
11995.000000,12278.000000,8982.000000,1.000000,21504.000000
11995.000000,12277.000000,8982.000000,1.000000,21504.000000
11993.000000,12277.000000,8984.000000,1.000000,21504.000000
11992.000000,12278.000000,8984.000000,1.000000,21504.000000
11986.000000,12268.000000,8981.000000,1.000000,21504.000000
11983.000000,12260.000000,8978.000000,1.000000,21504.000000
11980.000000,12253.000000,8975.000000,1.000000,21504.000000
11979.000000,12251.000000,8975.000000,1.000000,21504.000000
11973.000000,12248.000000,8973.000000,1.000000,21504.000000
11974.000000,12249.000000,8973.000000,1.000000,21504.000000
11975.000000,12250.000000,8972.000000,1.000000,21504.000000
11973.000000,12252.000000,8973.000000,1.000000,21504.000000
11978.000000,12257.000000,8975.000000,1.000000,21504.000000
11978.000000,12262.000000,8977.000000,1.000000,21504.000000
11978.000000,12262.000000,8974.000000,1.000000,21504.000000
11975.000000,12260.000000,8974.000000,1.000000,21504.000000
11977.000000,12263.000000,8974.000000,1.000000,21504.000000
11974.000000,12262.000000,8974.000000,1.000000,21504.000000
11976.000000,12261.000000,8973.000000,1.000000,21504.000000
11976.000000,12262.000000,8973.000000,1.000000,21504.000000
11977.000000,12266.000000,8977.000000,1.000000,21504.000000
11980.000000,12271.000000,8977.000000,1.000000,21504.000000
11980.000000,12275.000000,8980.000000,1.000000,21504.000000
11981.000000,12275.000000,8981.000000,1.000000,21504.000000
11985.000000,12281.000000,8981.000000,1.000000,21504.000000
11984.000000,12285.000000,8982.000000,1.000000,21504.000000
11984.000000,12290.000000,8984.000000,1.000000,21504.000000
11987.000000,12295.000000,8988.000000,1.000000,21504.000000
11988.000000,12298.000000,8993.000000,1.000000,21504.000000
11989.000000,12299.000000,8992.000000,1.000000,21504.000000
11986.000000,12297.000000,8991.000000,1.000000,21504.000000
11985.000000,12293.000000,8990.000000,1.000000,21504.000000
11985.000000,12293.000000,8985.000000,1.000000,21504.000000
11983.000000,12289.000000,8985.000000,1.000000,21504.000000
11983.000000,12287.000000,8984.000000,1.000000,21504.000000
11982.000000,12286.000000,8983.000000,1.000000,21504.000000
11982.000000,12287.000000,8982.000000,1.000000,21504.000000
11984.000000,12285.000000,8982.000000,1.000000,21504.000000
11983.000000,12289.000000,8983.000000,1.000000,21504.000000
11985.000000,12292.000000,8986.000000,1.000000,21504.000000
11985.000000,12294.000000,8988.000000,1.000000,21504.000000
11985.000000,12297.000000,8991.000000,1.000000,21504.000000
11986.000000,12297.000000,8991.000000,1.000000,21504.000000
11988.000000,12303.000000,8994.000000,1.000000,21504.000000
11988.000000,12303.000000,8993.000000,1.000000,21504.000000
11985.000000,12299.000000,8991.000000,1.000000,21504.000000
11983.000000,12292.000000,8986.000000,1.000000,21504.000000
11982.000000,12285.000000,8982.000000,1.000000,21504.000000
11981.000000,12278.000000,8979.000000,1.000000,21504.000000
11978.000000,12275.000000,8976.000000,1.000000,21504.000000
11978.000000,12275.000000,8978.000000,1.000000,21504.000000
11976.000000,12275.000000,8978.000000,1.000000,21504.000000
11977.000000,12274.000000,8978.000000,1.000000,21504.000000
11978.000000,12275.000000,8977.000000,1.000000,21504.000000
11977.000000,12276.000000,8977.000000,1.000000,21504.000000
11980.000000,12285.000000,8980.000000,1.000000,21504.000000
11983.000000,12288.000000,8982.000000,1.000000,21504.000000
11983.000000,12294.000000,8985.000000,1.000000,21504.000000
11984.000000,12294.000000,8985.000000,1.000000,21504.000000
11984.000000,12291.000000,8983.000000,1.000000,21504.000000
11982.000000,12291.000000,8979.000000,1.000000,21504.000000
11979.000000,12283.000000,8979.000000,1.000000,21504.000000
11972.000000,12266.000000,8974.000000,1.000000,21504.000000
11967.000000,12257.000000,8971.000000,1.000000,21504.000000
11967.000000,12256.000000,8968.000000,1.000000,21504.000000
11966.000000,12256.000000,8969.000000,1.000000,21504.000000
11963.000000,12255.000000,8970.000000,1.000000,21504.000000
11964.000000,12257.000000,8971.000000,1.000000,21504.000000
11964.000000,12259.000000,8971.000000,1.000000,21504.000000
11969.000000,12259.000000,8972.000000,1.000000,21504.000000
11971.000000,12262.000000,8972.000000,1.000000,21504.000000
11974.000000,12269.000000,8975.000000,1.000000,21504.000000
11975.000000,12274.000000,8976.000000,1.000000,21504.000000
11977.000000,12279.000000,8976.000000,1.000000,21504.000000
11973.000000,12274.000000,8974.000000,1.000000,21504.000000
11967.000000,12263.000000,8971.000000,1.000000,21504.000000
11960.000000,12251.000000,8966.000000,1.000000,21504.000000
11953.000000,12239.000000,8960.000000,1.000000,21504.000000
11953.000000,12239.000000,8954.000000,1.000000,21504.000000
11948.000000,12230.000000,8954.000000,1.000000,21504.000000
11943.000000,12224.000000,8951.000000,1.000000,21504.000000
11946.000000,12224.000000,8951.000000,1.000000,21504.000000
11946.000000,12226.000000,8951.000000,1.000000,21504.000000
11947.000000,12231.000000,8954.000000,1.000000,21504.000000
11950.000000,12235.000000,8955.000000,1.000000,21504.000000
11955.000000,12240.000000,8957.000000,1.000000,21504.000000
11956.000000,12245.000000,8962.000000,0.000000,21504.000000
11962.000000,12248.000000,8963.000000,0.000000,21504.000000
11959.000000,12247.000000,8962.000000,0.000000,21504.000000
11951.000000,12236.000000,8956.000000,0.000000,21504.000000
11951.000000,12216.000000,8945.000000,0.000000,21504.000000
11936.000000,12216.000000,8934.000000,0.000000,21504.000000
11928.000000,12202.000000,8934.000000,0.000000,21504.000000
11925.000000,12196.000000,8932.000000,0.000000,21504.000000
11923.000000,12193.000000,8929.000000,0.000000,21504.000000
11925.000000,12190.000000,8929.000000,0.000000,21504.000000
11924.000000,12190.000000,8930.000000,0.000000,21504.000000
11925.000000,12191.000000,8929.000000,0.000000,21504.000000
11926.000000,12191.000000,8929.000000,0.000000,21504.000000
11926.000000,12196.000000,8933.000000,0.000000,21504.000000
11927.000000,12196.000000,8936.000000,0.000000,21504.000000
11930.000000,12202.000000,8936.000000,0.000000,21504.000000
11934.000000,12211.000000,8939.000000,0.000000,21504.000000
11934.000000,12209.000000,8938.000000,0.000000,21504.000000
11929.000000,12201.000000,8934.000000,0.000000,21504.000000
11920.000000,12184.000000,8924.000000,0.000000,21504.000000
11913.000000,12171.000000,8921.000000,0.000000,21504.000000
11911.000000,12166.000000,8920.000000,0.000000,21504.000000
11908.000000,12163.000000,8917.000000,0.000000,21504.000000
11908.000000,12163.000000,8916.000000,0.000000,21504.000000
11904.000000,12161.000000,8916.000000,0.000000,21504.000000
11909.000000,12162.000000,8915.000000,0.000000,21504.000000
11913.000000,12169.000000,8919.000000,0.000000,21504.000000
11915.000000,12173.000000,8920.000000,0.000000,21504.000000
11919.000000,12179.000000,8921.000000,0.000000,21504.000000
11920.000000,12183.000000,8922.000000,0.000000,21504.000000
11921.000000,12188.000000,8924.000000,0.000000,21504.000000
11926.000000,12194.000000,8928.000000,0.000000,21504.000000
11926.000000,12193.000000,8925.000000,0.000000,21504.000000
11921.000000,12193.000000,8925.000000,0.000000,21504.000000
11916.000000,12179.000000,8921.000000,0.000000,21504.000000
11906.000000,12166.000000,8915.000000,0.000000,21504.000000
11899.000000,12156.000000,8909.000000,0.000000,21504.000000
11899.000000,12152.000000,8908.000000,0.000000,21504.000000
11900.000000,12150.000000,8908.000000,0.000000,21504.000000
11904.000000,12154.000000,8909.000000,0.000000,21504.000000
11903.000000,12154.000000,8910.000000,0.000000,21504.000000
11903.000000,12161.000000,8912.000000,0.000000,21504.000000
11907.000000,12161.000000,8912.000000,0.000000,21504.000000
11912.000000,12167.000000,8915.000000,0.000000,21504.000000
11916.000000,12171.000000,8917.000000,0.000000,21504.000000
11917.000000,12176.000000,8918.000000,0.000000,21504.000000
11919.000000,12181.000000,8920.000000,0.000000,21504.000000
11918.000000,12179.000000,8919.000000,0.000000,21504.000000
11912.000000,12169.000000,8915.000000,0.000000,21504.000000
11903.000000,12157.000000,8911.000000,0.000000,21504.000000
11903.000000,12148.000000,8905.000000,0.000000,21504.000000
11902.000000,12148.000000,8904.000000,0.000000,21504.000000
11901.000000,12144.000000,8904.000000,0.000000,21504.000000
11900.000000,12144.000000,8904.000000,0.000000,21504.000000
11902.000000,12148.000000,8905.000000,0.000000,21504.000000
11903.000000,12151.000000,8905.000000,0.000000,21504.000000
11906.000000,12156.000000,8909.000000,0.000000,21504.000000
11907.000000,12162.000000,8912.000000,0.000000,21504.000000
11914.000000,12168.000000,8913.000000,0.000000,21504.000000
11914.000000,12174.000000,8915.000000,0.000000,21504.000000
11917.000000,12174.000000,8917.000000,0.000000,21504.000000
11920.000000,12178.000000,8917.000000,0.000000,21504.000000
11919.000000,12177.000000,8916.000000,0.000000,21504.000000
11913.000000,12168.000000,8914.000000,0.000000,21504.000000
11902.000000,12154.000000,8906.000000,0.000000,21504.000000
11900.000000,12143.000000,8902.000000,0.000000,21504.000000
11899.000000,12139.000000,8900.000000,0.000000,21504.000000
11899.000000,12138.000000,8899.000000,0.000000,21504.000000
11901.000000,12141.000000,8901.000000,0.000000,21504.000000
11901.000000,12141.000000,8903.000000,0.000000,21504.000000
11898.000000,12142.000000,8903.000000,0.000000,21504.000000
11901.000000,12147.000000,8904.000000,0.000000,21504.000000
11903.000000,12153.000000,8907.000000,0.000000,21504.000000
11907.000000,12158.000000,8909.000000,0.000000,21504.000000
11911.000000,12167.000000,8912.000000,0.000000,21504.000000
11911.000000,12170.000000,8912.000000,0.000000,21504.000000
11912.000000,12169.000000,8912.000000,0.000000,21504.000000
11905.000000,12165.000000,8909.000000,0.000000,21504.000000
11905.000000,12147.000000,8903.000000,0.000000,21504.000000
11899.000000,12147.000000,8903.000000,0.000000,21504.000000
11897.000000,12139.000000,8899.000000,0.000000,21504.000000
11896.000000,12131.000000,8896.000000,0.000000,21504.000000
11895.000000,12133.000000,8895.000000,0.000000,21504.000000
11895.000000,12136.000000,8896.000000,0.000000,21504.000000
11897.000000,12138.000000,8898.000000,0.000000,21504.000000
11898.000000,12141.000000,8898.000000,0.000000,21504.000000
11899.000000,12148.000000,8901.000000,0.000000,21504.000000
11899.000000,12153.000000,8906.000000,0.000000,21504.000000
11903.000000,12153.000000,8907.000000,0.000000,21504.000000
11908.000000,12160.000000,8907.000000,0.000000,21504.000000
11915.000000,12165.000000,8911.000000,0.000000,21504.000000
11914.000000,12166.000000,8909.000000,0.000000,21504.000000
11907.000000,12157.000000,8906.000000,0.000000,21504.000000
11900.000000,12143.000000,8900.000000,0.000000,21504.000000
11895.000000,12132.000000,8893.000000,0.000000,21504.000000
11893.000000,12126.000000,8890.000000,0.000000,21504.000000
11893.000000,12125.000000,8890.000000,0.000000,21504.000000
11892.000000,12125.000000,8890.000000,0.000000,21504.000000
11892.000000,12125.000000,8890.000000,0.000000,21504.000000
11897.000000,12131.000000,8892.000000,0.000000,21504.000000
11899.000000,12135.000000,8894.000000,0.000000,21504.000000
11900.000000,12138.000000,8895.000000,0.000000,21504.000000
11902.000000,12145.000000,8899.000000,0.000000,21504.000000
11907.000000,12152.000000,8901.000000,0.000000,21504.000000
11907.000000,12155.000000,8902.000000,0.000000,21504.000000
11907.000000,12156.000000,8903.000000,0.000000,21504.000000
11907.000000,12156.000000,8898.000000,0.000000,21504.000000
11900.000000,12145.000000,8898.000000,0.000000,21504.000000
11897.000000,12129.000000,8890.000000,0.000000,21504.000000
11891.000000,12119.000000,8887.000000,0.000000,21504.000000
11888.000000,12118.000000,8883.000000,0.000000,21504.000000
11891.000000,12117.000000,8885.000000,0.000000,21504.000000
11895.000000,12120.000000,8887.000000,0.000000,21504.000000
11899.000000,12127.000000,8888.000000,0.000000,21504.000000
11901.000000,12132.000000,8891.000000,0.000000,21504.000000
11901.000000,12137.000000,8893.000000,0.000000,21504.000000
11901.000000,12137.000000,8893.000000,0.000000,21504.000000
11905.000000,12145.000000,8896.000000,0.000000,21504.000000
0,0,0,0,1.000000
0,0,0,0,1.000000
0.000000,0.000000,0.000000,0.000000,1.000000
0.000000,0.000000,0.000000,0.000000,1.000000
0.000000,0.000000,0.000000,0.000000,1.000000
0.000000,0.000000,0.000000,0.000000,1.000000
0.000000,0.000000,0.000000,0.000000,1.000000
0.000000,0.000000,0.000000,0.000000,1.000000
0.000000,0.000000,0.000000,0.000000,1.000000
0.000000,0.000000,0.000000,0.000000,1.000000
0.000000,0.000000,0.000000,0.000000,1.000000
0.000000,0.000000,0.000000,0.000000,1.000000
0.000000,0.000000,0.000000,0.000000,1.000000
0.000000,0.000000,0.000000,0.000000,1.000000
0.000000,0.000000,0.000000,0.000000,1.000000
0.000000,0.000000,0.000000,0.000000,1.000000
