14993.000000,16956.000000,13031.000000
14994.000000,16956.000000,13031.000000
14992.000000,16948.000000,13035.000000
14992.000000,16948.000000,13035.000000
14992.000000,16948.000000,13035.000000
14991.000000,16946.000000,13037.000000
14991.000000,16947.000000,13036.000000
14991.000000,16946.000000,13036.000000
14991.000000,16947.000000,13036.000000
14991.000000,16947.000000,13036.000000
14991.000000,16946.000000,13036.000000
14989.000000,16936.000000,13041.000000
14990.000000,16942.000000,13038.000000
14991.000000,16946.000000,13036.000000
14991.000000,16947.000000,13036.000000
14991.000000,16947.000000,13036.000000
14991.000000,16946.000000,13036.000000
14991.000000,16946.000000,13036.000000
14990.000000,16943.000000,13038.000000
14990.000000,16941.000000,13039.000000
14987.000000,16931.000000,13044.000000
14987.000000,16931.000000,13040.000000
14989.000000,16939.000000,13040.000000
14981.000000,16907.000000,13056.000000
14988.000000,16936.000000,13041.000000
14989.000000,16938.000000,13040.000000
14989.000000,16939.000000,13040.000000
14989.000000,16939.000000,13040.000000
14989.000000,16939.000000,13040.000000
14988.000000,16933.000000,13043.000000
14990.000000,16943.000000,13038.000000
14990.000000,16942.000000,13038.000000
14989.000000,16938.000000,13040.000000
14989.000000,16934.000000,13042.000000
14988.000000,16934.000000,13042.000000
14987.000000,16929.000000,13044.000000
14987.000000,16929.000000,13044.000000
14987.000000,16930.000000,13044.000000
14983.000000,16915.000000,13051.000000
14983.000000,16915.000000,13054.000000
14981.000000,16909.000000,13054.000000
14980.000000,16900.000000,13059.000000
14986.000000,16928.000000,13045.000000
14987.000000,16930.000000,13044.000000
14986.000000,16929.000000,13045.000000
14986.000000,16929.000000,13043.000000
14987.000000,16931.000000,13043.000000
14985.000000,16924.000000,13047.000000
14986.000000,16927.000000,13045.000000
14984.000000,16917.000000,13050.000000
14984.000000,16917.000000,13051.000000
14984.000000,16917.000000,13074.000000
14971.000000,16868.000000,13074.000000
14980.000000,16905.000000,13056.000000
14982.000000,16912.000000,13053.000000
14980.000000,16902.000000,13058.000000
14980.000000,16903.000000,13057.000000
14980.000000,16912.000000,13053.000000
14982.000000,16912.000000,13053.000000
14983.000000,16916.000000,13051.000000
14983.000000,16914.000000,13052.000000
14983.000000,16916.000000,13051.000000
14983.000000,16914.000000,13052.000000
14983.000000,16914.000000,13058.000000
14980.000000,16903.000000,13058.000000
14976.000000,16886.000000,13066.000000
14977.000000,16891.000000,13063.000000
14980.000000,16901.000000,13059.000000
14975.000000,16886.000000,13066.000000
14975.000000,16864.000000,13077.000000
14970.000000,16864.000000,13077.000000
14977.000000,16890.000000,13064.000000
14976.000000,16888.000000,13066.000000
14975.000000,16881.000000,13068.000000
14978.000000,16894.000000,13061.000000
14979.000000,16900.000000,13059.000000
14979.000000,16900.000000,13055.000000
14982.000000,16908.000000,13055.000000
14983.000000,16915.000000,13051.000000
14979.000000,16900.000000,13059.000000
14971.000000,16868.000000,13075.000000
14976.000000,16886.000000,13066.000000
14976.000000,16887.000000,13065.000000
14977.000000,16889.000000,13064.000000
14977.000000,16889.000000,13067.000000
14975.000000,16884.000000,13067.000000
14973.000000,16877.000000,13070.000000
14978.000000,16894.000000,13062.000000
14977.000000,16890.000000,13064.000000
14973.000000,16875.000000,13072.000000
14973.000000,16875.000000,13086.000000
14966.000000,16846.000000,13086.000000
14966.000000,16846.000000,13086.000000
14965.000000,16842.000000,13088.000000
14964.000000,16841.000000,13088.000000
14963.000000,16837.000000,13091.000000
14963.000000,16836.000000,13091.000000
14963.000000,16836.000000,13091.000000
14962.000000,16839.000000,13088.000000
14963.000000,16836.000000,13090.000000
14964.000000,16838.000000,13090.000000
14963.000000,16837.000000,13090.000000
14963.000000,16840.000000,13089.000000
14964.000000,16840.000000,13089.000000
14964.000000,16843.000000,13088.000000
14965.000000,16844.000000,13087.000000
14964.000000,16843.000000,13087.000000
14966.000000,16844.000000,13087.000000
14966.000000,16843.000000,13087.000000
14965.000000,16843.000000,13087.000000
14965.000000,16844.000000,13087.000000
14965.000000,16842.000000,13087.000000
14964.000000,16840.000000,13089.000000
14965.000000,16843.000000,13087.000000
14964.000000,16843.000000,13088.000000
14964.000000,16843.000000,13087.000000
14965.000000,16843.000000,13087.000000
14964.000000,16843.000000,13087.000000
14965.000000,16845.000000,13087.000000
14965.000000,16844.000000,13087.000000
14965.000000,16849.000000,13084.000000
14965.000000,16849.000000,13084.000000
14966.000000,16846.000000,13086.000000
14966.000000,16846.000000,13086.000000
14966.000000,16845.000000,13087.000000
14964.000000,16845.000000,13087.000000
14964.000000,16844.000000,13087.000000
14964.000000,16844.000000,13087.000000
14965.000000,16845.000000,13086.000000
14964.000000,16844.000000,13087.000000
14965.000000,16846.000000,13086.000000
14964.000000,16846.000000,13086.000000
14964.000000,16843.000000,13087.000000
14964.000000,16843.000000,13087.000000
14965.000000,16843.000000,13087.000000
14965.000000,16845.000000,13087.000000
14966.000000,16847.000000,13086.000000
14965.000000,16846.000000,13086.000000
14966.000000,16846.000000,13086.000000
14966.000000,16846.000000,13087.000000
14964.000000,16843.000000,13087.000000
14964.000000,16843.000000,13087.000000
14964.000000,16844.000000,13087.000000
14963.000000,16845.000000,13086.000000
14962.000000,16848.000000,13085.000000
14962.000000,16848.000000,13084.000000
14963.000000,16850.000000,13084.000000
14962.000000,16848.000000,13085.000000
14966.000000,16847.000000,13086.000000
14965.000000,16852.000000,13082.000000
14966.000000,16852.000000,13083.000000
14966.000000,16854.000000,13082.000000
14966.000000,16854.000000,13082.000000
14963.000000,16854.000000,13082.000000
14964.000000,16850.000000,13084.000000
14959.000000,16855.000000,13081.000000
14964.000000,16851.000000,13084.000000
14960.000000,16853.000000,13082.000000
14960.000000,16853.000000,13083.000000
14963.000000,16853.000000,13083.000000
14962.000000,16850.000000,13083.000000
14961.000000,16852.000000,13083.000000
14962.000000,16849.000000,13084.000000
14961.000000,16852.000000,13083.000000
14961.000000,16852.000000,13083.000000
14964.000000,16852.000000,13083.000000
14961.000000,16851.000000,13083.000000
14962.000000,16851.000000,13082.000000
14956.000000,16849.000000,13084.000000
14954.000000,16851.000000,13083.000000
14954.000000,16853.000000,13082.000000
14951.000000,16853.000000,13082.000000
14950.000000,16852.000000,13079.000000
14947.000000,16850.000000,13081.000000
14954.000000,16854.000000,13080.000000
14956.000000,16849.000000,13082.000000
14956.000000,16851.000000,13081.000000
14953.000000,16851.000000,13081.000000
14953.000000,16853.000000,13080.000000
14957.000000,16851.000000,13081.000000
14956.000000,16849.000000,13083.000000
14947.000000,16852.000000,13079.000000
14940.000000,16852.000000,13077.000000
14940.000000,16852.000000,13075.000000
14933.000000,16852.000000,13075.000000
14932.000000,16851.000000,13072.000000
14932.000000,16848.000000,13073.000000
14933.000000,16849.000000,13075.000000
14933.000000,16849.000000,13074.000000
14931.000000,16849.000000,13074.000000
14930.000000,16849.000000,13074.000000
14937.000000,16848.000000,13077.000000
14937.000000,16851.000000,13076.000000
14938.000000,16853.000000,13077.000000
14938.000000,16854.000000,13079.000000
14938.000000,16854.000000,13076.000000
14936.000000,16849.000000,13076.000000
14927.000000,16849.000000,13072.000000
14921.000000,16841.000000,13067.000000
14922.000000,16841.000000,13064.000000
14920.000000,16837.000000,13063.000000
14923.000000,16841.000000,13064.000000
14922.000000,16838.000000,13063.000000
14922.000000,16842.000000,13065.000000
14921.000000,16842.000000,13065.000000
14961.000000,16843.000000,13087.000000
14963.000000,16841.000000,13088.000000
14964.000000,16839.000000,13090.000000
14964.000000,16842.000000,13087.000000
14964.000000,16843.000000,13087.000000
14961.000000,16843.000000,13087.000000
14940.000000,16843.000000,13078.000000
14951.000000,16846.000000,13082.000000
14959.000000,16844.000000,13086.000000
14961.000000,16841.000000,13087.000000
14961.000000,16844.000000,13086.000000
14958.000000,16844.000000,13086.000000
14958.000000,16844.000000,13087.000000
14960.000000,16845.000000,13087.000000
14961.000000,16844.000000,13087.000000
14963.000000,16843.000000,13088.000000
14952.000000,16844.000000,13084.000000
14952.000000,16844.000000,13081.000000
14940.000000,16844.000000,13081.000000
14955.000000,16843.000000,13086.000000
14945.000000,16847.000000,13083.000000
14946.000000,16846.000000,13083.000000
14944.000000,16848.000000,13083.000000
14944.000000,16844.000000,13086.000000
14946.000000,16844.000000,13086.000000
14934.000000,16844.000000,13076.000000
14949.000000,16843.000000,13084.000000
14943.000000,16845.000000,13085.000000
14951.000000,16845.000000,13086.000000
14958.000000,16845.000000,13087.000000
14958.000000,16843.000000,13087.000000
14956.000000,16843.000000,13087.000000
14952.000000,16846.000000,13085.000000
14942.000000,16847.000000,13084.000000
14910.000000,16821.000000,13055.000000
14932.000000,16847.000000,13082.000000
14932.000000,16843.000000,13081.000000
14932.000000,16843.000000,13085.000000
14932.000000,16846.000000,13085.000000
14931.000000,16842.000000,13080.000000
14935.000000,16841.000000,13083.000000
14934.000000,16846.000000,13082.000000
14936.000000,16839.000000,13076.000000
14936.000000,16839.000000,13084.000000
14941.000000,16847.000000,13084.000000
14944.000000,16845.000000,13086.000000
14920.000000,16835.000000,13068.000000
14937.000000,16844.000000,13083.000000
14930.000000,16845.000000,13082.000000
14930.000000,16845.000000,13080.000000
14926.000000,16845.000000,13080.000000
14920.000000,16836.000000,13073.000000
14927.000000,16845.000000,13082.000000
14925.000000,16841.000000,13080.000000
14929.000000,16839.000000,13080.000000
14927.000000,16842.000000,13081.000000
14927.000000,16842.000000,13084.000000
14931.000000,16844.000000,13084.000000
14937.000000,16845.000000,13084.000000
14935.000000,16848.000000,13084.000000
14932.000000,16842.000000,13081.000000
14938.000000,16849.000000,13084.000000
14938.000000,16836.000000,13070.000000
14918.000000,16836.000000,13070.000000
14920.000000,16838.000000,13077.000000
14927.000000,16847.000000,13082.000000
14925.000000,16847.000000,13082.000000
14927.000000,16846.000000,13083.000000
14924.000000,16840.000000,13074.000000
14924.000000,16840.000000,13081.000000
14929.000000,16848.000000,13081.000000
14930.000000,16846.000000,13082.000000
14933.000000,16846.000000,13083.000000
14936.000000,16847.000000,13084.000000
14917.000000,16837.000000,13066.000000
14917.000000,16837.000000,13083.000000
14940.000000,16851.000000,13083.000000
14934.000000,16853.000000,13082.000000
14925.000000,16847.000000,13078.000000
14931.000000,16850.000000,13081.000000
14931.000000,16849.000000,13081.000000
14931.000000,16846.000000,13082.000000
14927.000000,16846.000000,13082.000000
14929.000000,16847.000000,13083.000000
14928.000000,16847.000000,13081.000000
14930.000000,16849.000000,13084.000000
14927.000000,16844.000000,13077.000000
14933.000000,16852.000000,13082.000000
14933.000000,16852.000000,13082.000000
14945.000000,16852.000000,13083.000000
14945.000000,16848.000000,13079.000000
14936.000000,16848.000000,13079.000000
14926.000000,16844.000000,13077.000000
14930.000000,16851.000000,13082.000000
14930.000000,16849.000000,13084.000000
14925.000000,16847.000000,13077.000000
14929.000000,16851.000000,13083.000000
14929.000000,16851.000000,13083.000000
14933.000000,16852.000000,13083.000000
14936.000000,16854.000000,13082.000000
14935.000000,16850.000000,13083.000000
14939.000000,16851.000000,13083.000000
14917.000000,16848.000000,13072.000000
14917.000000,16853.000000,13081.000000
14937.000000,16853.000000,13081.000000
14943.000000,16854.000000,13082.000000
14944.000000,16851.000000,13083.000000
14944.000000,16850.000000,13084.000000
14937.000000,16850.000000,13084.000000
14932.000000,16850.000000,13083.000000
14932.000000,16850.000000,13083.000000
14936.000000,16852.000000,13083.000000
14934.000000,16848.000000,13082.000000
14933.000000,16851.000000,13083.000000
14941.000000,16851.000000,13083.000000
14947.000000,16852.000000,13083.000000
14950.000000,16850.000000,13083.000000
14952.000000,16855.000000,13082.000000
14952.000000,16855.000000,13080.000000
14930.000000,16854.000000,13080.000000
14939.000000,16854.000000,13082.000000
14943.000000,16853.000000,13083.000000
14946.000000,16853.000000,13083.000000
14942.000000,16854.000000,13082.000000
14942.000000,16854.000000,13083.000000
14944.000000,16852.000000,13083.000000
14946.000000,16851.000000,13083.000000
14942.000000,16854.000000,13082.000000
14935.000000,16853.000000,13080.000000
14903.000000,16851.000000,13074.000000
14903.000000,16853.000000,13076.000000
14904.000000,16853.000000,13076.000000
14907.000000,16857.000000,13078.000000
14912.000000,16860.000000,13077.000000
14908.000000,16858.000000,13078.000000
14901.000000,16855.000000,13076.000000
14898.000000,16849.000000,13075.000000
14898.000000,16849.000000,13072.000000
14897.000000,16849.000000,13072.000000
14900.000000,16851.000000,13073.000000
14900.000000,16850.000000,13072.000000
14898.000000,16852.000000,13074.000000
14899.000000,16852.000000,13074.000000
14899.000000,16852.000000,13076.000000
14899.000000,16854.000000,13076.000000
14899.000000,16857.000000,13076.000000
14901.000000,16858.000000,13076.000000
14901.000000,16858.000000,13074.000000
14903.000000,16860.000000,13077.000000
14903.000000,16860.000000,13076.000000
14898.000000,16857.000000,13076.000000
14896.000000,16855.000000,13075.000000
14893.000000,16851.000000,13071.000000
14893.000000,16849.000000,13069.000000
14893.000000,16850.000000,13068.000000
14893.000000,16849.000000,13068.000000
14891.000000,16849.000000,13068.000000
14890.000000,16846.000000,13063.000000
14889.000000,16848.000000,13066.000000
14888.000000,16848.000000,13065.000000
14892.000000,16852.000000,13072.000000
14891.000000,16856.000000,13068.000000
14891.000000,16856.000000,13071.000000
14891.000000,16856.000000,13071.000000
14883.000000,16846.000000,13061.000000
14882.000000,16838.000000,13058.000000
14880.000000,16836.000000,13053.000000
14882.000000,16832.000000,13049.000000
14882.000000,16834.000000,13053.000000
14881.000000,16834.000000,13053.000000
14879.000000,16835.000000,13051.000000
14881.000000,16834.000000,13052.000000
14882.000000,16835.000000,13054.000000
14883.000000,16836.000000,13056.000000
14884.000000,16838.000000,13058.000000
14884.000000,16838.000000,13059.000000
14883.000000,16843.000000,13059.000000
14881.000000,16840.000000,13058.000000
14872.000000,16830.000000,13046.000000
14870.000000,16823.000000,13039.000000
14870.000000,16820.000000,13038.000000
14870.000000,16817.000000,13037.000000
14871.000000,16817.000000,13037.000000
14869.000000,16820.000000,13036.000000
14868.000000,16814.000000,13031.000000
14866.000000,16817.000000,13031.000000
14865.000000,16814.000000,13031.000000
14865.000000,16820.000000,13033.000000
14866.000000,16820.000000,13033.000000
14868.000000,16819.000000,13039.000000
14871.000000,16823.000000,13040.000000
14865.000000,16813.000000,13030.000000
14859.000000,16805.000000,13022.000000
14853.000000,16796.000000,13013.000000
14853.000000,16789.000000,13007.000000
14851.000000,16789.000000,13007.000000
14849.000000,16784.000000,13003.000000
14844.000000,16783.000000,13001.000000
14846.000000,16781.000000,13003.000000
14845.000000,16779.000000,13001.000000
14845.000000,16782.000000,13003.000000
14848.000000,16782.000000,13003.000000
14847.000000,16785.000000,13005.000000
14849.000000,16793.000000,13011.000000
14853.000000,16793.000000,13014.000000
14848.000000,16786.000000,13006.000000
14848.000000,16770.000000,12991.000000
14841.000000,16770.000000,12991.000000
14837.000000,16765.000000,12988.000000
14835.000000,16757.000000,12978.000000
14831.000000,16756.000000,12979.000000
14831.000000,16753.000000,12973.000000
14831.000000,16751.000000,12971.000000
14831.000000,16752.000000,12974.000000
14828.000000,16752.000000,12974.000000
14831.000000,16755.000000,12974.000000
14833.000000,16755.000000,12975.000000
14836.000000,16760.000000,12985.000000
14836.000000,16763.000000,12985.000000
14836.000000,16756.000000,12977.000000
14833.000000,16756.000000,12977.000000
14826.000000,16744.000000,12964.000000
14822.000000,16735.000000,12954.000000
14819.000000,16728.000000,12944.000000
14818.000000,16726.000000,12942.000000
14816.000000,16723.000000,12939.000000
14816.000000,16723.000000,12939.000000
14816.000000,16723.000000,12939.000000
14816.000000,16724.000000,12943.000000
14816.000000,16725.000000,12944.000000
14816.000000,16725.000000,12941.000000
14817.000000,16728.000000,12943.000000
14817.000000,16728.000000,12946.000000
14817.000000,16729.000000,12946.000000
14805.000000,16705.000000,12929.000000
14803.000000,16699.000000,12926.000000
14797.000000,16687.000000,12927.000000
14798.000000,16688.000000,12921.000000
14796.000000,16682.000000,12922.000000
14794.000000,16682.000000,12922.000000
14794.000000,16682.000000,12933.000000
14810.000000,16708.000000,12933.000000
14820.000000,16721.000000,12936.000000
14826.000000,16733.000000,12950.000000
14819.000000,16718.000000,12943.000000
14832.000000,16738.000000,12957.000000
14832.000000,16728.000000,12951.000000
14825.000000,16728.000000,12951.000000
14818.000000,16712.000000,12932.000000
14816.000000,16700.000000,12933.000000
14809.000000,16694.000000,12932.000000
14814.000000,16698.000000,12931.000000
14814.000000,16694.000000,12933.000000
14813.000000,16694.000000,12933.000000
14812.000000,16692.000000,12933.000000
14811.000000,16691.000000,12932.000000
14814.000000,16700.000000,12930.000000
14817.000000,16707.000000,12930.000000
14817.000000,16712.000000,12935.000000
14821.000000,16712.000000,12933.000000
14816.000000,16707.000000,12933.000000
14797.000000,16683.000000,12920.000000
14812.000000,16688.000000,12937.000000
14808.000000,16681.000000,12934.000000
14808.000000,16680.000000,12937.000000
14808.000000,16678.000000,12934.000000
14806.000000,16678.000000,12934.000000
14806.000000,16678.000000,12934.000000
14799.000000,16674.000000,12928.000000
14806.000000,16679.000000,12933.000000
14806.000000,16681.000000,12932.000000
14808.000000,16683.000000,12934.000000
14808.000000,16677.000000,12920.000000
14793.000000,16677.000000,12920.000000
14810.000000,16695.000000,12926.000000
14805.000000,16688.000000,12924.000000
14805.000000,16679.000000,12931.000000
14794.000000,16670.000000,12924.000000
14796.000000,16672.000000,12923.000000
14796.000000,16672.000000,12925.000000
14797.000000,16672.000000,12925.000000
14796.000000,16672.000000,12922.000000
14795.000000,16672.000000,12920.000000
14795.000000,16673.000000,12922.000000
14799.000000,16675.000000,12927.000000
14799.000000,16675.000000,12927.000000
14801.000000,16678.000000,12927.000000
14805.000000,16689.000000,12929.000000
14810.000000,16694.000000,12927.000000
14789.000000,16677.000000,12918.000000
14799.000000,16676.000000,12924.000000
14799.000000,16672.000000,12922.000000
14795.000000,16672.000000,12922.000000
14793.000000,16672.000000,12921.000000
14792.000000,16668.000000,12920.000000
14789.000000,16667.000000,12918.000000
14790.000000,16671.000000,12917.000000
14794.000000,16674.000000,12919.000000
14794.000000,16674.000000,12920.000000
14792.000000,16671.000000,12920.000000
14794.000000,16676.000000,12919.000000
14777.000000,16666.000000,12913.000000
14796.000000,16682.000000,12921.000000
14792.000000,16680.000000,12920.000000
14792.000000,16673.000000,12916.000000
14787.000000,16673.000000,12916.000000
14786.000000,16668.000000,12914.000000
14786.000000,16666.000000,12912.000000
14786.000000,16666.000000,12916.000000
14788.000000,16663.000000,12915.000000
14787.000000,16666.000000,12917.000000
14787.000000,16666.000000,12915.000000
14785.000000,16663.000000,12915.000000
14788.000000,16667.000000,12916.000000
14790.000000,16670.000000,12919.000000
14796.000000,16676.000000,12923.000000
14797.000000,16677.000000,12921.000000
14797.000000,16677.000000,12916.000000
14781.000000,16660.000000,12916.000000
14784.000000,16660.000000,12912.000000
14785.000000,16661.000000,12915.000000
14779.000000,16654.000000,12912.000000
14782.000000,16658.000000,12913.000000
14782.000000,16658.000000,12912.000000
14781.000000,16660.000000,12912.000000
14783.000000,16658.000000,12915.000000
14783.000000,16663.000000,12915.000000
14785.000000,16663.000000,12913.000000
14788.000000,16667.000000,12916.000000
14788.000000,16654.000000,12910.000000
14770.000000,16654.000000,12910.000000
14781.000000,16665.000000,12914.000000
14783.000000,16661.000000,12914.000000
14777.000000,16656.000000,12912.000000
14776.000000,16651.000000,12910.000000
14776.000000,16652.000000,12911.000000
14775.000000,16652.000000,12911.000000
14775.000000,16652.000000,12909.000000
14779.000000,16655.000000,12910.000000
14772.000000,16654.000000,12910.000000
14779.000000,16662.000000,12912.000000
14779.000000,16663.000000,12913.000000
14781.000000,16663.000000,12913.000000
14784.000000,16666.000000,12913.000000
14782.000000,16669.000000,12915.000000
14777.000000,16661.000000,12911.000000
14764.000000,16645.000000,12909.000000
14761.000000,16638.000000,12908.000000
14761.000000,16638.000000,12908.000000
14768.000000,16647.000000,12908.000000
14771.000000,16647.000000,12908.000000
14773.000000,16651.000000,12908.000000
14772.000000,16653.000000,12910.000000
14775.000000,16659.000000,12911.000000
14779.000000,16664.000000,12911.000000
14779.000000,16638.000000,12908.000000
14753.000000,16638.000000,12908.000000
14751.000000,16629.000000,12906.000000
14744.000000,16623.000000,12907.000000
14743.000000,16612.000000,12906.000000
14740.000000,16606.000000,12906.000000
14740.000000,16606.000000,12907.000000
14740.000000,16606.000000,12906.000000
14741.000000,16605.000000,12906.000000
14741.000000,16609.000000,12906.000000
14741.000000,16609.000000,12906.000000
14742.000000,16616.000000,12906.000000
14743.000000,16619.000000,12906.000000
14743.000000,16619.000000,12906.000000
14745.000000,16625.000000,12906.000000
14744.000000,16628.000000,12906.000000
14741.000000,16618.000000,12906.000000
14737.000000,16607.000000,12906.000000
14732.000000,16600.000000,12905.000000
14732.000000,16601.000000,12906.000000
14732.000000,16601.000000,12906.000000
14735.000000,16602.000000,12906.000000
14732.000000,16602.000000,12906.000000
14735.000000,16606.000000,12906.000000
14737.000000,16607.000000,12905.000000
14737.000000,16613.000000,12905.000000
14738.000000,16613.000000,12905.000000
14739.000000,16617.000000,12905.000000
14740.000000,16623.000000,12906.000000
14738.000000,16620.000000,12906.000000
14733.000000,16612.000000,12906.000000
14733.000000,16601.000000,12906.000000
14730.000000,16601.000000,12906.000000
14730.000000,16600.000000,12905.000000
14729.000000,16597.000000,12905.000000
14731.000000,16601.000000,12906.000000
14729.000000,16599.000000,12905.000000
14729.000000,16602.000000,12905.000000
14728.000000,16602.000000,12905.000000
14731.000000,16604.000000,12905.000000
14733.000000,16609.000000,12906.000000
14737.000000,16619.000000,12906.000000
14737.000000,16621.000000,12906.000000
14737.000000,16612.000000,12906.000000
14734.000000,16612.000000,12906.000000
14731.000000,16604.000000,12905.000000
14725.000000,16600.000000,12906.000000
14725.000000,16597.000000,12905.000000
14723.000000,16597.000000,12905.000000
14723.000000,16599.000000,12905.000000
14723.000000,16599.000000,12905.000000
14725.000000,16601.000000,12905.000000
14725.000000,16604.000000,12906.000000
14728.000000,16605.000000,12906.000000
14734.000000,16610.000000,12906.000000
14734.000000,16616.000000,12905.000000
14734.000000,16616.000000,12905.000000
14733.000000,16615.000000,12906.000000
14729.000000,16606.000000,12905.000000
14724.000000,16599.000000,12905.000000
14723.000000,16596.000000,12906.000000
14720.000000,16595.000000,12905.000000
14720.000000,16595.000000,12906.000000
14721.000000,16595.000000,12906.000000
14723.000000,16598.000000,12906.000000
14724.000000,16601.000000,12906.000000
14726.000000,16602.000000,12905.000000
14730.000000,16605.000000,12906.000000
14730.000000,16614.000000,12906.000000
14733.000000,16614.000000,12906.000000
14734.000000,16621.000000,12906.000000
14732.000000,16612.000000,12906.000000
14727.000000,16606.000000,12906.000000
14722.000000,16599.000000,12906.000000
14722.000000,16597.000000,12905.000000
14719.000000,16597.000000,12905.000000
14721.000000,16598.000000,12905.000000
14722.000000,16600.000000,12905.000000
14722.000000,16599.000000,12905.000000
14724.000000,16604.000000,12905.000000
14727.000000,16604.000000,12905.000000
14727.000000,16604.000000,12906.000000
14727.000000,16612.000000,12906.000000
14731.000000,16618.000000,12906.000000
14733.000000,16623.000000,12906.000000
14732.000000,16623.000000,12906.000000
14727.000000,16614.000000,12906.000000
14727.000000,16614.000000,12905.000000
14726.000000,16609.000000,12905.000000
14722.000000,16606.000000,12906.000000
14725.000000,16606.000000,12905.000000
14726.000000,16610.000000,12905.000000
14728.000000,16609.000000,12906.000000
14728.000000,16610.000000,12905.000000
14726.000000,16610.000000,12905.000000
14730.000000,16616.000000,12906.000000
14732.000000,16622.000000,12906.000000
14735.000000,16628.000000,12906.000000
14735.000000,16633.000000,12906.000000
14734.000000,16631.000000,12906.000000
14734.000000,16631.000000,12905.000000
14732.000000,16625.000000,12905.000000
14730.000000,16617.000000,12906.000000
14729.000000,16614.000000,12906.000000
14729.000000,16617.000000,12906.000000
14730.000000,16619.000000,12906.000000
14730.000000,16619.000000,12906.000000
14732.000000,16621.000000,12906.000000
14732.000000,16624.000000,12907.000000
14734.000000,16629.000000,12907.000000
14736.000000,16632.000000,12906.000000
14737.000000,16639.000000,12906.000000
14737.000000,16639.000000,12906.000000
14739.000000,16642.000000,12906.000000
14736.000000,16632.000000,12906.000000
14733.000000,16624.000000,12906.000000
14730.000000,16617.000000,12906.000000
14729.000000,16614.000000,12906.000000
14730.000000,16614.000000,12906.000000
14743.000000,16635.000000,12906.000000
14743.000000,16635.000000,12907.000000
14756.000000,16655.000000,12907.000000
14759.000000,16661.000000,12908.000000
14759.000000,16662.000000,12909.000000
14763.000000,16668.000000,12909.000000
14763.000000,16663.000000,12911.000000
14759.000000,16663.000000,12908.000000
14755.000000,16661.000000,12908.000000
14754.000000,16658.000000,12908.000000
14755.000000,16653.000000,12907.000000
14755.000000,16653.000000,12906.000000
14754.000000,16653.000000,12908.000000
14754.000000,16653.000000,12908.000000
14756.000000,16657.000000,12908.000000
14744.000000,16641.000000,12907.000000
14756.000000,16657.000000,12908.000000
14758.000000,16662.000000,12909.000000
14762.000000,16668.000000,12909.000000
14762.000000,16668.000000,12910.000000
14761.000000,16668.000000,12910.000000
14756.000000,16662.000000,12910.000000
14754.000000,16657.000000,12907.000000
14753.000000,16653.000000,12907.000000
14754.000000,16650.000000,12908.000000
14754.000000,16650.000000,12908.000000
14752.000000,16653.000000,12908.000000
14753.000000,16654.000000,12907.000000
14739.000000,16634.000000,12906.000000
14753.000000,16653.000000,12908.000000
14751.000000,16653.000000,12909.000000
14751.000000,16663.000000,12909.000000
14757.000000,16663.000000,12909.000000
14758.000000,16667.000000,12912.000000
14756.000000,16668.000000,12910.000000
14752.000000,16663.000000,12908.000000
14752.000000,16659.000000,12908.000000
14750.000000,16656.000000,12908.000000
14750.000000,16656.000000,12908.000000
14746.000000,16649.000000,12908.000000
14750.000000,16655.000000,12908.000000
14751.000000,16655.000000,12908.000000
14753.000000,16656.000000,12909.000000
14739.000000,16643.000000,12906.000000
14739.000000,16643.000000,12906.000000
14755.000000,16662.000000,12910.000000
14755.000000,16666.000000,12910.000000
14758.000000,16674.000000,12910.000000
14758.000000,16675.000000,12912.000000
14758.000000,16674.000000,12911.000000
14758.000000,16674.000000,12910.000000
14754.000000,16667.000000,12910.000000
14752.000000,16663.000000,12908.000000
14754.000000,16662.000000,12909.000000
14754.000000,16662.000000,12909.000000
14754.000000,16666.000000,12909.000000
14757.000000,16666.000000,12909.000000
14740.000000,16643.000000,12906.000000
14754.000000,16669.000000,12911.000000
14758.000000,16670.000000,12911.000000
14760.000000,16675.000000,12913.000000
14763.000000,16679.000000,12914.000000
14763.000000,16679.000000,12914.000000
14765.000000,16684.000000,12914.000000
14760.000000,16675.000000,12912.000000
14756.000000,16671.000000,12910.000000
14752.000000,16663.000000,12908.000000
14755.000000,16665.000000,12909.000000
14755.000000,16665.000000,12908.000000
14754.000000,16664.000000,12908.000000
14755.000000,16668.000000,12910.000000
14755.000000,16669.000000,12910.000000
14748.000000,16663.000000,12908.000000
14754.000000,16672.000000,12908.000000
14758.000000,16674.000000,12912.000000
14758.000000,16674.000000,12912.000000
14764.000000,16684.000000,12913.000000
14766.000000,16687.000000,12914.000000
14758.000000,16677.000000,12910.000000
14755.000000,16673.000000,12909.000000
14755.000000,16668.000000,12910.000000
14755.000000,16668.000000,12909.000000
14755.000000,16668.000000,12909.000000
14753.000000,16666.000000,12910.000000
14754.000000,16671.000000,12910.000000
14750.000000,16662.000000,12908.000000
14752.000000,16669.000000,12908.000000
14752.000000,16677.000000,12909.000000
14756.000000,16677.000000,12909.000000
14760.000000,16683.000000,12912.000000
14765.000000,16689.000000,12915.000000
14764.000000,16690.000000,12916.000000
14754.000000,16678.000000,12912.000000
14754.000000,16676.000000,12911.000000
14751.000000,16676.000000,12911.000000
14752.000000,16674.000000,12909.000000
14752.000000,16675.000000,12910.000000
14753.000000,16675.000000,12909.000000
14755.000000,16677.000000,12911.000000
14755.000000,16677.000000,12913.000000
14756.000000,16677.000000,12913.000000
14750.000000,16672.000000,12910.000000
14746.000000,16669.000000,12910.000000
14759.000000,16684.000000,12914.000000
14762.000000,16694.000000,12916.000000
14762.000000,16694.000000,12914.000000
14760.000000,16695.000000,12914.000000
14756.000000,16689.000000,12914.000000
14755.000000,16682.000000,12912.000000
14751.000000,16679.000000,12909.000000
14747.000000,16672.000000,12909.000000
14747.000000,16678.000000,12911.000000
14754.000000,16678.000000,12911.000000
14753.000000,16679.000000,12911.000000
14748.000000,16676.000000,12910.000000
14748.000000,16675.000000,12910.000000
14754.000000,16684.000000,12913.000000
14757.000000,16694.000000,12916.000000
14762.000000,16698.000000,12921.000000
14762.000000,16695.000000,12917.000000
14757.000000,16695.000000,12917.000000
14754.000000,16685.000000,12915.000000
14751.000000,16682.000000,12913.000000
14753.000000,16682.000000,12912.000000
14752.000000,16682.000000,12912.000000
14752.000000,16682.000000,12915.000000
14754.000000,16682.000000,12915.000000
14729.000000,16656.000000,12907.000000
14731.000000,16655.000000,12907.000000
14731.000000,16655.000000,12908.000000
14732.000000,16661.000000,12908.000000
14732.000000,16661.000000,12909.000000
14731.000000,16661.000000,12909.000000
14729.000000,16661.000000,12907.000000
14725.000000,16654.000000,12906.000000
14720.000000,16646.000000,12907.000000
14719.000000,16641.000000,12906.000000
14718.000000,16639.000000,12906.000000
14718.000000,16639.000000,12906.000000
14715.000000,16635.000000,12906.000000
14715.000000,16639.000000,12906.000000
14715.000000,16638.000000,12906.000000
14716.000000,16635.000000,12905.000000
14716.000000,16636.000000,12907.000000
14716.000000,16636.000000,12907.000000
14719.000000,16640.000000,12906.000000
14720.000000,16645.000000,12906.000000
14715.000000,16638.000000,12906.000000
14710.000000,16625.000000,12906.000000
14706.000000,16618.000000,12906.000000
14706.000000,16618.000000,12905.000000
14699.000000,16612.000000,12905.000000
14700.000000,16613.000000,12906.000000
14703.000000,16611.000000,12905.000000
14702.000000,16613.000000,12905.000000
14701.000000,16613.000000,12905.000000
14701.000000,16613.000000,12905.000000
14703.000000,16615.000000,12905.000000
14702.000000,16616.000000,12906.000000
14704.000000,16624.000000,12906.000000
14704.000000,16621.000000,12906.000000
14698.000000,16609.000000,12905.000000
14698.000000,16609.000000,12905.000000
14690.000000,16601.000000,12905.000000
14684.000000,16590.000000,12906.000000
14683.000000,16588.000000,12905.000000
14682.000000,16587.000000,12905.000000
14682.000000,16586.000000,12905.000000
14682.000000,16584.000000,12905.000000
14681.000000,16584.000000,12905.000000
14683.000000,16588.000000,12905.000000
14685.000000,16590.000000,12905.000000
14685.000000,16598.000000,12905.000000
14686.000000,16599.000000,12905.000000
14686.000000,16599.000000,12905.000000
14684.000000,16594.000000,12905.000000
14672.000000,16579.000000,12904.000000
14666.000000,16570.000000,12902.000000
14662.000000,16567.000000,12897.000000
14660.000000,16563.000000,12898.000000
14660.000000,16563.000000,12896.000000
14664.000000,16564.000000,12896.000000
14664.000000,16568.000000,12898.000000
14665.000000,16566.000000,12899.000000
14666.000000,16567.000000,12902.000000
14668.000000,16573.000000,12901.000000
14668.000000,16573.000000,12903.000000
14669.000000,16576.000000,12903.000000
14669.000000,16580.000000,12904.000000
14665.000000,16577.000000,12901.000000
14660.000000,16566.000000,12897.000000
14657.000000,16561.000000,12894.000000
14654.000000,16557.000000,12886.000000
14654.000000,16557.000000,12887.000000
14653.000000,16554.000000,12887.000000
14652.000000,16552.000000,12886.000000
14652.000000,16553.000000,12890.000000
14653.000000,16550.000000,12888.000000
14653.000000,16553.000000,12889.000000
14653.000000,16553.000000,12893.000000
14654.000000,16559.000000,12893.000000
14658.000000,16564.000000,12894.000000
14660.000000,16567.000000,12897.000000
14654.000000,16555.000000,12890.000000
14648.000000,16548.000000,12881.000000
14647.000000,16539.000000,12874.000000
14647.000000,16539.000000,12871.000000
14645.000000,16532.000000,12871.000000
14643.000000,16531.000000,12867.000000
14645.000000,16533.000000,12871.000000
14644.000000,16532.000000,12866.000000
14645.000000,16537.000000,12870.000000
14645.000000,16541.000000,12871.000000
14642.000000,16541.000000,12871.000000
14649.000000,16546.000000,12878.000000
14649.000000,16551.000000,12883.000000
14646.000000,16552.000000,12883.000000
14644.000000,16543.000000,12876.000000
14644.000000,16534.000000,12870.000000
14640.000000,16534.000000,12870.000000
14638.000000,16523.000000,12862.000000
14638.000000,16521.000000,12863.000000
14638.000000,16525.000000,12862.000000
14636.000000,16520.000000,12864.000000
14636.000000,16520.000000,12865.000000
14635.000000,16520.000000,12865.000000
14638.000000,16525.000000,12866.000000
14640.000000,16532.000000,12869.000000
14640.000000,16535.000000,12870.000000
14640.000000,16539.000000,12871.000000
14639.000000,16539.000000,12874.000000
14639.000000,16539.000000,12866.000000
14637.000000,16524.000000,12866.000000
14634.000000,16514.000000,12863.000000
14633.000000,16511.000000,12859.000000
14633.000000,16510.000000,12860.000000
14633.000000,16511.000000,12863.000000
14632.000000,16512.000000,12863.000000
14632.000000,16531.000000,12876.000000
14643.000000,16531.000000,12876.000000
14653.000000,16554.000000,12892.000000
14660.000000,16564.000000,12903.000000
14666.000000,16569.000000,12904.000000
14649.000000,16545.000000,12886.000000
14649.000000,16557.000000,12898.000000
14654.000000,16557.000000,12898.000000
14655.000000,16549.000000,12896.000000
14653.000000,16548.000000,12894.000000
14650.000000,16547.000000,12893.000000
14648.000000,16543.000000,12888.000000
14654.000000,16550.000000,12896.000000
14654.000000,16550.000000,12896.000000
14655.000000,16554.000000,12896.000000
14655.000000,16555.000000,12898.000000
14660.000000,16559.000000,12902.000000
14665.000000,16566.000000,12903.000000
14653.000000,16554.000000,12889.000000
14653.000000,16554.000000,12899.000000
14658.000000,16561.000000,12899.000000
14656.000000,16561.000000,12902.000000
14653.000000,16556.000000,12896.000000
14657.000000,16556.000000,12899.000000
14657.000000,16557.000000,12899.000000
14657.000000,16557.000000,12898.000000
14656.000000,16554.000000,12898.000000
14657.000000,16558.000000,12898.000000
14658.000000,16561.000000,12901.000000
14657.000000,16560.000000,12899.000000
14665.000000,16572.000000,12904.000000
14665.000000,16577.000000,12905.000000
14668.000000,16577.000000,12905.000000
14670.000000,16580.000000,12905.000000
14657.000000,16567.000000,12895.000000
14655.000000,16563.000000,12900.000000
14656.000000,16561.000000,12901.000000
14651.000000,16553.000000,12895.000000
14651.000000,16553.000000,12900.000000
14654.000000,16558.000000,12900.000000
14657.000000,16563.000000,12903.000000
14658.000000,16563.000000,12904.000000
14661.000000,16565.000000,12903.000000
14663.000000,16571.000000,12904.000000
14663.000000,16573.000000,12905.000000
14667.000000,16573.000000,12905.000000
14668.000000,16576.000000,12903.000000
14659.000000,16568.000000,12896.000000
14662.000000,16571.000000,12903.000000
14659.000000,16566.000000,12904.000000
14656.000000,16562.000000,12901.000000
14656.000000,16562.000000,12900.000000
14657.000000,16561.000000,12900.000000
14658.000000,16562.000000,12902.000000
14656.000000,16562.000000,12903.000000
14652.000000,16558.000000,12896.000000
14661.000000,16568.000000,12904.000000
14661.000000,16571.000000,12905.000000
14664.000000,16571.000000,12905.000000
14667.000000,16576.000000,12905.000000
14672.000000,16583.000000,12905.000000
14671.000000,16584.000000,12905.000000
14661.000000,16570.000000,12901.000000
14661.000000,16549.000000,12891.000000
14645.000000,16549.000000,12891.000000
14657.000000,16566.000000,12903.000000
14655.000000,16564.000000,12902.000000
14656.000000,16565.000000,12903.000000
14659.000000,16568.000000,12904.000000
14659.000000,16568.000000,12901.000000
14655.000000,16568.000000,12901.000000
14658.000000,16569.000000,12903.000000
14660.000000,16571.000000,12905.000000
14660.000000,16569.000000,12901.000000
14667.000000,16578.000000,12905.000000
14662.000000,16581.000000,12901.000000
14662.000000,16581.000000,12902.000000
14661.000000,16579.000000,12902.000000
14664.000000,16579.000000,12905.000000
14662.000000,16575.000000,12905.000000
14659.000000,16573.000000,12904.000000
14654.000000,16568.000000,12900.000000
14654.000000,16568.000000,12905.000000
14660.000000,16574.000000,12905.000000
14658.000000,16574.000000,12905.000000
14658.000000,16575.000000,12904.000000
14659.000000,16580.000000,12905.000000
14663.000000,16582.000000,12905.000000
14663.000000,16582.000000,12905.000000
14665.000000,16588.000000,12905.000000
14669.000000,16594.000000,12905.000000
14669.000000,16593.000000,12905.000000
14652.000000,16575.000000,12901.000000
14662.000000,16585.000000,12905.000000
14662.000000,16585.000000,12906.000000
14662.000000,16584.000000,12906.000000
14660.000000,16581.000000,12905.000000
14660.000000,16584.000000,12905.000000
14660.000000,16579.000000,12905.000000
14657.000000,16578.000000,12902.000000
14657.000000,16578.000000,12905.000000
14662.000000,16585.000000,12905.000000
14664.000000,16585.000000,12905.000000
14666.000000,16591.000000,12905.000000
14668.000000,16596.000000,12905.000000
14668.000000,16588.000000,12901.000000
14658.000000,16588.000000,12901.000000
14667.000000,16598.000000,12905.000000
14662.000000,16589.000000,12904.000000
14660.000000,16585.000000,12905.000000
14658.000000,16581.000000,12905.000000
14658.000000,16583.000000,12905.000000
14661.000000,16583.000000,12905.000000
14661.000000,16587.000000,12905.000000
14659.000000,16585.000000,12904.000000
14661.000000,16585.000000,12905.000000
14661.000000,16587.000000,12905.000000
14665.000000,16598.000000,12906.000000
14667.000000,16602.000000,12906.000000
14667.000000,16589.000000,12901.000000
14653.000000,16589.000000,12901.000000
14662.000000,16596.000000,12905.000000
14658.000000,16590.000000,12905.000000
14656.000000,16584.000000,12905.000000
14651.000000,16576.000000,12903.000000
14651.000000,16582.000000,12905.000000
14656.000000,16582.000000,12905.000000
14654.000000,16579.000000,12905.000000
14655.000000,16580.000000,12905.000000
14658.000000,16585.000000,12905.000000
14659.000000,16584.000000,12905.000000
14659.000000,16587.000000,12905.000000
14661.000000,16587.000000,12905.000000
14647.000000,16578.000000,12899.000000
14640.000000,16572.000000,12900.000000
14634.000000,16563.000000,12896.000000
14628.000000,16549.000000,12891.000000
14628.000000,16535.000000,12887.000000
14628.000000,16533.000000,12885.000000
14628.000000,16533.000000,12885.000000
14627.000000,16533.000000,12888.000000
14626.000000,16531.000000,12886.000000
14626.000000,16531.000000,12888.000000
14625.000000,16529.000000,12887.000000
14625.000000,16534.000000,12888.000000
14627.000000,16534.000000,12888.000000
14627.000000,16536.000000,12887.000000
14628.000000,16542.000000,12890.000000
14628.000000,16550.000000,12894.000000
14626.000000,16548.000000,12893.000000
14626.000000,16538.000000,12889.000000
14626.000000,16538.000000,12889.000000
14624.000000,16531.000000,12885.000000
14620.000000,16524.000000,12881.000000
14618.000000,16521.000000,12874.000000
14618.000000,16518.000000,12874.000000
14618.000000,16522.000000,12876.000000
14618.000000,16522.000000,12878.000000
14619.000000,16520.000000,12878.000000
14619.000000,16518.000000,12875.000000
14620.000000,16522.000000,12879.000000
14622.000000,16527.000000,12882.000000
14624.000000,16531.000000,12889.000000
14624.000000,16541.000000,12890.000000
14624.000000,16541.000000,12890.000000
14622.000000,16532.000000,12886.000000
14614.000000,16522.000000,12875.000000
14609.000000,16513.000000,12865.000000
14606.000000,16511.000000,12860.000000
14605.000000,16510.000000,12859.000000
14605.000000,16510.000000,12858.000000
14604.000000,16507.000000,12858.000000
14608.000000,16506.000000,12858.000000
14601.000000,16503.000000,12856.000000
14603.000000,16506.000000,12857.000000
14603.000000,16508.000000,12860.000000
14603.000000,16514.000000,12867.000000
14606.000000,16514.000000,12867.000000
14610.000000,16516.000000,12869.000000
14602.000000,16510.000000,12863.000000
14596.000000,16501.000000,12854.000000
14587.000000,16490.000000,12843.000000
14585.000000,16487.000000,12839.000000
14585.000000,16487.000000,12839.000000
14586.000000,16487.000000,12841.000000
14584.000000,16484.000000,12837.000000
14585.000000,16484.000000,12838.000000
14585.000000,16488.000000,12838.000000
14585.000000,16488.000000,12837.000000
14585.000000,16488.000000,12843.000000
14588.000000,16492.000000,12843.000000
14589.000000,16493.000000,12843.000000
14591.000000,16498.000000,12847.000000
14589.000000,16495.000000,12844.000000
14580.000000,16484.000000,12837.000000
14580.000000,16476.000000,12832.000000
14574.000000,16476.000000,12832.000000
14566.000000,16469.000000,12828.000000
14567.000000,16468.000000,12827.000000
14568.000000,16468.000000,12829.000000
14564.000000,16464.000000,12825.000000
14564.000000,16467.000000,12824.000000
14564.000000,16466.000000,12826.000000
14566.000000,16466.000000,12826.000000
14566.000000,16466.000000,12825.000000
14572.000000,16474.000000,12830.000000
14569.000000,16478.000000,12830.000000
14574.000000,16479.000000,12831.000000
14574.000000,16472.000000,12828.000000
14566.000000,16472.000000,12828.000000
14559.000000,16462.000000,12820.000000
14555.000000,16454.000000,12817.000000
14552.000000,16449.000000,12812.000000
14553.000000,16451.000000,12813.000000
14550.000000,16447.000000,12810.000000
14550.000000,16447.000000,12810.000000
14550.000000,16444.000000,12810.000000
14551.000000,16447.000000,12809.000000
14555.000000,16449.000000,12813.000000
14556.000000,16455.000000,12817.000000
14560.000000,16463.000000,12820.000000
14560.000000,16468.000000,12826.000000
14563.000000,16468.000000,12826.000000
14562.000000,16466.000000,12826.000000
14555.000000,16457.000000,12817.000000
14550.000000,16446.000000,12809.000000
14547.000000,16441.000000,12805.000000
14546.000000,16439.000000,12801.000000
14546.000000,16439.000000,12803.000000
14549.000000,16441.000000,12803.000000
14547.000000,16439.000000,12804.000000
14547.000000,16438.000000,12802.000000
14550.000000,16440.000000,12804.000000
14548.000000,16439.000000,12804.000000
14548.000000,16444.000000,12805.000000
14547.000000,16444.000000,12805.000000
14558.000000,16459.000000,12812.000000
14553.000000,16451.000000,12812.000000
14543.000000,16439.000000,12800.000000
14542.000000,16429.000000,12799.000000
14540.000000,16426.000000,12797.000000
14540.000000,16424.000000,12795.000000
14540.000000,16422.000000,12791.000000
14538.000000,16422.000000,12791.000000
14537.000000,16421.000000,12790.000000
14553.000000,16442.000000,12807.000000
14561.000000,16455.000000,12820.000000
14555.000000,16446.000000,12810.000000
14578.000000,16470.000000,12833.000000
14578.000000,16470.000000,12833.000000
14579.000000,16477.000000,12833.000000
14576.000000,16475.000000,12831.000000
14571.000000,16465.000000,12829.000000
14567.000000,16456.000000,12821.000000
14564.000000,16450.000000,12816.000000
14564.000000,16450.000000,12810.000000
14559.000000,16444.000000,12810.000000
14562.000000,16447.000000,12814.000000
14565.000000,16452.000000,12818.000000
14564.000000,16455.000000,12819.000000
14562.000000,16452.000000,12817.000000
14562.000000,16452.000000,12810.000000
14556.000000,16446.000000,12810.000000
14564.000000,16455.000000,12819.000000
14572.000000,16465.000000,12828.000000
14576.000000,16470.000000,12833.000000
14570.000000,16463.000000,12826.000000
14570.000000,16463.000000,12817.000000
14561.000000,16451.000000,12817.000000
14556.000000,16442.000000,12811.000000
14552.000000,16439.000000,12808.000000
14556.000000,16441.000000,12810.000000
14558.000000,16441.000000,12813.000000
14558.000000,16441.000000,12807.000000
14553.000000,16436.000000,12807.000000
14557.000000,16444.000000,12813.000000
14545.000000,16430.000000,12800.000000
14558.000000,16449.000000,12813.000000
14567.000000,16462.000000,12824.000000
14571.000000,16468.000000,12829.000000
14571.000000,16468.000000,12821.000000
14564.000000,16460.000000,12821.000000
14552.000000,16443.000000,12808.000000
14555.000000,16442.000000,12809.000000
14552.000000,16436.000000,12804.000000
14553.000000,16435.000000,12803.000000
14553.000000,16435.000000,12803.000000
14552.000000,16438.000000,12805.000000
14554.000000,16439.000000,12807.000000
14554.000000,16441.000000,12804.000000
14553.000000,16443.000000,12807.000000
14543.000000,16428.000000,12791.000000
14543.000000,16428.000000,12791.000000
14562.000000,16456.000000,12816.000000
14565.000000,16462.000000,12822.000000
14567.000000,16467.000000,12824.000000
14566.000000,16464.000000,12822.000000
14566.000000,16448.000000,12811.000000
14556.000000,16448.000000,12811.000000
14554.000000,16441.000000,12806.000000
14546.000000,16433.000000,12799.000000
14551.000000,16442.000000,12802.000000
14552.000000,16443.000000,12803.000000
14551.000000,16441.000000,12804.000000
14551.000000,16441.000000,12795.000000
14545.000000,16434.000000,12795.000000
14547.000000,16439.000000,12801.000000
14558.000000,16450.000000,12811.000000
14557.000000,16453.000000,12812.000000
14564.000000,16463.000000,12821.000000
14564.000000,16463.000000,12815.000000
14561.000000,16459.000000,12815.000000
14550.000000,16446.000000,12805.000000
14549.000000,16438.000000,12799.000000
14545.000000,16429.000000,12795.000000
14546.000000,16428.000000,12795.000000
14546.000000,16428.000000,12793.000000
14546.000000,16429.000000,12793.000000
14541.000000,16421.000000,12790.000000
14546.000000,16431.000000,12795.000000
14534.000000,16414.000000,12779.000000
14550.000000,16438.000000,12798.000000
14550.000000,16438.000000,12801.000000
14552.000000,16440.000000,12801.000000
14559.000000,16449.000000,12807.000000
14554.000000,16447.000000,12804.000000
14545.000000,16429.000000,12794.000000
14543.000000,16419.000000,12789.000000
14543.000000,16419.000000,12787.000000
14542.000000,16415.000000,12787.000000
14542.000000,16415.000000,12784.000000
14543.000000,16416.000000,12786.000000
14541.000000,16419.000000,12786.000000
14541.000000,16414.000000,12783.000000
14538.000000,16414.000000,12783.000000
14532.000000,16404.000000,12775.000000
14539.000000,16417.000000,12782.000000
14548.000000,16431.000000,12793.000000
14549.000000,16435.000000,12796.000000
14548.000000,16435.000000,12795.000000
14548.000000,16435.000000,12789.000000
14544.000000,16428.000000,12789.000000
14538.000000,16411.000000,12780.000000
14536.000000,16403.000000,12776.000000
14531.000000,16395.000000,12770.000000
14534.000000,16399.000000,12776.000000
14534.000000,16401.000000,12776.000000
14533.000000,16401.000000,12776.000000
14534.000000,16400.000000,12773.000000
14521.000000,16385.000000,12759.000000
14534.000000,16403.000000,12776.000000
14537.000000,16413.000000,12780.000000
14541.000000,16419.000000,12783.000000
14541.000000,16421.000000,12783.000000
14539.000000,16421.000000,12783.000000
14530.000000,16393.000000,12769.000000
14527.000000,16393.000000,12769.000000
14524.000000,16391.000000,12767.000000
14525.000000,16394.000000,12766.000000
14526.000000,16390.000000,12765.000000
14521.000000,16387.000000,12761.000000
14508.000000,16371.000000,12749.000000
14508.000000,16371.000000,12768.000000
14528.000000,16393.000000,12768.000000
14529.000000,16400.000000,12771.000000
14534.000000,16405.000000,12776.000000
14537.000000,16416.000000,12781.000000
14536.000000,16418.000000,12784.000000
14536.000000,16399.000000,12773.000000
14525.000000,16399.000000,12739.000000
14495.000000,16360.000000,12739.000000
14493.000000,16353.000000,12735.000000
14491.000000,16347.000000,12732.000000
14490.000000,16348.000000,12733.000000
14490.000000,16346.000000,12730.000000
14490.000000,16346.000000,12729.000000
14490.000000,16344.000000,12729.000000
14490.000000,16347.000000,12730.000000
14491.000000,16349.000000,12731.000000
14493.000000,16355.000000,12734.000000
14496.000000,16363.000000,12739.000000
14496.000000,16363.000000,12739.000000
14495.000000,16363.000000,12739.000000
14492.000000,16358.000000,12737.000000
14485.000000,16343.000000,12727.000000
14478.000000,16330.000000,12721.000000
14478.000000,16331.000000,12719.000000
14478.000000,16327.000000,12718.000000
14477.000000,16327.000000,12718.000000
14474.000000,16325.000000,12716.000000
14474.000000,16324.000000,12716.000000
14473.000000,16327.000000,12718.000000
14476.000000,16332.000000,12718.000000
14476.000000,16332.000000,12721.000000
14478.000000,16333.000000,12721.000000
14481.000000,16344.000000,12726.000000
14483.000000,16348.000000,12728.000000
14478.000000,16339.000000,12724.000000
14471.000000,16325.000000,12716.000000
14471.000000,16316.000000,12708.000000
14466.000000,16316.000000,12708.000000
14463.000000,16311.000000,12704.000000
14465.000000,16315.000000,12707.000000
14463.000000,16315.000000,12708.000000
14464.000000,16313.000000,12706.000000
14464.000000,16312.000000,12704.000000
14462.000000,16312.000000,12704.000000
14465.000000,16315.000000,12708.000000
14468.000000,16319.000000,12711.000000
14471.000000,16325.000000,12717.000000
14472.000000,16332.000000,12720.000000
14472.000000,16328.000000,12718.000000
14469.000000,16328.000000,12718.000000
14463.000000,16313.000000,12708.000000
14453.000000,16301.000000,12697.000000
14452.000000,16294.000000,12696.000000
14450.000000,16295.000000,12693.000000
14451.000000,16293.000000,12694.000000
14451.000000,16290.000000,12692.000000
14451.000000,16290.000000,12692.000000
14451.000000,16294.000000,12695.000000
14451.000000,16294.000000,12696.000000
14452.000000,16299.000000,12698.000000
14455.000000,16305.000000,12702.000000
14455.000000,16305.000000,12706.000000
14457.000000,16310.000000,12706.000000
14459.000000,16312.000000,12705.000000
14453.000000,16304.000000,12701.000000
14447.000000,16292.000000,12694.000000
14444.000000,16281.000000,12688.000000
14444.000000,16276.000000,12685.000000
14442.000000,16276.000000,12685.000000
14439.000000,16276.000000,12684.000000
14439.000000,16275.000000,12683.000000
14437.000000,16274.000000,12683.000000
14438.000000,16279.000000,12685.000000
14443.000000,16283.000000,12686.000000
14443.000000,16283.000000,12686.000000
14444.000000,16285.000000,12689.000000
14444.000000,16291.000000,12692.000000
14447.000000,16298.000000,12696.000000
14444.000000,16289.000000,12692.000000
14435.000000,16271.000000,12684.000000
14435.000000,16271.000000,12679.000000
14432.000000,16264.000000,12679.000000
14432.000000,16258.000000,12674.000000
14428.000000,16255.000000,12672.000000
14430.000000,16256.000000,12674.000000
14428.000000,16255.000000,12670.000000
14428.000000,16259.000000,12674.000000
14431.000000,16259.000000,12674.000000
14431.000000,16264.000000,12674.000000
14432.000000,16264.000000,12677.000000
14435.000000,16274.000000,12681.000000
14437.000000,16275.000000,12683.000000
14437.000000,16275.000000,12680.000000
14432.000000,16268.000000,12680.000000
14424.000000,16252.000000,12671.000000
14420.000000,16236.000000,12665.000000
14417.000000,16233.000000,12662.000000
14415.000000,16228.000000,12658.000000
14415.000000,16232.000000,12657.000000
14416.000000,16232.000000,12657.000000
14417.000000,16236.000000,12660.000000
14416.000000,16233.000000,12658.000000
14417.000000,16240.000000,12661.000000
14421.000000,16250.000000,12666.000000
14421.000000,16254.000000,12670.000000
14424.000000,16254.000000,12670.000000
14428.000000,16260.000000,12673.000000
14424.000000,16257.000000,12671.000000
14415.000000,16235.000000,12660.000000
14408.000000,16218.000000,12651.000000
14408.000000,16205.000000,12646.000000
14403.000000,16209.000000,12649.000000
14403.000000,16206.000000,12647.000000
14403.000000,16206.000000,12647.000000
14405.000000,16211.000000,12649.000000
14407.000000,16212.000000,12651.000000
14409.000000,16219.000000,12654.000000
14420.000000,16239.000000,12664.000000
14449.000000,16283.000000,12693.000000
14449.000000,16283.000000,12692.000000
14446.000000,16282.000000,12692.000000
14447.000000,16281.000000,12692.000000
14440.000000,16266.000000,12686.000000
14438.000000,16258.000000,12679.000000
14438.000000,16256.000000,12679.000000
14438.000000,16256.000000,12681.000000
14441.000000,16260.000000,12681.000000
14435.000000,16250.000000,12674.000000
14429.000000,16246.000000,12669.000000
14442.000000,16264.000000,12685.000000
14444.000000,16272.000000,12689.000000
14444.000000,16279.000000,12693.000000
14450.000000,16279.000000,12693.000000
14453.000000,16288.000000,12698.000000
14459.000000,16299.000000,12703.000000
14457.000000,16294.000000,12702.000000
14450.000000,16283.000000,12694.000000
14442.000000,16270.000000,12684.000000
14442.000000,16270.000000,12686.000000
14442.000000,16270.000000,12686.000000
14444.000000,16273.000000,12688.000000
14428.000000,16246.000000,12672.000000
14446.000000,16274.000000,12688.000000
14447.000000,16277.000000,12689.000000
14447.000000,16281.000000,12690.000000
14450.000000,16281.000000,12690.000000
14446.000000,16280.000000,12689.000000
14452.000000,16289.000000,12696.000000
14452.000000,16295.000000,12700.000000
14457.000000,16299.000000,12702.000000
14457.000000,16285.000000,12696.000000
14448.000000,16285.000000,12696.000000
14443.000000,16272.000000,12688.000000
14440.000000,16266.000000,12683.000000
14438.000000,16262.000000,12682.000000
14433.000000,16257.000000,12677.000000
14426.000000,16248.000000,12669.000000
14426.000000,16273.000000,12687.000000
14443.000000,16273.000000,12687.000000
14444.000000,16276.000000,12689.000000
14449.000000,16283.000000,12693.000000
14451.000000,16287.000000,12696.000000
14455.000000,16298.000000,12700.000000
14451.000000,16293.000000,12697.000000
14451.000000,16293.000000,12696.000000
14451.000000,16290.000000,12696.000000
14444.000000,16278.000000,12688.000000
14443.000000,16271.000000,12687.000000
14438.000000,16264.000000,12681.000000
14422.000000,16245.000000,12668.000000
14422.000000,16263.000000,12682.000000
14436.000000,16263.000000,12682.000000
14437.000000,16266.000000,12683.000000
14437.000000,16263.000000,12682.000000
14442.000000,16272.000000,12688.000000
14446.000000,16286.000000,12693.000000
14450.000000,16292.000000,12697.000000
14450.000000,16292.000000,12700.000000
14452.000000,16298.000000,12700.000000
14447.000000,16296.000000,12698.000000
14443.000000,16283.000000,12691.000000
14434.000000,16264.000000,12681.000000
14435.000000,16261.000000,12680.000000
14435.000000,16266.000000,12684.000000
14438.000000,16266.000000,12684.000000
14419.000000,16238.000000,12666.000000
14437.000000,16268.000000,12683.000000
14438.000000,16270.000000,12684.000000
14441.000000,16275.000000,12689.000000
14443.000000,16278.000000,12690.000000
14443.000000,16278.000000,12696.000000
14448.000000,16288.000000,12696.000000
14452.000000,16296.000000,12701.000000
14455.000000,16302.000000,12706.000000
14449.000000,16293.000000,12700.000000
14445.000000,16282.000000,12692.000000
14445.000000,16272.000000,12686.000000
14438.000000,16272.000000,12686.000000
14431.000000,16258.000000,12677.000000
14423.000000,16247.000000,12669.000000
14440.000000,16277.000000,12687.000000
14443.000000,16278.000000,12688.000000
14444.000000,16282.000000,12691.000000
14444.000000,16282.000000,12694.000000
14446.000000,16288.000000,12694.000000
14449.000000,16293.000000,12696.000000
14449.000000,16295.000000,12698.000000
14451.000000,16300.000000,12700.000000
14452.000000,16307.000000,12706.000000
14452.000000,16307.000000,12699.000000
14448.000000,16296.000000,12699.000000
14445.000000,16285.000000,12693.000000
14442.000000,16279.000000,12689.000000
14425.000000,16253.000000,12672.000000
14440.000000,16282.000000,12688.000000
14440.000000,16285.000000,12690.000000
14441.000000,16285.000000,12690.000000
14439.000000,16279.000000,12688.000000
14447.000000,16291.000000,12694.000000
14450.000000,16297.000000,12698.000000
14450.000000,16300.000000,12700.000000
14450.000000,16306.000000,12703.000000
14453.000000,16306.000000,12703.000000
14455.000000,16308.000000,12705.000000
14450.000000,16301.000000,12701.000000
14438.000000,16280.000000,12688.000000
14435.000000,16276.000000,12685.000000
14435.000000,16258.000000,12670.000000
14425.000000,16258.000000,12670.000000
14438.000000,16274.000000,12683.000000
14436.000000,16274.000000,12683.000000
14438.000000,16279.000000,12686.000000
14438.000000,16286.000000,12687.000000
14415.000000,16255.000000,12666.000000
14418.000000,16260.000000,12670.000000
14416.000000,16261.000000,12670.000000
14416.000000,16261.000000,12670.000000
14410.000000,16242.000000,12661.000000
14402.000000,16226.000000,12654.000000
14397.000000,16210.000000,12644.000000
14394.000000,16205.000000,12641.000000
14392.000000,16204.000000,12641.000000
14392.000000,16204.000000,12641.000000
14392.000000,16206.000000,12641.000000
14393.000000,16206.000000,12642.000000
14393.000000,16210.000000,12642.000000
14397.000000,16218.000000,12647.000000
14399.000000,16225.000000,12650.000000
14399.000000,16225.000000,12653.000000
14402.000000,16233.000000,12653.000000
14404.000000,16234.000000,12656.000000
14395.000000,16220.000000,12648.000000
14387.000000,16193.000000,12637.000000
14383.000000,16180.000000,12632.000000
14383.000000,16169.000000,12625.000000
14377.000000,16169.000000,12625.000000
14377.000000,16173.000000,12627.000000
14379.000000,16173.000000,12627.000000
14378.000000,16174.000000,12629.000000
14379.000000,16178.000000,12629.000000
14379.000000,16178.000000,12629.000000
14379.000000,16181.000000,12629.000000
14384.000000,16187.000000,12632.000000
14388.000000,16197.000000,12638.000000
14390.000000,16203.000000,12641.000000
14388.000000,16198.000000,12638.000000
14388.000000,16172.000000,12629.000000
14376.000000,16172.000000,12629.000000
14370.000000,16161.000000,12622.000000
14366.000000,16149.000000,12619.000000
14365.000000,16145.000000,12617.000000
14365.000000,16144.000000,12618.000000
14365.000000,16151.000000,12618.000000
14366.000000,16151.000000,12618.000000
14366.000000,16155.000000,12620.000000
14368.000000,16157.000000,12620.000000
14372.000000,16168.000000,12625.000000
14373.000000,16172.000000,12625.000000
14373.000000,16172.000000,12630.000000
14375.000000,16183.000000,12630.000000
14375.000000,16178.000000,12629.000000
14370.000000,16165.000000,12624.000000
14361.000000,16149.000000,12617.000000
14358.000000,16143.000000,12612.000000
14358.000000,16143.000000,12609.000000
14355.000000,16140.000000,12609.000000
14355.000000,16141.000000,12610.000000
14354.000000,16142.000000,12609.000000
14356.000000,16139.000000,12611.000000
14356.000000,16140.000000,12613.000000
14356.000000,16149.000000,12615.000000
14361.000000,16149.000000,12615.000000
14363.000000,16161.000000,12619.000000
14367.000000,16167.000000,12622.000000
14366.000000,16165.000000,12623.000000
14353.000000,16140.000000,12611.000000
14353.000000,16133.000000,12602.000000
14344.000000,16133.000000,12602.000000
14335.000000,16132.000000,12591.000000
14332.000000,16132.000000,12589.000000
14337.000000,16132.000000,12593.000000
14339.000000,16132.000000,12592.000000
14339.000000,16132.000000,12594.000000
14336.000000,16131.000000,12594.000000
14337.000000,16132.000000,12591.000000
14342.000000,16132.000000,12598.000000
14349.000000,16138.000000,12606.000000
14356.000000,16148.000000,12612.000000
14356.000000,16146.000000,12612.000000
14355.000000,16146.000000,12612.000000
14341.000000,16135.000000,12600.000000
14332.000000,16132.000000,12590.000000
14324.000000,16132.000000,12587.000000
14321.000000,16132.000000,12579.000000
14321.000000,16132.000000,12582.000000
14324.000000,16132.000000,12582.000000
14325.000000,16131.000000,12584.000000
14326.000000,16132.000000,12587.000000
14328.000000,16131.000000,12590.000000
14334.000000,16132.000000,12590.000000
14334.000000,16132.000000,12594.000000
14339.000000,16132.000000,12594.000000
14347.000000,16135.000000,12606.000000
14347.000000,16136.000000,12607.000000
14340.000000,16133.000000,12600.000000
14327.000000,16131.000000,12587.000000
14319.000000,16131.000000,12579.000000
14319.000000,16131.000000,12579.000000
14316.000000,16132.000000,12575.000000
14318.000000,16131.000000,12576.000000
14318.000000,16131.000000,12577.000000
14319.000000,16131.000000,12576.000000
14319.000000,16132.000000,12578.000000
14321.000000,16132.000000,12581.000000
14327.000000,16132.000000,12587.000000
14327.000000,16132.000000,12588.000000
14331.000000,16132.000000,12588.000000
14339.000000,16133.000000,12599.000000
14343.000000,16133.000000,12605.000000
14333.000000,16133.000000,12594.000000
14324.000000,16132.000000,12588.000000
14324.000000,16132.000000,12588.000000
14316.000000,16131.000000,12579.000000
14314.000000,16132.000000,12579.000000
14317.000000,16132.000000,12578.000000
14353.000000,16133.000000,12612.000000
14345.000000,16135.000000,12601.000000
14325.000000,16132.000000,12584.000000
14325.000000,16132.000000,12585.000000
14326.000000,16132.000000,12585.000000
14334.000000,16133.000000,12594.000000
14338.000000,16135.000000,12600.000000
14332.000000,16133.000000,12595.000000
14324.000000,16132.000000,12588.000000
14324.000000,16131.000000,12578.000000
14317.000000,16131.000000,12578.000000
14311.000000,16132.000000,12576.000000
14312.000000,16131.000000,12573.000000
14310.000000,16132.000000,12577.000000
14312.000000,16132.000000,12577.000000
14312.000000,16132.000000,12577.000000
14312.000000,16131.000000,12577.000000
14315.000000,16131.000000,12579.000000
14319.000000,16132.000000,12581.000000
14323.000000,16132.000000,12586.000000
14327.000000,16132.000000,12588.000000
14327.000000,16132.000000,12591.000000
14329.000000,16133.000000,12591.000000
14320.000000,16132.000000,12582.000000
14313.000000,16131.000000,12575.000000
14312.000000,16132.000000,12573.000000
14310.000000,16131.000000,12573.000000
14310.000000,16131.000000,12573.000000
14309.000000,16131.000000,12572.000000
14308.000000,16132.000000,12575.000000
14310.000000,16131.000000,12576.000000
14312.000000,16131.000000,12577.000000
14312.000000,16132.000000,12578.000000
14312.000000,16132.000000,12578.000000
14317.000000,16132.000000,12582.000000
14323.000000,16132.000000,12587.000000
14327.000000,16132.000000,12590.000000
14322.000000,16132.000000,12588.000000
14322.000000,16132.000000,12579.000000
14313.000000,16132.000000,12579.000000
14306.000000,16132.000000,12575.000000
14304.000000,16131.000000,12573.000000
14306.000000,16132.000000,12571.000000
14305.000000,16132.000000,12571.000000
14305.000000,16132.000000,12577.000000
14305.000000,16132.000000,12577.000000
14306.000000,16131.000000,12573.000000
14308.000000,16131.000000,12575.000000
14311.000000,16131.000000,12579.000000
14318.000000,16131.000000,12583.000000
14318.000000,16131.000000,12588.000000
14324.000000,16131.000000,12588.000000
14326.000000,16133.000000,12592.000000
14321.000000,16132.000000,12588.000000
14308.000000,16131.000000,12580.000000
14304.000000,16131.000000,12577.000000
14304.000000,16131.000000,12577.000000
14302.000000,16132.000000,12573.000000
14302.000000,16131.000000,12573.000000
14306.000000,16131.000000,12573.000000
14305.000000,16131.000000,12578.000000
14305.000000,16131.000000,12576.000000
14307.000000,16131.000000,12576.000000
14309.000000,16131.000000,12578.000000
14314.000000,16131.000000,12578.000000
14317.000000,16132.000000,12581.000000
14322.000000,16133.000000,12586.000000
14322.000000,16133.000000,12589.000000
14323.000000,16132.000000,12589.000000
14312.000000,16132.000000,12582.000000
14308.000000,16131.000000,12579.000000
14305.000000,16131.000000,12575.000000
14301.000000,16132.000000,12573.000000
14301.000000,16132.000000,12574.000000
14300.000000,16131.000000,12574.000000
14300.000000,16131.000000,12572.000000
14301.000000,16131.000000,12574.000000
14301.000000,16132.000000,12575.000000
14306.000000,16132.000000,12577.000000
14306.000000,16132.000000,12582.000000
14310.000000,16132.000000,12582.000000
14316.000000,16132.000000,12584.000000
14321.000000,16133.000000,12590.000000
14317.000000,16133.000000,12589.000000
14317.000000,16132.000000,12585.000000
14310.000000,16132.000000,12585.000000
14305.000000,16131.000000,12579.000000
14302.000000,16132.000000,12576.000000
14301.000000,16131.000000,12577.000000
14306.000000,16132.000000,12577.000000
14306.000000,16132.000000,12576.000000
14306.000000,16132.000000,12576.000000
14306.000000,16132.000000,12577.000000
14307.000000,16132.000000,12579.000000
14308.000000,16132.000000,12582.000000
14308.000000,16132.000000,12582.000000
14308.000000,16132.000000,12585.000000
14312.000000,16132.000000,12585.000000
14315.000000,16134.000000,12587.000000
14305.000000,16132.000000,12581.000000
14297.000000,16131.000000,12578.000000
14295.000000,16132.000000,12572.000000
14295.000000,16132.000000,12571.000000
14294.000000,16132.000000,12571.000000
14295.000000,16131.000000,12572.000000
14296.000000,16131.000000,12575.000000
14297.000000,16132.000000,12574.000000
14301.000000,16132.000000,12578.000000
14301.000000,16132.000000,12581.000000
14299.000000,16132.000000,12581.000000
14306.000000,16132.000000,12581.000000
14311.000000,16132.000000,12584.000000
14313.000000,16133.000000,12588.000000
14313.000000,16132.000000,12584.000000
14306.000000,16132.000000,12584.000000
14303.000000,16132.000000,12579.000000
14325.000000,16132.000000,12595.000000
14325.000000,16132.000000,12594.000000
14325.000000,16132.000000,12593.000000
14332.000000,16132.000000,12603.000000
14334.000000,16133.000000,12606.000000
14334.000000,16137.000000,12611.000000
14342.000000,16137.000000,12611.000000
14346.000000,16146.000000,12612.000000
14352.000000,16159.000000,12617.000000
14347.000000,16157.000000,12614.000000
14318.000000,16135.000000,12594.000000
14309.000000,16133.000000,12587.000000
14309.000000,16133.000000,12587.000000
14299.000000,16132.000000,12581.000000
14294.000000,16132.000000,12574.000000
14290.000000,16131.000000,12572.000000
14291.000000,16132.000000,12572.000000
14291.000000,16131.000000,12573.000000
14292.000000,16131.000000,12573.000000
14290.000000,16131.000000,12572.000000
14295.000000,16131.000000,12575.000000
14297.000000,16131.000000,12576.000000
14301.000000,16131.000000,12580.000000
14301.000000,16131.000000,12583.000000
14305.000000,16133.000000,12583.000000
14308.000000,16133.000000,12586.000000
14310.000000,16134.000000,12588.000000
14304.000000,16133.000000,12582.000000
14296.000000,16132.000000,12576.000000
14296.000000,16132.000000,12574.000000
14293.000000,16132.000000,12574.000000
14291.000000,16132.000000,12569.000000
14289.000000,16131.000000,12569.000000
14288.000000,16132.000000,12572.000000
14290.000000,16131.000000,12573.000000
14290.000000,16131.000000,12573.000000
14289.000000,16131.000000,12571.000000
14293.000000,16132.000000,12575.000000
14299.000000,16132.000000,12578.000000
14302.000000,16132.000000,12582.000000
14302.000000,16132.000000,12585.000000
14302.000000,16132.000000,12585.000000
14302.000000,16133.000000,12581.000000
14291.000000,16131.000000,12571.000000
14286.000000,16131.000000,12567.000000
14284.000000,16131.000000,12567.000000
14284.000000,16132.000000,12568.000000
14284.000000,16132.000000,12568.000000
14286.000000,16131.000000,12566.000000
14287.000000,16131.000000,12565.000000
14288.000000,16131.000000,12568.000000
14289.000000,16131.000000,12568.000000
14289.000000,16131.000000,12571.000000
14290.000000,16131.000000,12571.000000
14292.000000,16132.000000,12571.000000
14299.000000,16133.000000,12578.000000
14293.000000,16132.000000,12574.000000
14285.000000,16131.000000,12566.000000
14285.000000,16131.000000,12566.000000
14281.000000,16131.000000,12562.000000
14279.000000,16131.000000,12559.000000
14277.000000,16131.000000,12559.000000
14279.000000,16131.000000,12559.000000
14279.000000,16131.000000,12559.000000
14278.000000,16131.000000,12559.000000
14281.000000,16132.000000,12561.000000
14283.000000,16131.000000,12560.000000
14286.000000,16131.000000,12562.000000
14285.000000,16131.000000,12563.000000
14285.000000,16132.000000,12568.000000
14291.000000,16132.000000,12568.000000
14286.000000,16132.000000,12565.000000
14282.000000,16132.000000,12561.000000
14275.000000,16131.000000,12556.000000
14271.000000,16131.000000,12554.000000
14271.000000,16131.000000,12552.000000
14269.000000,16131.000000,12552.000000
14270.000000,16131.000000,12550.000000
14270.000000,16131.000000,12552.000000
14270.000000,16131.000000,12551.000000
14275.000000,16131.000000,12554.000000
14275.000000,16131.000000,12557.000000
14277.000000,16131.000000,12557.000000
14281.000000,16132.000000,12560.000000
14280.000000,16131.000000,12562.000000
14278.000000,16131.000000,12562.000000
14274.000000,16131.000000,12556.000000
14274.000000,16131.000000,12553.000000
14269.000000,16131.000000,12553.000000
14266.000000,16131.000000,12549.000000
14261.000000,16131.000000,12548.000000
14264.000000,16131.000000,12548.000000
14263.000000,16131.000000,12549.000000
14263.000000,16131.000000,12550.000000
14264.000000,16131.000000,12550.000000
14267.000000,16132.000000,12551.000000
14269.000000,16131.000000,12553.000000
14272.000000,16131.000000,12557.000000
14276.000000,16131.000000,12560.000000
14276.000000,16131.000000,12563.000000
14276.000000,16131.000000,12563.000000
14273.000000,16131.000000,12558.000000
14268.000000,16131.000000,12554.000000
14263.000000,16131.000000,12548.000000
14263.000000,16131.000000,12548.000000
14263.000000,16131.000000,12548.000000
14263.000000,16131.000000,12548.000000
14266.000000,16131.000000,12550.000000
14266.000000,16131.000000,12550.000000
14269.000000,16131.000000,12551.000000
14269.000000,16131.000000,12552.000000
14268.000000,16131.000000,12552.000000
14273.000000,16131.000000,12556.000000
14274.000000,16131.000000,12559.000000
14278.000000,16132.000000,12561.000000
14270.000000,16131.000000,12556.000000
14270.000000,16131.000000,12549.000000
14264.000000,16132.000000,12549.000000
14263.000000,16132.000000,12548.000000
14262.000000,16131.000000,12548.000000
14263.000000,16132.000000,12548.000000
14265.000000,16131.000000,12549.000000
14286.000000,16131.000000,12565.000000
14286.000000,16132.000000,12569.000000
14295.000000,16132.000000,12569.000000
14282.000000,16132.000000,12563.000000
14273.000000,16131.000000,12556.000000
14272.000000,16131.000000,12558.000000
14269.000000,16131.000000,12553.000000
14269.000000,16131.000000,12549.000000
14263.000000,16131.000000,12549.000000
14263.000000,16132.000000,12547.000000
14262.000000,16131.000000,12547.000000
14259.000000,16131.000000,12547.000000
14262.000000,16132.000000,12548.000000
14262.000000,16132.000000,12548.000000
14261.000000,16131.000000,12547.000000
14261.000000,16132.000000,12549.000000
14264.000000,16131.000000,12551.000000
14266.000000,16131.000000,12554.000000
14270.000000,16131.000000,12559.000000
14270.000000,16131.000000,12558.000000
14269.000000,16132.000000,12558.000000
14260.000000,16132.000000,12551.000000
14256.000000,16131.000000,12548.000000
14254.000000,16131.000000,12547.000000
14254.000000,16132.000000,12547.000000
14254.000000,16132.000000,12547.000000
14256.000000,16131.000000,12547.000000
14254.000000,16131.000000,12547.000000
14255.000000,16131.000000,12547.000000
14258.000000,16131.000000,12547.000000
14258.000000,16131.000000,12547.000000
14257.000000,16131.000000,12547.000000
14256.000000,16131.000000,12549.000000
14258.000000,16131.000000,12551.000000
14259.000000,16131.000000,12553.000000
14253.000000,16131.000000,12548.000000
14253.000000,16131.000000,12547.000000
14253.000000,16131.000000,12547.000000
14250.000000,16131.000000,12546.000000
14252.000000,16131.000000,12547.000000
14252.000000,16131.000000,12547.000000
14252.000000,16131.000000,12546.000000
14252.000000,16131.000000,12546.000000
14252.000000,16131.000000,12546.000000
14253.000000,16131.000000,12547.000000
14252.000000,16131.000000,12547.000000
14255.000000,16131.000000,12548.000000
14255.000000,16131.000000,12549.000000
14258.000000,16131.000000,12549.000000
14256.000000,16131.000000,12548.000000
14252.000000,16131.000000,12548.000000
14251.000000,16131.000000,12547.000000
14249.000000,16131.000000,12546.000000
14249.000000,16131.000000,12545.000000
14250.000000,16130.000000,12545.000000
14248.000000,16131.000000,12545.000000
14251.000000,16131.000000,12546.000000
14249.000000,16130.000000,12545.000000
14249.000000,16131.000000,12545.000000
14249.000000,16131.000000,12546.000000
14252.000000,16131.000000,12546.000000
14251.000000,16131.000000,12547.000000
14251.000000,16131.000000,12547.000000
14250.000000,16132.000000,12547.000000
14250.000000,16130.000000,12544.000000
14250.000000,16130.000000,12544.000000
14249.000000,16131.000000,12543.000000
14247.000000,16128.000000,12540.000000
14244.000000,16127.000000,12538.000000
14246.000000,16127.000000,12537.000000
14246.000000,16128.000000,12537.000000
14246.000000,16128.000000,12541.000000
14246.000000,16128.000000,12541.000000
14244.000000,16130.000000,12542.000000
14247.000000,16129.000000,12543.000000
14248.000000,16130.000000,12543.000000
14248.000000,16131.000000,12546.000000
14248.000000,16131.000000,12546.000000
14248.000000,16131.000000,12546.000000
14246.000000,16130.000000,12544.000000
14245.000000,16128.000000,12540.000000
14242.000000,16125.000000,12535.000000
14242.000000,16125.000000,12535.000000
14242.000000,16123.000000,12535.000000
14243.000000,16125.000000,12536.000000
14243.000000,16126.000000,12537.000000
14245.000000,16127.000000,12536.000000
14246.000000,16129.000000,12539.000000
14246.000000,16129.000000,12540.000000
14246.000000,16129.000000,12540.000000
14246.000000,16130.000000,12544.000000
14246.000000,16130.000000,12543.000000
14245.000000,16131.000000,12542.000000
14244.000000,16130.000000,12541.000000
14244.000000,16130.000000,12535.000000
14241.000000,16124.000000,12535.000000
14239.000000,16118.000000,12533.000000
14238.000000,16119.000000,12527.000000
14238.000000,16120.000000,12532.000000
14239.000000,16121.000000,12533.000000
14239.000000,16121.000000,12533.000000
14239.000000,16124.000000,12535.000000
14240.000000,16125.000000,12535.000000
14242.000000,16127.000000,12538.000000
14246.000000,16130.000000,12541.000000
14246.000000,16130.000000,12542.000000
14245.000000,16130.000000,12542.000000
14244.000000,16130.000000,12542.000000
14245.000000,16130.000000,12542.000000
14241.000000,16122.000000,12531.000000
14237.000000,16113.000000,12525.000000
14237.000000,16108.000000,12522.000000
14235.000000,16108.000000,12522.000000
14237.000000,16118.000000,12524.000000
14252.000000,16131.000000,12545.000000
14253.000000,16131.000000,12545.000000
14254.000000,16131.000000,12546.000000
14254.000000,16132.000000,12547.000000
14259.000000,16132.000000,12546.000000
14259.000000,16132.000000,12545.000000
14258.000000,16131.000000,12545.000000
14259.000000,16131.000000,12546.000000
14259.000000,16131.000000,12547.000000
14256.000000,16132.000000,12547.000000
14256.000000,16132.000000,12547.000000
14257.000000,16132.000000,12547.000000
14258.000000,16132.000000,12547.000000
14248.000000,16129.000000,12542.000000
14245.000000,16130.000000,12539.000000
14247.000000,16130.000000,12541.000000
14247.000000,16131.000000,12540.000000
14249.000000,16131.000000,12540.000000
14248.000000,16131.000000,12540.000000
14249.000000,16132.000000,12545.000000
14248.000000,16131.000000,12543.000000
14245.000000,16131.000000,12540.000000
14245.000000,16131.000000,12538.000000
14243.000000,16131.000000,12538.000000
14244.000000,16129.000000,12534.000000
14244.000000,16128.000000,12533.000000
14243.000000,16130.000000,12535.000000
14245.000000,16129.000000,12533.000000
14245.000000,16129.000000,12537.000000
14246.000000,16130.000000,12537.000000
14246.000000,16130.000000,12539.000000
14248.000000,16130.000000,12538.000000
14248.000000,16131.000000,12537.000000
14248.000000,16131.000000,12541.000000
14249.000000,16131.000000,12541.000000
14247.000000,16131.000000,12542.000000
14245.000000,16130.000000,12539.000000
14243.000000,16128.000000,12530.000000
14242.000000,16126.000000,12529.000000
14242.000000,16127.000000,12527.000000
14243.000000,16127.000000,12527.000000
14245.000000,16129.000000,12528.000000
14243.000000,16128.000000,12530.000000
14245.000000,16129.000000,12533.000000
14245.000000,16129.000000,12532.000000
14245.000000,16129.000000,12537.000000
14249.000000,16130.000000,12537.000000
14246.000000,16131.000000,12539.000000
14246.000000,16131.000000,12541.000000
14245.000000,16131.000000,12540.000000
14245.000000,16130.000000,12532.000000
14245.000000,16130.000000,12532.000000
14244.000000,16128.000000,12527.000000
14243.000000,16128.000000,12527.000000
14246.000000,16128.000000,12530.000000
14243.000000,16131.000000,12531.000000
14243.000000,16131.000000,12531.000000
14245.000000,16131.000000,12531.000000
14244.000000,16131.000000,12535.000000
14245.000000,16131.000000,12537.000000
14248.000000,16131.000000,12539.000000
14246.000000,16131.000000,12541.000000
14246.000000,16131.000000,12540.000000
14247.000000,16131.000000,12540.000000
14245.000000,16131.000000,12538.000000
14243.000000,16130.000000,12539.000000
14240.000000,16131.000000,12533.000000
14243.000000,16130.000000,12533.000000
14243.000000,16130.000000,12536.000000
14246.000000,16131.000000,12536.000000
14247.000000,16131.000000,12536.000000
14247.000000,16132.000000,12539.000000
14248.000000,16131.000000,12537.000000
14249.000000,16131.000000,12538.000000
14249.000000,16131.000000,12539.000000
14248.000000,16131.000000,12539.000000
14248.000000,16131.000000,12541.000000
14250.000000,16131.000000,12543.000000
14249.000000,16132.000000,12540.000000
14246.000000,16131.000000,12537.000000
14246.000000,16131.000000,12534.000000
14246.000000,16130.000000,12534.000000
14246.000000,16131.000000,12534.000000
14249.000000,16131.000000,12536.000000
14249.000000,16131.000000,12539.000000
14249.000000,16131.000000,12537.000000
14248.000000,16131.000000,12537.000000
14248.000000,16131.000000,12538.000000
14248.000000,16131.000000,12540.000000
14251.000000,16131.000000,12540.000000
14251.000000,16131.000000,12542.000000
14251.000000,16131.000000,12539.000000
14246.000000,16131.000000,12539.000000
14245.000000,16131.000000,12531.000000
14242.000000,16131.000000,12528.000000
14243.000000,16130.000000,12528.000000
14243.000000,16130.000000,12525.000000
14243.000000,16130.000000,12529.000000
14244.000000,16131.000000,12529.000000
14244.000000,16131.000000,12526.000000
14247.000000,16131.000000,12529.000000
14246.000000,16130.000000,12531.000000
14250.000000,16131.000000,12532.000000
14250.000000,16131.000000,12535.000000
14251.000000,16131.000000,12535.000000
14246.000000,16131.000000,12535.000000
14245.000000,16131.000000,12526.000000
14245.000000,16131.000000,12524.000000
14245.000000,16129.000000,12522.000000
14243.000000,16129.000000,12522.000000
14239.000000,16128.000000,12518.000000
14243.000000,16129.000000,12525.000000
14242.000000,16130.000000,12522.000000
14243.000000,16130.000000,12523.000000
14243.000000,16131.000000,12525.000000
14245.000000,16131.000000,12525.000000
14245.000000,16131.000000,12529.000000
14247.000000,16131.000000,12534.000000
14246.000000,16131.000000,12534.000000
14241.000000,16131.000000,12524.000000
14241.000000,16131.000000,12522.000000
14240.000000,16129.000000,12522.000000
14239.000000,16129.000000,12517.000000
14240.000000,16131.000000,12523.000000
14242.000000,16129.000000,12524.000000
14242.000000,16131.000000,12523.000000
14255.000000,16131.000000,12542.000000
14255.000000,16132.000000,12545.000000
14262.000000,16132.000000,12545.000000
14259.000000,16131.000000,12544.000000
14263.000000,16132.000000,12547.000000
14262.000000,16131.000000,12546.000000
14261.000000,16132.000000,12544.000000
14261.000000,16132.000000,12544.000000
14260.000000,16132.000000,12544.000000
14261.000000,16132.000000,12545.000000
14263.000000,16132.000000,12545.000000
14256.000000,16132.000000,12542.000000
14256.000000,16132.000000,12539.000000
14255.000000,16132.000000,12539.000000
14263.000000,16132.000000,12545.000000
14267.000000,16132.000000,12547.000000
14270.000000,16132.000000,12548.000000
14272.000000,16131.000000,12548.000000
14272.000000,16131.000000,12548.000000
14268.000000,16132.000000,12548.000000
14264.000000,16132.000000,12546.000000
14262.000000,16131.000000,12546.000000
14263.000000,16132.000000,12545.000000
14262.000000,16132.000000,12544.000000
14262.000000,16132.000000,12545.000000
14264.000000,16132.000000,12545.000000
14257.000000,16131.000000,12540.000000
14264.000000,16131.000000,12545.000000
14263.000000,16131.000000,12546.000000
14265.000000,16131.000000,12546.000000
14265.000000,16131.000000,12546.000000
14265.000000,16131.000000,12547.000000
14265.000000,16132.000000,12547.000000
14259.000000,16131.000000,12546.000000
14257.000000,16131.000000,12543.000000
14257.000000,16132.000000,12542.000000
14256.000000,16132.000000,12542.000000
14256.000000,16131.000000,12540.000000
14256.000000,16131.000000,12540.000000
14258.000000,16132.000000,12543.000000
14259.000000,16131.000000,12544.000000
14259.000000,16131.000000,12536.000000
14249.000000,16131.000000,12536.000000
14259.000000,16131.000000,12543.000000
14258.000000,16132.000000,12546.000000
14258.000000,16132.000000,12546.000000
14258.000000,16132.000000,12541.000000
14254.000000,16132.000000,12541.000000
14251.000000,16130.000000,12537.000000
14254.000000,16132.000000,12537.000000
14255.000000,16132.000000,12537.000000
14253.000000,16132.000000,12537.000000
14253.000000,16131.000000,12539.000000
14253.000000,16131.000000,12539.000000
14253.000000,16131.000000,12541.000000
14246.000000,16130.000000,12530.000000
14253.000000,16131.000000,12541.000000
14256.000000,16131.000000,12544.000000
14256.000000,16131.000000,12542.000000
14256.000000,16131.000000,12542.000000
14253.000000,16132.000000,12540.000000
14251.000000,16131.000000,12539.000000
14251.000000,16131.000000,12538.000000
14251.000000,16131.000000,12539.000000
14251.000000,16131.000000,12539.000000
14254.000000,16132.000000,12542.000000
14249.000000,16130.000000,12534.000000
14254.000000,16131.000000,12539.000000
14253.000000,16132.000000,12541.000000
14253.000000,16131.000000,12542.000000
14255.000000,16131.000000,12542.000000
14246.000000,16132.000000,12533.000000
14256.000000,16132.000000,12544.000000
14253.000000,16131.000000,12541.000000
14247.000000,16130.000000,12536.000000
14247.000000,16131.000000,12538.000000
14251.000000,16131.000000,12538.000000
14251.000000,16132.000000,12536.000000
14252.000000,16132.000000,12536.000000
14253.000000,16131.000000,12537.000000
14251.000000,16131.000000,12537.000000
14251.000000,16131.000000,12539.000000
14254.000000,16131.000000,12539.000000
14252.000000,16131.000000,12538.000000
14245.000000,16132.000000,12533.000000
14253.000000,16131.000000,12544.000000
14252.000000,16132.000000,12544.000000
14252.000000,16132.000000,12540.000000
14251.000000,16131.000000,12540.000000
14249.000000,16131.000000,12538.000000
14247.000000,16131.000000,12534.000000
14249.000000,16131.000000,12535.000000
14249.000000,16129.000000,12532.000000
14245.000000,16129.000000,12532.000000
14247.000000,16131.000000,12536.000000
14248.000000,16131.000000,12535.000000
14249.000000,16131.000000,12540.000000
14250.000000,16132.000000,12539.000000
14250.000000,16131.000000,12540.000000
14251.000000,16131.000000,12540.000000
14243.000000,16132.000000,12534.000000
14251.000000,16131.000000,12540.000000
14250.000000,16131.000000,12540.000000
14251.000000,16131.000000,12538.000000
14251.000000,16131.000000,12534.000000
14247.000000,16131.000000,12534.000000
14246.000000,16132.000000,12535.000000
14247.000000,16132.000000,12535.000000
14248.000000,16132.000000,12537.000000
14247.000000,16131.000000,12539.000000
14247.000000,16131.000000,12537.000000
14248.000000,16131.000000,12537.000000
14246.000000,16132.000000,12540.000000
14245.000000,16131.000000,12536.000000
14253.000000,16131.000000,12542.000000
14252.000000,16131.000000,12544.000000
14250.000000,16131.000000,12539.000000
14241.000000,16129.000000,12530.000000
14241.000000,16129.000000,12515.000000
14231.000000,16123.000000,12515.000000
14229.000000,16126.000000,12515.000000
14233.000000,16127.000000,12518.000000
14229.000000,16126.000000,12517.000000
14230.000000,16129.000000,12516.000000
14230.000000,16129.000000,12520.000000
14229.000000,16130.000000,12520.000000
14231.000000,16130.000000,12524.000000
14233.000000,16130.000000,12528.000000
14235.000000,16131.000000,12530.000000
14235.000000,16130.000000,12528.000000
14232.000000,16130.000000,12528.000000
14226.000000,16129.000000,12520.000000
14225.000000,16124.000000,12514.000000
14227.000000,16127.000000,12517.000000
14227.000000,16126.000000,12512.000000
14227.000000,16127.000000,12515.000000
14226.000000,16127.000000,12515.000000
14226.000000,16130.000000,12518.000000
14230.000000,16130.000000,12523.000000
14230.000000,16130.000000,12525.000000
14230.000000,16131.000000,12527.000000
14230.000000,16131.000000,12527.000000
14233.000000,16131.000000,12527.000000
14234.000000,16131.000000,12533.000000
14230.000000,16131.000000,12529.000000
14229.000000,16129.000000,12525.000000
14229.000000,16130.000000,12520.000000
14226.000000,16130.000000,12520.000000
14226.000000,16129.000000,12519.000000
14228.000000,16130.000000,12520.000000
14228.000000,16131.000000,12523.000000
14227.000000,16129.000000,12522.000000
14227.000000,16129.000000,12526.000000
14230.000000,16130.000000,12526.000000
14228.000000,16131.000000,12525.000000
14228.000000,16132.000000,12530.000000
14226.000000,16131.000000,12532.000000
14228.000000,16131.000000,12534.000000
14228.000000,16131.000000,12533.000000
14227.000000,16131.000000,12533.000000
14227.000000,16131.000000,12529.000000
14224.000000,16130.000000,12524.000000
14222.000000,16130.000000,12523.000000
14222.000000,16130.000000,12523.000000
14219.000000,16130.000000,12523.000000
14224.000000,16131.000000,12523.000000
14223.000000,16130.000000,12524.000000
14223.000000,16131.000000,12525.000000
14224.000000,16131.000000,12526.000000
14224.000000,16131.000000,12526.000000
14225.000000,16131.000000,12526.000000
14227.000000,16131.000000,12532.000000
14225.000000,16131.000000,12530.000000
14227.000000,16131.000000,12528.000000
14220.000000,16130.000000,12525.000000
14220.000000,16130.000000,12518.000000
14219.000000,16130.000000,12518.000000
14217.000000,16130.000000,12518.000000
14219.000000,16129.000000,12521.000000
14220.000000,16130.000000,12519.000000
14222.000000,16131.000000,12522.000000
14222.000000,16130.000000,12523.000000
14220.000000,16130.000000,12523.000000
14222.000000,16131.000000,12526.000000
14223.000000,16131.000000,12529.000000
14223.000000,16131.000000,12529.000000
14219.000000,16131.000000,12524.000000
14219.000000,16131.000000,12521.000000
14217.000000,16130.000000,12521.000000
14216.000000,16126.000000,12517.000000
14214.000000,16125.000000,12513.000000
14216.000000,16124.000000,12517.000000
14214.000000,16128.000000,12515.000000
14214.000000,16128.000000,12515.000000
14215.000000,16128.000000,12516.000000
14212.000000,16127.000000,12516.000000
14214.000000,16129.000000,12516.000000
14215.000000,16130.000000,12520.000000
14215.000000,16130.000000,12526.000000
14218.000000,16130.000000,12526.000000
14213.000000,16129.000000,12519.000000
14211.000000,16124.000000,12515.000000
14204.000000,16111.000000,12506.000000
14203.000000,16107.000000,12504.000000
14203.000000,16107.000000,12504.000000
14201.000000,16105.000000,12504.000000
14203.000000,16112.000000,12504.000000
14199.000000,16108.000000,12500.000000
14202.000000,16106.000000,12503.000000
14200.000000,16107.000000,12503.000000
14200.000000,16117.000000,12508.000000
14203.000000,16117.000000,12508.000000
14205.000000,16121.000000,12509.000000
14204.000000,16114.000000,12508.000000
14201.000000,16103.000000,12499.000000
14190.000000,16087.000000,12489.000000
14181.000000,16071.000000,12479.000000
14181.000000,16071.000000,12478.000000
14181.000000,16068.000000,12478.000000
14184.000000,16070.000000,12480.000000
14182.000000,16071.000000,12478.000000
14181.000000,16073.000000,12479.000000
14179.000000,16069.000000,12481.000000
14179.000000,16076.000000,12483.000000
14184.000000,16076.000000,12483.000000
14187.000000,16088.000000,12488.000000
14191.000000,16095.000000,12492.000000
14189.000000,16091.000000,12490.000000
14172.000000,16061.000000,12476.000000
14163.000000,16038.000000,12469.000000
14163.000000,16033.000000,12466.000000
14162.000000,16033.000000,12466.000000
14183.000000,16061.000000,12482.000000
14197.000000,16081.000000,12495.000000
14194.000000,16077.000000,12493.000000
14203.000000,16088.000000,12502.000000
14203.000000,16087.000000,12504.000000
14205.000000,16102.000000,12507.000000
14205.000000,16107.000000,12513.000000
14209.000000,16107.000000,12513.000000
14208.000000,16108.000000,12511.000000
14188.000000,16067.000000,12488.000000
14156.000000,16015.000000,12458.000000
14150.000000,15999.000000,12451.000000
14149.000000,15999.000000,12451.000000
14149.000000,15999.000000,12451.000000
14149.000000,15997.000000,12451.000000
14148.000000,15997.000000,12450.000000
14149.000000,15998.000000,12451.000000
14149.000000,16003.000000,12451.000000
14149.000000,16002.000000,12453.000000
14151.000000,16002.000000,12453.000000
14152.000000,16014.000000,12455.000000
14156.000000,16019.000000,12458.000000
14154.000000,16016.000000,12458.000000
14147.000000,15999.000000,12451.000000
14147.000000,15986.000000,12441.000000
14143.000000,15986.000000,12441.000000
14139.000000,15976.000000,12438.000000
14135.000000,15972.000000,12435.000000
14136.000000,15973.000000,12435.000000
14135.000000,15976.000000,12435.000000
14135.000000,15976.000000,12434.000000
14135.000000,15976.000000,12434.000000
14135.000000,15976.000000,12438.000000
14139.000000,15984.000000,12440.000000
14142.000000,15989.000000,12445.000000
14146.000000,15995.000000,12449.000000
14146.000000,16003.000000,12451.000000
14149.000000,16003.000000,12451.000000
14144.000000,15993.000000,12448.000000
14133.000000,15973.000000,12438.000000
14131.000000,15965.000000,12430.000000
14127.000000,15956.000000,12426.000000
14127.000000,15956.000000,12425.000000
14126.000000,15956.000000,12425.000000
14124.000000,15958.000000,12428.000000
14124.000000,15957.000000,12426.000000
14124.000000,15957.000000,12427.000000
14129.000000,15963.000000,12430.000000
14129.000000,15963.000000,12432.000000
14134.000000,15967.000000,12432.000000
14134.000000,15977.000000,12439.000000
14141.000000,15993.000000,12444.000000
14140.000000,15990.000000,12445.000000
14138.000000,15987.000000,12441.000000
14138.000000,15987.000000,12435.000000
14133.000000,15973.000000,12435.000000
14126.000000,15957.000000,12426.000000
14122.000000,15952.000000,12425.000000
14123.000000,15958.000000,12424.000000
14122.000000,15956.000000,12423.000000
14122.000000,15956.000000,12428.000000
14126.000000,15960.000000,12428.000000
14125.000000,15961.000000,12424.000000
14128.000000,15965.000000,12429.000000
14131.000000,15970.000000,12431.000000
14131.000000,15975.000000,12436.000000
14134.000000,15975.000000,12436.000000
14136.000000,15983.000000,12439.000000
14141.000000,15991.000000,12445.000000
14138.000000,15990.000000,12444.000000
14135.000000,15977.000000,12438.000000
14135.000000,15966.000000,12429.000000
14126.000000,15966.000000,12429.000000
14124.000000,15959.000000,12424.000000
14123.000000,15958.000000,12424.000000
14124.000000,15958.000000,12425.000000
14126.000000,15961.000000,12425.000000
14126.000000,15961.000000,12426.000000
14125.000000,15962.000000,12426.000000
14126.000000,15961.000000,12426.000000
14130.000000,15970.000000,12432.000000
14131.000000,15974.000000,12433.000000
14134.000000,15982.000000,12438.000000
14134.000000,15982.000000,12442.000000
14137.000000,15987.000000,12442.000000
14137.000000,15988.000000,12440.000000
14128.000000,15972.000000,12430.000000
14124.000000,15961.000000,12426.000000
14120.000000,15955.000000,12422.000000
14120.000000,15955.000000,12422.000000
14119.000000,15954.000000,12422.000000
14123.000000,15959.000000,12424.000000
14122.000000,15959.000000,12425.000000
14123.000000,15961.000000,12425.000000
14123.000000,15964.000000,12426.000000
14125.000000,15964.000000,12426.000000
14129.000000,15971.000000,12431.000000
14134.000000,15982.000000,12439.000000
14137.000000,15988.000000,12443.000000
14136.000000,15995.000000,12445.000000
14133.000000,15986.000000,12440.000000
14133.000000,15986.000000,12433.000000
14125.000000,15972.000000,12433.000000
14120.000000,15963.000000,12429.000000
14120.000000,15961.000000,12426.000000
14118.000000,15959.000000,12426.000000
14120.000000,15962.000000,12428.000000
14120.000000,15962.000000,12428.000000
14121.000000,15965.000000,12428.000000
14122.000000,15965.000000,12430.000000
14128.000000,15974.000000,12435.000000
14130.000000,15977.000000,12436.000000
14132.000000,15985.000000,12441.000000
14132.000000,15985.000000,12444.000000
14136.000000,15994.000000,12444.000000
14139.000000,16002.000000,12447.000000
14137.000000,15997.000000,12445.000000
14131.000000,15981.000000,12439.000000
14131.000000,15975.000000,12436.000000
14126.000000,15975.000000,12436.000000
14126.000000,15968.000000,12434.000000
14128.000000,15976.000000,12435.000000
14154.000000,16011.000000,12459.000000
14155.000000,16020.000000,12462.000000
14142.000000,16000.000000,12449.000000
14137.000000,15995.000000,12444.000000
14137.000000,16001.000000,12448.000000
14140.000000,16001.000000,12448.000000
14143.000000,16009.000000,12451.000000
14146.000000,16021.000000,12457.000000
14144.000000,16018.000000,12455.000000
14139.000000,16001.000000,12448.000000
14139.000000,15993.000000,12443.000000
14134.000000,15993.000000,12443.000000
14136.000000,15992.000000,12442.000000
14134.000000,15988.000000,12441.000000
14133.000000,15991.000000,12441.000000
14134.000000,15992.000000,12442.000000
14134.000000,15995.000000,12443.000000
14134.000000,15995.000000,12443.000000
14135.000000,15997.000000,12444.000000
14140.000000,16006.000000,12447.000000
14143.000000,16014.000000,12451.000000
14147.000000,16027.000000,12458.000000
14147.000000,16028.000000,12460.000000
14148.000000,16028.000000,12460.000000
14144.000000,16021.000000,12456.000000
14138.000000,16006.000000,12448.000000
14136.000000,15995.000000,12444.000000
14130.000000,15987.000000,12442.000000
14130.000000,15986.000000,12441.000000
14130.000000,15986.000000,12442.000000
14130.000000,15988.000000,12442.000000
14132.000000,15993.000000,12442.000000
14132.000000,15992.000000,12441.000000
14136.000000,15999.000000,12444.000000
14136.000000,16004.000000,12446.000000
14136.000000,16004.000000,12450.000000
14137.000000,16015.000000,12450.000000
14147.000000,16027.000000,12456.000000
14146.000000,16029.000000,12457.000000
14138.000000,16012.000000,12450.000000
14131.000000,15999.000000,12443.000000
14131.000000,15989.000000,12439.000000
14127.000000,15989.000000,12439.000000
14125.000000,15988.000000,12436.000000
14125.000000,15988.000000,12437.000000
14126.000000,15985.000000,12436.000000
14126.000000,15985.000000,12439.000000
14126.000000,15985.000000,12440.000000
14131.000000,15990.000000,12440.000000
14130.000000,15993.000000,12439.000000
14133.000000,16002.000000,12443.000000
14138.000000,16012.000000,12449.000000
14139.000000,16014.000000,12449.000000
14139.000000,16014.000000,12444.000000
14133.000000,16003.000000,12444.000000
14126.000000,15988.000000,12438.000000
14119.000000,15977.000000,12432.000000
14116.000000,15974.000000,12429.000000
14113.000000,15973.000000,12429.000000
14113.000000,15973.000000,12429.000000
14114.000000,15972.000000,12429.000000
14112.000000,15974.000000,12430.000000
14113.000000,15973.000000,12432.000000
14115.000000,15976.000000,12432.000000
14117.000000,15984.000000,12434.000000
14117.000000,15984.000000,12434.000000
14119.000000,15991.000000,12437.000000
14123.000000,15995.000000,12441.000000
14120.000000,15988.000000,12438.000000
14114.000000,15975.000000,12433.000000
14107.000000,15959.000000,12426.000000
14107.000000,15955.000000,12422.000000
14103.000000,15955.000000,12422.000000
14101.000000,15954.000000,12421.000000
14102.000000,15953.000000,12421.000000
14105.000000,15957.000000,12423.000000
14104.000000,15956.000000,12422.000000
14104.000000,15963.000000,12426.000000
14105.000000,15963.000000,12426.000000
14107.000000,15969.000000,12427.000000
14111.000000,15973.000000,12431.000000
14116.000000,15982.000000,12434.000000
14115.000000,15981.000000,12435.000000
14115.000000,15970.000000,12430.000000
14107.000000,15970.000000,12430.000000
14100.000000,15956.000000,12424.000000
14095.000000,15946.000000,12418.000000
14095.000000,15946.000000,12417.000000
14095.000000,15947.000000,12418.000000
14095.000000,15947.000000,12416.000000
14092.000000,15947.000000,12416.000000
14093.000000,15947.000000,12416.000000
14092.000000,15947.000000,12418.000000
14094.000000,15949.000000,12418.000000
14099.000000,15956.000000,12421.000000
14099.000000,15965.000000,12427.000000
14105.000000,15965.000000,12427.000000
14103.000000,15960.000000,12424.000000
14092.000000,15944.000000,12419.000000
14083.000000,15933.000000,12407.000000
14080.000000,15920.000000,12404.000000
14080.000000,15920.000000,12403.000000
14076.000000,15920.000000,12403.000000
14079.000000,15918.000000,12403.000000
14078.000000,15920.000000,12403.000000
14079.000000,15921.000000,12404.000000
14080.000000,15924.000000,12404.000000
14079.000000,15924.000000,12405.000000
14079.000000,15924.000000,12409.000000
14085.000000,15931.000000,12409.000000
14088.000000,15934.000000,12411.000000
14081.000000,15922.000000,12405.000000
14072.000000,15908.000000,12396.000000
14066.000000,15897.000000,12392.000000
14066.000000,15894.000000,12391.000000
14067.000000,15894.000000,12391.000000
14098.000000,15935.000000,12415.000000
14098.000000,15931.000000,12414.000000
14103.000000,15939.000000,12417.000000
14108.000000,15943.000000,12422.000000
14108.000000,15949.000000,12422.000000
14105.000000,15947.000000,12421.000000
14105.000000,15957.000000,12426.000000
14114.000000,15957.000000,12426.000000
14102.000000,15938.000000,12416.000000
14072.000000,15893.000000,12391.000000
14056.000000,15873.000000,12377.000000
14056.000000,15870.000000,12374.000000
14056.000000,15870.000000,12376.000000
14059.000000,15870.000000,12376.000000
14061.000000,15874.000000,12376.000000
14058.000000,15869.000000,12375.000000
14057.000000,15870.000000,12375.000000
14061.000000,15875.000000,12378.000000
14060.000000,15882.000000,12380.000000
14060.000000,15892.000000,12382.000000
14066.000000,15892.000000,12382.000000
14063.000000,15884.000000,12382.000000
14050.000000,15861.000000,12369.000000
14048.000000,15849.000000,12360.000000
14046.000000,15844.000000,12353.000000
14044.000000,15841.000000,12355.000000
14044.000000,15841.000000,12355.000000
14043.000000,15844.000000,12352.000000
14044.000000,15842.000000,12352.000000
14043.000000,15845.000000,12354.000000
14043.000000,15844.000000,12356.000000
14044.000000,15848.000000,12357.000000
14044.000000,15848.000000,12364.000000
14047.000000,15852.000000,12364.000000
14050.000000,15861.000000,12367.000000
14052.000000,15865.000000,12369.000000
14047.000000,15856.000000,12362.000000
14044.000000,15839.000000,12352.000000
14041.000000,15833.000000,12345.000000
14041.000000,15833.000000,12344.000000
14042.000000,15827.000000,12344.000000
14041.000000,15827.000000,12340.000000
14042.000000,15828.000000,12342.000000
14042.000000,15831.000000,12344.000000
14041.000000,15833.000000,12344.000000
14041.000000,15833.000000,12346.000000
14043.000000,15837.000000,12346.000000
14044.000000,15844.000000,12351.000000
14045.000000,15849.000000,12355.000000
14049.000000,15858.000000,12360.000000
14044.000000,15854.000000,12362.000000
14044.000000,15848.000000,12356.000000
14044.000000,15848.000000,12356.000000
14041.000000,15839.000000,12350.000000
14043.000000,15834.000000,12344.000000
14041.000000,15831.000000,12343.000000
14043.000000,15834.000000,12344.000000
14041.000000,15834.000000,12344.000000
14041.000000,15834.000000,12344.000000
14041.000000,15836.000000,12347.000000
14043.000000,15837.000000,12346.000000
14043.000000,15843.000000,12351.000000
14044.000000,15845.000000,12352.000000
14044.000000,15854.000000,12360.000000
14044.000000,15854.000000,12363.000000
14047.000000,15861.000000,12363.000000
14044.000000,15858.000000,12362.000000
14041.000000,15850.000000,12356.000000
14040.000000,15839.000000,12347.000000
14040.000000,15837.000000,12346.000000
14040.000000,15837.000000,12346.000000
14041.000000,15839.000000,12346.000000
14040.000000,15838.000000,12348.000000
14041.000000,15842.000000,12348.000000
14042.000000,15846.000000,12350.000000
14043.000000,15852.000000,12354.000000
14043.000000,15852.000000,12357.000000
14046.000000,15856.000000,12357.000000
14049.000000,15863.000000,12361.000000
14050.000000,15869.000000,12366.000000
14049.000000,15869.000000,12365.000000
14046.000000,15861.000000,12359.000000
14046.000000,15849.000000,12352.000000
14043.000000,15849.000000,12352.000000
14042.000000,15844.000000,12348.000000
14043.000000,15843.000000,12347.000000
14041.000000,15846.000000,12350.000000
14042.000000,15847.000000,12351.000000
14043.000000,15844.000000,12349.000000
14043.000000,15844.000000,12351.000000
14042.000000,15845.000000,12351.000000
14042.000000,15851.000000,12352.000000
14047.000000,15860.000000,12358.000000
14048.000000,15865.000000,12362.000000
14051.000000,15869.000000,12365.000000
14051.000000,15859.000000,12358.000000
14045.000000,15859.000000,12358.000000
14042.000000,15849.000000,12349.000000
14042.000000,15841.000000,12345.000000
14041.000000,15843.000000,12345.000000
14042.000000,15842.000000,12346.000000
14042.000000,15846.000000,12349.000000
14043.000000,15846.000000,12349.000000
14043.000000,15851.000000,12351.000000
14045.000000,15853.000000,12356.000000
14045.000000,15858.000000,12356.000000
14046.000000,15861.000000,12359.000000
14046.000000,15869.000000,12363.000000
14050.000000,15869.000000,12363.000000
14052.000000,15879.000000,12370.000000
14054.000000,15878.000000,12370.000000
14047.000000,15866.000000,12364.000000
14045.000000,15854.000000,12358.000000
14045.000000,15852.000000,12353.000000
14041.000000,15852.000000,12353.000000
14042.000000,15851.000000,12355.000000
14044.000000,15854.000000,12357.000000
14044.000000,15856.000000,12357.000000
14045.000000,15858.000000,12359.000000
14045.000000,15859.000000,12360.000000
14045.000000,15859.000000,12360.000000
14078.000000,15909.000000,12395.000000
14084.000000,15922.000000,12400.000000
14056.000000,15891.000000,12378.000000
14049.000000,15874.000000,12369.000000
14046.000000,15861.000000,12360.000000
14042.000000,15850.000000,12354.000000
14041.000000,15854.000000,12356.000000
14041.000000,15854.000000,12359.000000
14041.000000,15855.000000,12359.000000
14044.000000,15856.000000,12357.000000
14042.000000,15855.000000,12358.000000
14044.000000,15862.000000,12360.000000
14045.000000,15864.000000,12363.000000
14045.000000,15875.000000,12368.000000
14049.000000,15875.000000,12368.000000
14049.000000,15879.000000,12371.000000
14053.000000,15885.000000,12375.000000
14050.000000,15883.000000,12376.000000
14047.000000,15869.000000,12367.000000
14042.000000,15863.000000,12363.000000
14042.000000,15863.000000,12362.000000
14045.000000,15861.000000,12362.000000
14044.000000,15864.000000,12363.000000
14048.000000,15872.000000,12366.000000
14048.000000,15875.000000,12368.000000
14048.000000,15879.000000,12368.000000
14048.000000,15879.000000,12371.000000
14049.000000,15882.000000,12371.000000
14050.000000,15885.000000,12373.000000
14053.000000,15892.000000,12378.000000
14053.000000,15899.000000,12381.000000
14057.000000,15908.000000,12388.000000
14057.000000,15890.000000,12382.000000
14052.000000,15890.000000,12382.000000
14049.000000,15881.000000,12373.000000
14046.000000,15875.000000,12368.000000
14045.000000,15876.000000,12366.000000
14045.000000,15875.000000,12369.000000
14045.000000,15881.000000,12368.000000
14048.000000,15881.000000,12368.000000
14047.000000,15880.000000,12370.000000
14045.000000,15880.000000,12370.000000
14047.000000,15887.000000,12373.000000
14049.000000,15889.000000,12377.000000
14051.000000,15895.000000,12382.000000
14051.000000,15895.000000,12380.000000
14051.000000,15895.000000,12380.000000
14045.000000,15879.000000,12370.000000
14042.000000,15868.000000,12363.000000
14041.000000,15865.000000,12361.000000
14041.000000,15865.000000,12360.000000
14041.000000,15865.000000,12360.000000
14040.000000,15869.000000,12360.000000
14041.000000,15870.000000,12361.000000
14043.000000,15874.000000,12362.000000
14045.000000,15877.000000,12367.000000
14045.000000,15879.000000,12367.000000
14045.000000,15888.000000,12374.000000
14050.000000,15888.000000,12374.000000
14049.000000,15894.000000,12375.000000
14044.000000,15881.000000,12370.000000
14042.000000,15865.000000,12360.000000
14039.000000,15862.000000,12356.000000
14039.000000,15857.000000,12354.000000
14038.000000,15857.000000,12354.000000
14039.000000,15859.000000,12354.000000
14038.000000,15862.000000,12354.000000
14039.000000,15861.000000,12357.000000
14039.000000,15863.000000,12358.000000
14039.000000,15865.000000,12360.000000
14041.000000,15865.000000,12360.000000
14042.000000,15872.000000,12361.000000
14043.000000,15881.000000,12368.000000
14042.000000,15873.000000,12365.000000
14038.000000,15860.000000,12355.000000
14037.000000,15851.000000,12350.000000
14037.000000,15851.000000,12349.000000
14035.000000,15851.000000,12349.000000
14038.000000,15850.000000,12351.000000
14037.000000,15851.000000,12348.000000
14038.000000,15852.000000,12351.000000
14037.000000,15853.000000,12351.000000
14037.000000,15853.000000,12353.000000
14038.000000,15857.000000,12353.000000
14038.000000,15862.000000,12356.000000
14040.000000,15867.000000,12359.000000
14041.000000,15870.000000,12361.000000
14039.000000,15861.000000,12357.000000
14039.000000,15848.000000,12347.000000
14036.000000,15848.000000,12347.000000
14032.000000,15843.000000,12341.000000
14033.000000,15837.000000,12339.000000
14031.000000,15841.000000,12339.000000
14033.000000,15839.000000,12340.000000
14033.000000,15839.000000,12339.000000
14033.000000,15839.000000,12337.000000
14031.000000,15836.000000,12337.000000
14031.000000,15840.000000,12338.000000
14035.000000,15845.000000,12345.000000
14037.000000,15850.000000,12347.000000
14037.000000,15851.000000,12348.000000
14037.000000,15851.000000,12341.000000
14032.000000,15839.000000,12341.000000
14020.000000,15822.000000,12327.000000
14017.000000,15814.000000,12325.000000
14018.000000,15809.000000,12322.000000
14018.000000,15813.000000,12322.000000
14018.000000,15813.000000,12323.000000
14020.000000,15814.000000,12323.000000
14021.000000,15817.000000,12325.000000
14020.000000,15817.000000,12325.000000
14024.000000,15821.000000,12329.000000
14028.000000,15827.000000,12333.000000
14028.000000,15827.000000,12343.000000
14034.000000,15841.000000,12343.000000
14037.000000,15842.000000,12346.000000
14041.000000,15839.000000,12348.000000
14041.000000,15830.000000,12342.000000
14039.000000,15824.000000,12339.000000
14039.000000,15828.000000,12339.000000
14039.000000,15827.000000,12343.000000
14042.000000,15827.000000,12343.000000
14042.000000,15832.000000,12345.000000
14041.000000,15835.000000,12346.000000
14016.000000,15810.000000,12323.000000
14019.000000,15815.000000,12326.000000
14019.000000,15824.000000,12330.000000
14023.000000,15824.000000,12330.000000
14020.000000,15821.000000,12328.000000
14008.000000,15802.000000,12320.000000
14001.000000,15787.000000,12311.000000
13999.000000,15780.000000,12306.000000
13997.000000,15781.000000,12305.000000
13997.000000,15781.000000,12306.000000
13996.000000,15783.000000,12306.000000
13997.000000,15781.000000,12307.000000
13999.000000,15784.000000,12308.000000
14001.000000,15788.000000,12309.000000
14005.000000,15797.000000,12315.000000
14011.000000,15804.000000,12319.000000
14011.000000,15804.000000,12324.000000
14014.000000,15813.000000,12324.000000
14017.000000,15815.000000,12326.000000
14008.000000,15799.000000,12320.000000
13997.000000,15783.000000,12309.000000
13992.000000,15776.000000,12305.000000
13992.000000,15776.000000,12303.000000
13992.000000,15776.000000,12303.000000
13992.000000,15779.000000,12303.000000
13996.000000,15781.000000,12307.000000
13996.000000,15785.000000,12307.000000
13997.000000,15788.000000,12310.000000
13997.000000,15788.000000,12316.000000
14003.000000,15796.000000,12316.000000
14010.000000,15805.000000,12319.000000
14016.000000,15816.000000,12325.000000
14018.000000,15821.000000,12327.000000
14018.000000,15812.000000,12325.000000
14011.000000,15812.000000,12325.000000
14003.000000,15798.000000,12316.000000
14000.000000,15789.000000,12310.000000
13997.000000,15785.000000,12309.000000
13997.000000,15787.000000,12311.000000
14000.000000,15791.000000,12313.000000
14000.000000,15791.000000,12315.000000
14002.000000,15795.000000,12315.000000
14005.000000,15798.000000,12317.000000
14008.000000,15804.000000,12319.000000
14010.000000,15808.000000,12321.000000
14015.000000,15820.000000,12326.000000
14015.000000,15820.000000,12331.000000
14019.000000,15826.000000,12331.000000
14017.000000,15823.000000,12330.000000
14007.000000,15811.000000,12323.000000
14002.000000,15802.000000,12319.000000
14001.000000,15800.000000,12317.000000
14001.000000,15805.000000,12318.000000
14003.000000,15805.000000,12318.000000
14005.000000,15808.000000,12321.000000
14008.000000,15810.000000,12321.000000
14006.000000,15813.000000,12324.000000
14007.000000,15811.000000,12324.000000
14007.000000,15811.000000,12324.000000
14005.000000,15814.000000,12324.000000
14013.000000,15825.000000,12331.000000
14015.000000,15828.000000,12333.000000
14008.000000,15817.000000,12328.000000
14000.000000,15803.000000,12318.000000
14000.000000,15791.000000,12313.000000
13992.000000,15791.000000,12313.000000
13991.000000,15787.000000,12312.000000
13991.000000,15787.000000,12311.000000
13991.000000,15789.000000,12313.000000
13993.000000,15791.000000,12315.000000
13993.000000,15791.000000,12317.000000
13997.000000,15801.000000,12317.000000
13999.000000,15804.000000,12320.000000
14003.000000,15809.000000,12323.000000
14006.000000,15818.000000,12329.000000
14009.000000,15817.000000,12328.000000
14009.000000,15817.000000,12323.000000
14000.000000,15807.000000,12323.000000
13994.000000,15790.000000,12318.000000
13987.000000,15781.000000,12311.000000
13989.000000,15779.000000,12309.000000
13991.000000,15782.000000,12309.000000
13991.000000,15785.000000,12312.000000
13992.000000,15785.000000,12312.000000
13990.000000,15787.000000,12314.000000
13991.000000,15789.000000,12313.000000
13997.000000,15793.000000,12317.000000
13999.000000,15802.000000,12318.000000
13999.000000,15811.000000,12324.000000
14003.000000,15811.000000,12324.000000
13998.000000,15801.000000,12320.000000
13988.000000,15783.000000,12311.000000
13981.000000,15768.000000,12303.000000
13978.000000,15763.000000,12298.000000
13979.000000,15765.000000,12301.000000
13979.000000,15765.000000,12301.000000
13983.000000,15770.000000,12303.000000
13983.000000,15770.000000,12304.000000
13981.000000,15772.000000,12304.000000
13984.000000,15775.000000,12305.000000
13986.000000,15780.000000,12309.000000
13986.000000,15780.000000,12312.000000
13990.000000,15786.000000,12312.000000
13992.000000,15793.000000,12316.000000
13987.000000,15784.000000,12311.000000
13975.000000,15762.000000,12298.000000
13968.000000,15751.000000,12291.000000
13968.000000,15745.000000,12287.000000
13968.000000,15745.000000,12287.000000
13967.000000,15746.000000,12288.000000
13970.000000,15751.000000,12290.000000
13970.000000,15751.000000,12290.000000
13983.000000,15766.000000,12302.000000
13983.000000,15793.000000,12323.000000
14001.000000,15795.000000,12319.000000
14001.000000,15821.000000,12337.000000
14024.000000,15821.000000,12337.000000
14017.000000,15812.000000,12335.000000
14010.000000,15795.000000,12326.000000
14000.000000,15782.000000,12318.000000
14001.000000,15779.000000,12314.000000
14001.000000,15781.000000,12316.000000
14002.000000,15781.000000,12316.000000
13972.000000,15750.000000,12290.000000
13970.000000,15750.000000,12288.000000
13971.000000,15750.000000,12289.000000
13973.000000,15754.000000,12293.000000
13978.000000,15762.000000,12296.000000
13980.000000,15766.000000,12299.000000
13981.000000,15773.000000,12303.000000
13981.000000,15767.000000,12300.000000
13977.000000,15767.000000,12290.000000
13965.000000,15751.000000,12290.000000
13961.000000,15739.000000,12284.000000
13960.000000,15737.000000,12281.000000
13959.000000,15736.000000,12282.000000
13962.000000,15743.000000,12284.000000
13962.000000,15744.000000,12283.000000
13962.000000,15744.000000,12283.000000
13964.000000,15743.000000,12286.000000
13965.000000,15748.000000,12287.000000
13970.000000,15756.000000,12291.000000
13973.000000,15765.000000,12297.000000
13978.000000,15769.000000,12302.000000
13978.000000,15769.000000,12298.000000
13974.000000,15763.000000,12298.000000
13968.000000,15752.000000,12290.000000
13964.000000,15743.000000,12286.000000
13963.000000,15740.000000,12283.000000
13962.000000,15743.000000,12284.000000
13962.000000,15743.000000,12285.000000
13963.000000,15743.000000,12285.000000
13963.000000,15748.000000,12286.000000
13963.000000,15749.000000,12288.000000
13965.000000,15755.000000,12290.000000
13971.000000,15760.000000,12295.000000
13971.000000,15768.000000,12300.000000
13973.000000,15768.000000,12300.000000
13974.000000,15773.000000,12304.000000
13971.000000,15768.000000,12300.000000
13966.000000,15754.000000,12290.000000
13959.000000,15744.000000,12285.000000
13959.000000,15745.000000,12286.000000
13960.000000,15745.000000,12288.000000
13961.000000,15748.000000,12288.000000
13963.000000,15750.000000,12289.000000
13964.000000,15755.000000,12292.000000
13966.000000,15758.000000,12292.000000
13972.000000,15762.000000,12294.000000
13972.000000,15768.000000,12300.000000
13976.000000,15768.000000,12300.000000
13979.000000,15779.000000,12305.000000
13976.000000,15775.000000,12304.000000
13971.000000,15765.000000,12297.000000
13966.000000,15756.000000,12292.000000
13966.000000,15748.000000,12288.000000
13961.000000,15748.000000,12288.000000
13959.000000,15745.000000,12286.000000
13963.000000,15751.000000,12288.000000
13968.000000,15755.000000,12291.000000
13966.000000,15753.000000,12292.000000
13966.000000,15760.000000,12292.000000
13968.000000,15760.000000,12292.000000
13971.000000,15764.000000,12295.000000
13977.000000,15774.000000,12301.000000
13977.000000,15773.000000,12303.000000
13968.000000,15757.000000,12294.000000
13968.000000,15742.000000,12284.000000
13961.000000,15742.000000,12284.000000
13955.000000,15738.000000,12281.000000
13955.000000,15733.000000,12278.000000
13958.000000,15738.000000,12279.000000
13958.000000,15740.000000,12281.000000
13959.000000,15740.000000,12281.000000
13959.000000,15740.000000,12282.000000
13961.000000,15742.000000,12282.000000
13962.000000,15749.000000,12287.000000
13967.000000,15755.000000,12292.000000
13966.000000,15757.000000,12291.000000
13956.000000,15744.000000,12283.000000
13956.000000,15744.000000,12273.000000
13949.000000,15726.000000,12273.000000
13946.000000,15715.000000,12267.000000
13948.000000,15711.000000,12265.000000
13947.000000,15714.000000,12265.000000
13945.000000,15714.000000,12265.000000
13945.000000,15714.000000,12264.000000
13946.000000,15716.000000,12264.000000
13946.000000,15717.000000,12268.000000
13949.000000,15720.000000,12269.000000
