4620,3028,2748,1412,916,584
4620,3024,2748,1412,920,584
4616,3024,2744,1412,916,584
4616,3020,2744,1412,916,584
4612,3020,2740,1412,916,580
4616,3020,2744,1412,916,580
4616,3020,2740,1412,916,580
4616,3016,2740,1412,916,580
4616,3016,2740,1412,916,580
4616,3016,2740,1412,916,580
4616,3020,2740,1412,916,580
4616,3020,2740,1412,916,580
4616,3020,2744,1412,916,580
4620,3020,2744,1412,916,580
4616,3020,2744,1412,916,580
4620,3020,2744,1412,916,580
4616,3020,2744,1412,916,580
4620,3020,2744,1412,916,584
4616,3020,2744,1412,916,580
4616,3020,2744,1412,916,580
4612,3020,2740,1412,916,580
4616,3024,2744,1412,916,584
4616,3020,2744,1412,916,580
4616,3024,2744,1412,916,580
4616,3024,2744,1412,916,580
4612,3020,2744,1412,916,580
4612,3024,2744,1412,916,580
4616,3024,2744,1412,916,580
4612,3020,2744,1412,916,584
4612,3020,2744,1412,916,584
4608,3020,2740,1412,916,580
4612,3016,2740,1412,916,580
4608,3016,2736,1412,916,584
4608,3012,2736,1412,916,580
4608,3012,2736,1412,916,580
4608,3012,2736,1412,916,580
4608,3012,2736,1412,916,580
4612,3012,2736,1412,916,580
4608,3012,2736,1412,916,580
4608,3012,2736,1412,916,580
4608,3012,2736,1412,916,580
4608,3012,2736,1412,916,584
4608,3012,2736,1412,916,580
4608,3012,2736,1412,916,580
4608,3012,2736,1412,916,580
4608,3012,2736,1412,916,580
4604,3012,2736,1412,916,580
4612,3016,2736,1412,916,580
4608,3016,2736,1412,916,580
4608,3016,2740,1412,916,584
4612,3016,2740,1412,916,580
4612,3016,2740,1412,916,580
4612,3016,2740,1412,916,580
4608,3016,2740,1412,916,580
4608,3020,2740,1412,916,584
4612,3020,2740,1412,916,580
4612,3020,2740,1412,916,580
4608,3020,2740,1412,916,584
4608,3020,2740,1412,916,580
4608,3016,2736,1412,916,580
4608,3016,2736,1412,916,580
4604,3012,2736,1412,916,580
4604,3012,2736,1412,916,580
4604,3008,2736,1412,916,580
4604,3008,2736,1412,916,580
4604,3008,2736,1412,916,580
4604,3008,2736,1412,916,580
4604,3004,2736,1412,916,580
4604,3008,2736,1412,916,580
4604,3008,2736,1412,916,580
4604,3008,2736,1412,916,580
4604,3008,2736,1412,916,580
4604,3008,2736,1412,916,580
4604,3008,2736,1412,916,580
4604,3008,2736,1412,916,580
4608,3012,2736,1412,916,580
4608,3012,2736,1412,916,580
4604,3008,2736,1412,916,580
4604,3008,2736,1412,916,584
4600,3008,2736,1412,916,580
4604,3008,2736,1412,916,580
4600,3008,2736,1412,916,580
4604,3012,2736,1412,916,580
4600,3012,2736,1412,916,580
4600,3012,2736,1412,916,580
4604,3012,2736,1412,916,580
4608,3016,2736,1412,916,580
4604,3012,2736,1412,916,580
4604,3012,2736,1412,916,580
4604,3008,2736,1412,916,580
4600,3008,2736,1412,916,580
4600,3004,2732,1412,916,580
4600,3004,2732,1412,916,580
4600,3004,2732,1412,916,580
4596,3000,2732,1412,916,580
4600,3004,2732,1412,916,580
4600,3000,2732,1412,916,580
4596,3000,2728,1412,916,580
4596,3000,2728,1412,916,580
4596,3000,2728,1412,916,580
4596,3000,2728,1412,916,580
4596,3000,2728,1412,916,580
4596,3000,2728,1412,916,580
4596,3000,2728,1412,916,580
4596,3000,2728,1412,916,580
4596,3000,2728,1412,916,580
4596,3000,2728,1412,916,580
4596,3000,2728,1412,916,580
4596,3004,2728,1412,916,580
4592,3000,2728,1412,916,580
4592,3004,2728,1412,916,580
4596,3004,2732,1412,916,580
4592,3004,2728,1412,916,580
4596,3008,2736,1412,916,580
4596,3008,2732,1412,916,580
4600,3008,2736,1412,916,580
4596,3008,2736,1412,916,580
4596,3008,2736,1412,916,580
4596,3008,2732,1412,916,580
4592,3004,2728,1412,916,580
4592,3000,2728,1412,916,580
4592,3000,2728,1412,916,580
4592,3000,2728,1412,916,580
4588,2996,2724,1412,916,580
4588,2996,2724,1412,916,580
4588,2996,2724,1412,916,580
4592,2996,2728,1412,916,584
4588,2996,2724,1412,916,580
4588,2996,2724,1412,916,580
4588,2996,2724,1412,916,580
4592,2996,2728,1412,916,580
4588,2996,2724,1412,916,580
4588,2996,2724,1412,916,580
4592,2996,2728,1412,916,580
4588,2996,2724,1412,916,580
4592,2996,2724,1412,916,580
4588,3000,2728,1412,916,580
4588,3000,2728,1412,916,580
4592,3000,2728,1412,916,580
4592,3000,2728,1412,916,580
4592,3000,2728,1412,916,580
4592,3004,2728,1412,916,580
4592,3004,2728,1412,916,580
4592,3004,2728,1412,916,580
4592,3004,2728,1412,916,580
4592,3004,2732,1412,916,580
4588,3004,2728,1412,916,580
4588,3004,2728,1412,916,580
4588,3000,2728,1412,916,580
4588,3000,2728,1412,916,580
4588,3000,2724,1412,916,580
4584,2996,2724,1412,916,580
4584,2996,2724,1412,916,580
4584,2996,2724,1412,916,580
4584,2996,2720,1412,916,580
4584,2996,2724,1412,916,580
4588,2996,2724,1412,916,580
4588,2996,2724,1412,916,580
4588,2996,2724,1412,916,580
4584,2996,2724,1412,916,580
4584,2996,2724,1412,916,580
4584,2996,2724,1412,916,580
4584,2996,2724,1412,916,580
4584,2996,2720,1412,916,580
4584,2996,2724,1412,916,580
4584,2996,2724,1412,916,580
4584,3000,2724,1412,916,580
4588,3000,2724,1412,916,580
4584,3000,2724,1412,916,580
4588,3000,2728,1412,916,580
4588,3004,2728,1412,916,580
4588,3004,2728,1412,916,580
4588,3004,2728,1412,916,580
4588,3004,2728,1412,916,580
4588,3008,2732,1412,916,580
4592,3008,2732,1412,916,580
4588,3004,2732,1412,916,580
4588,3004,2728,1412,916,580
4584,3000,2728,1412,916,580
4588,3000,2728,1412,916,580
4588,3000,2724,1412,916,580
4584,2996,2724,1412,916,580
4584,2996,2724,1412,916,580
4584,2996,2724,1412,916,580
4584,2996,2720,1412,916,580
4584,2996,2724,1412,916,580
4584,2996,2724,1412,916,580
4584,2996,2720,1412,916,580
4584,2996,2724,1412,916,580
4584,2996,2724,1412,916,580
4584,2996,2724,1412,916,580
4580,2996,2720,1412,916,580
4584,2996,2724,1412,916,580
4588,3000,2728,1412,916,580
4584,2996,2724,1412,916,580
4584,3000,2724,1412,916,580
4584,3000,2724,1412,916,580
4584,3000,2724,1412,916,580
4584,3000,2728,1412,916,580
4584,3000,2724,1412,916,584
4584,3000,2728,1412,916,580
4584,3000,2724,1412,916,580
4584,3000,2724,1412,916,580
4584,3004,2728,1412,916,580
4584,3004,2728,1412,916,580
4584,3000,2724,1412,916,584
4584,3004,2728,1412,916,580
4584,3000,2728,1412,916,580
4580,3000,2724,1412,916,580
4584,3000,2724,1412,916,580
4580,2996,2724,1412,916,580
4580,2992,2720,1412,916,580
4580,2992,2720,1412,916,580
4576,2988,2716,1412,916,580
4580,2992,2720,1412,916,580
4580,2992,2720,1412,916,580
4580,2992,2720,1408,916,580
4580,2992,2720,1412,916,580
4576,2992,2720,1412,916,580
4580,2992,2720,1408,916,580
4576,2992,2720,1412,916,580
4576,2992,2716,1412,916,580
4580,2996,2720,1412,916,580
4580,2992,2720,1412,916,580
4580,2996,2724,1412,916,580
4584,2996,2724,1412,916,580
4580,2996,2720,1412,916,580
4580,2996,2720,1412,916,580
4580,2996,2724,1412,916,580
4580,2996,2724,1412,916,580
4580,2996,2720,1412,916,580
4580,2996,2724,1412,916,580
4580,3000,2724,1412,916,580
4584,3004,2728,1412,916,580
4584,3000,2724,1412,916,580
4584,3004,2728,1412,916,580
4580,3000,2724,1412,916,580
4580,3000,2724,1412,916,580
4580,3000,2724,1412,916,580
4580,3000,2724,1412,916,580
4580,2996,2724,1412,916,580
4576,2992,2720,1412,916,580
4580,2992,2720,1412,916,580
4580,2992,2720,1412,916,580
4576,2992,2720,1412,916,580
4580,2992,2720,1412,916,580
4576,2992,2716,1412,916,580
4576,2992,2716,1412,916,580
4576,2992,2720,1412,916,580
4576,2992,2716,1412,916,580
4576,2992,2716,1412,916,580
4576,2992,2720,1412,916,580
4576,2992,2720,1412,916,580
4576,2996,2720,1412,916,580
4576,2996,2720,1412,916,580
4580,2996,2724,1412,916,580
4580,2996,2720,1412,916,580
4580,3000,2724,1412,916,580
4580,2996,2724,1412,916,580
4580,3000,2724,1412,916,580
4576,2996,2720,1412,916,580
4580,3000,2724,1412,916,580
4580,3000,2724,1412,916,580
4580,3000,2724,1412,916,580
4580,3000,2724,1412,916,580
4580,3000,2724,1412,916,580
4580,3000,2724,1412,916,580
4580,3000,2724,1412,916,580
4580,3000,2724,1412,916,580
4576,2996,2720,1412,916,580
4576,2996,2720,1412,916,580
4576,2996,2720,1412,916,580
4572,2992,2716,1412,916,580
4572,2992,2716,1412,916,580
4576,2992,2716,1412,916,580
4576,2992,2720,1412,916,580
4576,2996,2720,1412,916,580
4576,2992,2720,1412,916,580
4576,2996,2720,1412,916,580
4580,2996,2720,1412,916,580
4572,2992,2716,1412,916,580
4572,2992,2716,1412,916,580
4576,2996,2720,1412,916,584
4576,2996,2720,1412,916,580
4576,2996,2720,1412,916,580
4580,3000,2724,1412,916,580
4576,2996,2720,1412,916,580
4576,2996,2720,1412,916,580
4572,2996,2720,1412,916,580
4572,2996,2720,1412,916,580
4572,2996,2720,1412,916,580
4576,3000,2724,1412,916,580
4576,3000,2724,1412,916,580
4572,3000,2720,1412,916,580
4576,3000,2724,1412,916,580
4576,3000,2724,1412,916,580
4576,3000,2720,1412,916,580
4568,2996,2716,1412,916,580
4568,2996,2716,1412,916,580
4572,2992,2716,1412,916,580
4568,2992,2716,1412,916,580
4572,2992,2716,1412,916,580
4568,2992,2716,1412,916,580
4568,2988,2716,1412,916,580
4568,2988,2712,1412,916,580
4568,2988,2712,1412,916,580
4568,2988,2712,1412,916,580
4568,2988,2712,1412,916,580
4568,2992,2712,1412,916,580
4568,2988,2712,1412,916,580
4568,2988,2712,1412,916,580
4568,2988,2712,1412,916,580
4572,2992,2716,1412,916,580
4568,2992,2716,1412,916,580
4568,2992,2716,1412,916,580
4572,2996,2720,1412,916,580
4572,2996,2716,1412,916,580
4572,2996,2720,1412,916,580
4572,2996,2716,1412,916,580
4572,2996,2720,1412,916,580
4572,2996,2720,1412,916,580
4572,2996,2720,1412,916,580
4572,3000,2720,1412,916,580
4572,3000,2720,1412,916,580
4576,3000,2724,1412,916,580
4572,3000,2720,1412,916,580
4568,2996,2716,1412,916,580
4568,2992,2716,1412,916,580
4564,2992,2712,1412,916,580
4568,2988,2712,1412,916,580
4568,2992,2716,1412,916,580
4568,2988,2712,1412,916,580
4564,2988,2712,1412,916,580
4568,2992,2716,1412,916,580
4568,2988,2716,1412,916,580
4568,2988,2716,1412,916,580
4568,2988,2712,1412,916,580
4568,2988,2716,1412,916,580
4568,2988,2712,1412,916,580
4568,2988,2716,1412,916,580
4568,2988,2712,1412,916,580
4568,2988,2712,1412,916,580
4568,2988,2712,1412,916,580
4568,2988,2712,1412,916,580
4572,2992,2716,1412,916,580
4568,2992,2716,1412,916,580
4572,2992,2716,1412,916,580
4568,2992,2716,1412,916,580
4568,2992,2716,1412,916,580
4568,2992,2716,1412,916,580
4568,2996,2716,1412,916,580
4568,2992,2716,1412,916,580
4564,2992,2716,1412,916,580
4568,2992,2716,1412,916,580
4568,2992,2716,1412,916,580
4564,2992,2716,1412,916,580
4564,2988,2712,1412,916,580
4564,2988,2712,1412,916,580
4564,2988,2712,1412,916,580
4564,2988,2712,1412,916,580
4560,2984,2708,1412,916,580
4560,2984,2708,1412,916,580
4560,2980,2708,1412,916,580
4560,2980,2708,1412,916,580
4560,2980,2704,1412,916,580
4560,2980,2708,1412,916,580
4560,2980,2704,1412,916,580
4564,2984,2708,1412,916,580
4560,2984,2708,1412,916,580
4560,2984,2708,1412,916,580
4560,2984,2708,1412,916,580
4560,2984,2708,1412,916,580
4560,2980,2708,1412,916,580
4560,2984,2708,1412,916,580
4560,2984,2708,1412,916,580
4560,2984,2708,1412,916,580
4560,2984,2708,1412,916,580
4560,2984,2708,1412,916,580
4564,2988,2712,1412,916,580
4560,2984,2708,1412,916,580
4560,2988,2708,1412,916,580
4560,2988,2708,1412,916,580
4560,2988,2712,1412,916,580
4560,2988,2708,1412,916,580
4560,2988,2708,1412,916,580
4560,2984,2708,1412,916,580
4560,2984,2708,1412,916,580
4556,2980,2704,1412,916,580
4556,2980,2704,1412,916,580
4556,2980,2704,1412,916,580
4556,2976,2704,1412,916,580
4556,2980,2704,1412,916,580
4556,2976,2704,1412,916,580
4556,2976,2704,1412,916,580
4556,2976,2704,1408,916,580
4556,2976,2704,1412,916,580
4556,2980,2704,1412,916,580
4552,2976,2704,1412,916,580
4556,2976,2704,1412,916,580
4556,2976,2704,1408,916,580
4560,2980,2704,1412,916,580
4556,2980,2708,1412,916,580
4556,2980,2708,1408,916,580
4560,2980,2708,1412,916,580
4560,2984,2708,1412,916,580
4560,2984,2708,1412,916,580
4560,2984,2708,1412,916,580
4560,2984,2708,1412,916,580
4556,2984,2708,1408,916,580
4556,2984,2708,1412,916,580
4556,2984,2708,1408,916,580
4556,2988,2708,1412,916,580
4552,2984,2708,1412,916,580
4552,2984,2704,1412,916,580
4556,2984,2704,1412,916,580
4556,2980,2704,1412,916,580
4552,2976,2704,1408,916,580
4556,2980,2704,1412,916,580
4556,2980,2704,1412,916,580
4552,2976,2700,1412,916,580
4552,2976,2700,1412,916,580
4552,2976,2700,1408,916,580
4556,2976,2704,1412,916,580
4548,2972,2700,1412,916,580
4552,2976,2700,1412,916,580
4548,2972,2700,1408,916,580
4552,2976,2700,1408,916,580
4552,2976,2700,1412,916,580
4548,2976,2700,1412,916,580
4552,2976,2700,1412,916,580
4548,2976,2700,1412,916,580
4552,2976,2704,1412,916,580
4552,2976,2704,1412,916,580
4552,2980,2704,1412,916,580
4552,2980,2704,1412,916,580
4552,2980,2704,1412,916,580
4552,2980,2704,1412,916,580
4556,2984,2708,1412,916,580
4556,2984,2708,1412,916,580
4556,2984,2708,1412,916,580
4556,2984,2708,1408,916,580
4556,2984,2708,1412,916,580
4552,2984,2704,1412,916,580
4552,2980,2704,1412,916,580
4552,2980,2704,1412,916,580
4552,2980,2704,1412,916,580
4556,2980,2704,1412,916,580
4552,2976,2700,1412,916,580
4548,2972,2700,1412,916,580
4548,2972,2696,1412,916,580
4548,2972,2696,1412,916,580
4548,2972,2700,1412,916,580
4552,2976,2700,1408,916,580
4552,2972,2700,1412,916,580
4552,2972,2700,1412,916,580
4552,2972,2700,1412,916,580
4552,2972,2700,1412,916,580
4552,2976,2700,1408,916,580
4552,2972,2700,1408,916,580
4552,2976,2700,1408,916,580
4552,2972,2700,1408,916,580
4548,2972,2700,1408,916,580
4548,2972,2700,1412,916,580
4548,2976,2700,1408,916,580
4552,2976,2700,1412,916,580
4552,2976,2700,1408,916,580
4552,2976,2704,1412,916,580
4552,2976,2700,1408,916,580
4548,2976,2700,1412,916,580
4552,2980,2704,1412,916,580
4552,2980,2704,1412,916,580
4552,2980,2704,1412,916,580
4552,2980,2704,1412,916,580
4552,2980,2704,1408,916,580
4548,2976,2700,1408,916,580
4548,2972,2700,1408,916,580
4548,2972,2696,1408,916,580
4548,2972,2696,1412,916,580
4544,2968,2696,1408,916,580
4548,2968,2696,1412,916,580
4544,2968,2696,1412,916,580
4548,2968,2696,1408,916,580
4544,2968,2696,1412,916,580
4548,2968,2696,1408,916,580
4548,2968,2696,1412,916,580
4548,2968,2696,1408,916,580
4544,2964,2692,1412,916,580
4544,2968,2696,1412,916,580
4544,2968,2692,1412,916,580
4544,2964,2692,1412,916,580
4544,2968,2692,1412,916,580
4544,2968,2692,1412,916,580
4544,2968,2696,1412,916,580
4544,2968,2692,1412,916,580
4544,2968,2696,1408,916,580
4548,2972,2700,1412,916,580
4548,2972,2696,1412,916,580
4548,2972,2700,1412,916,580
4548,2976,2700,1412,916,580
4548,2976,2700,1412,916,580
4548,2976,2700,1412,916,580
4548,2976,2700,1412,916,580
4548,2972,2700,1412,916,580
4544,2972,2696,1412,916,580
4544,2972,2696,1412,916,580
4544,2968,2696,1412,916,580
4544,2968,2692,1412,916,580
4544,2964,2692,1412,916,580
4540,2960,2692,1412,916,580
4544,2964,2692,1412,916,580
4540,2964,2692,1412,916,580
4544,2964,2692,1408,916,580
4544,2964,2692,1412,916,580
4544,2964,2692,1412,916,580
4544,2964,2692,1408,916,580
4544,2964,2692,1412,916,580
4544,2964,2692,1412,916,580
4544,2964,2692,1408,912,580
4544,2968,2692,1408,912,580
4544,2964,2692,1412,916,580
4544,2968,2696,1408,912,580
4544,2968,2692,1408,912,580
4544,2968,2692,1408,916,580
4548,2972,2696,1412,916,580
4548,2972,2696,1412,916,580
4544,2972,2696,1412,916,580
4548,2972,2700,1412,916,580
4544,2972,2696,1408,916,580
4544,2972,2696,1408,916,580
4548,2976,2700,1412,916,580
4548,2972,2700,1412,916,580
4548,2972,2696,1412,916,580
4544,2968,2696,1408,916,580
4540,2968,2692,1412,916,580
4540,2968,2692,1408,916,580
4540,2964,2692,1412,916,580
4540,2964,2692,1408,916,580
4540,2960,2688,1408,912,580
4544,2960,2692,1408,912,580
4540,2960,2688,1412,916,580
4544,2960,2688,1412,916,580
4540,2960,2688,1408,912,580
4540,2960,2688,1408,912,580
4540,2960,2688,1408,912,580
4540,2960,2688,1408,912,580
4540,2960,2688,1408,912,580
4540,2960,2688,1408,912,580
4536,2956,2688,1408,912,580
4540,2960,2688,1408,912,580
4540,2960,2688,1408,912,580
4540,2960,2688,1408,912,580
4540,2960,2688,1408,912,580
4540,2964,2692,1408,912,580
4540,2964,2692,1408,912,580
4540,2964,2688,1408,912,580
4540,2964,2692,1408,912,580
4544,2968,2692,1408,912,580
4544,2968,2692,1408,912,580
4544,2968,2696,1408,912,580
4544,2968,2696,1408,912,580
4544,2968,2692,1408,912,580
4544,2968,2696,1408,912,580
4544,2968,2692,1408,912,580
4540,2964,2692,1408,912,580
4540,2964,2688,1408,912,580
4536,2960,2688,1408,912,580
4536,2956,2684,1408,912,580
4536,2956,2684,1408,912,580
4536,2952,2684,1408,912,580
4536,2952,2684,1408,912,580
4536,2952,2684,1408,912,580
4536,2952,2684,1408,912,580
4536,2952,2684,1408,912,580
4536,2952,2684,1408,912,580
4536,2952,2684,1408,912,580
4532,2952,2680,1408,912,580
4536,2952,2684,1408,912,580
4536,2952,2684,1408,912,580
4536,2956,2684,1408,912,580
4540,2956,2684,1408,912,580
4536,2956,2684,1412,912,580
4536,2956,2684,1408,912,580
4536,2956,2684,1408,912,580
4540,2960,2688,1408,912,580
4536,2956,2688,1408,912,580
4540,2960,2688,1408,912,580
4540,2960,2688,1408,912,580
4540,2960,2688,1408,912,580
4544,2964,2692,1408,912,580
4544,2964,2692,1408,912,580
4540,2964,2692,1408,912,580
4540,2964,2688,1408,912,580
4540,2964,2688,1408,912,580
4536,2960,2688,1408,912,580
4536,2956,2684,1412,912,580
4536,2956,2684,1408,912,580
4536,2952,2684,1408,912,580
4532,2952,2680,1412,912,580
4536,2952,2680,1408,912,580
4536,2952,2680,1408,912,580
4532,2948,2680,1408,912,580
4532,2948,2680,1408,912,580
4532,2948,2680,1408,912,580
4532,2948,2680,1408,912,580
4532,2948,2680,1408,912,580
4532,2948,2680,1408,912,580
4532,2952,2680,1408,912,580
4532,2952,2680,1408,912,580
4532,2952,2680,1408,912,580
4532,2952,2680,1408,912,580
4536,2952,2684,1408,912,580
4536,2956,2684,1408,912,580
4536,2956,2684,1408,912,580
4536,2956,2684,1408,912,580
4536,2956,2684,1408,912,580
4536,2956,2684,1408,912,580
4536,2960,2688,1408,912,580
4540,2960,2688,1408,912,580
4536,2960,2688,1408,912,580
4536,2960,2688,1408,912,580
4540,2964,2688,1408,912,580
4536,2960,2688,1408,912,580
4532,2960,2684,1408,912,580
4536,2960,2688,1408,912,580
4532,2956,2684,1408,912,580
4532,2952,2684,1408,912,580
4536,2952,2684,1408,912,580
4532,2952,2680,1408,912,580
4532,2948,2680,1408,912,580
4536,2952,2680,1408,912,580
4532,2948,2680,1408,912,580
4532,2948,2680,1408,912,580
4532,2948,2680,1408,912,580
4532,2948,2680,1408,912,580
4532,2948,2680,1408,912,580
4532,2948,2680,1408,912,580
4532,2952,2680,1408,912,580
4532,2952,2680,1408,912,580
4536,2952,2684,1408,912,580
4536,2952,2684,1408,912,580
4536,2952,2684,1408,912,580
4536,2956,2684,1408,912,580
4536,2956,2684,1408,912,580
4536,2956,2684,1408,912,580
4536,2956,2684,1408,912,580
4536,2956,2684,1408,912,580
4536,2956,2684,1408,912,580
4532,2956,2684,1408,912,580
4536,2960,2684,1408,912,580
4532,2960,2684,1408,912,580
4536,2960,2688,1408,912,580
4536,2964,2688,1408,912,580
4536,2960,2684,1412,916,580
4536,2960,2684,1408,912,580
4532,2956,2684,1408,912,580
4532,2952,2680,1408,912,580
4532,2952,2680,1412,912,580
4532,2948,2680,1408,912,580
4528,2948,2680,1408,912,580
4528,2948,2676,1408,912,580
4528,2948,2676,1408,912,580
4532,2948,2680,1408,912,580
4532,2948,2680,1408,912,580
4528,2944,2676,1408,912,580
4528,2948,2676,1408,912,580
4532,2948,2680,1408,912,580
4532,2948,2680,1408,912,580
4528,2948,2680,1408,912,580
4528,2948,2676,1408,912,580
4528,2948,2676,1408,912,580
4532,2948,2680,1408,912,580
4532,2948,2680,1408,912,580
4532,2952,2680,1408,912,580
4532,2952,2680,1408,912,580
4532,2956,2684,1408,912,580
4532,2956,2684,1408,912,580
4532,2956,2684,1408,912,580
4536,2956,2684,1408,912,580
4536,2960,2684,1408,912,580
4536,2960,2688,1408,912,580
4536,2960,2688,1408,912,580
4532,2960,2684,1408,912,580
4536,2960,2688,1408,912,580
4536,2960,2688,1408,912,580
4532,2956,2684,1408,912,580
4532,2952,2680,1408,912,580
4528,2948,2680,1408,912,580
4528,2948,2676,1408,912,580
4524,2944,2672,1408,912,580
4524,2944,2672,1408,912,580
4528,2944,2676,1408,912,580
4524,2944,2676,1408,912,580
4524,2944,2676,1408,912,580
4528,2944,2676,1408,912,580
4528,2944,2676,1408,912,580
4528,2944,2676,1408,912,580
4524,2944,2676,1408,912,580
4524,2944,2676,1408,912,580
4524,2944,2672,1408,912,580
4524,2944,2672,1408,912,580
4528,2944,2676,1408,912,580
4528,2944,2676,1408,912,580
4528,2948,2676,1408,912,580
4532,2948,2680,1408,912,580
4528,2948,2680,1408,912,580
4528,2948,2680,1408,912,580
4528,2948,2680,1408,912,580
4528,2948,2676,1408,912,580
4528,2952,2680,1408,912,580
4528,2952,2680,1408,912,580
4528,2952,2680,1408,912,580
4528,2952,2680,1408,912,580
4528,2952,2680,1408,912,580
4528,2952,2680,1408,912,580
4528,2952,2680,1408,912,580
4524,2948,2676,1408,912,580
4524,2948,2676,1408,912,580
4528,2944,2676,1408,912,580
4524,2944,2672,1408,912,580
4524,2940,2672,1408,912,580
4524,2940,2672,1408,912,580
4520,2940,2672,1408,912,580
4520,2940,2672,1408,912,580
4520,2940,2672,1408,912,580
4524,2940,2672,1408,912,580
4520,2940,2672,1408,912,580
4520,2940,2668,1408,912,580
4524,2940,2672,1408,912,580
4520,2940,2672,1408,912,580
4524,2944,2672,1408,912,580
4524,2944,2676,1408,912,580
4524,2944,2676,1408,912,580
4524,2944,2676,1408,912,580
4524,2944,2676,1408,912,580
4524,2948,2676,1408,912,580
4528,2948,2676,1408,912,580
4524,2948,2676,1408,912,580
4528,2948,2680,1408,912,580
4528,2952,2680,1408,912,580
4528,2952,2680,1408,912,580
4528,2952,2680,1408,912,580
4528,2952,2680,1408,912,580
4528,2956,2680,1408,912,580
4528,2952,2680,1408,912,580
4528,2952,2680,1408,912,580
4524,2952,2680,1408,912,580
4528,2948,2680,1408,912,580
4524,2944,2676,1408,912,580
4524,2944,2672,1408,912,580
4524,2944,2672,1408,912,580
4520,2940,2672,1408,912,580
4520,2940,2672,1408,912,580
4520,2940,2672,1408,912,580
4520,2940,2672,1408,912,580
4524,2944,2676,1408,912,580
4524,2940,2672,1408,912,580
4520,2940,2672,1408,912,580
4524,2940,2672,1408,912,580
4520,2940,2672,1408,912,580
4524,2944,2676,1408,912,580
4524,2944,2672,1408,912,580
4528,2944,2676,1408,912,580
4524,2944,2676,1408,912,580
4524,2944,2676,1408,912,580
4524,2944,2676,1408,912,580
4528,2948,2680,1408,912,580
4528,2948,2680,1408,912,580
4532,2952,2680,1408,912,580
4528,2952,2680,1408,912,580
4524,2948,2676,1408,912,580
4528,2952,2680,1408,912,580
4524,2952,2680,1408,912,580
4524,2952,2680,1408,912,580
4524,2952,2680,1408,912,580
4524,2948,2676,1408,912,580
4524,2948,2676,1408,912,580
4520,2944,2676,1408,912,580
4520,2944,2672,1408,912,580
4520,2944,2672,1408,912,580
4520,2940,2672,1408,912,580
4520,2936,2668,1408,912,580
4516,2936,2668,1408,912,580
4516,2936,2668,1408,912,580
4516,2936,2668,1408,912,580
4520,2936,2668,1408,912,580
4516,2936,2668,1408,912,580
4520,2936,2668,1408,912,580
4516,2936,2668,1408,912,580
4516,2936,2668,1408,912,580
4520,2936,2668,1408,912,580
4516,2936,2668,1408,912,580
4516,2936,2668,1408,912,580
4520,2936,2668,1408,912,580
4520,2936,2668,1408,912,580
4516,2936,2668,1408,912,580
4520,2940,2672,1408,912,580
4520,2940,2672,1408,912,580
4520,2940,2672,1408,912,580
4520,2944,2672,1408,912,580
4524,2944,2676,1408,912,580
4520,2944,2672,1408,912,580
4524,2944,2676,1408,912,580
4524,2948,2676,1408,912,580
4524,2948,2676,1408,912,580
4524,2948,2676,1408,912,580
4524,2944,2676,1408,912,580
4520,2944,2672,1408,912,580
4520,2940,2672,1408,912,580
4520,2940,2672,1408,912,580
4520,2936,2668,1408,912,580
4516,2932,2668,1408,912,580
4516,2932,2668,1408,912,580
4516,2932,2668,1408,912,580
4516,2932,2664,1408,912,580
4516,2932,2668,1408,912,580
4516,2932,2664,1408,912,580
4516,2932,2664,1408,912,580
4516,2932,2664,1408,912,580
4516,2932,2664,1408,912,580
4512,2928,2664,1408,912,580
4516,2928,2664,1408,912,580
4516,2932,2664,1408,912,580
4516,2932,2668,1408,912,580
4516,2932,2664,1408,912,580
4516,2932,2664,1408,912,580
4516,2932,2668,1408,912,580
4516,2932,2668,1408,912,580
4516,2936,2668,1408,912,580
4516,2936,2668,1408,912,580
4516,2936,2668,1408,912,580
4516,2936,2668,1408,912,580
4520,2940,2668,1408,912,580
4520,2940,2672,1408,912,580
4520,2940,2672,1408,912,580
4520,2940,2672,1408,912,580
4520,2940,2672,1408,912,580
4516,2936,2668,1408,912,580
4516,2936,2668,1408,912,580
4512,2932,2664,1408,912,580
4512,2932,2664,1408,912,580
4512,2928,2664,1408,912,580
4512,2928,2660,1408,912,580
4508,2924,2660,1408,912,580
4512,2924,2660,1408,912,580
4512,2924,2660,1408,912,580
4508,2924,2660,1408,912,580
4512,2924,2660,1408,912,580
4512,2924,2660,1408,912,580
4508,2924,2660,1408,912,580
4512,2924,2660,1408,912,580
4508,2924,2656,1408,908,580
4508,2924,2660,1408,908,580
4512,2924,2660,1408,912,580
4512,2924,2660,1408,912,580
4508,2924,2660,1408,912,580
4512,2928,2664,1408,912,580
4516,2932,2664,1408,912,580
4512,2928,2660,1408,912,580
4512,2928,2664,1408,912,580
4512,2928,2664,1408,912,580
4516,2932,2664,1408,912,580
4512,2932,2664,1408,908,580
4512,2932,2664,1408,912,580
4512,2932,2664,1408,912,580
4516,2936,2668,1408,912,580
4516,2936,2668,1408,912,580
4516,2936,2668,1408,912,580
4512,2932,2664,1408,912,580
4508,2928,2660,1408,912,580
4508,2924,2660,1408,912,580
4508,2924,2656,1408,912,580
4508,2920,2656,1408,912,580
4504,2916,2652,1408,912,580
4504,2916,2652,1408,908,580
4508,2916,2656,1408,908,580
4508,2916,2656,1408,908,580
4508,2916,2656,1408,908,580
4504,2916,2652,1408,908,580
4504,2916,2652,1408,908,580
4504,2916,2652,1408,912,580
4508,2916,2656,1408,912,580
4504,2916,2652,1408,912,580
4504,2916,2652,1408,912,580
4508,2916,2656,1408,912,580
4504,2916,2652,1408,912,580
4508,2920,2656,1408,912,580
4508,2920,2656,1408,912,580
4508,2920,2656,1408,908,580
4508,2920,2656,1408,912,580
4504,2920,2656,1408,912,580
4508,2924,2656,1408,912,580
4508,2924,2660,1408,912,580
4512,2928,2660,1408,912,580
4512,2928,2660,1408,912,580
4512,2928,2664,1408,912,580
4512,2928,2660,1408,912,580
4508,2924,2660,1408,912,580
4508,2924,2660,1408,912,580
4508,2920,2656,1408,912,580
4508,2920,2656,1408,912,580
4504,2916,2656,1408,912,580
4504,2912,2652,1408,912,580
4504,2912,2652,1408,912,580
4500,2908,2648,1408,908,580
4500,2908,2648,1408,912,580
4500,2908,2648,1408,912,580
4500,2908,2648,1408,908,580
4500,2908,2648,1408,908,580
4504,2908,2648,1408,908,580
4504,2908,2648,1408,912,580
4504,2908,2648,1408,908,580
4504,2908,2648,1408,908,580
4500,2908,2648,1408,908,580
4504,2908,2648,1408,908,580
4504,2908,2648,1408,908,580
4504,2912,2648,1408,908,580
4504,2912,2648,1408,908,580
4504,2912,2652,1408,912,580
4504,2912,2652,1408,912,580
4504,2912,2652,1408,908,580
4508,2916,2652,1408,908,580
4504,2916,2652,1408,912,580
4504,2916,2652,1408,908,580
4504,2916,2652,1408,908,580
4504,2916,2652,1408,912,580
4504,2916,2652,1408,912,580
4504,2916,2652,1408,912,580
4504,2916,2652,1408,912,580
4504,2916,2652,1408,912,580
4500,2912,2652,1408,912,580
4500,2912,2648,1408,912,580
4500,2908,2648,1408,912,580
4500,2908,2648,1408,912,580
4500,2904,2644,1408,908,580
4500,2904,2644,1408,912,580
4500,2904,2644,1408,908,580
4500,2904,2644,1408,908,580
4496,2900,2640,1408,908,580
4496,2900,2640,1408,908,580
4496,2900,2644,1408,908,580
4496,2900,2644,1408,908,580
4496,2900,2644,1408,908,580
4496,2900,2644,1408,908,580
4496,2900,2640,1408,908,580
4496,2900,2644,1408,908,580
4496,2900,2640,1408,908,580
4496,2900,2644,1408,908,580
4496,2900,2644,1408,912,580
4496,2900,2644,1408,912,580
4496,2904,2644,1408,908,580
4496,2904,2644,1408,912,580
4500,2904,2644,1408,908,580
4500,2904,2644,1408,908,580
4500,2908,2648,1408,908,580
4500,2908,2648,1408,908,580
4500,2908,2648,1408,908,580
4500,2908,2648,1408,912,580
4500,2908,2648,1408,908,580
4500,2908,2648,1408,908,580
4496,2904,2644,1408,908,580
4496,2904,2644,1408,912,580
4496,2900,2640,1408,912,580
4492,2896,2640,1408,908,580
4492,2896,2640,1408,908,580
4496,2896,2640,1408,908,580
4496,2896,2640,1408,908,580
4492,2892,2636,1408,908,580
4492,2892,2636,1408,908,580
4492,2892,2636,1408,908,580
4492,2892,2636,1408,908,580
4492,2892,2636,1408,908,580
4492,2892,2636,1408,908,580
4492,2892,2636,1408,908,580
4488,2892,2636,1408,908,580
4492,2892,2636,1408,908,580
4492,2892,2636,1408,908,580
4492,2896,2636,1408,908,580
4492,2896,2636,1408,908,580
4492,2896,2640,1408,908,580
4492,2896,2636,1408,908,580
4492,2896,2636,1408,908,580
4492,2896,2640,1408,908,580
4492,2896,2640,1408,908,580
4496,2900,2640,1408,908,580
4496,2900,2640,1408,912,580
4496,2900,2640,1408,912,580
4500,2904,2644,1408,908,580
4500,2904,2644,1408,908,580
4500,2904,2644,1408,908,580
4496,2900,2644,1408,908,580
4492,2896,2640,1408,912,580
4492,2896,2636,1408,908,580
4488,2892,2636,1408,908,580
4488,2888,2632,1408,908,580
4488,2888,2632,1408,908,580
4488,2888,2632,1408,908,580
4488,2888,2632,1408,908,580
4488,2888,2632,1408,908,580
4492,2888,2632,1408,912,580
4492,2888,2632,1408,908,580
4492,2888,2632,1408,908,580
4488,2888,2632,1408,908,580
4488,2888,2632,1408,908,580
4488,2884,2632,1408,908,580
4488,2884,2632,1408,908,580
4488,2884,2632,1408,908,580
4488,2888,2632,1408,912,580
4488,2888,2632,1408,912,580
4488,2888,2632,1408,912,580
4492,2892,2636,1408,912,580
4492,2892,2636,1408,912,580
4492,2892,2636,1408,912,580
4492,2892,2636,1408,912,580
4492,2892,2636,1408,912,580
4492,2892,2636,1408,912,580
4488,2896,2636,1408,912,580
4492,2896,2636,1408,912,580
4488,2896,2636,1408,912,580
4488,2892,2636,1408,912,580
4488,2892,2636,1408,912,580
4488,2892,2632,1408,912,580
4488,2888,2632,1408,912,580
4484,2884,2628,1408,912,580
4480,2880,2628,1408,912,580
4480,2880,2624,1408,908,580
4480,2876,2624,1408,908,580
4480,2876,2624,1408,908,580
4480,2876,2624,1408,908,580
4480,2876,2624,1408,908,580
4480,2876,2624,1408,908,580
4484,2876,2624,1408,908,580
4480,2876,2624,1408,908,580
4480,2876,2624,1408,908,580
4480,2876,2624,1408,908,580
4480,2876,2624,1408,908,580
4484,2880,2624,1408,908,580
4480,2876,2624,1408,908,580
4484,2880,2628,1408,912,580
4484,2880,2628,1408,908,580
4484,2880,2628,1408,908,580
4484,2880,2628,1408,908,580
4484,2880,2628,1408,908,580
4484,2884,2628,1408,912,580
4488,2888,2632,1408,912,580
4488,2888,2632,1408,912,580
4484,2888,2632,1408,908,580
4488,2888,2632,1408,912,580
4488,2888,2632,1408,908,580
4488,2888,2632,1408,912,580
4488,2888,2632,1408,912,580
4484,2884,2632,1408,912,580
4480,2880,2628,1408,912,580
4484,2880,2628,1408,912,580
4480,2876,2624,1408,912,580
4480,2872,2624,1408,908,580
4476,2872,2620,1408,908,580
4480,2872,2620,1408,908,580
4480,2872,2620,1408,908,580
4476,2868,2620,1408,912,580
4480,2872,2620,1408,912,580
4476,2868,2620,1408,908,580
4480,2872,2620,1408,908,580
4480,2872,2620,1408,908,580
4476,2868,2620,1408,908,580
4476,2868,2616,1408,908,580
4476,2868,2616,1408,908,580
4476,2868,2620,1408,908,580
4476,2868,2620,1408,912,580
4476,2872,2620,1408,912,580
4480,2872,2620,1408,912,580
4476,2872,2620,1408,912,580
4480,2876,2624,1408,912,580
4480,2876,2624,1408,912,580
4480,2876,2624,1408,912,580
4480,2876,2624,1408,912,580
4480,2876,2624,1408,912,580
4480,2880,2624,1408,912,580
4480,2880,2624,1408,912,580
4480,2880,2624,1408,912,580
4480,2880,2624,1408,912,580
4480,2880,2624,1408,912,580
4480,2876,2624,1408,912,580
4476,2872,2620,1408,912,580
4472,2868,2616,1408,912,580
4472,2864,2616,1408,912,580
4472,2864,2612,1408,912,580
4468,2860,2612,1408,912,580
4472,2864,2616,1408,908,580
4472,2860,2612,1408,908,580
4472,2860,2612,1408,912,580
4472,2864,2612,1408,908,580
4476,2864,2616,1408,908,580
4476,2864,2616,1408,912,580
4476,2864,2616,1408,908,580
4476,2864,2616,1408,908,580
4476,2864,2616,1408,912,580
4476,2864,2616,1408,908,580
4476,2864,2616,1408,908,580
4476,2868,2616,1408,912,580
4476,2868,2616,1408,908,580
4472,2864,2616,1408,912,580
4476,2868,2616,1408,908,580
4476,2868,2616,1408,912,580
4476,2868,2620,1408,912,580
4476,2872,2620,1408,912,580
4476,2868,2616,1408,908,580
4476,2872,2620,1408,908,580
4476,2876,2620,1408,908,580
4476,2872,2620,1408,912,580
4480,2876,2620,1408,912,580
4476,2872,2620,1408,912,580
4476,2872,2620,1408,912,580
4476,2868,2616,1408,912,580
4472,2864,2616,1408,912,580
4472,2860,2612,1408,912,580
4468,2860,2612,1408,912,580
4472,2860,2612,1408,912,580
4476,2860,2612,1408,908,580
4476,2860,2612,1408,908,580
4472,2860,2612,1408,908,580
4476,2860,2612,1408,908,580
4472,2860,2612,1408,908,580
4468,2860,2612,1408,912,580
4472,2860,2612,1408,912,580
4472,2860,2612,1408,912,580
4472,2860,2612,1408,912,580
4476,2864,2616,1408,912,580
4472,2864,2612,1408,912,580
4472,2864,2612,1408,912,580
4476,2864,2616,1408,912,580
4472,2864,2612,1408,912,580
4468,2864,2612,1408,912,580
4472,2864,2612,1408,912,580
4476,2868,2620,1408,912,580
4476,2868,2616,1408,912,580
4472,2868,2616,1408,912,580
4472,2868,2616,1408,912,580
4472,2868,2616,1408,912,580
4476,2872,2620,1408,912,580
4476,2872,2620,1408,912,580
4476,2872,2620,1408,912,580
4472,2868,2616,1408,912,580
4476,2868,2616,1408,912,580
4476,2868,2616,1408,912,580
4472,2864,2612,1408,912,580
4472,2860,2612,1408,912,580
4468,2856,2608,1408,912,580
4468,2856,2608,1408,912,580
4468,2856,2608,1408,912,580
4472,2856,2608,1408,912,580
4468,2852,2608,1408,912,580
4468,2856,2608,1408,912,580
4468,2856,2608,1408,912,580
4468,2856,2608,1408,912,580
4468,2856,2608,1408,912,580
4468,2856,2608,1408,912,580
4468,2856,2608,1408,912,580
4472,2856,2608,1408,912,580
4468,2856,2608,1408,912,580
4472,2856,2608,1408,912,580
4472,2856,2608,1408,912,580
4468,2856,2608,1408,912,580
4468,2856,2608,1408,912,580
4468,2860,2608,1408,912,580
4468,2860,2612,1408,912,580
4468,2860,2612,1408,912,580
4476,2864,2616,1408,912,580
4476,2864,2616,1408,912,580
4476,2868,2616,1408,912,580
4476,2868,2616,1408,912,580
4472,2864,2616,1408,912,580
4472,2864,2612,1408,912,580
4468,2860,2612,1408,912,580
4468,2856,2608,1408,912,580
4468,2856,2608,1408,912,580
4468,2852,2604,1408,912,580
4464,2852,2604,1408,912,580
4464,2848,2604,1408,912,580
4464,2844,2600,1408,912,580
4464,2848,2604,1408,912,580
4468,2848,2604,1408,912,580
4468,2848,2604,1408,912,580
4464,2848,2600,1408,912,580
4468,2848,2604,1408,912,580
4468,2848,2604,1408,912,580
4464,2848,2604,1408,912,580
4468,2848,2604,1408,912,580
4468,2848,2604,1408,912,580
4468,2848,2604,1408,912,580
4464,2848,2604,1408,912,580
4464,2848,2604,1408,912,580
4464,2852,2604,1408,912,580
4464,2852,2604,1408,912,580
4468,2856,2608,1408,912,580
4468,2852,2604,1408,912,580
4468,2856,2608,1408,912,580
4468,2856,2608,1408,912,580
4468,2856,2608,1408,912,580
4468,2860,2608,1408,912,580
4468,2860,2612,1408,912,580
4472,2860,2612,1408,912,580
4472,2864,2612,1408,912,580
4472,2864,2612,1408,912,580
4468,2860,2608,1408,912,580
4468,2856,2608,1408,912,580
4468,2852,2604,1408,912,580
4464,2852,2604,1408,912,580
4468,2852,2604,1408,912,580
4464,2848,2604,1408,912,580
4464,2848,2600,1408,912,580
4464,2848,2600,1408,912,580
4464,2848,2600,1408,912,580
4464,2848,2604,1408,912,580
4464,2848,2600,1408,912,580
4464,2848,2604,1408,912,580
4464,2848,2604,1408,912,580
4468,2852,2604,1408,912,580
4468,2852,2604,1408,912,580
4468,2852,2604,1408,912,580
4468,2852,2604,1408,912,580
4464,2852,2604,1408,912,580
4468,2852,2604,1408,912,580
4464,2852,2604,1408,912,580
4468,2856,2608,1408,912,580
4468,2856,2608,1408,912,580
4468,2856,2608,1408,912,580
4468,2860,2608,1408,912,580
4468,2860,2608,1408,912,580
4468,2860,2612,1408,912,580
4472,2864,2612,1408,912,580
4472,2864,2612,1408,912,580
4476,2868,2616,1408,912,580
4472,2864,2612,1408,912,580
4468,2860,2612,1408,912,580
4468,2860,2608,1408,912,580
4468,2856,2608,1408,912,580
4468,2856,2608,1408,912,580
4468,2856,2608,1408,912,580
4468,2852,2604,1408,912,580
4472,2856,2608,1408,912,580
4472,2852,2608,1408,912,580
4472,2856,2608,1408,912,580
4468,2852,2608,1408,912,580
4472,2852,2604,1408,912,580
4468,2852,2604,1408,912,580
4472,2852,2608,1408,912,580
4468,2852,2604,1408,912,580
4468,2852,2608,1408,912,580
4468,2856,2608,1408,912,580
4472,2856,2608,1408,912,580
4472,2856,2608,1408,912,580
4472,2860,2608,1408,912,580
4476,2860,2612,1408,912,580
4476,2864,2612,1408,912,580
4476,2864,2612,1408,912,580
4476,2864,2616,1408,912,580
4476,2864,2612,1408,912,580
4472,2864,2612,1408,912,580
4476,2868,2616,1408,912,580
4476,2868,2616,1408,912,580
4476,2868,2616,1408,912,580
4476,2868,2616,1408,912,580
4472,2868,2616,1408,912,580
4472,2864,2612,1408,912,580
4476,2864,2612,1408,912,580
4476,2864,2612,1408,912,580
4476,2860,2612,1408,912,580
4472,2856,2608,1408,912,580
4468,2852,2604,1408,912,580
4472,2852,2608,1408,912,580
4468,2852,2604,1408,912,580
4468,2852,2604,1408,912,580
4468,2852,2604,1408,912,580
4472,2852,2608,1408,912,580
4472,2852,2608,1408,912,580
4468,2852,2604,1408,912,580
4472,2856,2608,1408,912,580
4472,2856,2608,1408,912,580
4472,2856,2608,1408,912,580
4476,2856,2608,1408,912,580
4472,2856,2608,1408,912,580
4472,2860,2608,1408,912,580
4472,2860,2608,1408,912,580
4472,2860,2608,1408,912,580
4476,2860,2612,1408,912,580
4476,2864,2612,1408,912,580
4476,2864,2612,1408,912,580
4476,2864,2612,1408,912,580
4480,2868,2616,1408,912,580
4476,2868,2616,1408,912,580
4480,2868,2616,1408,912,580
4476,2868,2616,1408,912,580
4476,2864,2612,1412,916,580
4476,2864,2612,1408,912,580
4472,2856,2608,1408,912,580
4472,2856,2608,1408,912,580
4468,2852,2604,1412,912,580
4468,2848,2600,1408,912,580
4468,2844,2600,1408,912,580
4464,2844,2600,1412,916,580
4464,2844,2600,1408,912,580
4468,2844,2600,1408,912,580
4468,2844,2600,1408,912,580
4464,2844,2600,1408,912,580
4468,2844,2600,1408,912,580
4468,2844,2600,1408,912,580
4468,2844,2600,1408,912,580
4464,2844,2600,1408,912,580
4464,2844,2596,1408,912,580
4468,2844,2600,1408,912,580
4468,2848,2600,1408,912,580
4468,2848,2600,1408,912,580
4468,2848,2600,1408,912,580
4468,2848,2604,1408,912,580
4472,2852,2604,1408,912,580
4472,2852,2604,1408,912,580
4472,2852,2604,1408,912,580
4472,2856,2608,1408,912,580
4472,2856,2608,1408,912,580
4472,2856,2608,1408,912,580
4472,2856,2608,1408,916,580
4472,2852,2604,1408,912,580
4472,2852,2604,1408,912,580
4468,2848,2600,1408,912,580
4468,2844,2600,1408,916,580
4464,2840,2596,1408,912,580
4464,2840,2596,1408,912,580
4468,2836,2596,1408,912,580
4464,2836,2592,1408,912,580
4464,2836,2592,1408,912,580
4464,2836,2596,1408,912,580
4464,2832,2592,1408,912,580
4464,2832,2592,1408,912,580
4464,2836,2596,1408,912,580
4464,2836,2592,1408,912,580
4464,2836,2592,1408,912,580
4464,2836,2596,1408,912,580
4468,2840,2596,1408,912,580
4464,2836,2596,1408,912,580
4464,2840,2596,1408,912,580
4464,2840,2596,1408,912,580
4468,2840,2596,1408,912,580
4468,2844,2600,1408,912,580
4468,2844,2600,1408,912,580
4468,2848,2600,1408,912,580
4468,2844,2600,1408,912,580
4468,2848,2600,1408,912,580
4472,2852,2604,1408,912,580
4468,2848,2604,1408,912,580
4472,2852,2604,1408,912,580
4468,2848,2604,1412,916,580
4468,2848,2600,1408,912,580
4468,2844,2600,1408,912,580
4464,2840,2596,1408,912,580
4468,2840,2596,1408,912,580
4464,2836,2592,1408,912,580
4464,2832,2592,1408,912,580
4464,2832,2592,1408,912,580
4460,2828,2588,1408,912,580
4464,2832,2592,1408,912,580
4464,2832,2592,1408,912,580
4468,2832,2592,1408,912,580
4464,2832,2592,1408,912,580
4464,2832,2592,1408,912,580
4464,2832,2592,1408,912,580
4464,2832,2592,1408,912,580
4464,2832,2592,1408,912,580
4464,2832,2592,1408,912,580
4464,2832,2592,1408,912,580
4468,2836,2596,1408,912,580
4468,2836,2596,1408,912,580
4468,2840,2600,1408,912,580
4468,2840,2600,1408,912,580
4472,2844,2600,1408,912,580
4468,2844,2600,1408,912,580
4472,2844,2600,1408,912,580
4476,2848,2604,1408,912,580
4472,2848,2604,1408,916,580
4472,2848,2600,1408,912,580
4468,2844,2600,1408,912,580
4472,2844,2600,1408,916,580
4464,2840,2596,1408,916,580
4468,2840,2596,1408,912,580
4464,2836,2592,1408,916,580
4464,2832,2592,1408,916,580
4464,2832,2592,1408,912,580
4464,2828,2588,1408,912,580
4464,2828,2588,1408,912,580
4464,2828,2592,1408,912,580
4464,2828,2588,1408,912,580
4464,2828,2592,1408,912,580
4464,2828,2588,1408,912,580
4464,2832,2592,1408,912,580
4464,2832,2592,1408,912,580
4464,2832,2592,1408,912,580
4468,2832,2592,1408,912,580
4464,2832,2592,1408,912,580
4468,2836,2592,1408,912,580
4468,2836,2596,1408,912,580
4468,2836,2596,1408,912,580
4464,2836,2596,1408,912,580
4468,2840,2596,1408,912,580
4468,2840,2596,1408,912,580
4472,2844,2600,1408,912,580
4472,2844,2600,1408,912,580
4472,2848,2604,1408,916,580
4472,2848,2600,1408,916,580
4472,2848,2600,1408,916,580
4472,2848,2600,1412,916,580
4472,2844,2600,1412,916,580
4468,2840,2596,1408,916,580
4468,2840,2596,1408,916,580
4468,2840,2596,1408,916,580
4472,2840,2596,1408,912,580
4468,2836,2592,1408,912,580
4468,2832,2592,1408,912,580
4464,2828,2592,1408,912,580
4464,2828,2588,1408,912,580
4464,2828,2592,1408,912,580
4464,2832,2592,1408,912,580
4464,2832,2592,1408,912,580
4468,2832,2592,1408,912,580
4464,2832,2592,1408,912,580
4464,2832,2592,1408,912,580
4468,2832,2592,1408,912,580
4468,2836,2596,1408,912,580
4472,2836,2596,1408,912,580
4472,2836,2596,1408,916,580
4472,2840,2596,1408,912,580
4472,2840,2596,1408,912,580
4472,2840,2600,1408,916,580
4472,2844,2600,1408,916,580
4472,2844,2600,1408,916,580
4472,2848,2600,1408,916,580
4472,2844,2600,1408,916,580
4472,2848,2600,1412,916,580
4472,2848,2604,1412,916,580
4476,2852,2604,1412,916,580
4476,2852,2604,1408,916,580
4476,2848,2604,1412,916,580
4476,2848,2600,1408,916,580
4472,2844,2600,1408,916,580
4472,2840,2596,1412,916,580
4468,2836,2596,1408,916,580
4468,2836,2596,1408,916,580
4468,2836,2596,1408,916,580
4468,2832,2592,1408,916,580
4468,2832,2592,1408,916,580
4468,2836,2592,1412,916,580
4468,2836,2592,1412,916,580
4468,2836,2596,1412,916,580
4472,2840,2596,1408,916,580
4468,2836,2596,1408,916,580
4472,2840,2596,1408,916,580
4472,2840,2600,1412,916,580
4472,2840,2596,1408,916,580
4472,2840,2596,1412,916,580
4468,2840,2596,1412,916,580
4468,2840,2596,1408,916,580
4468,2844,2596,1412,916,580
4468,2844,2600,1408,916,580
4472,2848,2600,1412,916,580
4472,2848,2600,1412,916,580
4472,2848,2604,1408,916,580
4472,2852,2604,1412,916,580
4472,2852,2604,1412,916,580
4472,2852,2604,1412,916,580
4472,2852,2604,1408,916,580
4472,2852,2604,1412,916,584
4468,2848,2600,1412,916,580
4468,2844,2600,1412,916,580
4468,2844,2600,1412,916,580
4468,2844,2596,1412,916,580
4468,2840,2596,1412,916,580
4468,2840,2596,1408,916,580
4468,2840,2596,1408,916,580
4472,2840,2596,1408,916,580
4468,2840,2596,1408,916,580
4468,2840,2596,1408,916,580
4468,2840,2596,1408,916,580
4472,2844,2600,1412,916,580
4472,2844,2600,1412,916,580
4472,2844,2600,1412,916,580
4472,2844,2600,1412,916,580
4472,2848,2600,1412,916,580
4472,2848,2600,1412,916,580
4472,2848,2600,1412,916,580
4472,2848,2604,1408,916,580
4476,2852,2604,1408,916,580
4476,2852,2604,1412,916,580
4472,2852,2604,1412,916,584
4476,2856,2604,1408,916,580
4476,2856,2608,1412,916,580
4476,2860,2608,1412,916,580
4476,2860,2608,1412,916,584
4476,2860,2612,1412,916,584
4476,2860,2608,1412,916,580
4476,2860,2608,1412,916,584
4476,2856,2608,1412,916,580
4476,2852,2604,1412,916,584
4472,2852,2604,1412,916,584
4476,2852,2604,1412,916,584
4472,2848,2600,1412,916,584
4472,2848,2600,1412,916,580
4472,2844,2600,1412,916,580
4472,2844,2600,1412,916,584
4472,2844,2600,1412,916,580
4472,2848,2600,1412,916,584
4472,2848,2600,1412,916,580
4472,2848,2600,1408,916,580
4472,2848,2600,1412,916,580
4476,2848,2604,1412,916,584
4476,2848,2604,1412,916,584
4472,2848,2604,1412,916,584
4476,2848,2604,1412,916,584
4472,2852,2604,1412,916,584
4472,2852,2604,1412,916,584
4476,2856,2608,1412,916,584
4472,2852,2604,1412,916,584
4480,2856,2608,1412,916,584
4480,2860,2608,1412,916,584
4480,2860,2608,1412,916,584
4480,2860,2612,1412,916,584
4480,2864,2612,1412,916,584
4480,2864,2612,1412,916,584
4480,2864,2612,1412,916,584
4480,2864,2612,1412,916,584
4480,2860,2612,1412,916,584
4480,2860,2608,1412,916,584
4476,2856,2604,1412,916,584
4476,2852,2604,1412,916,584
4476,2852,2604,1412,920,584
4472,2848,2600,1412,916,584
4472,2848,2600,1412,916,584
4472,2848,2600,1412,916,584
4472,2848,2600,1412,916,584
4472,2848,2600,1412,916,584
4472,2848,2600,1412,916,584
4472,2848,2600,1412,916,584
4472,2848,2600,1412,916,584
4472,2848,2600,1412,916,584
4472,2848,2600,1412,916,584
4472,2852,2604,1412,916,584
4472,2852,2604,1412,916,584
4476,2852,2604,1412,916,584
4472,2852,2604,1412,916,584
4476,2852,2604,1412,916,584
4476,2856,2608,1412,916,584
4476,2856,2608,1412,916,584
4476,2856,2608,1412,916,584
4476,2860,2608,1412,916,584
4476,2860,2608,1412,916,584
4480,2864,2612,1412,920,584
4484,2864,2612,1412,916,584
4480,2868,2612,1412,916,584
4480,2864,2612,1412,916,584
4476,2864,2612,1412,916,584
4480,2864,2612,1412,916,584
4476,2860,2608,1412,916,584
4472,2856,2604,1412,916,584
4476,2856,2604,1412,916,584
4476,2856,2604,1412,916,584
4472,2852,2604,1412,916,584
4476,2852,2604,1412,916,584
4476,2852,2604,1412,916,584
4476,2852,2604,1412,916,584
4476,2852,2604,1412,916,584
4472,2852,2604,1412,916,584
4476,2852,2604,1412,916,584
4476,2856,2604,1412,916,584
4476,2856,2608,1412,916,584
4472,2856,2604,1412,916,584
4476,2856,2604,1412,916,584
4476,2856,2608,1412,916,584
4476,2856,2608,1412,916,584
4476,2860,2608,1412,916,584
4480,2860,2612,1412,916,584
4476,2860,2608,1412,916,584
4480,2864,2612,1412,916,584
4480,2864,2612,1412,916,584
4480,2868,2612,1412,916,584
4480,2868,2616,1412,916,584
4480,2868,2612,1412,920,584
4480,2868,2616,1412,916,584
4480,2868,2616,1412,920,584
4480,2868,2616,1412,920,584
4480,2868,2612,1412,920,584
4480,2872,2616,1412,920,584
4480,2868,2616,1412,916,584
4480,2864,2612,1412,920,584
4480,2864,2612,1412,920,584
4480,2864,2612,1412,920,584
4476,2860,2608,1412,916,584
4476,2860,2608,1412,920,584
4480,2860,2608,1412,916,584
4480,2860,2608,1412,916,584
4480,2860,2608,1412,920,584
4480,2864,2612,1412,916,584
4480,2864,2612,1412,916,584
4476,2864,2612,1412,920,584
4480,2864,2612,1412,916,584
4476,2864,2612,1412,916,584
4480,2864,2612,1412,916,584
4480,2864,2612,1412,916,584
4480,2868,2616,1412,916,584
4484,2868,2616,1412,916,584
4484,2872,2616,1412,920,584
4484,2872,2616,1412,916,584
4484,2872,2616,1412,920,584
4484,2872,2616,1412,920,584
4484,2876,2620,1412,920,584
4484,2876,2620,1412,920,584
4484,2876,2620,1412,920,584
4484,2876,2620,1412,920,584
4484,2880,2620,1412,920,584
4484,2880,2620,1412,920,584
4484,2880,2620,1412,920,584
4484,2876,2620,1412,920,584
4480,2872,2616,1412,920,584
4480,2868,2616,1412,920,584
4480,2868,2616,1412,920,584
4476,2864,2612,1412,920,584
4480,2864,2612,1412,920,584
4480,2864,2612,1412,920,584
4480,2864,2612,1412,920,584
4480,2864,2612,1412,920,584
4480,2864,2612,1412,920,584
4480,2864,2612,1412,916,584
4480,2864,2612,1412,920,584
4480,2864,2612,1412,920,584
4480,2868,2612,1412,920,584
4476,2864,2612,1412,920,584
4480,2868,2612,1412,920,584
4476,2868,2612,1412,920,584
4476,2868,2612,1412,920,584
4476,2868,2612,1412,920,584
4480,2868,2612,1412,920,584
4480,2872,2616,1412,920,584
4480,2872,2616,1412,920,584
4480,2872,2616,1412,920,584
4480,2876,2616,1412,920,584
4484,2876,2620,1412,920,584
4480,2876,2620,1412,920,584
4484,2880,2620,1412,920,584
4484,2880,2620,1412,920,584
4480,2880,2620,1412,920,584
4480,2880,2620,1412,920,584
4484,2880,2620,1412,920,584
4480,2876,2620,1412,920,584
4480,2876,2616,1412,920,584
4480,2872,2616,1412,920,584
4480,2872,2616,1412,920,584
4476,2868,2612,1412,920,584
4476,2868,2612,1412,920,584
4480,2868,2612,1412,920,584
4480,2868,2616,1412,920,584
4480,2868,2612,1412,920,584
4480,2868,2612,1412,916,584
4480,2868,2612,1412,916,584
4476,2868,2612,1412,916,584
4476,2868,2612,1412,916,584
4476,2868,2612,1412,916,584
4476,2868,2612,1412,920,584
4480,2872,2616,1412,920,584
4476,2872,2616,1412,920,584
4480,2872,2616,1412,916,584
4480,2876,2616,1412,916,584
4480,2876,2616,1412,916,584
4484,2876,2620,1412,920,584
4484,2880,2620,1412,920,584
4484,2884,2624,1412,920,584
4484,2880,2620,1412,920,584
4488,2888,2624,1412,920,584
4484,2884,2624,1412,920,584
4488,2888,2624,1412,920,584
4484,2888,2624,1412,920,584
4484,2888,2624,1412,920,584
4484,2888,2624,1412,920,584
4488,2888,2624,1412,920,584
4484,2884,2624,1412,920,584
4484,2880,2620,1412,920,584
4484,2880,2620,1412,920,584
4484,2876,2620,1412,920,584
4480,2876,2616,1412,920,584
4484,2876,2620,1412,920,584
4484,2876,2616,1412,920,584
4480,2876,2616,1412,920,584
4480,2876,2616,1412,920,584
4484,2876,2620,1412,920,584
4484,2876,2620,1412,920,584
4480,2876,2620,1412,920,584
4480,2876,2616,1412,920,584
4484,2880,2620,1412,920,584
4484,2880,2620,1412,920,584
4484,2880,2620,1412,920,584
4484,2880,2620,1412,920,584
4484,2880,2624,1412,920,584
4484,2884,2624,1412,920,584
4484,2884,2620,1412,920,584
4484,2884,2624,1412,920,584
4484,2884,2624,1412,920,584
4484,2888,2624,1412,920,584
4488,2888,2628,1412,920,584
4488,2888,2628,1412,920,584
4488,2892,2628,1412,920,584
4484,2892,2628,1412,920,584
4484,2892,2628,1412,920,584
4488,2892,2628,1412,920,584
4484,2892,2628,1412,920,584
4488,2892,2628,1412,920,584
4488,2892,2628,1412,920,584
4484,2888,2624,1412,920,584
4484,2888,2624,1412,920,584
4484,2888,2624,1412,920,584
4484,2884,2624,1412,920,584
4480,2884,2620,1412,920,584
4484,2884,2624,1412,920,584
4484,2884,2624,1412,920,584
4480,2884,2620,1412,920,584
4484,2884,2624,1412,920,584
4480,2884,2620,1412,920,584
4480,2884,2624,1412,920,584
4484,2884,2624,1412,920,584
4484,2888,2624,1412,920,584
4484,2888,2624,1412,920,584
4484,2888,2624,1412,920,584
4484,2888,2624,1412,920,584
4484,2888,2624,1412,920,584
4484,2888,2624,1412,920,584
4484,2892,2628,1412,920,584
4484,2888,2624,1412,920,584
4484,2892,2628,1412,920,584
4484,2892,2628,1412,920,584
4488,2896,2632,1412,920,584
4488,2896,2632,1412,920,584
4488,2900,2632,1412,920,584
4488,2900,2632,1412,920,584
4488,2900,2632,1412,920,584
4488,2900,2632,1412,920,584
4488,2900,2632,1412,920,584
4488,2900,2632,1412,920,584
4484,2896,2632,1412,920,584
4484,2896,2632,1412,920,584
4484,2896,2628,1412,920,584
4484,2892,2628,1412,920,584
4484,2892,2628,1412,920,584
4484,2892,2628,1412,920,584
4484,2888,2624,1412,920,584
4484,2888,2624,1412,920,584
4484,2888,2628,1412,920,584
4484,2892,2628,1412,920,584
4484,2892,2628,1412,920,584
4480,2888,2624,1412,920,584
4480,2888,2624,1412,920,584
4480,2888,2624,1412,920,584
4480,2892,2628,1412,920,584
4484,2892,2628,1412,920,584
4484,2892,2628,1412,920,584
4484,2896,2628,1412,920,584
4484,2896,2628,1412,920,584
4484,2896,2632,1412,920,584
4484,2896,2628,1412,920,584
4484,2896,2632,1412,920,584
4484,2900,2632,1412,920,584
4484,2900,2632,1412,920,584
4492,2904,2636,1412,920,584
4492,2908,2636,1412,920,584
4492,2908,2640,1412,920,584
4488,2904,2636,1412,920,584
4488,2904,2636,1412,920,584
4488,2908,2636,1412,920,584
4488,2904,2636,1412,920,584
4488,2904,2636,1412,920,584
4484,2900,2632,1412,920,584
4484,2896,2632,1412,920,584
4484,2896,2632,1412,920,584
4484,2896,2628,1412,920,584
4480,2892,2628,1412,920,584
4480,2888,2624,1412,920,584
4480,2892,2624,1412,920,584
4480,2892,2628,1412,920,584
4480,2892,2624,1412,920,584
4480,2892,2628,1412,920,584
4484,2892,2628,1412,920,584
4480,2892,2628,1412,920,584
4484,2892,2628,1412,920,584
4484,2896,2628,1412,920,584
4484,2896,2628,1412,920,584
4484,2896,2632,1412,920,584
4484,2896,2628,1412,920,584
4484,2896,2632,1412,920,584
4488,2900,2632,1412,920,584
4492,2900,2636,1412,920,584
4488,2900,2636,1412,920,584
4488,2900,2632,1412,920,584
4488,2904,2636,1412,920,584
4488,2904,2636,1412,920,584
4488,2904,2636,1412,920,584
4488,2904,2636,1412,920,584
4488,2908,2636,1412,920,584
4488,2904,2636,1412,920,584
4488,2908,2636,1412,920,584
4484,2904,2636,1412,920,584
4484,2900,2632,1412,920,584
4484,2900,2632,1412,920,584
4480,2896,2628,1412,920,584
4480,2892,2628,1412,920,584
4480,2892,2628,1412,920,584
4480,2892,2624,1412,916,584
4476,2888,2624,1412,920,584
4480,2888,2624,1412,920,584
4480,2888,2624,1412,916,584
4480,2888,2624,1412,920,584
4480,2888,2624,1412,920,584
4480,2888,2624,1412,920,584
4480,2888,2624,1412,920,584
4480,2888,2624,1412,920,584
4480,2888,2624,1412,920,584
4480,2892,2628,1412,920,584
4484,2892,2628,1412,920,584
4480,2892,2628,1412,920,584
4480,2892,2628,1412,920,584
4480,2896,2628,1412,920,584
4484,2896,2628,1412,920,584
4480,2896,2628,1412,920,584
4480,2896,2632,1412,920,584
4480,2896,2628,1412,916,584
4484,2900,2632,1412,920,584
4484,2900,2632,1412,920,584
4480,2900,2632,1412,920,584
4480,2900,2632,1412,920,584
4480,2900,2632,1412,920,584
4480,2900,2628,1412,920,584
4476,2896,2628,1412,920,584
4476,2896,2628,1412,920,584
4476,2896,2628,1412,920,584
4476,2892,2624,1412,920,584
4476,2892,2624,1412,920,584
4476,2888,2624,1412,916,584
4476,2888,2624,1412,916,584
4472,2888,2624,1412,916,584
4472,2888,2620,1412,916,584
4476,2888,2624,1412,916,584
4476,2888,2624,1412,916,584
4476,2888,2624,1412,916,584
4476,2888,2624,1412,916,584
4472,2888,2620,1412,916,580
4476,2888,2624,1412,916,584
4472,2888,2624,1412,916,584
4476,2888,2624,1412,916,580
4476,2892,2624,1412,916,584
4476,2892,2624,1412,916,584
4480,2896,2628,1412,916,584
4476,2896,2628,1412,920,584
4480,2896,2632,1412,916,584
4480,2896,2628,1412,916,584
4476,2896,2628,1412,920,584
4476,2896,2628,1412,920,584
4480,2900,2632,1412,920,584
4480,2900,2632,1412,916,584
4480,2904,2632,1412,916,584
4480,2904,2632,1412,916,584
4480,2904,2632,1412,916,584
4480,2904,2632,1412,920,584
4476,2900,2632,1412,920,584
4480,2900,2632,1412,920,584
4476,2896,2628,1412,920,584
4480,2896,2628,1412,920,584
4476,2896,2628,1412,920,584
4476,2892,2628,1412,916,584
4476,2892,2624,1412,916,584
4472,2888,2624,1412,916,584
4472,2892,2624,1412,916,584
4476,2892,2624,1412,916,584
4476,2892,2624,1412,916,584
4476,2892,2628,1412,916,584
4476,2892,2624,1412,916,584
4476,2892,2628,1412,916,584
4476,2892,2628,1412,916,584
4480,2896,2628,1412,916,584
4476,2896,2628,1412,916,584
4476,2896,2628,1412,916,584
4476,2896,2628,1412,920,584
4476,2896,2628,1412,916,584
4480,2900,2632,1412,916,584
4484,2900,2632,1412,916,584
4484,2904,2636,1412,920,584
4480,2904,2632,1412,916,584
4484,2908,2636,1412,920,584
4480,2904,2636,1412,920,584
4484,2908,2636,1412,916,584
4484,2908,2636,1412,920,584
4484,2908,2636,1412,920,584
4484,2908,2636,1412,920,584
4484,2908,2636,1412,920,584
4480,2908,2632,1412,920,584
4480,2904,2632,1412,920,584
4476,2900,2632,1412,920,584
4476,2896,2628,1412,916,584
4476,2896,2628,1412,916,584
4480,2896,2628,1412,916,584
4476,2892,2628,1412,916,584
4480,2896,2628,1412,920,584
4480,2896,2628,1412,916,584
4476,2892,2628,1412,916,584
4480,2892,2628,1412,916,584
4476,2892,2628,1412,916,584
4480,2896,2628,1412,916,584
4476,2892,2628,1412,916,584
4476,2892,2624,1412,916,584
4472,2892,2624,1412,916,584
4476,2892,2628,1412,920,584
4476,2896,2628,1412,916,584
4476,2896,2628,1412,916,584
4476,2896,2628,1412,916,584
4476,2896,2628,1412,920,584
4476,2900,2628,1412,916,584
4476,2896,2628,1412,920,584
4480,2900,2632,1412,916,584
4476,2900,2632,1412,920,584
4480,2904,2632,1412,920,584
4480,2904,2632,1412,916,584
4480,2904,2636,1412,920,584
4484,2908,2636,1412,920,584
4480,2908,2636,1412,920,584
4480,2908,2636,1412,920,584
4480,2904,2632,1412,920,584
4480,2904,2632,1412,920,584
4476,2900,2628,1412,916,584
4476,2896,2628,1412,916,584
4476,2896,2628,1412,916,584
4472,2892,2624,1412,916,584
4472,2888,2624,1412,916,584
4472,2888,2620,1412,916,584
4472,2888,2624,1412,916,584
4472,2888,2624,1412,916,584
4472,2888,2624,1412,916,584
4472,2892,2624,1412,916,584
4472,2892,2624,1412,916,584
4476,2896,2628,1412,916,580
4476,2892,2628,1412,916,584
4476,2896,2628,1412,916,584
4476,2896,2628,1412,916,584
4472,2892,2624,1412,916,584
4476,2896,2628,1412,916,584
4476,2896,2628,1412,916,584
4476,2900,2628,1412,916,584
4476,2900,2628,1412,916,584
4476,2900,2628,1412,920,584
4476,2900,2628,1412,920,584
4476,2900,2628,1412,920,584
4476,2904,2632,1412,916,584
4476,2904,2632,1412,920,584
4480,2908,2632,1412,920,584
4480,2908,2636,1412,920,584
4476,2908,2632,1412,920,584
4476,2908,2632,1412,920,584
4476,2904,2632,1412,920,584
4476,2904,2632,1412,920,584
4472,2900,2628,1412,920,584
4472,2896,2628,1412,920,584
4472,2896,2624,1412,920,584
4472,2896,2624,1412,916,584
4472,2896,2624,1412,916,584
4472,2892,2624,1412,916,584
4468,2892,2624,1412,916,584
4472,2896,2624,1412,916,584
4472,2896,2624,1412,916,584
4472,2896,2628,1412,916,584
4472,2896,2628,1412,916,584
4472,2896,2628,1412,920,584
4472,2896,2628,1412,916,584
4472,2896,2628,1412,916,584
4472,2900,2628,1412,916,584
4472,2900,2628,1412,916,584
4472,2900,2628,1412,920,584
4480,2904,2632,1412,920,584
4476,2904,2632,1412,916,584
4476,2904,2632,1412,920,584
4480,2908,2636,1412,916,584
4480,2908,2636,1412,916,584
4480,2912,2636,1412,920,584
4480,2912,2636,1412,920,584
4480,2912,2636,1412,920,584
4480,2916,2640,1412,920,584
4480,2916,2640,1412,920,584
4480,2916,2640,1412,920,584
4480,2916,2640,1412,920,584
4476,2912,2636,1412,920,584
4480,2912,2636,1412,920,584
4480,2912,2636,1412,920,584
4476,2908,2632,1412,920,584
4476,2908,2632,1412,920,584
4476,2904,2632,1412,916,584
4476,2904,2632,1412,920,584
4476,2904,2632,1412,920,584
4476,2904,2632,1412,916,584
4476,2904,2632,1412,916,584
4480,2908,2636,1412,916,584
4476,2908,2632,1412,916,584
4476,2904,2632,1412,916,584
4476,2908,2632,1412,920,584
4476,2908,2632,1412,920,584
4480,2908,2636,1412,920,584
4476,2908,2636,1412,920,584
4476,2912,2636,1412,920,584
4480,2916,2640,1412,920,584
4480,2916,2640,1412,920,584
4480,2916,2640,1412,920,584
4484,2920,2644,1412,920,584
4484,2920,2644,1412,920,584
4480,2920,2644,1412,920,584
4484,2924,2644,1412,920,584
4484,2924,2644,1412,920,584
4488,2928,2648,1412,920,584
4484,2928,2648,1412,920,584
4488,2928,2648,1412,920,584
4488,2928,2648,1412,920,584
4484,2928,2648,1412,920,584
4484,2924,2644,1412,920,584
4484,2924,2644,1412,920,584
4484,2920,2644,1416,920,584
4480,2916,2640,1412,920,584
4476,2912,2636,1412,920,584
4480,2912,2636,1412,920,584
4476,2912,2636,1412,920,584
4476,2908,2636,1412,920,584
4476,2912,2636,1412,920,584
4480,2912,2636,1412,920,584
4476,2912,2636,1416,920,584
4476,2912,2636,1412,920,584
4476,2912,2636,1412,920,584
4476,2912,2636,1412,920,584
4476,2912,2636,1412,920,584
4476,2912,2636,1412,920,584
4476,2916,2640,1412,920,584
4480,2916,2640,1412,920,584
4480,2916,2640,1412,920,584
4480,2916,2640,1412,920,584
4480,2920,2640,1412,920,584
4480,2920,2644,1412,920,584
4484,2924,2644,1412,920,584
4484,2924,2644,1416,920,584
4480,2924,2644,1412,920,584
4480,2924,2644,1416,920,584
4480,2928,2644,1416,920,584
4484,2928,2648,1416,920,584
4484,2932,2648,1416,920,584
4484,2932,2648,1416,920,584
4484,2932,2648,1416,920,584
4480,2928,2644,1416,920,584
4480,2924,2644,1416,920,584
4480,2924,2640,1416,920,584
4480,2920,2640,1412,920,584
4480,2920,2640,1412,920,584
4476,2916,2636,1412,920,584
4472,2912,2636,1416,920,584
4472,2912,2636,1412,920,584
4472,2912,2636,1412,920,584
4472,2912,2636,1412,920,584
4476,2916,2640,1412,920,584
4476,2916,2640,1412,920,584
4476,2920,2640,1412,920,584
4480,2920,2640,1412,920,584
4480,2920,2640,1416,920,584
4480,2920,2640,1416,920,584
4480,2920,2640,1412,920,584
4480,2924,2644,1412,920,584
4480,2924,2644,1412,920,584
4484,2928,2644,1416,920,584
4484,2928,2648,1416,920,584
4480,2928,2644,1412,920,584
4480,2928,2644,1416,920,584
4484,2932,2648,1412,920,584
4484,2932,2648,1416,920,584
4488,2936,2652,1416,920,584
4488,2936,2652,1416,920,584
4488,2936,2652,1416,920,584
4488,2940,2656,1416,920,584
4488,2940,2652,1416,920,584
4484,2936,2652,1416,920,584
4484,2936,2648,1412,920,584
4480,2932,2648,1416,920,584
4480,2928,2644,1412,920,584
4480,2928,2644,1412,920,584
4480,2924,2644,1412,920,584
4480,2924,2644,1412,920,584
4480,2924,2644,1412,920,584
4476,2924,2640,1412,920,584
4476,2924,2640,1412,920,584
4476,2924,2640,1412,920,584
4476,2924,2640,1412,920,584
4480,2924,2644,1412,920,584
4480,2924,2644,1412,920,584
4476,2924,2644,1412,920,584
4480,2924,2644,1416,920,584
4480,2924,2644,1412,920,584
4476,2924,2644,1412,920,584
4480,2928,2644,1412,920,584
4480,2928,2648,1412,920,584
4480,2932,2648,1412,920,584
4480,2932,2648,1412,920,584
4484,2932,2648,1412,920,584
4484,2936,2652,1412,920,584
4488,2936,2652,1416,920,584
4488,2940,2652,1416,920,584
4488,2940,2652,1416,920,584
4488,2940,2656,1412,920,584
4488,2944,2656,1416,920,584
4492,2944,2656,1416,920,584
4488,2944,2656,1416,920,584
4488,2944,2656,1416,920,584
4484,2940,2652,1416,920,584
4480,2936,2648,1416,920,584
4480,2932,2648,1416,920,584
4480,2932,2648,1416,920,584
4480,2932,2648,1416,920,584
4480,2928,2644,1416,920,584
4480,2928,2648,1416,920,584
4484,2932,2648,1416,920,584
4480,2928,2648,1416,920,584
4480,2928,2644,1416,920,584
4484,2932,2648,1416,920,584
4480,2928,2648,1416,920,584
4480,2928,2644,1416,920,584
4480,2932,2648,1412,920,584
4480,2932,2648,1416,920,584
4480,2932,2648,1416,920,584
4480,2932,2648,1412,920,584
4480,2932,2648,1416,920,584
4480,2932,2648,1416,920,584
4484,2936,2652,1416,920,584
4484,2936,2652,1416,920,584
4484,2940,2652,1416,920,584
4484,2940,2652,1416,920,584
4488,2944,2656,1416,920,584
4488,2944,2656,1416,920,584
4488,2944,2656,1416,920,584
4488,2948,2656,1416,920,584
4488,2948,2656,1416,920,584
4488,2948,2656,1416,920,584
4488,2948,2660,1416,924,584
4492,2948,2660,1416,920,584
4484,2940,2652,1416,920,584
4480,2936,2652,1416,920,584
4480,2936,2648,1416,920,584
4480,2932,2648,1416,920,584
4480,2932,2648,1416,920,584
4480,2932,2644,1416,920,584
4476,2928,2644,1416,920,584
4476,2928,2644,1416,920,584
4480,2932,2648,1412,920,584
4480,2928,2644,1416,920,584
4480,2932,2648,1416,920,584
4476,2928,2644,1416,920,584
4476,2928,2644,1416,920,584
4480,2932,2648,1416,920,584
4476,2928,2644,1416,920,584
4476,2932,2644,1416,920,584
4480,2932,2648,1416,920,584
4480,2932,2648,1416,920,584
4480,2936,2648,1416,920,584
4484,2936,2652,1416,920,584
4484,2936,2652,1416,920,584
4484,2936,2652,1412,920,584
4484,2940,2652,1416,920,584
4484,2940,2656,1416,920,584
4488,2944,2656,1416,920,584
4488,2944,2656,1416,920,584
4488,2948,2660,1416,920,584
4492,2952,2660,1416,920,584
4492,2952,2660,1416,920,584
4492,2952,2660,1416,920,584
4488,2948,2656,1416,920,584
4484,2944,2656,1416,920,584
4480,2936,2652,1416,920,584
4480,2936,2648,1416,920,584
4480,2932,2648,1416,920,584
4480,2932,2648,1416,920,584
4476,2928,2644,1416,920,584
4476,2928,2644,1416,920,584
4476,2928,2644,1416,920,584
4476,2928,2644,1416,920,584
4476,2932,2644,1416,920,584
4476,2928,2644,1416,920,584
4480,2932,2648,1412,920,584
4476,2932,2644,1416,920,584
4480,2932,2648,1416,920,584
4480,2932,2648,1416,920,584
4480,2936,2648,1416,920,584
4480,2936,2648,1416,920,584
4480,2936,2648,1416,920,584
4480,2936,2648,1416,920,584
4484,2940,2652,1416,920,584
4484,2940,2652,1416,920,584
4480,2940,2652,1416,920,584
4484,2944,2652,1416,920,584
4484,2944,2656,1416,920,584
4484,2944,2656,1416,920,584
4488,2948,2656,1416,920,584
4488,2948,2656,1416,920,584
4488,2948,2656,1416,924,584
4488,2952,2660,1416,920,584
4492,2952,2660,1416,920,584
4484,2948,2656,1416,920,584
4484,2944,2656,1416,920,584
4480,2944,2652,1416,920,584
4480,2940,2652,1412,920,584
4480,2940,2648,1416,920,584
4476,2936,2648,1416,920,584
4480,2936,2648,1416,920,584
4476,2932,2648,1416,920,584
4476,2936,2648,1416,920,584
4476,2932,2648,1416,920,584
4476,2932,2644,1412,920,584
4476,2936,2648,1416,920,584
4476,2936,2648,1412,920,584
4476,2936,2644,1416,920,584
4476,2936,2648,1416,920,584
4476,2936,2648,1416,920,584
4480,2940,2648,1416,920,584
4480,2940,2652,1416,920,584
4480,2940,2652,1416,920,584
4484,2944,2656,1416,920,584
4484,2948,2656,1416,920,584
4484,2948,2656,1416,920,584
4484,2948,2656,1416,920,584
4484,2948,2656,1416,920,584
4480,2948,2656,1416,920,584
4484,2948,2656,1416,924,584
4484,2952,2660,1416,920,584
4488,2952,2660,1416,920,584
4488,2956,2660,1412,920,584
4488,2956,2660,1416,920,584
4488,2956,2664,1416,924,584
4484,2952,2660,1416,920,584
4484,2952,2660,1416,924,584
4484,2952,2656,1416,920,584
4480,2944,2656,1416,920,584
4480,2944,2656,1416,920,584
4480,2944,2656,1416,920,584
4480,2944,2652,1416,920,584
4480,2944,2652,1416,920,584
4480,2944,2652,1416,920,584
4480,2944,2652,1416,920,584
4476,2944,2652,1416,920,584
4480,2944,2652,1416,920,584
4476,2944,2652,1416,924,584
4480,2944,2656,1416,924,584
4484,2948,2656,1416,920,584
4480,2944,2656,1416,920,584
4480,2944,2652,1416,920,584
4480,2948,2656,1416,920,584
4484,2948,2656,1412,920,584
4484,2952,2660,1416,920,584
4484,2952,2660,1416,920,584
4484,2952,2660,1416,924,584
4484,2956,2660,1416,924,584
4488,2956,2664,1416,920,584
4488,2960,2664,1416,924,584
4488,2960,2664,1416,924,584
4488,2960,2664,1416,920,584
4492,2964,2668,1416,924,584
4488,2964,2668,1416,924,584
4492,2964,2668,1416,920,584
4488,2964,2668,1416,924,584
4488,2960,2664,1416,924,584
4484,2956,2660,1416,924,584
4484,2952,2660,1416,924,584
4480,2952,2656,1416,920,584
4480,2948,2656,1416,924,584
4476,2948,2652,1416,920,584
4472,2944,2652,1416,920,584
4476,2944,2652,1416,920,584
4476,2944,2652,1416,920,584
4476,2944,2652,1416,920,584
4476,2944,2652,1416,920,584
4476,2944,2652,1416,920,584
4476,2944,2652,1416,920,584
4476,2944,2652,1416,920,584
4476,2944,2652,1416,920,584
4476,2944,2652,1416,924,584
4476,2944,2652,1416,920,584
4476,2948,2656,1416,920,584
4476,2948,2652,1416,924,584
4480,2948,2656,1416,920,584
4480,2952,2656,1416,920,584
4484,2952,2660,1416,920,584
4484,2956,2660,1416,920,584
4484,2956,2660,1416,920,584
4488,2960,2664,1416,920,584
4484,2956,2664,1416,920,584
4484,2960,2664,1416,924,584
4488,2964,2664,1416,920,584
4488,2964,2668,1416,924,584
4488,2964,2668,1416,924,584
4488,2964,2668,1416,924,584
4488,2964,2668,1416,924,584
4484,2960,2664,1416,924,584
4484,2956,2660,1416,924,584
4480,2952,2656,1416,924,584
4476,2948,2656,1416,924,584
4472,2944,2652,1416,920,584
4472,2944,2652,1416,924,584
4476,2944,2652,1416,920,584
4476,2944,2652,1416,920,584
4476,2944,2652,1416,920,584
4472,2940,2648,1416,924,584
4476,2944,2652,1416,920,584
4476,2944,2652,1416,924,584
4476,2944,2652,1416,920,584
4476,2944,2652,1416,920,584
4476,2944,2652,1416,924,584
4476,2944,2652,1412,920,584
4476,2944,2652,1416,920,584
4476,2948,2652,1412,920,584
4476,2948,2652,1412,920,584
4480,2948,2656,1416,920,584
4476,2948,2656,1416,924,584
4480,2952,2656,1416,924,584
4476,2952,2656,1416,924,584
4480,2952,2660,1416,924,584
4480,2956,2660,1416,920,584
4480,2956,2660,1416,924,584
4480,2956,2660,1416,924,584
4480,2960,2660,1416,924,584
4484,2960,2664,1416,924,584
4484,2960,2664,1416,924,584
4488,2964,2664,1416,924,584
4484,2960,2664,1416,924,584
4480,2956,2660,1416,924,584
4476,2952,2656,1416,924,584
4472,2948,2652,1416,924,584
4476,2948,2652,1416,920,584
4472,2944,2652,1416,924,584
4472,2944,2652,1416,920,584
4472,2944,2652,1416,924,584
4472,2944,2652,1416,920,584
4472,2944,2652,1416,920,584
4476,2944,2652,1416,920,584
4472,2944,2652,1416,920,584
4476,2948,2652,1416,920,584
4472,2944,2652,1416,920,584
4476,2948,2652,1416,920,584
4472,2944,2652,1416,924,584
4476,2948,2656,1416,924,584
4476,2952,2656,1416,920,584
4476,2952,2656,1416,920,584
4480,2952,2660,1416,920,584
4480,2956,2660,1416,920,584
4480,2956,2660,1416,924,584
4484,2960,2664,1416,920,584
4484,2960,2664,1416,924,584
4484,2960,2664,1416,924,584
4484,2960,2664,1416,924,584
4484,2960,2664,1416,924,584
4484,2964,2664,1416,924,584
4488,2964,2668,1416,924,584
4488,2968,2668,1416,924,584
4488,2964,2668,1416,924,584
4488,2964,2668,1416,924,584
4484,2960,2664,1416,924,584
4480,2960,2660,1416,924,584
4480,2956,2660,1416,924,584
4480,2956,2660,1416,924,584
4480,2952,2656,1416,924,584
4476,2948,2652,1416,924,584
4476,2948,2656,1416,924,584
4476,2948,2656,1416,924,584
4472,2948,2652,1416,920,584
4476,2948,2656,1416,920,584
4476,2948,2656,1416,920,584
4476,2948,2656,1416,924,584
4472,2948,2652,1416,924,584
4476,2952,2656,1416,924,584
4476,2952,2656,1416,924,584
4480,2956,2660,1416,924,584
4484,2956,2660,1416,924,584
4480,2952,2660,1416,920,584
4480,2956,2660,1416,924,584
4484,2960,2664,1416,924,584
4480,2956,2660,1416,924,584
4484,2960,2664,1416,924,584
4484,2960,2664,1416,924,584
4484,2964,2664,1416,924,584
4488,2964,2668,1416,924,584
4488,2968,2668,1416,924,584
4484,2964,2664,1416,924,584
4488,2968,2668,1416,924,584
4488,2968,2672,1416,924,584
4488,2968,2668,1416,924,584
4484,2964,2668,1416,924,584
4484,2964,2664,1416,924,584
4484,2960,2664,1416,924,584
4480,2956,2660,1416,924,584
4476,2956,2660,1416,924,584
4476,2952,2656,1416,924,584
4472,2948,2656,1416,924,584
4476,2948,2656,1416,924,584
4476,2948,2652,1416,924,584
4472,2948,2652,1416,924,584
4472,2948,2652,1416,924,584
4472,2948,2652,1416,924,584
4472,2948,2652,1416,924,584
4476,2948,2656,1416,924,584
4476,2948,2652,1416,924,584
4476,2952,2656,1416,924,584
4480,2952,2656,1416,924,584
4476,2948,2656,1416,924,584
4476,2948,2656,1416,924,584
4476,2952,2656,1416,924,584
4476,2952,2656,1416,924,584
4480,2952,2656,1416,924,584
4480,2956,2660,1416,924,584
4480,2956,2660,1416,924,584
4476,2956,2660,1416,924,584
4480,2956,2660,1416,924,584
4480,2960,2664,1416,924,584
4484,2964,2664,1416,924,584
4484,2964,2664,1416,924,584
4484,2964,2664,1416,924,584
4484,2964,2664,1416,924,584
4484,2960,2664,1416,924,584
4480,2960,2660,1416,924,584
4480,2956,2660,1416,924,584
4476,2952,2656,1416,924,584
4472,2948,2656,1416,924,584
4468,2944,2652,1416,924,584
4472,2944,2652,1416,924,584
4468,2940,2648,1416,924,584
4468,2940,2648,1416,924,584
4468,2940,2648,1416,924,584
4472,2944,2648,1416,924,584
4472,2944,2648,1416,924,584
4472,2940,2648,1416,924,584
4472,2940,2648,1416,924,584
4472,2944,2648,1416,924,584
4472,2944,2652,1416,924,584
4472,2944,2652,1416,924,584
4472,2944,2652,1416,920,584
4472,2944,2652,1416,920,584
4472,2944,2652,1416,924,584
4472,2944,2652,1416,924,584
4472,2948,2652,1416,924,584
4476,2952,2656,1416,924,584
4476,2952,2656,1416,924,584
4480,2952,2660,1416,924,584
4480,2952,2660,1416,924,584
4476,2952,2656,1416,924,584
4476,2952,2656,1416,924,584
4476,2952,2656,1416,924,584
4480,2956,2660,1416,924,584
4480,2960,2660,1416,924,584
4480,2960,2660,1416,924,584
4480,2960,2660,1416,924,584
4476,2952,2656,1416,924,584
4476,2952,2656,1416,924,584
4472,2948,2652,1416,924,584
4468,2944,2652,1416,924,584
4468,2940,2648,1416,924,584
4468,2940,2648,1416,924,584
4468,2940,2648,1416,924,584
4464,2936,2644,1416,924,584
4464,2936,2644,1416,924,584
4464,2936,2644,1416,924,584
4464,2936,2644,1416,924,584
4468,2940,2648,1416,924,584
4464,2936,2644,1416,924,584
4468,2940,2644,1416,924,584
4468,2940,2648,1416,924,584
4468,2940,2648,1416,924,584
4472,2940,2648,1416,920,584
4468,2940,2648,1416,924,584
4468,2940,2648,1416,924,584
4472,2944,2652,1416,924,584
4472,2948,2652,1416,924,584
4472,2944,2652,1416,924,584
4472,2948,2652,1416,924,584
4472,2948,2656,1416,924,584
4476,2952,2656,1416,924,584
4480,2956,2660,1416,924,584
4480,2956,2660,1416,924,584
4480,2956,2660,1416,924,584
4480,2956,2660,1416,924,584
4480,2960,2664,1416,924,584
4480,2956,2660,1416,924,584
4476,2956,2660,1416,924,584
4476,2952,2656,1416,924,584
4472,2948,2652,1416,924,584
4472,2948,2652,1416,924,584
4468,2944,2648,1416,924,584
4468,2940,2648,1416,924,584
4468,2940,2648,1416,924,584
4468,2940,2648,1416,924,584
4464,2936,2644,1416,924,584
4468,2940,2648,1416,924,584
4468,2940,2648,1416,924,584
4468,2940,2648,1416,924,584
4468,2940,2648,1416,924,584
4468,2940,2648,1416,924,584
4468,2940,2648,1416,924,584
4472,2944,2648,1416,924,584
4468,2940,2648,1416,924,584
4472,2944,2648,1416,924,584
4476,2948,2652,1416,924,584
4476,2948,2652,1416,924,584
4476,2948,2656,1416,924,584
4476,2952,2656,1416,924,584
4476,2952,2656,1416,924,584
4476,2952,2656,1416,924,584
4476,2952,2656,1416,924,584
4480,2956,2660,1416,924,584
4480,2956,2660,1416,924,584
4476,2956,2660,1416,924,584
4480,2960,2660,1416,924,584
4480,2960,2660,1416,924,584
4480,2960,2664,1416,924,584
4476,2956,2660,1416,924,584
4480,2956,2660,1416,924,584
4476,2952,2656,1416,924,584
4472,2948,2652,1416,924,584
4472,2944,2652,1416,924,584
4472,2940,2648,1416,924,584
4468,2940,2648,1416,924,584
4468,2940,2648,1416,924,584
4468,2936,2644,1416,924,584
4468,2936,2644,1416,924,584
4468,2936,2644,1416,924,584
4468,2936,2644,1416,920,584
4464,2936,2644,1416,924,584
4468,2936,2644,1416,920,584
4464,2936,2644,1416,920,584
4468,2936,2644,1416,920,584
4468,2940,2648,1416,920,584
4472,2940,2648,1416,920,584
4472,2940,2648,1416,920,584
4472,2940,2652,1416,920,584
4472,2944,2652,1416,920,584
4472,2944,2652,1416,920,584
4472,2944,2652,1416,920,584
4472,2944,2652,1416,920,584
4472,2944,2652,1416,924,584
4472,2948,2652,1416,924,584
4476,2948,2656,1416,920,584
4476,2948,2656,1416,924,584
4476,2952,2656,1416,924,584
4476,2952,2656,1416,924,584
4476,2952,2656,1416,924,584
4472,2948,2656,1416,924,584
4468,2944,2652,1416,924,584
4468,2944,2648,1416,924,584
4464,2936,2644,1416,924,584
4468,2936,2644,1416,920,584
4464,2932,2644,1416,924,584
4464,2932,2640,1416,920,584
4460,2928,2640,1416,920,584
4460,2928,2636,1416,920,584
4464,2928,2640,1416,924,584
4464,2928,2640,1416,920,584
4464,2928,2640,1416,920,584
4460,2928,2640,1416,920,584
4460,2924,2636,1416,920,584
4460,2924,2636,1416,920,584
4460,2928,2640,1416,920,584
4460,2928,2640,1416,920,584
4460,2928,2640,1416,920,584
4464,2928,2640,1416,920,584
4464,2932,2640,1416,920,584
4468,2932,2644,1416,920,584
4468,2932,2644,1416,920,584
4468,2936,2644,1416,920,584
4468,2936,2648,1416,920,584
4468,2936,2648,1416,920,584
4468,2940,2648,1416,920,584
4472,2944,2652,1416,920,584
4472,2940,2648,1416,920,584
4472,2944,2652,1416,920,584
4476,2948,2652,1416,920,584
4472,2948,2652,1416,924,584
4476,2948,2652,1416,920,584
4472,2944,2652,1416,920,584
4468,2940,2648,1416,920,584
4464,2936,2644,1416,920,584
4464,2932,2644,1416,920,584
4464,2932,2640,1416,920,584
4464,2928,2640,1416,920,584
4460,2928,2640,1416,920,584
4460,2928,2636,1416,920,584
4460,2924,2636,1416,920,584
4460,2924,2640,1412,920,584
4464,2928,2640,1416,920,584
4464,2928,2640,1416,920,584
4460,2928,2640,1416,920,584
4468,2932,2640,1416,920,584
4464,2928,2640,1416,920,584
4464,2928,2640,1416,920,584
4460,2928,2640,1416,920,584
4464,2928,2640,1416,920,584
4464,2932,2640,1416,920,584
4468,2932,2644,1416,920,584
4468,2932,2644,1416,920,584
4468,2936,2644,1416,920,584
4472,2936,2648,1416,920,584
4472,2940,2648,1416,920,584
4472,2940,2648,1416,920,584
4472,2940,2652,1416,920,584
4472,2944,2652,1416,920,584
4472,2944,2652,1416,920,584
4476,2944,2652,1416,920,584
4476,2944,2652,1416,920,584
4472,2944,2652,1416,924,584
4472,2940,2648,1416,924,584
4468,2940,2648,1416,924,584
4468,2936,2648,1416,920,584
4464,2932,2644,1416,920,584
4464,2928,2640,1416,920,584
4464,2928,2640,1416,924,584
4464,2928,2640,1416,920,584
4460,2924,2636,1416,920,584
4464,2924,2640,1416,920,584
4464,2924,2640,1416,920,584
4464,2928,2640,1416,920,584
4460,2924,2636,1416,920,584
4460,2924,2636,1416,920,584
4464,2924,2640,1416,920,584
4464,2928,2640,1416,920,584
4464,2928,2640,1416,920,584
4464,2928,2640,1416,920,584
4464,2928,2640,1416,920,584
4468,2932,2644,1416,920,584
4468,2932,2644,1416,920,584
4468,2932,2644,1416,920,584
4468,2932,2644,1416,920,584
4468,2936,2644,1416,920,584
4472,2936,2648,1416,920,584
4472,2936,2648,1416,920,584
4472,2940,2648,1416,920,584
4476,2944,2652,1416,920,584
4476,2940,2652,1416,924,584
4476,2944,2652,1416,920,584
4476,2944,2652,1416,920,584
4476,2944,2652,1416,924,584
4476,2944,2652,1416,924,584
4476,2940,2648,1416,924,584
4468,2932,2644,1416,920,584
4468,2928,2640,1416,920,584
4468,2928,2640,1416,920,584
4464,2924,2636,1416,920,584
4464,2924,2636,1416,920,584
4464,2920,2636,1416,920,584
4464,2920,2636,1416,920,584
4464,2920,2636,1416,920,584
4464,2920,2636,1416,920,584
4464,2920,2636,1416,920,584
4464,2920,2636,1416,920,584
4464,2920,2636,1416,920,584
4464,2920,2636,1416,920,584
4464,2920,2636,1416,920,584
4460,2920,2632,1416,920,584
4460,2920,2636,1416,920,584
4464,2920,2636,1416,920,584
4464,2920,2636,1416,920,584
4464,2924,2636,1416,920,584
4464,2924,2636,1416,920,584
4468,2928,2640,1416,920,584
4464,2924,2640,1416,920,584
4468,2928,2640,1416,920,584
4468,2928,2640,1416,920,584
4468,2928,2644,1416,920,584
4472,2932,2644,1416,920,584
4472,2932,2644,1416,920,584
4472,2932,2644,1416,924,584
4468,2932,2644,1416,924,584
4468,2928,2640,1416,920,584
4464,2924,2640,1416,920,584
4460,2920,2636,1416,920,584
4456,2916,2632,1416,920,584
4456,2912,2628,1416,920,584
4456,2908,2628,1416,920,584
4452,2904,2624,1416,920,584
4452,2904,2624,1416,920,584
4452,2904,2624,1416,920,584
4452,2904,2624,1416,920,584
4456,2904,2624,1416,920,584
4456,2904,2624,1412,920,584
4456,2908,2628,1412,920,584
4460,2908,2628,1412,920,584
4452,2904,2624,1416,920,584
4452,2904,2624,1412,920,584
4456,2908,2628,1416,920,584
4456,2904,2624,1416,920,584
4456,2908,2628,1416,920,584
4456,2908,2628,1416,920,584
4456,2908,2628,1416,920,584
4460,2912,2628,1416,920,584
4460,2912,2632,1416,920,584
4460,2912,2632,1416,920,584
4460,2912,2632,1416,920,584
4460,2916,2632,1416,920,584
4460,2916,2632,1416,920,584
4464,2920,2636,1416,920,584
4464,2920,2636,1416,920,584
4460,2920,2632,1416,920,584
4464,2920,2636,1416,920,584
4464,2920,2636,1416,920,584
4464,2920,2636,1416,920,584
4460,2916,2632,1416,920,584
4456,2912,2628,1416,920,584
4456,2908,2628,1416,920,584
4452,2904,2624,1416,920,584
4456,2904,2624,1412,920,584
4452,2900,2624,1416,920,584
4452,2900,2620,1416,920,584
4452,2900,2620,1416,920,584
4452,2900,2620,1416,920,584
4452,2900,2620,1416,920,584
4452,2896,2620,1416,920,584
4452,2900,2620,1416,920,584
4452,2896,2620,1416,920,584
4452,2896,2620,1412,920,584
4452,2900,2620,1416,920,584
4456,2900,2624,1416,920,584
4456,2900,2624,1416,920,584
4456,2904,2624,1416,920,584
4456,2904,2624,1412,920,584
4460,2904,2628,1412,920,584
4460,2908,2628,1416,920,584
4460,2908,2628,1416,920,584
4460,2908,2628,1416,920,584
4460,2912,2628,1416,920,584
4464,2912,2632,1416,920,584
4460,2912,2628,1416,920,584
4464,2916,2632,1416,920,584
4464,2916,2636,1416,920,584
4464,2916,2636,1416,920,584
4464,2916,2632,1416,920,584
4460,2912,2632,1416,920,584
4460,2908,2628,1416,920,584
4460,2908,2628,1416,920,584
4456,2904,2624,1416,920,584
4452,2900,2620,1416,920,584
4452,2896,2620,1416,920,584
4452,2896,2620,1416,920,584
4452,2896,2620,1416,920,584
4452,2892,2616,1416,920,584
4452,2896,2620,1416,920,584
4452,2896,2620,1416,920,584
4452,2892,2616,1416,920,584
4452,2896,2620,1416,920,584
4456,2896,2620,1416,920,584
4456,2896,2620,1412,920,584
4456,2896,2620,1416,920,584
4452,2896,2620,1416,920,584
4452,2896,2620,1416,920,584
4452,2896,2620,1412,920,584
4456,2900,2620,1412,920,584
4456,2900,2624,1416,920,584
4460,2904,2624,1416,920,584
4460,2904,2628,1416,920,584
4460,2904,2628,1416,920,584
4460,2904,2628,1416,920,584
4460,2908,2628,1416,920,584
4460,2908,2628,1416,920,584
4460,2908,2628,1416,920,584
4464,2912,2628,1416,920,584
4460,2908,2628,1416,920,584
4460,2912,2628,1416,920,584
4460,2908,2628,1416,920,584
4456,2908,2628,1416,920,584
4456,2904,2624,1416,920,584
4452,2896,2620,1416,920,584
4452,2896,2616,1416,920,584
4448,2892,2616,1416,920,584
4452,2888,2616,1416,920,584
4448,2888,2612,1416,920,584
4448,2888,2612,1416,920,584
4448,2884,2612,1416,920,584
4448,2888,2612,1416,920,584
4452,2888,2612,1416,920,584
4448,2884,2612,1416,920,584
4448,2884,2612,1416,920,584
4448,2884,2612,1416,920,584
4448,2884,2612,1416,920,584
4448,2884,2612,1412,920,584
4452,2888,2612,1416,920,584
4452,2888,2616,1416,920,584
4448,2888,2612,1416,920,584
4452,2888,2616,1416,920,584
4452,2888,2616,1416,920,584
4452,2892,2616,1416,920,584
4456,2892,2616,1416,920,584
4456,2896,2620,1416,920,584
4456,2896,2620,1412,920,584
4456,2896,2620,1416,920,584
4456,2896,2620,1416,920,584
4456,2900,2620,1416,920,584
4456,2900,2620,1416,920,584
4456,2900,2624,1416,920,584
4456,2900,2620,1416,920,584
4456,2896,2620,1416,920,584
4452,2892,2616,1416,920,584
4452,2892,2616,1416,920,584
4448,2888,2612,1416,920,584
4448,2884,2612,1416,920,584
4444,2880,2608,1416,920,584
4444,2876,2604,1416,920,584
4440,2872,2604,1416,920,584
4440,2872,2600,1416,920,584
4444,2872,2604,1416,920,584
4440,2872,2604,1416,920,584
4440,2872,2604,1416,920,584
4440,2872,2604,1416,920,584
4440,2872,2604,1416,920,584
4440,2872,2600,1416,920,584
4440,2872,2604,1412,920,584
4440,2872,2604,1416,920,584
4444,2876,2604,1416,920,584
4440,2876,2604,1412,920,584
4444,2876,2604,1416,920,584
4444,2880,2608,1416,920,584
4444,2880,2608,1416,920,584
4448,2880,2612,1416,920,584
4452,2884,2612,1416,920,584
4448,2884,2612,1416,920,584
4448,2884,2612,1416,920,584
4448,2888,2612,1416,920,584
4448,2888,2612,1416,920,584
4452,2888,2616,1416,920,584
4452,2892,2616,1416,920,584
4452,2892,2616,1416,920,584
4448,2892,2616,1416,920,584
4452,2892,2616,1416,920,584
4452,2892,2616,1416,920,584
4448,2884,2612,1416,920,584
4444,2880,2608,1416,920,584
4444,2880,2608,1416,920,584
4444,2880,2608,1416,920,584
4444,2876,2604,1416,920,584
4440,2872,2600,1416,920,584
4440,2872,2600,1416,920,584
4440,2872,2600,1416,920,584
4440,2872,2600,1416,920,584
4440,2872,2600,1416,920,584
4440,2872,2604,1416,920,584
4444,2872,2604,1416,920,584
4440,2872,2604,1416,920,584
4440,2872,2604,1416,920,584
4444,2876,2604,1416,920,584
4444,2876,2604,1416,920,584
4444,2876,2604,1416,920,584
4444,2876,2604,1416,920,584
4448,2880,2608,1416,920,584
4448,2880,2608,1416,920,584
4448,2884,2612,1416,920,584
4448,2884,2612,1416,920,584
4448,2884,2612,1416,920,584
4448,2888,2612,1416,920,584
4448,2888,2612,1416,920,584
4452,2892,2616,1416,920,584
4452,2892,2616,1416,920,584
4452,2892,2616,1416,920,584
4452,2896,2616,1416,920,584
4452,2892,2616,1416,920,584
4452,2892,2616,1416,920,584
4452,2888,2616,1416,920,584
4448,2884,2612,1416,920,584
4444,2880,2608,1416,920,584
4444,2880,2604,1416,920,584
4444,2876,2604,1416,920,584
4444,2876,2604,1416,920,584
4444,2876,2604,1412,920,584
4440,2872,2604,1416,920,584
4444,2872,2604,1416,920,584
4440,2872,2604,1416,920,584
4440,2872,2604,1416,920,584
4440,2872,2604,1416,920,584
4440,2872,2604,1416,920,584
4444,2876,2604,1416,920,584
4444,2876,2604,1416,920,584
4444,2876,2604,1416,920,584
4448,2880,2608,1416,920,584
4448,2880,2608,1416,920,584
4448,2880,2608,1416,920,584
4448,2880,2608,1416,920,584
4448,2884,2612,1416,920,584
4448,2884,2612,1416,920,584
4448,2884,2612,1416,920,584
4448,2884,2612,1416,920,584
4448,2888,2612,1416,920,584
4452,2888,2612,1416,920,584
4452,2892,2616,1416,920,584
4452,2892,2616,1416,920,584
4456,2896,2616,1416,920,584
4456,2896,2620,1416,920,584
4456,2896,2620,1416,920,584
4448,2888,2612,1416,920,584
4448,2888,2612,1416,920,584
4448,2884,2608,1416,920,584
4444,2880,2608,1416,920,584
4440,2872,2604,1416,920,584
4444,2876,2604,1416,920,584
4440,2872,2604,1416,920,584
4440,2872,2600,1416,920,584
4440,2872,2600,1416,920,584
4440,2868,2600,1416,920,584
4436,2868,2596,1416,920,584
4440,2868,2600,1416,920,584
4440,2868,2600,1416,920,584
4440,2868,2600,1416,920,584
4440,2872,2600,1416,920,584
4440,2872,2600,1416,920,584
4440,2868,2600,1416,920,584
4440,2872,2600,1416,920,584
4440,2872,2600,1416,920,584
4440,2872,2604,1416,920,584
4444,2876,2604,1416,920,584
4444,2876,2604,1416,920,584
4448,2880,2608,1416,920,584
4448,2880,2608,1416,920,584
4448,2880,2608,1416,920,584
4448,2880,2608,1416,920,584
4452,2884,2612,1416,920,584
4448,2884,2612,1416,920,584
4452,2888,2612,1416,920,584
4448,2888,2612,1416,920,584
4452,2888,2612,1416,920,584
4452,2888,2612,1416,920,584
4448,2884,2608,1416,920,584
4448,2880,2608,1416,920,584
4440,2876,2604,1416,920,584
4440,2868,2600,1416,920,584
4440,2868,2600,1416,920,584
4440,2864,2596,1416,920,584
4436,2864,2596,1416,920,584
4436,2860,2596,1416,920,584
4436,2860,2596,1416,920,584
4436,2860,2596,1416,920,584
4436,2860,2596,1416,920,584
4436,2860,2592,1416,920,584
4436,2860,2592,1416,920,584
4436,2860,2592,1416,920,584
4436,2860,2596,1416,920,584
4436,2860,2596,1416,920,584
4436,2864,2596,1416,920,584
4436,2864,2596,1416,920,584
4436,2864,2596,1416,920,584
4440,2868,2600,1416,920,584
4440,2868,2600,1416,920,584
4440,2868,2600,1416,920,584
4440,2872,2600,1416,920,584
4444,2872,2604,1416,920,584
4444,2876,2604,1416,920,584
4444,2876,2604,1416,920,584
4448,2880,2608,1416,920,584
4444,2880,2608,1416,920,584
4448,2880,2608,1416,920,584
4448,2884,2608,1416,920,584
4448,2884,2608,1416,920,584
4448,2880,2608,1416,920,584
4444,2876,2604,1416,920,584
4444,2876,2604,1416,920,584
4440,2872,2600,1416,920,584
4440,2868,2600,1416,920,584
4440,2864,2596,1416,920,584
4440,2864,2596,1416,920,584
4436,2860,2596,1416,920,584
4432,2860,2592,1416,920,584
4432,2860,2592,1416,920,584
4432,2860,2592,1416,920,584
4432,2860,2592,1416,920,584
4432,2860,2592,1416,920,584
4436,2860,2592,1416,920,584
4436,2860,2596,1416,920,584
4440,2864,2596,1416,920,584
4440,2864,2596,1416,920,584
4436,2864,2596,1416,920,584
4436,2864,2596,1416,920,584
4436,2864,2596,1416,920,584
4444,2868,2600,1416,920,584
4440,2868,2600,1416,920,584
4444,2872,2604,1416,920,584
4444,2872,2604,1416,920,584
4444,2876,2604,1416,920,584
4444,2876,2604,1416,920,584
4444,2876,2608,1416,920,584
4444,2880,2608,1416,920,584
4448,2880,2608,1416,920,584
4448,2880,2608,1416,920,584
4448,2884,2608,1416,920,584
4448,2884,2608,1416,920,584
4448,2880,2608,1416,920,584
4444,2876,2604,1416,920,584
4444,2872,2604,1416,920,584
4440,2872,2600,1416,920,584
4440,2868,2600,1416,920,584
4436,2864,2596,1416,920,584
4436,2860,2596,1416,920,584
4436,2860,2596,1416,920,584
4436,2860,2592,1416,920,584
4436,2860,2592,1416,920,584
4436,2860,2596,1416,920,584
4440,2864,2596,1416,920,584
4436,2860,2596,1416,920,584
4440,2864,2596,1416,920,584
4440,2864,2596,1416,920,584
4436,2864,2596,1416,920,584
4440,2864,2596,1416,920,584
4436,2864,2596,1416,920,584
4440,2868,2600,1416,920,584
4440,2868,2600,1416,920,584
4440,2868,2600,1416,920,584
4444,2872,2604,1416,920,584
4444,2872,2604,1416,920,584
4444,2876,2604,1416,920,584
4444,2876,2604,1416,920,584
4448,2880,2608,1416,920,584
4448,2880,2608,1416,920,584
4448,2880,2608,1416,920,584
4448,2884,2608,1416,920,584
4448,2884,2608,1416,920,584
4448,2880,2608,1416,920,584
4444,2880,2604,1416,920,584
4444,2876,2604,1416,920,584
4440,2868,2600,1416,920,584
4432,2864,2592,1416,920,584
4432,2860,2592,1416,920,584
4428,2856,2588,1416,920,584
4432,2856,2592,1416,920,584
4428,2856,2588,1416,920,584
4432,2856,2588,1416,920,584
4432,2856,2588,1416,920,584
4432,2852,2588,1416,920,584
4432,2856,2588,1416,920,584
4432,2856,2592,1416,920,584
4432,2856,2592,1416,920,584
4436,2860,2592,1416,920,584
4436,2856,2592,1416,920,584
4436,2860,2592,1416,920,584
4436,2860,2592,1416,920,584
4436,2860,2592,1416,920,584
4436,2864,2596,1416,920,584
4436,2864,2596,1416,920,584
4436,2864,2596,1416,920,584
4440,2868,2600,1416,920,584
4440,2868,2600,1416,920,584
4440,2868,2600,1416,920,584
4444,2872,2604,1416,920,584
4444,2872,2604,1416,920,584
4444,2872,2604,1416,920,584
4444,2872,2604,1416,920,584
4444,2876,2604,1416,920,584
4444,2876,2604,1416,920,584
4440,2872,2600,1416,920,584
4440,2868,2600,1416,920,584
4436,2864,2596,1416,924,584
4436,2860,2592,1416,920,584
4432,2856,2588,1416,920,584
4428,2852,2588,1416,920,584
4428,2848,2584,1416,920,584
4432,2852,2588,1416,920,584
4428,2848,2584,1416,920,584
4432,2848,2588,1416,920,584
4432,2852,2588,1416,920,584
4432,2848,2584,1416,920,584
4432,2848,2588,1416,920,584
4432,2848,2588,1416,920,584
4432,2852,2588,1412,920,584
4432,2848,2588,1416,920,584
4428,2848,2584,1412,920,584
4432,2852,2588,1416,920,584
4428,2848,2584,1416,920,584
4432,2852,2588,1416,920,584
4432,2856,2588,1416,920,584
4436,2856,2592,1416,920,584
4436,2856,2592,1416,920,584
4436,2860,2592,1416,920,584
4440,2864,2596,1416,920,584
4436,2860,2592,1416,920,584
4436,2864,2596,1416,920,584
4436,2864,2596,1416,920,584
4440,2868,2596,1416,920,584
4440,2868,2600,1416,920,584
4440,2868,2600,1416,920,584
4440,2868,2600,1416,920,584
4440,2868,2600,1416,920,584
4436,2864,2596,1416,920,584
4436,2860,2592,1416,920,584
4436,2860,2592,1416,920,584
4432,2856,2588,1416,920,584
4432,2852,2588,1416,920,584
4428,2848,2584,1416,920,584
4428,2844,2584,1416,920,584
4432,2848,2584,1416,920,584
4432,2848,2584,1416,920,584
4432,2848,2584,1416,920,584
4432,2848,2584,1416,920,584
4432,2848,2588,1416,920,584
4432,2848,2584,1416,920,584
4428,2848,2584,1416,920,584
4432,2852,2588,1416,920,584
4432,2852,2588,1416,920,584
4436,2852,2588,1416,920,584
4432,2852,2588,1416,920,584
4436,2856,2592,1416,920,584
4436,2856,2592,1416,920,584
4440,2860,2592,1416,920,584
4436,2860,2592,1416,920,584
4436,2860,2596,1416,920,584
4440,2864,2596,1416,920,584
4440,2864,2596,1416,920,584
4440,2868,2600,1416,920,584
4440,2868,2600,1416,920,584
4444,2872,2600,1416,920,584
4444,2872,2604,1416,924,584
4444,2872,2600,1416,924,584
4440,2868,2600,1416,924,584
4440,2868,2600,1416,924,584
4436,2860,2592,1416,924,584
4436,2860,2592,1416,924,584
4432,2856,2588,1416,924,584
4432,2852,2588,1416,924,584
4432,2852,2588,1416,920,584
4432,2852,2588,1416,920,584
4432,2848,2584,1416,920,584
4432,2848,2588,1416,920,584
4432,2848,2588,1416,924,584
4432,2852,2588,1416,920,584
4432,2848,2584,1416,920,584
4432,2852,2588,1416,920,584
4432,2852,2588,1416,920,584
4436,2852,2588,1416,920,584
4436,2852,2588,1416,920,584
4432,2852,2588,1416,920,584
4436,2852,2592,1416,920,584
4436,2856,2588,1416,920,584
4436,2856,2592,1416,920,584
4436,2860,2592,1416,924,584
4440,2864,2596,1416,920,584
4440,2864,2596,1416,920,584
4440,2864,2596,1416,920,584
4444,2864,2596,1416,920,584
4444,2868,2600,1416,920,584
4440,2868,2600,1416,924,584
4444,2868,2600,1416,924,584
4444,2872,2600,1416,924,584
4444,2872,2600,1416,924,584
4440,2868,2600,1416,924,584
4440,2864,2596,1416,924,584
4436,2860,2592,1416,924,584
4432,2856,2588,1416,924,584
4432,2852,2588,1416,924,584
4436,2852,2588,1416,920,584
4432,2848,2584,1416,920,584
4428,2844,2584,1416,920,584
4428,2844,2580,1416,920,584
4428,2844,2580,1416,920,584
4428,2844,2580,1416,920,584
4424,2840,2580,1416,920,584
4424,2840,2580,1416,924,584
4424,2840,2580,1416,920,584
4424,2840,2580,1416,920,584
4424,2844,2580,1416,920,584
4424,2844,2580,1416,920,584
4428,2844,2584,1416,920,584
4428,2848,2584,1416,920,584
4428,2848,2584,1416,920,584
4428,2848,2584,1416,920,584
4432,2848,2588,1416,920,584
4432,2852,2588,1416,920,584
4432,2856,2588,1416,920,584
4436,2860,2592,1416,920,584
4436,2860,2592,1416,920,584
4436,2860,2592,1416,920,584
4440,2864,2596,1416,920,584
4440,2864,2596,1416,920,584
4440,2868,2596,1416,924,584
4440,2868,2600,1416,920,584
4440,2864,2596,1416,924,584
4436,2864,2596,1416,924,584
4432,2856,2592,1416,924,584
4432,2856,2588,1416,924,584
4428,2852,2584,1416,920,584
4432,2848,2584,1416,920,584
4428,2844,2580,1416,920,584
4424,2840,2580,1416,920,584
4428,2840,2580,1416,920,584
4424,2840,2576,1416,920,584
4424,2840,2576,1416,920,584
4424,2840,2580,1416,920,584
4424,2840,2580,1416,920,584
4424,2840,2576,1416,920,584
4424,2840,2580,1416,920,584
4428,2840,2580,1416,920,584
4428,2844,2580,1416,920,584
4428,2844,2580,1416,920,584
4428,2844,2580,1416,920,584
4428,2844,2584,1416,920,584
4432,2848,2584,1416,920,584
4432,2848,2588,1416,920,584
4432,2852,2588,1416,920,584
4432,2852,2588,1416,920,584
4432,2852,2588,1416,920,584
4436,2856,2592,1416,920,584
4436,2860,2592,1416,920,584
4436,2860,2592,1416,920,584
4440,2864,2596,1416,920,584
4440,2864,2596,1416,920,584
4444,2868,2600,1416,920,584
4444,2868,2600,1416,920,584
4444,2868,2600,1416,924,584
4436,2864,2596,1416,924,584
4436,2856,2592,1416,924,584
4432,2852,2588,1416,920,584
4428,2848,2584,1416,924,584
4428,2848,2584,1416,924,584
4424,2844,2580,1416,920,584
4428,2844,2580,1416,920,584
4428,2840,2580,1416,920,584
4428,2840,2580,1416,920,584
4432,2844,2584,1416,920,584
4428,2844,2580,1416,920,584
4428,2844,2580,1416,920,584
4428,2844,2580,1416,920,584
4428,2844,2580,1416,920,584
4428,2844,2580,1416,920,584
4432,2848,2584,1416,920,584
4432,2848,2584,1416,920,584
4432,2848,2584,1416,924,584
4436,2852,2588,1416,920,584
4436,2852,2588,1416,920,584
4436,2856,2592,1416,920,584
4436,2856,2588,1416,920,584
4440,2860,2592,1416,920,584
4436,2860,2592,1416,924,584
4440,2860,2596,1416,920,584
4440,2864,2596,1416,920,584
4440,2864,2596,1416,920,584
4440,2864,2596,1416,920,584
4440,2868,2596,1416,924,584
4444,2868,2600,1416,924,584
4444,2872,2600,1416,924,584
4440,2864,2596,1416,924,584
4436,2860,2592,1416,924,584
4432,2856,2588,1416,924,584
4432,2852,2588,1416,920,584
4432,2852,2588,1416,920,584
4432,2848,2584,1416,924,584
4428,2848,2584,1416,920,584
4428,2844,2580,1416,920,584
4428,2844,2584,1416,920,584
4428,2844,2580,1416,920,584
4428,2844,2580,1416,920,584
4428,2844,2580,1416,920,584
4428,2844,2584,1416,920,584
4432,2848,2584,1416,920,584
4432,2848,2584,1416,920,584
4432,2848,2584,1416,920,584
4432,2848,2584,1416,920,584
4432,2852,2588,1416,920,584
4436,2852,2588,1416,920,584
4436,2856,2588,1416,920,584
4436,2856,2592,1416,920,584
4440,2860,2592,1416,920,584
4440,2860,2592,1416,920,584
4440,2860,2596,1416,920,584
4440,2864,2596,1416,920,584
4440,2868,2596,1416,920,584
4444,2868,2600,1416,924,584
4444,2868,2600,1416,924,584
4444,2872,2600,1416,924,584
4444,2872,2600,1416,924,584
4448,2872,2604,1416,924,584
4444,2872,2600,1416,924,584
4440,2868,2596,1416,924,584
4440,2864,2596,1416,924,584
4436,2856,2592,1416,924,584
4432,2856,2588,1416,924,584
4432,2852,2584,1416,920,584
4428,2848,2584,1416,924,584
4432,2848,2584,1416,924,584
4432,2848,2584,1416,920,584
4432,2848,2584,1416,920,584
4428,2848,2584,1416,920,584
4432,2848,2584,1416,920,584
4428,2844,2584,1416,920,584
4432,2848,2584,1416,920,584
4432,2848,2588,1416,920,584
4432,2848,2584,1416,920,584
4432,2852,2588,1416,920,584
4436,2852,2588,1416,920,584
4436,2852,2588,1416,920,584
4436,2856,2592,1416,924,584
4436,2856,2588,1416,920,584
4436,2856,2592,1416,920,584
4436,2860,2592,1416,924,584
4440,2860,2596,1416,924,584
4440,2864,2596,1416,920,584
4440,2864,2596,1416,924,584
4444,2868,2600,1416,924,584
4444,2868,2600,1416,924,584
4444,2872,2600,1416,924,584
4444,2872,2600,1416,924,584
4444,2872,2600,1416,924,584
4444,2872,2600,1416,924,584
4440,2868,2596,1416,924,584
4440,2864,2596,1416,924,584
4432,2856,2592,1416,924,584
4436,2856,2588,1416,924,584
4432,2852,2584,1416,924,584
4432,2852,2588,1416,924,584
4432,2848,2584,1416,924,584
4428,2844,2584,1416,924,584
4428,2844,2580,1416,924,584
4432,2844,2584,1416,920,584
4428,2844,2580,1416,924,584
4428,2844,2584,1416,920,584
4428,2844,2580,1416,920,584
4432,2848,2584,1416,924,584
4432,2848,2584,1416,924,584
4428,2848,2584,1416,924,584
4432,2848,2584,1416,920,584
4432,2848,2584,1416,920,584
4432,2852,2588,1416,924,584
4432,2852,2588,1416,920,584
4436,2852,2588,1416,920,584
4436,2856,2588,1416,920,584
4436,2856,2592,1416,920,584
4440,2860,2592,1416,920,584
4436,2860,2592,1416,924,584
4440,2864,2592,1416,924,584
4436,2864,2596,1416,924,584
4440,2864,2596,1416,924,584
4440,2868,2596,1416,924,584
4440,2868,2600,1416,924,584
4440,2868,2596,1416,924,584
4440,2868,2596,1416,924,584
4440,2868,2596,1416,924,584
4436,2864,2596,1416,924,584
4432,2860,2592,1416,924,584
4432,2856,2588,1416,924,584
4432,2852,2588,1416,924,584
4428,2848,2584,1416,924,584
4428,2848,2584,1416,924,584
4424,2844,2580,1416,924,584
4428,2848,2584,1416,920,584
4428,2848,2584,1416,920,584
4432,2852,2584,1416,924,584
4436,2852,2588,1416,924,584
4432,2848,2584,1416,924,584
4432,2852,2584,1416,924,584
4436,2852,2588,1416,924,584
4436,2856,2588,1416,924,584
4436,2856,2588,1416,924,584
4440,2856,2592,1416,924,584
4436,2856,2592,1416,924,584
4440,2860,2592,1416,924,584
4440,2860,2596,1416,924,584
4440,2864,2596,1416,924,584
4440,2864,2596,1416,924,584
4440,2864,2596,1416,924,584
4444,2868,2600,1420,924,584
4448,2872,2600,1416,924,584
4444,2872,2600,1420,924,584
4444,2876,2604,1416,924,584
4448,2876,2604,1416,924,584
4444,2876,2604,1416,924,584
4448,2876,2604,1416,924,584
4448,2876,2604,1416,924,584
4440,2872,2600,1416,924,584
4440,2868,2596,1416,924,584
4440,2864,2596,1416,924,584
4436,2860,2592,1416,924,584
4440,2860,2592,1416,924,584
4436,2856,2592,1416,924,584
4436,2856,2588,1416,924,584
4436,2856,2592,1416,924,584
4436,2856,2588,1416,920,584
4436,2856,2592,1416,924,584
4440,2860,2592,1416,920,584
4440,2860,2592,1416,924,584
4440,2860,2592,1416,924,584
4440,2860,2592,1416,924,584
4440,2860,2596,1416,924,584
4440,2860,2592,1416,924,584
4440,2860,2592,1416,924,584
4440,2864,2596,1416,924,584
4444,2864,2596,1416,924,584
4440,2864,2596,1416,924,584
4444,2868,2600,1416,924,584
4444,2868,2600,1416,924,584
4448,2872,2604,1416,924,584
4444,2872,2600,1416,924,584
4448,2876,2604,1416,924,584
4452,2880,2608,1416,924,584
4448,2876,2604,1416,924,584
4452,2880,2608,1416,924,584
4448,2880,2608,1416,924,584
4448,2880,2604,1416,924,584
4448,2876,2604,1416,924,584
4444,2876,2604,1416,924,584
4444,2872,2600,1416,924,584
4440,2868,2596,1416,924,584
4436,2864,2592,1416,924,584
4436,2860,2592,1416,924,584
4436,2856,2592,1416,924,584
4436,2856,2588,1416,924,584
4436,2856,2588,1416,924,584
4436,2856,2592,1416,924,584
4436,2856,2592,1416,924,584
4440,2860,2592,1416,924,584
4440,2856,2592,1420,924,584
4436,2856,2592,1416,924,584
4432,2852,2588,1416,924,584
4436,2856,2588,1416,924,584
4436,2856,2592,1416,924,584
4440,2860,2592,1416,924,584
4440,2860,2592,1416,924,584
4440,2860,2592,1416,924,584
4436,2860,2592,1416,924,584
4440,2864,2596,1416,924,584
4444,2864,2596,1416,924,584
4444,2868,2600,1416,924,584
4444,2868,2600,1416,924,584
4444,2872,2600,1416,924,584
4448,2872,2604,1416,924,584
4448,2876,2604,1416,924,584
4444,2876,2604,1416,924,584
4448,2876,2604,1416,924,584
4448,2880,2604,1416,924,584
4448,2876,2604,1416,924,584
4444,2872,2600,1416,924,584
4444,2868,2600,1420,924,584
4440,2868,2596,1416,924,584
4436,2864,2592,1416,924,584
4440,2860,2592,1416,924,584
4436,2856,2588,1416,924,584
4436,2856,2588,1416,924,584
4436,2852,2588,1416,924,584
4432,2852,2588,1416,924,584
4436,2852,2588,1416,920,584
4436,2852,2588,1416,924,584
4436,2852,2588,1416,924,584
4436,2856,2588,1416,924,584
4432,2852,2588,1416,924,584
4436,2856,2588,1416,924,584
4436,2856,2588,1416,924,584
4436,2856,2588,1416,924,584
4436,2856,2588,1416,924,584
4440,2860,2592,1416,924,584
4436,2856,2592,1416,924,584
4440,2864,2596,1416,924,584
4444,2864,2596,1416,924,584
4444,2868,2596,1416,924,584
4444,2868,2600,1416,924,584
4444,2868,2600,1416,924,584
4448,2872,2600,1416,924,584
4448,2872,2600,1416,924,584
4444,2872,2600,1416,924,584
4448,2876,2604,1416,924,584
4448,2876,2604,1416,924,584
4448,2880,2604,1416,924,584
4448,2876,2604,1416,924,584
4444,2876,2604,1416,924,584
4444,2872,2600,1416,924,584
4444,2872,2600,1416,924,584
4444,2868,2596,1416,924,584
4440,2864,2596,1420,924,584
4440,2860,2592,1416,924,584
4436,2856,2592,1420,924,584
4436,2856,2588,1416,924,584
4436,2856,2592,1416,924,584
4436,2856,2592,1416,924,584
4436,2856,2592,1416,924,584
4440,2856,2592,1416,924,584
4436,2856,2592,1416,924,584
4436,2856,2592,1416,924,584
4440,2860,2592,1416,924,584
4440,2860,2592,1416,924,584
4440,2860,2592,1416,924,584
4440,2864,2596,1416,924,584
4444,2864,2596,1416,924,584
4440,2864,2596,1416,924,584
4444,2868,2600,1416,924,584
4444,2868,2600,1416,924,584
4444,2872,2600,1416,924,584
4448,2872,2600,1416,924,584
4444,2872,2600,1416,924,584
4448,2876,2604,1416,924,584
4448,2876,2604,1416,924,584
4452,2880,2608,1416,924,584
4452,2880,2608,1416,924,584
4452,2884,2608,1416,924,584
4452,2884,2608,1416,924,584
4452,2884,2608,1420,924,584
4448,2880,2604,1416,924,584
4448,2876,2604,1416,924,584
4448,2872,2600,1420,924,584
4444,2868,2596,1416,924,584
4444,2864,2596,1416,924,584
4440,2864,2596,1420,924,584
4440,2860,2596,1416,924,584
4440,2860,2592,1416,924,584
4440,2860,2592,1416,924,584
4436,2856,2592,1416,924,584
4440,2860,2592,1416,924,584
4440,2860,2592,1416,924,584
4440,2860,2592,1416,924,584
4440,2860,2592,1416,924,584
4440,2860,2592,1416,924,584
4440,2860,2592,1416,924,584
4440,2860,2592,1416,924,584
4440,2860,2592,1416,924,584
4444,2864,2596,1416,924,584
4444,2864,2596,1416,924,584
4440,2864,2596,1416,924,584
4440,2864,2596,1416,924,584
4444,2864,2596,1416,924,584
4444,2868,2600,1416,924,584
4440,2868,2596,1416,924,584
4440,2868,2596,1416,924,584
4444,2868,2600,1416,924,584
4444,2868,2600,1416,924,584
4444,2872,2600,1416,924,584
4444,2872,2600,1416,924,584
4444,2872,2600,1416,924,584
4440,2868,2596,1416,924,584
4440,2864,2596,1416,924,584
4440,2860,2592,1416,924,584
4436,2856,2588,1416,924,584
4436,2856,2592,1416,924,584
4436,2852,2588,1416,924,584
4436,2852,2588,1416,924,584
4436,2852,2588,1416,924,584
4432,2848,2584,1416,924,584
4432,2848,2584,1416,924,584
4436,2848,2584,1416,924,584
4432,2848,2584,1416,924,584
4432,2848,2584,1416,924,584
4432,2848,2584,1416,924,584
4436,2848,2584,1416,924,584
4436,2848,2584,1416,920,584
4436,2852,2588,1416,924,584
4440,2852,2588,1416,924,584
4436,2852,2588,1416,924,584
4440,2856,2588,1416,924,584
4440,2856,2592,1416,924,584
4440,2856,2592,1416,924,584
4444,2860,2596,1420,924,584
4440,2860,2592,1416,924,584
4440,2860,2592,1416,924,584
4440,2860,2596,1416,924,584
4444,2864,2596,1420,924,584
4440,2864,2596,1420,924,584
4440,2864,2596,1416,924,584
4444,2868,2596,1420,924,584
4444,2868,2596,1420,924,584
4440,2864,2596,1420,924,584
4440,2860,2592,1420,924,584
4436,2856,2592,1416,924,584
4436,2856,2588,1416,924,584
4436,2852,2588,1416,924,584
4432,2848,2584,1416,924,584
4432,2844,2584,1416,924,584
4432,2840,2580,1416,924,584
4432,2844,2584,1416,924,584
4428,2840,2580,1416,924,584
4432,2840,2580,1416,924,584
4432,2844,2584,1416,920,584
4432,2844,2584,1416,924,584
4432,2844,2584,1416,920,584
4432,2844,2584,1416,924,584
4432,2844,2580,1416,924,584
4432,2844,2584,1416,924,584
4436,2848,2584,1416,920,584
4436,2848,2584,1416,924,584
4440,2852,2588,1416,924,584
4440,2852,2588,1416,924,584
4440,2852,2588,1416,924,584
4440,2856,2592,1416,924,584
4440,2856,2592,1416,924,584
4440,2856,2592,1416,924,584
4440,2860,2592,1416,924,584
4440,2860,2592,1420,924,584
4444,2864,2596,1416,924,584
4448,2868,2600,1416,924,584
4448,2868,2600,1416,924,584
4444,2868,2600,1416,924,584
4440,2864,2596,1416,924,584
4440,2860,2592,1420,924,584
4440,2860,2592,1416,924,584
4436,2856,2588,1416,924,584
4436,2852,2588,1416,924,584
4436,2848,2584,1416,924,584
4436,2848,2588,1416,924,584
4436,2848,2584,1416,924,584
4432,2844,2584,1416,920,584
4432,2844,2584,1416,924,584
4432,2844,2584,1416,920,584
4432,2848,2584,1416,924,584
4432,2848,2584,1416,920,584
4436,2848,2584,1416,920,584
4432,2848,2584,1416,920,584
4436,2848,2584,1416,924,584
4436,2848,2584,1416,920,584
4436,2848,2588,1416,924,584
4436,2848,2584,1416,924,584
4436,2852,2588,1416,924,584
4440,2856,2588,1416,924,584
4440,2856,2592,1416,924,584
4440,2856,2592,1416,924,584
4440,2860,2592,1420,924,584
4440,2860,2592,1416,924,584
4440,2860,2596,1416,924,584
4444,2864,2596,1416,924,584
4444,2864,2596,1416,924,584
4444,2868,2596,1416,924,584
4448,2868,2600,1420,924,584
4448,2868,2600,1416,924,584
4444,2868,2600,1420,924,584
4444,2868,2596,1416,924,584
4444,2864,2596,1416,924,584
4440,2860,2592,1416,924,584
4440,2856,2592,1420,924,584
4436,2852,2588,1416,924,584
4436,2852,2588,1416,924,584
4432,2848,2584,1420,924,584
4436,2852,2588,1416,924,584
4436,2848,2584,1416,920,584
4432,2848,2584,1416,924,584
4436,2852,2588,1416,924,584
4432,2848,2584,1416,924,584
4432,2848,2584,1420,924,584
4436,2852,2588,1416,924,584
4436,2852,2588,1416,924,584
4436,2852,2588,1416,924,584
4436,2852,2588,1416,924,584
4436,2856,2588,1416,924,584
4440,2856,2592,1416,924,584
4440,2856,2592,1416,924,584
4440,2856,2592,1416,924,584
4440,2860,2592,1416,924,584
4440,2864,2596,1416,924,584
4444,2864,2596,1416,920,584
4448,2868,2600,1416,924,584
4444,2864,2596,1416,924,584
4444,2868,2596,1416,924,584
4444,2872,2600,1416,924,584
4448,2872,2604,1416,924,584
4444,2872,2600,1420,924,584
4444,2872,2600,1416,924,584
4444,2868,2600,1416,924,584
4444,2864,2596,1416,924,584
4440,2860,2592,1416,924,584
4436,2856,2592,1416,924,584
4436,2852,2588,1416,924,584
4432,2852,2588,1416,924,584
4436,2852,2588,1416,924,584
4432,2848,2584,1416,924,584
4432,2848,2584,1416,920,584
4432,2848,2584,1416,924,584
4432,2848,2584,1416,924,584
4432,2848,2584,1416,920,584
4432,2848,2584,1416,920,584
4432,2848,2584,1416,924,584
4432,2848,2584,1416,920,584
4436,2852,2588,1416,920,584
4436,2852,2588,1416,920,584
4436,2852,2588,1420,924,584
4440,2856,2592,1416,924,584
4440,2856,2592,1416,920,584
4440,2860,2592,1416,924,584
4440,2860,2592,1416,924,584
4440,2860,2592,1416,920,584
4444,2864,2596,1416,924,584
4444,2864,2596,1416,924,584
4444,2868,2596,1416,924,584
4444,2868,2600,1416,924,584
4448,2872,2600,1420,924,584
4444,2872,2600,1420,924,584
4444,2872,2600,1420,924,584
4444,2868,2600,1420,924,584
4440,2864,2596,1420,924,584
4440,2864,2592,1420,924,584
4436,2860,2592,1416,924,584
4436,2856,2588,1416,924,584
4436,2852,2588,1416,924,584
4432,2848,2584,1416,924,584
4432,2848,2584,1420,924,584
4432,2848,2584,1416,924,584
4432,2848,2580,1420,924,584
4432,2848,2584,1420,924,584
4428,2848,2584,1416,920,584
4432,2848,2584,1416,924,584
4428,2848,2584,1416,924,584
4432,2848,2584,1416,924,584
4432,2848,2584,1416,924,584
4432,2848,2584,1416,920,584
4432,2852,2584,1416,920,584
4436,2852,2588,1416,920,584
4436,2856,2588,1416,924,584
4436,2856,2588,1416,920,584
4436,2856,2592,1416,920,584
4436,2860,2592,1416,920,584
4436,2860,2592,1420,924,584
4436,2860,2592,1416,924,584
4440,2864,2592,1420,924,584
4440,2864,2596,1416,924,584
4440,2868,2596,1416,924,584
4440,2868,2600,1416,924,584
4444,2872,2600,1416,924,584
4444,2872,2600,1416,924,584
4440,2868,2600,1416,924,584
4440,2868,2596,1416,924,584
4436,2864,2596,1420,924,584
4436,2860,2592,1420,924,584
4436,2860,2592,1420,924,584
4436,2856,2588,1416,924,584
4432,2856,2588,1416,924,584
4432,2852,2584,1420,924,584
4428,2852,2584,1416,924,584
4432,2852,2588,1416,924,584
4432,2852,2584,1416,924,584
4428,2852,2584,1416,920,584
4432,2852,2588,1416,924,584
4432,2852,2588,1416,924,584
4432,2852,2588,1416,920,584
4432,2852,2588,1416,924,584
4432,2856,2588,1416,920,584
4432,2856,2588,1416,920,584
4432,2856,2588,1416,924,584
4436,2860,2592,1416,924,584
4436,2860,2592,1416,924,584
4444,2864,2596,1420,924,584
4444,2868,2600,1416,924,584
4444,2872,2600,1416,924,584
4448,2872,2604,1416,924,584
4448,2872,2600,1420,924,584
4448,2876,2604,1416,924,584
4448,2876,2604,1416,924,584
4448,2876,2604,1416,924,584
4448,2880,2604,1416,924,584
4448,2880,2604,1416,924,584
4448,2880,2604,1416,924,584
4448,2876,2604,1416,924,584
4444,2872,2600,1420,924,584
4444,2872,2600,1416,924,584
4444,2868,2596,1420,924,584
4440,2868,2596,1416,924,584
4440,2868,2596,1416,924,584
4440,2864,2596,1416,924,584
4440,2864,2596,1416,924,584
4440,2864,2596,1416,924,584
4440,2864,2592,1416,924,584
4436,2864,2592,1416,924,584
4436,2860,2592,1416,924,584
4436,2864,2592,1416,924,584
4436,2864,2592,1416,924,584
4436,2864,2596,1416,924,584
4440,2868,2596,1416,924,584
4440,2868,2596,1416,924,584
4440,2868,2596,1420,924,584
4440,2868,2596,1416,924,584
4440,2872,2600,1416,924,584
4444,2872,2600,1416,924,584
4440,2872,2600,1416,924,584
4444,2876,2600,1416,924,584
4444,2876,2600,1420,924,584
4444,2876,2604,1416,924,584
4444,2880,2604,1420,924,584
4448,2884,2608,1420,924,584
4448,2884,2608,1420,924,584
4448,2884,2608,1420,924,584
4448,2884,2608,1420,924,584
4448,2884,2608,1420,924,584
4444,2880,2604,1420,924,584
4444,2876,2600,1420,924,588
4444,2876,2600,1420,924,584
4440,2872,2596,1420,924,584
4440,2868,2596,1420,924,584
4436,2868,2596,1420,924,584
4440,2868,2596,1420,924,584
4436,2864,2596,1416,924,584
4440,2868,2596,1420,924,584
4436,2868,2596,1416,924,584
4440,2868,2596,1416,924,584
4436,2868,2596,1420,924,584
4436,2868,2592,1416,924,584
4436,2868,2596,1416,924,584
4436,2868,2596,1416,924,584
4440,2868,2596,1416,924,584
4440,2872,2596,1416,924,584
4440,2872,2600,1416,924,584
4440,2872,2600,1416,924,584
4444,2876,2600,1416,924,584
4444,2880,2604,1416,924,584
4448,2880,2604,1416,924,584
4444,2880,2604,1416,924,584
4444,2880,2604,1416,924,584
4444,2880,2604,1416,924,584
4444,2884,2604,1416,924,584
4444,2884,2608,1416,924,584
4448,2888,2608,1420,924,588
4444,2884,2608,1420,924,584
4448,2884,2608,1420,924,584
4444,2884,2604,1420,924,584
4444,2880,2604,1420,924,584
4440,2876,2600,1416,924,584
4440,2872,2600,1420,924,588
4440,2872,2596,1416,924,584
4436,2868,2596,1416,924,584
4436,2868,2596,1416,924,584
4436,2868,2596,1420,924,584
4440,2868,2596,1416,924,584
4440,2868,2596,1416,924,584
4436,2868,2596,1420,924,584
4436,2868,2596,1416,924,584
4436,2868,2596,1416,924,584
4440,2872,2596,1420,924,584
4436,2868,2596,1420,924,584
4440,2872,2596,1420,924,584
4440,2872,2600,1420,924,588
4440,2872,2600,1416,924,584
4440,2872,2600,1416,924,584
4444,2876,2600,1416,924,584
4444,2876,2604,1420,924,588
4444,2880,2604,1420,924,584
4444,2880,2604,1416,924,584
4444,2880,2604,1416,924,584
4444,2880,2604,1416,924,584
4448,2884,2608,1420,924,588
4448,2888,2608,1420,924,584
4448,2888,2612,1420,924,584
4448,2888,2612,1420,924,588
4448,2892,2612,1420,928,588
4448,2888,2608,1420,928,588
4444,2884,2608,1420,928,588
4444,2880,2604,1420,928,588
4440,2880,2600,1420,928,588
4440,2876,2600,1420,924,588
4436,2872,2596,1420,924,588
4436,2872,2596,1420,924,588
4436,2872,2596,1420,924,588
4436,2872,2596,1420,924,584
4436,2872,2596,1420,924,588
4436,2872,2596,1420,924,588
4432,2872,2596,1416,924,584
4436,2872,2596,1420,924,588
4436,2872,2596,1420,924,588
4436,2872,2596,1420,924,588
4436,2872,2596,1420,924,588
4436,2872,2596,1420,924,588
4436,2872,2600,1420,924,588
4440,2876,2600,1416,924,588
4436,2876,2600,1420,928,588
4440,2880,2600,1420,928,588
4440,2880,2600,1420,924,588
4440,2880,2604,1420,924,588
4440,2884,2604,1420,928,588
4440,2884,2604,1420,928,588
4444,2884,2604,1420,928,588
4444,2888,2608,1420,928,588
4444,2888,2608,1416,924,588
4444,2892,2608,1420,928,588
4444,2888,2608,1420,928,588
4440,2888,2608,1420,928,588
4440,2884,2604,1420,928,588
4440,2884,2604,1420,928,588
4436,2880,2600,1420,928,588
4436,2876,2600,1420,928,588
4436,2876,2600,1420,928,588
4436,2876,2600,1416,924,588
4436,2876,2600,1416,924,588
4436,2872,2596,1416,924,588
4436,2876,2600,1420,924,588
4436,2872,2596,1420,924,588
4436,2876,2600,1416,924,588
4436,2876,2600,1416,924,588
4436,2876,2600,1416,924,584
4436,2876,2600,1416,924,584
4440,2876,2600,1416,924,588
4440,2880,2600,1420,928,588
4436,2876,2600,1420,928,588
4436,2876,2600,1420,928,588
4440,2880,2604,1416,928,588
4440,2880,2604,1420,928,588
4440,2884,2604,1420,928,588
4444,2888,2608,1416,928,588
4444,2888,2608,1416,928,588
4444,2888,2608,1420,928,588
4448,2892,2612,1420,928,588
4448,2892,2612,1420,928,588
4448,2892,2612,1420,928,588
4448,2896,2612,1420,928,588
4444,2892,2612,1420,928,588
4444,2892,2608,1420,928,588
4440,2888,2608,1420,928,588
4440,2888,2604,1420,928,588
4436,2880,2604,1416,928,588
4436,2880,2600,1420,928,588
4432,2876,2600,1420,928,588
4432,2872,2596,1416,928,588
4432,2872,2596,1416,928,588
4436,2876,2596,1416,928,588
4436,2876,2600,1416,928,588
4432,2872,2596,1416,928,588
4432,2872,2596,1416,928,588
4432,2872,2596,1416,928,588
4432,2872,2596,1416,924,588
4432,2872,2596,1416,928,588
4436,2876,2600,1416,928,588
4436,2876,2600,1416,928,588
4440,2880,2604,1420,928,588
4436,2880,2600,1420,928,588
4436,2880,2600,1416,928,588
4440,2880,2604,1420,928,588
4440,2884,2604,1416,928,588
4440,2884,2604,1416,928,588
4440,2888,2604,1420,928,588
4440,2888,2608,1420,928,588
4440,2888,2608,1420,928,588
4440,2888,2608,1420,928,588
4440,2892,2608,1420,928,588
4444,2892,2608,1420,928,588
4444,2896,2612,1420,928,588
4444,2892,2612,1420,928,588
4444,2896,2612,1420,928,588
4440,2888,2604,1420,928,588
4440,2888,2604,1420,928,588
4436,2884,2600,1416,928,588
4432,2880,2600,1416,928,588
4436,2876,2600,1416,928,588
4436,2876,2600,1416,928,588
4432,2876,2596,1416,928,588
4432,2872,2596,1416,928,588
4428,2872,2596,1416,924,588
4432,2872,2596,1416,928,588
4432,2876,2596,1416,924,588
4432,2876,2596,1416,928,588
4432,2876,2596,1416,924,588
4428,2872,2596,1420,928,588
4432,2876,2596,1416,928,588
4432,2876,2600,1420,928,588
4432,2876,2600,1416,928,588
4436,2880,2600,1416,928,588
4436,2880,2600,1416,928,588
4436,2880,2600,1416,928,588
4436,2884,2604,1416,928,588
4440,2884,2604,1420,928,588
4440,2888,2608,1416,928,588
4440,2888,2608,1416,928,588
4440,2888,2608,1416,928,588
4440,2888,2608,1416,928,588
4440,2892,2608,1416,928,588
4444,2896,2612,1416,928,588
4444,2896,2612,1420,928,588
4444,2896,2612,1420,928,588
4440,2892,2612,1420,928,588
4440,2892,2608,1420,928,588
4440,2888,2604,1420,928,588
4436,2884,2604,1416,928,588
4432,2880,2600,1416,928,588
4432,2880,2600,1416,928,588
4432,2880,2600,1416,928,588
4432,2880,2600,1420,928,588
4432,2880,2600,1420,928,588
4432,2880,2600,1416,928,588
4432,2880,2600,1420,928,588
4436,2880,2600,1416,928,588
4432,2880,2600,1416,928,588
4432,2880,2600,1416,928,588
4432,2880,2600,1416,928,588
4432,2880,2600,1420,928,588
4436,2884,2604,1420,928,588
4436,2884,2604,1416,928,588
4436,2884,2604,1420,928,588
4436,2888,2604,1416,928,588
4436,2888,2604,1416,928,588
4440,2892,2608,1416,928,588
4436,2892,2608,1420,928,588
4440,2892,2608,1416,928,588
4440,2896,2612,1420,928,588
4440,2896,2612,1420,928,588
4444,2896,2612,1416,928,588
4444,2900,2612,1416,928,588
4444,2900,2616,1420,928,588
4444,2900,2612,1420,928,588
4444,2900,2612,1420,928,588
4444,2900,2612,1420,928,588
4436,2892,2608,1416,928,588
4440,2892,2608,1420,928,588
4436,2888,2604,1420,928,588
4436,2888,2608,1416,928,588
4432,2884,2604,1416,928,588
4432,2884,2604,1416,928,588
4432,2884,2604,1416,928,588
4432,2884,2604,1416,928,588
4432,2884,2604,1416,924,588
4432,2884,2604,1416,928,588
4432,2884,2604,1416,928,588
4436,2888,2604,1416,928,588
4436,2888,2604,1416,928,588
4436,2888,2604,1416,928,588
4436,2888,2604,1416,928,588
4436,2888,2608,1416,928,588
4432,2888,2604,1416,928,588
4436,2888,2608,1416,928,588
4436,2892,2608,1416,928,588
4436,2892,2608,1416,928,588
4440,2896,2612,1416,928,588
4440,2896,2612,1416,928,588
4440,2896,2612,1420,928,588
4440,2900,2612,1416,928,588
4440,2900,2612,1416,928,588
4444,2900,2616,1420,928,588
4444,2904,2616,1420,928,588
4444,2904,2616,1420,928,588
4444,2904,2616,1416,928,588
4444,2900,2616,1420,928,588
4440,2900,2612,1420,928,588
4436,2892,2608,1416,928,588
4436,2892,2608,1416,928,588
4432,2888,2604,1420,928,588
4436,2888,2604,1416,928,588
4432,2884,2600,1416,928,588
4428,2884,2600,1416,928,588
4432,2884,2600,1416,928,588
4432,2884,2600,1416,928,588
4432,2884,2604,1416,928,588
4432,2884,2604,1416,928,588
4432,2884,2604,1416,928,588
4436,2888,2604,1416,928,588
4432,2884,2604,1416,928,588
4432,2884,2604,1416,928,588
4432,2888,2604,1416,928,588
4440,2892,2608,1416,928,588
4436,2892,2608,1416,928,588
4440,2892,2612,1416,928,588
4440,2896,2612,1416,928,588
4440,2892,2608,1420,928,588
4436,2892,2608,1416,928,588
4440,2896,2612,1416,928,588
4440,2900,2612,1416,928,588
4440,2900,2612,1416,928,588
4444,2904,2616,1416,928,588
4444,2904,2616,1416,928,588
4444,2904,2620,1420,928,588
4444,2904,2616,1420,928,588
4440,2900,2612,1420,928,588
4440,2900,2612,1420,928,588
4440,2896,2612,1420,928,588
4440,2896,2612,1416,928,588
4436,2892,2608,1420,928,588
4432,2888,2604,1420,928,588
4432,2884,2604,1416,928,588
4432,2884,2600,1416,928,588
4432,2884,2600,1416,928,588
4432,2884,2600,1416,928,588
4432,2880,2600,1416,928,588
4432,2884,2600,1416,928,588
4432,2880,2600,1416,928,588
4432,2880,2600,1416,928,588
4428,2880,2600,1416,928,588
4432,2884,2600,1416,928,588
4432,2884,2604,1416,924,588
4432,2884,2604,1416,928,588
4432,2888,2604,1416,928,588
4436,2888,2604,1416,928,588
4432,2888,2604,1416,928,588
4436,2888,2608,1416,928,588
4436,2892,2608,1416,928,588
4436,2892,2608,1416,928,588
4440,2896,2612,1416,928,588
4436,2892,2608,1416,928,588
4440,2896,2612,1416,928,588
4440,2896,2612,1416,928,588
4440,2900,2612,1416,928,588
4444,2900,2616,1416,928,588
4440,2900,2612,1416,928,588
4436,2896,2612,1416,928,588
4440,2896,2612,1416,928,588
4436,2892,2608,1420,928,588
4436,2892,2608,1416,928,588
4436,2888,2604,1416,928,588
4432,2884,2604,1420,928,588
4432,2884,2604,1420,928,588
4432,2884,2604,1420,928,588
4432,2884,2600,1420,928,588
4432,2884,2600,1420,928,588
4432,2884,2604,1420,928,588
4436,2884,2604,1420,928,588
4432,2884,2600,1420,928,588
4432,2884,2604,1420,928,588
4432,2884,2600,1420,928,588
4436,2884,2604,1416,928,588
4436,2884,2604,1416,928,588
4436,2888,2604,1416,928,588
4436,2888,2604,1420,928,588
4432,2888,2604,1420,928,588
4436,2888,2604,1416,928,588
4436,2888,2608,1416,928,588
4432,2888,2604,1416,928,588
4436,2892,2608,1416,928,588
4436,2892,2608,1420,928,588
4436,2896,2608,1420,928,588
4436,2896,2612,1420,928,588
4436,2896,2612,1420,928,588
4440,2900,2612,1420,928,588
4440,2900,2612,1416,928,588
4436,2896,2612,1420,928,588
4436,2896,2612,1416,928,588
4436,2896,2612,1420,928,588
4432,2892,2604,1416,928,588
4432,2888,2604,1420,928,588
4428,2888,2604,1416,928,588
4432,2884,2604,1420,928,588
4432,2884,2604,1416,928,588
4432,2884,2604,1416,928,588
4428,2884,2600,1416,928,588
4428,2884,2600,1416,928,588
4428,2884,2600,1420,928,588
4432,2884,2604,1416,928,588
4432,2884,2604,1416,928,588
4432,2884,2604,1416,928,588
4432,2884,2604,1416,928,588
4432,2884,2604,1420,928,588
4432,2888,2604,1416,928,588
4432,2888,2604,1416,928,588
4432,2888,2604,1420,928,588
4432,2888,2608,1416,928,588
4432,2892,2604,1416,928,588
4436,2892,2608,1416,928,588
4436,2892,2608,1416,928,588
4436,2896,2608,1416,928,588
4436,2896,2612,1420,928,588
4440,2900,2612,1416,928,588
4440,2900,2612,1420,928,588
4444,2904,2616,1420,928,588
4440,2904,2616,1420,928,588
4444,2904,2620,1416,928,588
4440,2904,2616,1420,928,588
4436,2900,2612,1416,928,588
4436,2896,2612,1420,928,588
4436,2896,2608,1420,928,588
4436,2892,2608,1420,928,588
4436,2892,2608,1420,928,588
4432,2888,2604,1420,928,588
4432,2888,2604,1420,928,588
4432,2884,2604,1416,928,588
4432,2884,2604,1416,928,588
4428,2884,2600,1416,928,588
4432,2884,2604,1420,928,588
4432,2884,2604,1416,928,588
4432,2888,2604,1416,928,588
4432,2884,2604,1420,928,588
4432,2888,2604,1420,928,588
4432,2888,2604,1420,928,588
4432,2888,2604,1420,928,588
4432,2888,2604,1416,928,588
4436,2888,2608,1416,928,588
4432,2888,2608,1416,928,588
4436,2892,2608,1416,928,588
4436,2892,2608,1416,928,588
4436,2892,2608,1416,928,588
4436,2896,2612,1416,928,588
4440,2896,2612,1420,928,588
4440,2900,2612,1416,928,588
4440,2900,2612,1416,928,588
4440,2900,2612,1420,928,588
4440,2904,2616,1420,928,588
4440,2904,2616,1420,928,588
4440,2900,2616,1416,928,588
4440,2900,2612,1420,928,588
4436,2896,2612,1420,928,588
4436,2896,2608,1420,928,588
4436,2892,2608,1420,928,588
4432,2888,2604,1420,928,588
4428,2884,2604,1420,928,588
4428,2884,2600,1420,928,588
4428,2884,2600,1420,928,588
4428,2880,2600,1420,928,588
4428,2880,2600,1416,928,588
4428,2880,2600,1420,928,588
4428,2880,2600,1416,928,588
4432,2884,2600,1416,928,588
4428,2884,2600,1420,928,588
4432,2884,2600,1416,928,588
4428,2880,2600,1416,928,588
4428,2880,2600,1416,928,588
4428,2880,2600,1416,928,588
4428,2884,2604,1416,928,588
4424,2880,2600,1416,928,588
4432,2888,2604,1416,928,588
4428,2884,2604,1416,928,588
4432,2888,2604,1420,928,588
4432,2888,2604,1416,928,588
4436,2892,2608,1416,928,588
4436,2896,2608,1416,928,588
4440,2896,2612,1416,928,588
4436,2896,2612,1416,928,588
4436,2896,2612,1416,928,588
4440,2900,2616,1416,928,588
4436,2900,2612,1416,928,588
4436,2896,2612,1420,928,588
4436,2896,2612,1416,928,588
4432,2892,2608,1416,928,588
4432,2888,2608,1420,928,588
4428,2884,2604,1420,928,588
4428,2884,2600,1416,928,588
4420,2876,2596,1416,928,588
4424,2880,2596,1416,928,588
4424,2876,2596,1416,928,588
4424,2876,2596,1416,928,588
4424,2876,2596,1416,928,588
4424,2876,2596,1416,924,588
4420,2876,2596,1416,924,588
4424,2876,2596,1416,924,588
4424,2876,2596,1416,924,588
4424,2880,2596,1416,924,588
4424,2876,2596,1416,928,588
4424,2880,2596,1416,928,588
4424,2880,2596,1416,924,588
4428,2884,2600,1416,924,588
4428,2884,2600,1420,928,588
4428,2884,2604,1416,924,588
4428,2884,2604,1416,928,588
4432,2888,2604,1416,928,588
4432,2888,2604,1420,928,588
4432,2892,2608,1416,928,588
4432,2892,2608,1420,928,588
4436,2896,2612,1420,928,588
4432,2892,2608,1420,928,588
4436,2896,2608,1420,928,588
4432,2896,2608,1420,928,588
4432,2896,2608,1420,928,588
4432,2892,2608,1420,928,588
4428,2892,2604,1416,928,588
4428,2888,2604,1416,928,588
4424,2884,2600,1416,928,588
4424,2880,2600,1416,924,588
4424,2880,2600,1416,924,588
4424,2880,2600,1416,924,588
4424,2880,2596,1416,924,588
4424,2880,2600,1416,924,588
4424,2880,2596,1416,924,588
4424,2880,2600,1416,924,588
4424,2880,2596,1416,924,588
4424,2880,2600,1416,924,584
4428,2880,2600,1416,924,588
4424,2880,2600,1416,924,588
4428,2884,2600,1416,924,588
4424,2880,2600,1416,924,588
4424,2884,2600,1416,924,584
4428,2884,2600,1416,924,588
4428,2888,2604,1416,924,588
4428,2888,2604,1416,924,584
4428,2888,2604,1416,928,588
4432,2888,2604,1416,924,584
4432,2892,2608,1416,928,588
4432,2892,2608,1416,924,588
4432,2896,2608,1416,928,588
4432,2896,2608,1416,928,588
4432,2896,2608,1416,928,588
4432,2896,2608,1416,928,588
4428,2896,2608,1416,928,588
4432,2896,2608,1416,928,588
4428,2892,2608,1416,928,588
4432,2892,2608,1416,928,588
4424,2888,2600,1416,924,588
4428,2888,2604,1416,928,588
4428,2884,2604,1416,928,588
4424,2880,2600,1416,924,588
4424,2880,2596,1416,924,588
4424,2880,2600,1416,924,588
4424,2880,2600,1416,924,588
4424,2880,2600,1416,924,588
4424,2880,2600,1416,924,588
4424,2880,2600,1416,924,588
4428,2884,2600,1416,924,588
4428,2884,2600,1416,924,584
4424,2884,2600,1416,924,584
4424,2884,2600,1416,924,584
4428,2884,2600,1416,924,584
4424,2884,2600,1416,924,584
4428,2888,2604,1416,924,584
4428,2888,2604,1416,924,588
