7192,7512,7376,1384,900,588
7188,7504,7372,1384,900,588
7192,7508,7376,1384,900,588
7188,7508,7376,1384,900,588
7188,7508,7376,1384,900,588
7188,7504,7372,1384,900,588
7184,7504,7372,1384,900,588
7184,7504,7372,1384,900,588
7188,7508,7372,1384,900,588
7188,7508,7376,1384,900,588
7192,7516,7376,1384,900,588
7192,7520,7384,1384,900,588
7196,7520,7384,1384,900,588
7192,7520,7384,1384,900,588
7196,7528,7388,1384,900,588
7200,7536,7392,1384,900,588
7200,7540,7396,1384,900,588
7200,7540,7396,1384,900,588
7196,7536,7392,1384,900,588
7200,7544,7400,1384,900,588
7204,7552,7404,1384,900,588
7208,7556,7408,1384,900,588
7208,7560,7408,1384,900,588
7208,7564,7412,1384,904,588
7216,7576,7420,1384,904,588
7212,7576,7420,1384,904,588
7212,7580,7424,1384,904,588
7216,7584,7424,1384,904,588
7220,7584,7424,1384,904,588
7220,7576,7420,1384,904,588
7212,7564,7412,1384,904,588
7208,7556,7408,1384,904,588
7204,7544,7400,1384,904,588
7204,7536,7396,1384,900,588
7200,7528,7388,1384,900,588
7200,7524,7388,1384,904,588
7200,7520,7384,1384,900,588
7200,7520,7384,1384,904,588
7200,7516,7384,1384,900,588
7196,7512,7380,1384,900,588
7204,7516,7384,1384,900,588
7200,7516,7380,1384,900,588
7204,7516,7384,1384,900,588
7208,7524,7388,1384,900,588
7208,7520,7388,1384,900,588
7208,7524,7388,1384,900,588
7212,7528,7396,1384,900,588
7208,7528,7392,1384,904,588
7212,7532,7396,1384,900,588
7220,7540,7400,1384,900,588
7212,7536,7400,1384,900,588
7220,7544,7404,1384,900,588
7220,7548,7408,1384,900,588
7220,7552,7408,1384,904,588
7220,7556,7412,1384,900,588
7220,7560,7412,1384,900,588
7224,7564,7416,1384,900,588
7224,7568,7420,1384,900,588
7232,7580,7428,1384,904,588
7228,7576,7424,1384,904,588
7232,7580,7428,1384,904,588
7232,7588,7432,1384,904,588
7236,7592,7436,1384,904,588
7232,7596,7436,1384,904,588
7236,7604,7440,1384,904,588
7232,7600,7440,1384,904,588
7232,7600,7436,1384,904,588
7232,7596,7436,1384,904,588
7228,7584,7424,1384,904,588
7220,7568,7416,1384,904,588
7216,7560,7412,1384,904,588
7216,7552,7408,1384,904,588
7216,7544,7404,1384,904,588
7212,7540,7400,1384,904,588
7212,7536,7396,1384,904,588
7208,7528,7392,1384,904,588
7208,7528,7392,1384,904,588
7208,7528,7392,1384,904,588
7204,7524,7388,1384,904,588
7204,7520,7384,1384,900,588
7204,7520,7388,1384,900,588
7200,7516,7384,1384,904,588
7204,7520,7388,1384,904,588
7196,7516,7380,1384,904,588
7200,7520,7384,1384,900,588
7196,7520,7384,1384,900,588
7200,7528,7388,1384,900,588
7204,7528,7392,1384,904,588
7204,7532,7392,1384,900,588
7200,7532,7392,1384,904,588
7208,7540,7396,1384,904,588
7208,7544,7400,1384,904,588
7204,7544,7400,1384,904,588
7200,7540,7392,1384,904,588
7200,7544,7400,1384,904,588
7200,7548,7400,1384,900,588
7200,7548,7400,1384,904,588
7200,7556,7404,1384,904,588
7204,7560,7408,1384,904,588
7204,7564,7408,1384,904,588
7208,7568,7412,1384,904,588
7204,7572,7412,1384,904,588
7212,7580,7420,1384,904,588
7212,7580,7424,1384,904,588
7212,7580,7420,1384,904,588
7208,7576,7420,1384,904,588
7208,7568,7412,1384,904,588
7200,7556,7404,1384,904,588
7192,7540,7392,1384,904,588
7192,7532,7388,1384,904,588
7184,7520,7376,1384,904,588
7180,7512,7372,1384,904,588
7180,7504,7368,1384,900,588
7180,7504,7368,1384,904,588
7176,7500,7364,1384,900,588
7184,7504,7368,1384,900,588
7176,7496,7364,1384,900,588
7176,7496,7364,1384,900,588
7172,7492,7356,1384,904,588
7172,7492,7360,1384,900,588
7172,7492,7356,1384,900,588
7172,7492,7360,1384,900,588
7176,7496,7364,1384,900,588
7180,7504,7368,1384,900,588
7176,7500,7368,1384,900,588
7176,7504,7368,1384,900,588
7176,7508,7368,1384,900,588
7176,7508,7372,1384,900,588
7180,7516,7372,1384,900,588
7184,7516,7376,1384,904,588
7180,7520,7380,1384,900,588
7184,7524,7380,1384,900,588
7184,7528,7380,1384,904,588
7184,7528,7384,1384,904,588
7184,7532,7388,1384,904,588
7184,7536,7388,1384,904,588
7188,7540,7392,1384,904,588
7192,7548,7396,1384,904,588
7200,7560,7408,1384,904,588
7200,7560,7404,1384,904,588
7204,7568,7412,1384,904,588
7200,7568,7412,1384,904,588
7204,7572,7412,1384,904,588
7208,7572,7416,1384,904,588
7204,7564,7412,1384,904,588
7200,7552,7400,1384,904,588
7196,7544,7396,1384,904,588
7192,7532,7388,1384,904,588
7192,7528,7384,1384,904,588
7188,7516,7376,1384,904,588
7188,7516,7376,1384,900,588
7188,7512,7376,1384,904,588
7188,7512,7376,1384,904,588
7188,7508,7376,1384,900,588
7188,7508,7372,1384,900,588
7192,7508,7376,1384,900,588
7188,7504,7372,1384,904,588
7196,7512,7380,1384,904,588
7200,7516,7380,1384,900,588
7196,7512,7380,1384,900,588
7196,7516,7380,1384,900,588
7192,7516,7380,1384,904,588
7196,7520,7384,1384,900,588
7200,7524,7384,1384,904,588
7204,7532,7392,1384,904,588
7204,7532,7392,1384,904,588
7208,7540,7400,1384,904,588
7204,7536,7392,1384,904,588
7208,7544,7400,1384,904,588
7216,7552,7408,1384,904,588
7216,7556,7408,1384,904,588
7216,7556,7412,1384,904,588
7220,7564,7412,1384,904,588
7220,7568,7420,1384,904,588
7220,7576,7420,1384,904,588
7220,7580,7424,1384,904,588
7220,7576,7420,1384,904,588
7228,7588,7428,1384,904,588
7228,7592,7432,1384,904,588
7232,7600,7440,1384,904,588
7232,7600,7440,1384,904,588
7232,7596,7436,1384,904,588
7232,7592,7436,1384,904,588
7228,7580,7424,1384,904,588
7220,7568,7416,1384,904,588
7220,7560,7412,1384,904,588
7212,7552,7404,1384,904,588
7208,7540,7396,1384,904,588
7204,7532,7388,1384,904,588
7204,7524,7384,1384,904,588
7200,7520,7384,1384,904,588
7204,7520,7384,1384,900,588
7204,7524,7388,1384,904,588
7208,7524,7388,1384,904,588
7208,7524,7392,1384,904,588
7200,7520,7384,1384,904,588
7196,7516,7380,1384,904,588
7204,7524,7388,1384,904,588
7204,7524,7388,1384,900,588
7200,7524,7384,1384,904,588
7200,7524,7384,1384,904,588
7200,7524,7384,1384,904,588
7200,7524,7388,1384,904,588
7200,7528,7392,1384,904,588
7200,7532,7388,1384,904,588
7200,7536,7392,1384,904,588
7200,7540,7396,1384,904,588
7200,7540,7396,1384,904,588
7200,7544,7396,1384,904,588
7200,7544,7396,1384,904,588
7204,7552,7400,1384,904,588
7204,7552,7404,1384,904,588
7204,7556,7404,1384,904,588
7204,7560,7404,1384,904,588
7204,7564,7408,1384,904,588
7204,7564,7412,1384,904,588
7204,7568,7408,1384,904,588
7208,7576,7416,1384,904,588
7208,7580,7420,1388,904,588
7208,7576,7416,1384,904,588
7204,7568,7408,1384,904,588
7200,7560,7404,1384,904,588
7196,7544,7396,1384,904,588
7192,7532,7384,1384,904,588
7184,7520,7376,1384,904,588
7184,7516,7376,1384,904,588
7180,7508,7372,1384,904,588
7172,7492,7360,1384,904,588
7172,7492,7356,1388,904,588
7172,7488,7356,1384,904,588
7168,7484,7352,1384,904,588
7172,7484,7352,1384,904,588
7172,7488,7360,1384,904,588
7176,7488,7360,1384,904,588
7176,7488,7356,1384,904,588
7172,7488,7356,1384,904,588
7168,7484,7352,1384,904,588
7172,7488,7356,1384,904,588
7172,7492,7360,1384,904,588
7168,7488,7356,1384,904,588
7164,7488,7352,1384,904,588
7168,7492,7356,1384,904,588
7168,7492,7356,1384,904,588
7172,7500,7364,1384,904,588
7172,7504,7364,1384,904,588
7176,7508,7372,1384,904,588
7172,7508,7368,1384,904,588
7176,7516,7376,1384,904,588
7176,7516,7372,1384,904,588
7180,7524,7380,1384,904,588
7184,7532,7384,1384,904,588
7188,7540,7388,1384,904,588
7188,7540,7388,1384,904,588
7196,7552,7400,1384,904,588
7192,7548,7396,1384,904,588
7192,7552,7400,1384,904,588
7192,7556,7400,1384,904,588
7192,7556,7404,1384,904,588
7196,7556,7400,1384,904,588
7192,7544,7396,1384,904,588
7192,7536,7388,1384,904,588
7184,7524,7380,1384,904,588
7176,7512,7368,1384,904,588
7176,7504,7368,1384,904,588
7176,7500,7364,1384,904,588
7172,7488,7356,1384,904,588
7172,7488,7356,1384,904,588
7172,7488,7356,1384,904,588
7172,7484,7356,1384,904,588
7176,7484,7356,1384,904,588
7172,7484,7352,1384,900,588
7176,7484,7356,1384,904,588
7172,7484,7352,1384,904,588
7184,7492,7364,1384,904,588
7184,7492,7364,1384,904,588
7180,7492,7364,1384,904,588
7188,7500,7368,1388,904,588
7188,7500,7368,1388,904,588
7188,7504,7372,1384,904,588
7192,7512,7376,1388,904,588
7192,7512,7376,1384,904,588
7192,7516,7376,1384,904,588
7192,7516,7380,1388,904,588
7196,7520,7384,1388,904,588
7204,7532,7392,1388,904,588
7200,7532,7388,1388,904,588
7204,7540,7396,1388,904,588
7204,7540,7396,1384,904,588
7208,7548,7400,1388,904,588
7212,7552,7404,1388,904,588
7208,7552,7404,1388,904,588
7208,7552,7404,1384,904,588
7212,7564,7412,1388,904,588
7212,7568,7412,1384,904,588
7212,7572,7416,1388,904,588
7216,7576,7416,1384,904,588
7216,7572,7416,1388,904,588
7216,7564,7412,1384,904,588
7208,7552,7404,1384,904,588
7208,7540,7396,1384,904,588
7200,7532,7388,1384,904,588
7200,7524,7384,1384,904,588
7196,7516,7376,1384,904,588
7192,7508,7372,1384,904,588
7196,7508,7372,1384,904,588
7188,7500,7368,1384,904,588
7188,7500,7368,1384,904,588
7192,7500,7368,1384,904,588
7192,7500,7368,1384,904,588
7192,7500,7368,1384,904,588
7192,7500,7368,1384,904,588
7184,7492,7360,1384,904,588
7188,7496,7364,1384,904,588
7188,7500,7368,1384,904,588
7188,7500,7368,1384,904,588
7188,7504,7368,1384,904,588
7192,7508,7372,1384,904,588
7192,7512,7372,1384,904,588
7188,7512,7372,1384,904,588
7192,7516,7376,1384,904,588
7192,7520,7380,1384,904,588
7192,7520,7380,1384,904,588
7192,7520,7380,1384,904,588
7192,7528,7384,1384,904,588
7200,7536,7392,1384,904,588
7196,7536,7392,1384,904,588
7200,7540,7392,1384,904,588
7200,7544,7396,1384,904,588
7200,7548,7396,1384,904,588
7200,7548,7400,1384,904,588
7196,7556,7400,1384,904,588
7200,7560,7404,1384,904,588
7200,7564,7408,1384,904,588
7204,7568,7408,1384,904,588
7208,7572,7412,1384,904,588
7204,7560,7404,1388,904,588
7200,7552,7400,1384,904,588
7192,7540,7392,1384,904,588
7180,7520,7376,1384,904,588
7180,7512,7372,1384,904,588
7176,7500,7364,1384,904,588
7176,7496,7360,1384,904,588
7172,7484,7352,1384,904,588
7172,7480,7352,1384,904,588
7168,7476,7348,1384,904,588
7168,7476,7348,1384,904,588
7168,7476,7348,1384,904,588
7168,7472,7344,1384,904,588
7164,7468,7344,1384,904,588
7164,7468,7344,1384,904,588
7164,7472,7344,1384,904,588
7164,7472,7344,1384,904,588
7164,7472,7344,1384,904,588
7160,7472,7340,1384,904,588
7164,7476,7344,1384,904,588
7164,7476,7344,1384,904,588
7168,7480,7352,1384,904,588
7172,7488,7352,1384,904,588
7172,7492,7360,1384,904,588
7176,7496,7360,1384,904,588
7172,7496,7360,1384,904,588
7172,7500,7364,1384,904,588
7176,7504,7368,1384,904,588
7172,7504,7364,1384,904,588
7176,7508,7368,1384,904,588
7180,7516,7372,1384,904,588
7176,7516,7372,1384,904,588
7176,7520,7372,1384,904,588
7176,7520,7376,1384,904,588
7176,7524,7376,1384,904,588
7180,7532,7384,1384,904,588
7184,7544,7392,1384,904,588
7180,7540,7388,1384,904,588
7184,7540,7388,1384,904,588
7184,7536,7384,1384,904,588
7180,7520,7376,1384,904,588
7172,7508,7368,1384,904,588
7168,7496,7356,1384,904,588
7164,7488,7352,1384,904,588
7164,7480,7348,1384,904,588
7156,7468,7340,1384,904,588
7152,7460,7332,1384,904,588
7160,7464,7340,1384,904,588
7156,7460,7336,1384,904,588
7156,7460,7336,1384,904,588
7160,7460,7336,1384,904,588
7160,7464,7336,1384,900,588
7164,7464,7340,1384,904,588
7168,7468,7344,1384,904,588
7164,7464,7340,1384,904,588
7164,7468,7344,1384,904,588
7168,7476,7348,1384,904,588
7168,7472,7344,1384,904,588
7168,7476,7348,1384,904,588
7172,7480,7352,1384,904,588
7172,7484,7352,1384,904,588
7172,7484,7352,1384,904,588
7176,7492,7360,1384,904,588
7180,7496,7364,1384,904,588
7180,7500,7364,1384,904,588
7184,7508,7372,1384,904,588
7188,7512,7376,1384,904,588
7188,7516,7376,1384,904,588
7188,7520,7380,1384,904,588
7188,7524,7384,1384,904,588
7192,7528,7384,1384,904,588
7188,7528,7384,1384,904,588
7196,7540,7388,1384,904,588
7200,7544,7396,1384,904,588
7204,7552,7400,1384,904,588
7208,7552,7404,1384,904,588
7208,7552,7400,1384,904,588
7204,7540,7392,1384,904,588
7200,7532,7388,1384,904,588
7196,7520,7380,1384,904,588
7188,7508,7368,1384,904,588
7180,7496,7360,1384,904,588
7180,7488,7356,1388,904,588
7180,7484,7356,1384,904,588
7176,7480,7352,1388,904,588
7184,7484,7360,1384,904,588
7184,7488,7360,1384,904,588
7180,7480,7352,1384,904,588
7180,7480,7352,1384,904,588
7184,7484,7356,1384,904,588
7180,7480,7352,1384,904,588
7184,7484,7356,1384,904,588
7180,7480,7352,1384,904,588
7184,7484,7356,1384,904,588
7184,7484,7356,1384,904,588
7180,7484,7356,1384,904,588
7188,7496,7364,1384,904,588
7184,7492,7360,1384,904,588
7184,7496,7364,1384,904,588
7188,7500,7368,1384,904,588
7188,7504,7368,1384,904,588
7188,7508,7368,1384,904,588
7188,7512,7372,1384,904,588
7192,7516,7372,1384,904,588
7188,7516,7372,1384,904,588
7188,7520,7376,1384,904,588
7188,7520,7380,1384,904,588
7192,7528,7384,1384,904,588
7196,7536,7388,1384,904,588
7192,7536,7388,1384,904,588
7196,7540,7388,1384,904,588
7196,7548,7396,1384,904,588
7196,7548,7396,1384,904,588
7196,7548,7396,1384,904,588
7196,7548,7396,1384,904,588
7192,7540,7388,1384,904,588
7188,7524,7380,1384,904,588
7184,7516,7372,1384,904,588
7180,7504,7364,1384,904,588
7176,7496,7356,1384,904,588
7172,7484,7348,1384,904,588
7168,7472,7344,1384,904,588
7164,7464,7336,1384,904,588
7168,7468,7340,1384,904,588
7164,7460,7336,1384,904,588
7164,7460,7336,1384,904,588
7164,7460,7336,1384,904,588
7160,7456,7332,1384,904,588
7160,7456,7332,1384,904,588
7160,7456,7332,1384,904,588
7160,7460,7332,1384,904,588
7164,7464,7340,1384,904,588
7168,7468,7340,1384,904,588
7164,7464,7340,1384,904,588
7164,7468,7340,1384,904,588
7164,7468,7340,1384,904,588
7160,7464,7340,1384,904,588
7164,7472,7340,1384,904,588
7164,7472,7344,1384,904,588
7164,7476,7344,1384,904,588
7164,7476,7344,1384,904,588
7164,7480,7348,1384,904,588
7168,7488,7352,1384,904,588
7168,7492,7356,1384,904,588
7172,7496,7360,1384,904,588
7172,7500,7356,1384,904,588
7172,7500,7364,1384,904,588
7168,7500,7360,1384,904,588
7168,7504,7360,1384,904,588
7176,7512,7372,1384,904,588
7176,7520,7372,1384,904,588
7172,7516,7368,1384,904,588
7176,7516,7372,1384,904,588
7176,7512,7372,1384,904,588
7172,7508,7364,1384,904,588
7168,7496,7356,1384,904,588
7156,7476,7340,1384,904,588
7156,7468,7336,1384,904,588
7152,7460,7332,1384,904,588
7148,7448,7324,1384,904,588
7148,7444,7320,1384,904,588
7144,7436,7316,1384,904,588
7140,7432,7312,1384,900,588
7140,7432,7312,1384,904,588
7140,7428,7312,1384,904,588
7144,7432,7312,1384,904,588
7144,7432,7312,1384,904,588
7140,7428,7312,1384,904,588
7144,7428,7312,1384,904,588
7144,7432,7316,1384,904,588
7144,7432,7316,1384,904,588
7148,7436,7320,1384,904,588
7148,7440,7320,1384,904,588
7148,7444,7320,1384,904,588
7152,7444,7324,1384,904,588
7148,7448,7324,1384,904,588
7152,7452,7324,1384,904,588
7152,7452,7328,1384,904,588
7160,7460,7336,1384,904,588
7156,7460,7332,1384,904,588
7160,7468,7340,1384,904,588
7160,7472,7340,1384,904,588
7164,7476,7344,1384,904,588
7164,7480,7348,1384,904,588
7168,7484,7352,1384,904,588
7168,7488,7352,1384,904,588
7172,7492,7356,1384,904,588
7176,7500,7360,1384,904,588
7176,7504,7364,1384,904,588
7176,7508,7364,1384,904,588
7180,7508,7364,1384,904,588
7180,7500,7364,1384,904,588
7176,7492,7356,1384,904,588
7172,7484,7352,1384,904,588
7172,7476,7344,1384,904,588
7172,7472,7344,1384,904,588
7164,7456,7332,1384,904,588
7160,7448,7324,1384,904,588
7156,7444,7320,1384,904,588
7156,7440,7320,1384,904,588
7156,7440,7320,1384,904,588
7160,7440,7320,1384,904,588
7160,7436,7320,1384,904,588
7160,7440,7320,1384,904,588
7160,7440,7320,1384,904,588
7160,7440,7324,1384,904,588
7168,7448,7328,1384,904,588
7168,7448,7332,1384,904,588
7168,7448,7332,1384,904,588
7172,7456,7336,1384,904,588
7172,7456,7336,1384,904,588
7176,7464,7344,1384,904,588
7176,7464,7344,1384,904,588
7180,7472,7348,1384,904,588
7180,7472,7348,1384,904,588
7180,7480,7352,1384,904,588
7184,7480,7356,1384,904,588
7184,7488,7360,1384,904,588
7188,7492,7360,1384,904,588
7188,7492,7360,1384,904,588
7192,7504,7368,1384,904,588
7188,7500,7364,1384,904,588
7192,7508,7372,1384,904,588
7188,7508,7372,1384,904,588
7196,7516,7376,1384,904,588
7196,7520,7380,1384,904,588
7196,7524,7380,1384,904,588
7200,7532,7384,1388,904,588
7196,7528,7384,1388,904,588
7196,7524,7380,1388,904,588
7192,7512,7372,1384,904,588
7184,7496,7360,1384,904,588
7188,7492,7360,1384,904,588
7180,7480,7352,1384,904,588
7180,7472,7344,1384,904,588
7172,7460,7336,1384,904,588
7172,7456,7336,1384,904,588
7168,7448,7332,1384,904,588
7168,7448,7328,1384,904,588
7168,7444,7328,1384,904,588
7168,7444,7328,1384,904,588
7168,7444,7328,1384,904,588
7168,7444,7328,1384,904,588
7164,7440,7324,1384,904,588
7168,7444,7328,1384,904,588
7164,7444,7328,1384,904,588
7164,7444,7328,1384,904,588
7168,7448,7332,1384,904,588
7164,7452,7332,1384,904,588
7168,7452,7332,1384,904,588
7168,7456,7332,1384,904,588
7168,7456,7332,1384,904,588
7168,7460,7336,1384,904,588
7168,7460,7336,1384,904,588
7168,7464,7336,1384,904,588
7172,7472,7344,1384,904,588
7172,7472,7344,1384,904,588
7172,7480,7348,1384,904,588
7176,7484,7352,1384,904,588
7180,7488,7356,1384,904,588
7176,7492,7356,1384,904,588
7176,7496,7360,1384,904,588
7180,7500,7360,1384,904,588
7180,7508,7368,1384,904,588
7180,7508,7368,1384,904,588
7180,7512,7368,1384,904,588
7188,7520,7376,1384,904,588
7180,7508,7368,1384,904,588
7184,7508,7368,1384,904,588
7176,7492,7356,1384,904,588
7168,7480,7344,1384,904,588
7164,7464,7336,1384,904,588
7164,7456,7332,1384,904,588
7156,7448,7324,1384,904,588
7152,7436,7316,1384,904,588
7152,7432,7316,1384,900,588
7148,7428,7312,1384,900,588
7148,7428,7312,1384,900,588
7144,7424,7308,1384,900,588
7148,7424,7308,1384,900,588
7148,7424,7308,1384,900,588
7144,7420,7304,1384,900,588
7152,7428,7316,1384,900,588
7148,7424,7312,1384,900,588
7152,7432,7316,1384,900,588
7152,7436,7320,1384,900,588
7148,7432,7312,1384,900,588
7148,7432,7316,1384,900,588
7152,7436,7316,1384,900,588
7152,7436,7320,1384,904,588
7152,7440,7320,1384,904,588
7152,7448,7324,1384,904,588
7156,7448,7324,1384,904,588
7156,7452,7328,1384,904,588
7156,7456,7328,1384,900,588
7160,7460,7332,1384,900,588
7164,7468,7340,1384,904,588
7172,7476,7348,1384,904,588
7164,7472,7344,1384,904,588
7168,7480,7348,1384,904,588
7172,7484,7352,1384,904,588
7172,7488,7352,1384,904,588
7172,7496,7356,1384,904,588
7176,7500,7360,1384,904,588
7176,7500,7360,1384,904,588
7176,7496,7360,1384,904,588
7172,7488,7352,1384,904,588
7172,7480,7348,1384,904,588
7172,7472,7344,1384,904,588
7164,7464,7336,1384,904,588
7160,7448,7324,1384,904,588
7156,7440,7324,1384,904,588
7156,7432,7316,1384,904,588
7156,7432,7316,1384,900,588
7156,7428,7316,1384,904,588
7152,7424,7308,1384,900,588
7152,7424,7312,1384,904,588
7156,7424,7312,1384,900,588
7160,7428,7316,1384,900,588
7160,7432,7316,1384,904,588
7160,7428,7316,1384,904,588
7168,7440,7324,1384,904,588
7160,7432,7316,1384,900,588
7164,7436,7320,1384,904,588
7164,7440,7324,1384,904,588
7168,7444,7328,1384,904,588
7168,7448,7328,1384,900,588
7168,7448,7328,1384,904,588
7172,7456,7336,1384,904,588
7172,7460,7336,1384,904,588
7176,7464,7340,1384,904,588
7180,7468,7344,1384,904,588
7180,7476,7352,1384,904,588
7180,7476,7348,1384,904,588
7180,7480,7352,1384,904,588
7184,7484,7352,1384,904,588
7188,7492,7360,1384,904,588
7192,7496,7364,1384,904,588
7192,7500,7364,1384,904,588
7192,7508,7368,1384,904,588
7192,7512,7376,1384,904,588
7192,7516,7372,1384,904,588
7196,7520,7376,1384,904,588
7196,7516,7372,1384,904,588
7192,7508,7368,1384,904,588
7188,7496,7356,1384,904,588
7184,7484,7352,1384,904,588
7176,7472,7344,1384,904,588
7176,7464,7340,1384,904,588
7164,7448,7328,1384,904,588
7164,7444,7324,1384,904,588
7164,7436,7320,1384,904,588
7160,7432,7316,1384,904,588
7160,7432,7316,1384,904,588
7160,7432,7316,1384,904,588
7164,7432,7316,1384,904,588
7160,7428,7316,1384,904,588
7160,7428,7316,1384,904,588
7160,7432,7320,1384,904,588
7160,7432,7316,1384,904,588
7156,7428,7316,1384,904,588
7156,7432,7316,1384,900,588
7156,7432,7312,1384,904,588
7160,7436,7320,1384,904,588
7156,7436,7316,1384,904,588
7156,7440,7320,1384,904,588
7156,7440,7320,1384,904,588
7156,7444,7324,1384,904,588
7156,7448,7320,1384,904,588
7160,7452,7328,1384,904,588
7160,7456,7328,1384,904,588
7160,7460,7332,1384,904,588
7160,7464,7332,1384,904,588
7160,7464,7336,1384,904,588
7160,7472,7336,1384,904,588
7164,7472,7340,1384,904,588
7164,7480,7344,1384,904,588
7168,7484,7348,1384,904,588
7168,7488,7352,1384,904,588
7168,7492,7352,1384,904,588
7168,7496,7356,1384,904,588
7168,7492,7352,1384,904,588
7168,7488,7348,1384,904,588
7164,7476,7340,1384,904,588
7160,7464,7336,1384,904,588
7156,7456,7328,1384,904,588
7148,7436,7316,1384,904,588
7148,7432,7312,1384,904,588
7148,7428,7312,1384,904,588
7148,7420,7308,1384,904,588
7140,7412,7300,1384,904,588
7140,7408,7300,1384,904,588
7136,7404,7296,1384,904,588
7136,7404,7296,1384,900,588
7128,7400,7288,1384,900,588
7136,7404,7296,1384,904,588
7132,7404,7292,1384,900,588
7132,7404,7292,1384,904,588
7132,7400,7292,1384,904,588
7132,7404,7292,1384,904,588
7132,7404,7292,1384,904,588
7132,7408,7296,1384,904,588
7132,7408,7296,1384,904,588
7132,7408,7296,1384,904,588
7132,7412,7296,1384,904,588
7128,7412,7300,1384,904,588
7136,7420,7304,1384,904,588
7136,7424,7304,1384,904,588
7140,7432,7308,1384,900,588
7140,7432,7312,1384,904,588
7144,7440,7316,1384,904,588
7144,7444,7320,1384,904,588
7148,7448,7324,1384,904,588
7144,7452,7324,1384,904,588
7148,7460,7328,1384,904,588
7152,7464,7332,1384,904,588
7152,7468,7332,1384,904,588
7152,7472,7336,1384,904,588
7156,7476,7340,1384,904,588
7160,7480,7344,1384,904,588
7156,7476,7340,1384,904,588
7152,7468,7336,1384,904,588
7156,7464,7332,1384,904,588
7148,7448,7324,1384,904,588
7144,7440,7316,1384,904,588
7144,7428,7312,1384,904,588
7136,7416,7300,1384,904,588
7136,7412,7300,1384,900,588
7136,7404,7296,1384,904,588
7136,7404,7296,1384,904,588
7136,7404,7296,1384,900,588
7136,7400,7296,1384,900,588
7140,7404,7296,1384,900,588
7136,7404,7296,1384,900,588
7144,7408,7300,1384,900,588
7144,7408,7300,1384,900,588
7144,7412,7300,1384,900,588
7144,7408,7300,1384,900,588
7144,7412,7300,1384,900,588
7152,7416,7308,1384,900,588
7152,7424,7312,1384,900,588
7156,7428,7312,1384,904,588
7152,7428,7316,1384,904,588
7160,7436,7316,1384,900,588
7160,7436,7320,1384,904,588
7160,7440,7324,1384,904,588
7160,7444,7324,1384,904,588
7164,7452,7332,1384,904,588
7168,7456,7336,1384,904,588
7168,7460,7336,1384,904,588
7168,7464,7340,1384,904,588
7168,7468,7340,1384,904,588
7176,7476,7348,1384,904,588
7176,7480,7348,1384,904,588
7176,7484,7352,1384,904,588
7176,7488,7352,1384,904,588
7180,7496,7360,1384,904,588
7180,7492,7356,1384,904,588
7176,7488,7352,1384,904,588
7180,7484,7352,1384,904,588
7176,7472,7344,1384,904,588
7168,7460,7336,1384,904,588
7164,7448,7324,1384,904,588
7160,7440,7320,1384,904,588
7156,7432,7312,1384,900,588
7152,7424,7312,1384,904,588
7156,7420,7308,1384,904,588
7152,7420,7308,1384,904,588
7152,7416,7308,1384,904,588
7152,7416,7304,1384,904,588
7148,7412,7300,1384,900,588
7152,7416,7308,1384,900,588
7148,7412,7304,1384,904,588
7148,7412,7304,1384,904,588
7148,7412,7300,1384,904,588
7148,7416,7304,1384,904,588
7148,7416,7304,1384,904,588
7152,7424,7308,1384,904,588
7152,7424,7312,1384,904,588
7152,7424,7308,1384,904,588
7152,7428,7312,1384,904,588
7152,7432,7312,1384,904,588
7152,7436,7316,1384,904,588
7152,7440,7316,1384,904,588
7152,7436,7316,1384,904,588
7148,7440,7316,1384,904,588
7152,7444,7320,1384,904,588
7152,7452,7324,1384,904,588
7156,7456,7328,1384,904,588
7152,7456,7328,1384,904,588
7160,7468,7332,1388,904,588
7160,7468,7336,1384,904,588
7160,7472,7336,1388,904,588
7160,7476,7340,1388,904,588
7160,7480,7344,1384,904,588
7160,7480,7344,1384,904,588
7160,7476,7340,1384,904,588
7160,7468,7336,1384,904,588
7156,7460,7328,1384,904,588
7148,7444,7320,1384,904,588
7144,7432,7312,1384,904,588
7140,7424,7304,1384,904,588
7132,7408,7296,1384,904,588
7132,7404,7292,1384,904,588
7128,7396,7288,1384,904,588
7128,7392,7284,1384,904,588
7124,7388,7280,1384,904,588
7128,7392,7284,1384,904,588
7124,7388,7280,1384,904,588
7124,7388,7280,1384,904,588
7120,7384,7280,1384,904,588
7124,7388,7280,1384,904,588
7120,7384,7280,1384,904,588
7120,7388,7280,1384,900,588
7120,7388,7280,1384,900,588
7124,7392,7284,1384,904,588
7124,7396,7288,1384,904,588
7124,7396,7284,1384,900,588
7124,7400,7288,1384,904,588
7128,7404,7292,1384,904,588
7128,7408,7292,1384,904,588
7128,7408,7292,1384,904,588
7132,7416,7300,1384,904,588
7132,7416,7300,1384,904,588
7132,7424,7304,1384,904,588
7132,7424,7308,1384,904,588
7140,7432,7312,1384,904,588
7140,7436,7312,1384,904,588
7140,7440,7316,1384,904,588
7140,7444,7316,1384,904,588
7140,7448,7316,1384,904,588
7144,7456,7328,1384,904,588
7144,7460,7328,1384,904,588
7144,7460,7324,1384,904,588
7144,7456,7324,1384,904,588
7140,7448,7316,1384,904,588
7136,7436,7312,1384,904,588
7132,7424,7304,1384,904,588
7128,7416,7300,1384,904,588
7120,7400,7288,1384,904,588
7120,7392,7284,1384,904,588
7120,7384,7280,1384,900,588
7116,7380,7276,1384,900,588
7112,7376,7272,1384,900,588
7112,7376,7272,1384,900,588
7116,7372,7272,1384,900,588
7116,7376,7272,1384,900,588
7116,7376,7272,1384,900,588
7112,7372,7268,1384,900,588
7120,7380,7276,1384,900,588
7120,7380,7276,1384,900,588
7120,7384,7280,1384,900,588
7124,7388,7284,1384,900,588
7124,7388,7280,1384,904,588
7124,7388,7284,1384,900,588
7128,7396,7288,1384,904,588
7128,7400,7292,1384,904,588
7132,7404,7292,1384,900,588
7132,7408,7296,1384,904,588
7136,7412,7300,1384,904,588
7136,7416,7300,1384,900,588
7144,7424,7312,1384,904,588
7144,7428,7312,1384,904,588
7144,7432,7312,1384,904,588
7148,7440,7316,1384,904,588
7152,7444,7320,1384,904,588
7152,7448,7324,1384,904,588
7152,7452,7328,1384,904,588
7152,7456,7328,1384,904,588
7156,7460,7332,1384,904,588
7160,7464,7336,1384,904,588
7160,7464,7336,1384,904,588
7160,7456,7332,1384,904,588
7156,7448,7324,1384,904,588
7152,7436,7316,1384,904,588
7148,7424,7308,1384,904,588
7144,7416,7300,1384,904,588
7140,7408,7296,1384,904,588
7140,7404,7296,1384,904,588
7144,7404,7296,1384,904,588
7144,7404,7296,1384,904,588
7144,7404,7296,1384,900,588
7144,7404,7296,1384,904,588
7144,7404,7296,1384,900,588
7144,7404,7296,1384,904,588
7148,7404,7296,1384,900,588
7140,7400,7292,1384,904,588
7152,7408,7300,1384,904,588
7148,7408,7304,1384,904,588
7148,7412,7300,1384,904,588
7156,7420,7308,1384,900,588
7156,7424,7308,1384,904,588
7160,7432,7320,1384,904,588
7160,7432,7320,1384,904,588
7164,7436,7320,1384,904,588
7164,7444,7324,1384,904,588
7168,7448,7328,1384,904,588
7164,7448,7328,1384,904,588
7164,7452,7328,1384,904,588
7164,7456,7332,1384,904,588
7164,7456,7332,1384,904,588
7164,7460,7336,1384,904,588
7168,7468,7336,1384,904,588
7168,7472,7340,1384,904,588
7168,7476,7344,1384,904,588
7172,7484,7348,1384,904,588
7168,7480,7348,1384,904,588
7172,7484,7348,1388,904,588
7172,7488,7352,1388,904,588
7176,7484,7352,1384,904,588
7168,7472,7344,1388,904,588
7164,7456,7332,1388,904,588
7160,7448,7324,1384,904,588
7152,7432,7312,1384,904,588
7152,7428,7308,1384,904,588
7148,7416,7304,1384,904,588
7144,7408,7296,1384,904,588
7140,7404,7292,1384,904,588
7144,7404,7296,1384,904,588
7140,7400,7292,1384,904,588
7140,7400,7292,1384,904,588
7140,7400,7292,1384,904,588
7140,7400,7292,1384,904,588
7140,7396,7292,1384,904,588
7136,7396,7292,1384,904,588
7136,7396,7288,1384,904,588
7136,7400,7288,1384,904,588
7136,7400,7292,1384,904,588
7140,7404,7292,1384,904,588
7136,7400,7292,1384,904,588
7136,7404,7296,1384,900,588
7140,7408,7300,1384,904,588
7136,7408,7300,1384,904,588
7136,7412,7300,1384,900,588
7144,7420,7304,1384,904,588
7140,7420,7304,1384,904,588
7140,7424,7304,1384,904,588
7144,7432,7312,1384,904,588
7148,7432,7312,1384,904,588
7148,7440,7316,1384,904,588
7148,7440,7320,1384,904,588
7148,7444,7320,1384,904,588
7152,7452,7324,1384,904,588
7152,7456,7328,1384,904,588
7152,7456,7328,1384,904,588
7152,7460,7328,1384,904,588
7152,7460,7328,1384,904,588
7148,7444,7320,1384,904,588
7144,7432,7312,1384,904,588
7140,7420,7304,1384,904,588
7136,7408,7296,1384,904,588
7128,7396,7288,1384,904,588
7128,7392,7284,1384,904,588
7124,7380,7276,1384,900,588
7120,7376,7272,1384,900,588
7120,7368,7272,1384,900,588
7116,7364,7268,1384,900,588
7116,7364,7264,1384,900,588
7112,7360,7260,1384,900,588
7116,7364,7268,1384,900,588
7116,7364,7264,1384,900,588
7116,7364,7268,1384,900,588
7112,7360,7260,1384,900,588
7112,7360,7264,1384,900,588
7120,7372,7268,1384,900,588
7116,7372,7272,1384,900,588
7116,7372,7268,1384,904,588
7116,7376,7272,1384,904,588
7120,7380,7276,1384,904,588
7120,7380,7272,1384,900,588
7120,7384,7280,1384,904,588
7124,7392,7284,1384,904,588
7128,7396,7288,1384,904,588
7132,7400,7292,1384,904,588
7124,7400,7288,1384,900,588
7128,7404,7292,1384,904,588
7132,7412,7300,1384,904,588
7132,7412,7296,1384,904,588
7140,7424,7304,1384,904,588
7140,7424,7308,1384,904,588
7140,7428,7308,1384,904,588
7144,7436,7316,1384,904,588
7144,7440,7316,1384,904,588
7144,7436,7316,1384,904,588
7144,7432,7312,1384,904,588
7144,7428,7308,1384,904,588
7136,7412,7296,1384,904,588
7140,7404,7300,1384,904,588
7136,7396,7292,1384,904,588
7132,7384,7284,1384,904,588
7128,7376,7276,1384,904,588
7132,7376,7276,1384,904,588
7128,7368,7272,1384,900,588
7132,7372,7276,1384,904,588
7128,7368,7272,1384,900,588
7132,7368,7276,1384,900,588
7132,7368,7272,1384,904,588
7136,7372,7280,1384,900,588
7132,7372,7272,1384,900,588
7132,7368,7272,1384,900,588
7140,7376,7280,1384,900,588
7136,7376,7280,1384,900,588
7136,7376,7280,1384,900,588
7136,7376,7280,1384,900,588
7140,7384,7284,1384,900,588
7144,7388,7288,1384,900,588
7144,7392,7292,1384,900,588
7156,7404,7300,1384,900,588
7148,7400,7296,1384,904,588
7156,7408,7304,1384,900,588
7156,7412,7308,1384,900,588
7160,7420,7308,1384,904,588
7156,7420,7308,1384,904,588
7160,7424,7316,1384,904,588
7160,7428,7316,1384,904,588
7164,7436,7320,1384,904,588
7164,7440,7320,1388,904,588
7168,7448,7328,1384,904,588
7168,7452,7332,1384,904,588
7172,7460,7336,1384,904,588
7176,7464,7340,1384,904,588
7172,7460,7336,1384,904,588
7172,7452,7332,1384,904,588
7168,7440,7324,1384,904,588
7168,7436,7320,1384,904,588
7164,7424,7312,1384,904,588
7152,7404,7300,1384,904,588
7148,7392,7292,1384,904,588
7144,7384,7288,1384,904,588
7144,7380,7280,1384,900,588
7140,7372,7276,1384,900,588
7140,7372,7276,1384,900,588
7140,7368,7276,1384,900,588
7136,7368,7272,1384,904,588
7136,7368,7272,1384,900,588
7136,7364,7268,1384,900,588
7132,7360,7268,1384,900,588
7132,7364,7268,1384,900,588
7132,7364,7268,1384,900,588
7132,7364,7268,1384,900,588
7128,7368,7268,1384,900,588
7132,7372,7276,1384,900,588
7132,7372,7276,1384,900,588
7132,7376,7276,1384,904,588
7132,7376,7276,1384,900,588
7132,7380,7280,1384,904,588
7136,7388,7284,1384,904,588
7136,7392,7288,1384,904,588
7140,7396,7292,1384,904,588
7140,7400,7292,1384,904,588
7140,7404,7292,1384,904,588
7144,7408,7300,1384,904,588
7144,7408,7300,1384,904,588
7140,7412,7300,1384,904,588
7140,7416,7300,1384,904,588
7140,7420,7304,1384,904,588
7144,7424,7304,1384,904,588
7144,7428,7312,1384,904,588
7152,7436,7316,1384,904,588
7148,7432,7312,1384,904,588
7140,7416,7300,1384,904,588
7136,7404,7296,1384,904,588
7132,7392,7288,1384,904,588
7136,7392,7288,1384,904,588
7124,7372,7272,1384,904,588
7116,7356,7260,1384,904,588
7116,7348,7256,1384,904,588
7112,7344,7252,1384,900,588
7112,7340,7248,1384,900,588
7108,7332,7240,1384,900,588
7108,7332,7244,1384,900,588
7112,7336,7248,1384,900,588
7108,7332,7244,1384,900,588
7108,7332,7244,1384,900,588
7108,7332,7244,1384,900,588
7112,7336,7248,1384,900,588
7108,7332,7244,1384,900,588
7108,7340,7248,1384,900,588
7108,7340,7248,1384,900,588
7108,7336,7248,1384,900,588
7112,7344,7252,1384,900,588
7112,7348,7256,1384,900,588
7108,7348,7252,1384,900,588
7116,7356,7260,1384,900,588
7112,7356,7260,1384,900,588
7120,7364,7268,1384,900,588
7120,7372,7268,1384,904,588
7116,7368,7268,1384,904,588
7116,7372,7268,1384,900,588
7120,7376,7272,1384,904,588
7120,7376,7272,1384,904,588
7124,7388,7280,1384,904,588
7124,7392,7284,1384,904,588
7124,7396,7284,1384,904,588
7132,7404,7292,1384,904,588
7132,7408,7292,1384,904,588
7132,7408,7292,1384,904,588
7136,7412,7296,1384,904,588
7136,7404,7292,1384,904,588
7132,7396,7288,1384,904,588
7128,7384,7280,1384,904,588
7120,7368,7268,1384,904,588
7120,7360,7264,1384,904,588
7116,7352,7260,1384,900,588
7116,7344,7252,1384,900,588
7120,7344,7256,1384,904,588
7112,7336,7248,1384,900,588
7112,7332,7244,1384,900,588
7116,7336,7248,1384,900,588
7116,7336,7248,1384,900,588
7116,7332,7248,1384,900,588
7120,7336,7252,1384,904,588
7120,7336,7252,1384,900,588
7124,7340,7252,1384,900,588
7120,7340,7252,1384,900,588
7124,7344,7256,1384,900,588
7120,7344,7256,1384,904,588
7120,7348,7256,1384,900,588
7128,7356,7260,1384,904,588
7128,7356,7264,1384,900,588
7132,7364,7268,1384,904,588
7132,7368,7268,1384,904,588
7140,7376,7280,1384,904,588
7140,7380,7280,1384,904,588
7140,7380,7280,1384,900,588
7140,7384,7284,1384,904,588
7144,7396,7292,1384,904,588
7144,7396,7292,1384,904,588
7148,7400,7292,1384,904,588
7152,7408,7300,1384,904,588
7148,7412,7304,1384,904,588
7152,7416,7304,1384,904,588
7152,7420,7308,1384,904,588
7160,7428,7312,1384,904,588
7160,7432,7316,1384,904,588
7160,7428,7316,1384,904,588
7152,7420,7304,1384,904,588
7156,7412,7304,1384,904,588
7152,7400,7296,1384,904,588
7144,7388,7288,1384,904,588
7144,7380,7280,1384,904,588
7140,7372,7272,1384,904,588
7136,7364,7268,1384,904,588
7132,7356,7264,1384,904,588
7132,7356,7264,1384,900,588
7132,7352,7260,1384,904,588
7132,7356,7264,1384,904,588
7132,7352,7260,1384,900,588
7132,7356,7264,1384,904,588
7132,7352,7264,1384,900,588
7132,7356,7260,1384,904,588
7132,7356,7264,1384,900,588
7132,7356,7264,1384,904,588
7136,7364,7268,1384,904,588
7132,7364,7268,1384,900,588
7132,7364,7268,1384,904,588
7132,7368,7268,1384,904,588
7132,7372,7272,1384,904,588
7132,7372,7272,1384,904,588
7132,7376,7276,1384,904,588
7136,7380,7276,1384,904,588
7136,7388,7284,1384,904,588
7136,7388,7284,1384,904,588
7136,7392,7284,1384,904,588
7136,7396,7288,1384,904,588
7136,7400,7288,1384,904,588
7140,7408,7296,1384,904,588
7144,7412,7300,1384,904,588
7140,7416,7300,1384,904,588
7140,7416,7300,1384,904,588
7144,7424,7304,1384,904,588
7148,7432,7312,1384,904,588
7152,7440,7316,1384,904,588
7152,7440,7316,1384,904,588
7148,7428,7308,1384,904,588
7148,7420,7304,1384,904,588
7140,7404,7292,1384,904,588
7132,7392,7284,1384,904,588
7132,7384,7280,1384,904,588
7124,7368,7268,1384,904,588
7120,7356,7260,1384,904,588
7120,7352,7256,1384,904,588
7116,7348,7252,1384,904,588
7112,7340,7248,1384,904,588
7112,7340,7248,1384,904,588
7116,7340,7248,1384,904,588
7116,7340,7252,1384,904,588
7112,7340,7248,1384,900,588
7116,7344,7252,1384,900,588
7112,7340,7248,1384,900,588
7112,7340,7248,1384,900,588
7112,7344,7252,1384,900,588
7112,7344,7252,1384,900,588
7112,7348,7252,1384,904,588
7112,7352,7252,1384,900,588
7116,7356,7260,1384,904,588
7116,7360,7260,1384,904,588
7120,7364,7264,1384,904,588
7124,7368,7268,1384,904,588
7124,7372,7272,1384,904,588
7124,7376,7272,1384,904,588
7124,7376,7272,1384,904,588
7120,7380,7272,1384,904,588
7120,7380,7276,1384,904,588
7124,7388,7280,1384,904,588
7124,7392,7280,1384,904,588
7124,7396,7284,1384,904,588
7128,7404,7288,1384,904,588
7132,7408,7292,1384,904,588
7132,7416,7296,1384,904,588
7136,7420,7300,1384,904,588
7136,7420,7300,1384,904,588
7132,7416,7296,1384,904,588
7128,7408,7292,1384,904,588
7120,7396,7280,1384,904,588
7116,7384,7272,1384,904,588
7116,7372,7268,1384,904,588
7108,7360,7260,1384,904,588
7108,7352,7252,1384,904,588
7104,7340,7244,1384,904,588
7104,7336,7240,1384,904,588
7104,7336,7244,1384,904,588
7104,7336,7244,1384,900,588
7104,7336,7244,1384,904,588
7104,7336,7240,1384,904,588
7108,7336,7244,1384,904,588
7108,7336,7244,1384,900,588
7108,7336,7244,1384,900,588
7108,7340,7248,1384,900,588
7112,7340,7252,1384,900,588
7112,7340,7248,1384,904,588
7116,7348,7256,1384,904,588
7120,7356,7260,1384,904,588
7120,7356,7260,1384,904,588
7124,7364,7264,1384,904,588
7124,7364,7268,1384,904,588
7128,7372,7272,1384,904,588
7132,7380,7276,1384,904,588
7132,7380,7276,1384,904,588
7132,7384,7280,1384,904,588
7132,7388,7284,1384,904,588
7136,7396,7288,1384,904,588
7136,7396,7288,1384,904,588
7140,7404,7292,1384,904,588
7140,7408,7292,1384,904,588
7144,7412,7296,1384,904,588
7144,7416,7300,1384,904,588
7144,7424,7304,1384,904,588
7152,7432,7312,1384,904,588
7144,7424,7304,1384,904,588
7144,7420,7304,1384,904,588
7148,7420,7300,1384,904,588
7144,7408,7296,1384,904,588
7140,7400,7292,1384,904,588
7136,7388,7284,1384,904,588
7136,7380,7280,1384,904,588
7136,7380,7276,1384,904,588
7128,7368,7268,1384,904,588
7128,7364,7268,1384,904,588
7132,7364,7268,1384,904,588
7132,7364,7268,1384,904,588
7132,7364,7268,1384,904,588
7132,7368,7268,1384,900,588
7132,7364,7268,1384,904,588
7136,7368,7272,1384,904,588
7132,7364,7268,1384,904,588
7132,7368,7268,1384,904,588
7132,7368,7268,1384,904,588
7136,7376,7276,1384,904,588
7140,7380,7276,1384,904,588
7144,7384,7284,1384,904,588
7144,7388,7284,1388,904,588
7148,7396,7292,1384,904,588
7144,7396,7288,1384,904,588
7140,7396,7288,1384,904,588
7144,7400,7292,1384,904,588
7148,7408,7296,1384,904,588
7152,7416,7304,1384,904,588
7148,7416,7304,1384,904,588
7152,7424,7308,1384,904,588
7152,7424,7308,1384,904,588
7152,7428,7312,1384,904,588
7152,7432,7312,1384,904,588
7152,7436,7312,1384,904,588
7152,7440,7316,1384,904,588
7156,7448,7320,1384,904,588
7156,7452,7320,1384,904,588
7152,7448,7320,1384,904,588
7160,7452,7324,1384,904,588
7152,7440,7316,1384,904,588
7152,7432,7308,1384,904,588
7144,7420,7300,1388,904,588
7136,7404,7292,1384,904,588
7132,7396,7284,1388,904,588
7132,7388,7280,1384,904,588
7124,7376,7268,1384,904,588
7120,7364,7264,1384,904,588
7120,7360,7260,1384,904,588
7120,7360,7260,1384,904,588
7124,7364,7264,1384,904,588
7120,7360,7264,1384,904,588
7124,7364,7264,1384,904,588
7124,7364,7264,1384,904,588
7124,7364,7264,1384,904,588
7124,7364,7264,1384,904,588
7124,7368,7264,1384,904,588
7120,7364,7264,1384,904,588
7120,7368,7264,1384,904,588
7120,7368,7264,1384,904,588
7120,7372,7264,1384,904,588
7120,7372,7268,1384,904,588
7120,7376,7268,1384,904,588
7120,7376,7268,1384,904,588
7120,7376,7268,1384,904,588
7120,7380,7272,1384,904,588
7120,7384,7276,1384,904,588
7124,7392,7280,1384,904,588
7128,7400,7284,1384,904,588
7128,7404,7284,1384,904,588
7132,7408,7296,1384,904,588
7132,7412,7296,1384,904,588
7132,7416,7296,1384,904,588
7128,7416,7292,1384,904,588
7128,7420,7296,1384,904,588
7128,7424,7300,1384,904,588
7132,7428,7300,1384,904,588
7136,7432,7304,1384,904,588
7136,7436,7308,1384,904,588
7136,7428,7300,1384,904,588
7128,7416,7296,1384,904,588
7128,7404,7288,1384,904,588
7120,7392,7280,1384,904,588
7116,7380,7272,1384,904,588
7112,7372,7264,1384,904,588
7108,7364,7260,1384,904,588
7108,7356,7256,1384,904,588
7108,7352,7252,1384,904,588
7104,7348,7248,1384,904,588
7100,7344,7244,1384,904,588
7100,7344,7244,1384,904,588
7100,7344,7244,1384,904,588
7100,7344,7244,1384,904,588
7104,7344,7248,1384,904,588
7100,7344,7244,1384,904,588
7100,7344,7248,1384,904,588
7100,7348,7248,1384,904,588
7104,7352,7252,1384,904,588
7104,7356,7252,1384,904,588
7100,7352,7248,1384,904,588
7104,7360,7256,1384,904,588
7108,7364,7256,1384,904,588
7108,7364,7260,1384,904,588
7108,7368,7264,1384,904,588
7112,7372,7268,1384,904,588
7112,7376,7264,1384,904,588
7112,7380,7268,1384,904,588
7112,7380,7268,1384,904,588
7120,7396,7280,1384,904,588
7128,7404,7288,1388,904,588
7128,7404,7288,1384,904,588
7128,7412,7292,1384,904,588
7132,7416,7296,1384,904,588
7132,7420,7300,1384,904,588
7132,7424,7300,1384,904,588
7136,7428,7304,1384,904,588
7132,7428,7300,1384,904,588
7136,7428,7304,1388,904,588
7140,7428,7308,1388,904,592
7132,7412,7296,1384,904,588
7128,7404,7288,1384,904,588
7120,7388,7280,1384,904,588
7120,7380,7272,1384,904,588
7120,7376,7272,1384,904,588
7120,7372,7268,1384,904,588
7116,7364,7264,1384,904,588
7116,7364,7264,1384,900,588
7120,7364,7264,1384,904,588
7120,7364,7264,1384,900,588
7120,7360,7260,1384,904,588
7116,7360,7260,1384,904,588
7120,7360,7260,1384,904,588
7120,7360,7260,1384,904,588
7120,7364,7264,1384,900,588
7128,7368,7268,1384,904,588
7128,7372,7268,1384,904,588
7132,7380,7276,1384,904,588
7128,7380,7276,1384,904,588
7132,7384,7280,1384,904,588
7136,7392,7284,1384,904,588
7136,7392,7284,1384,904,588
7140,7396,7288,1384,904,588
7144,7404,7292,1384,904,588
7144,7404,7296,1384,904,588
7144,7412,7300,1384,904,588
7148,7416,7300,1384,904,588
7152,7424,7304,1384,904,588
7148,7424,7304,1384,904,588
7152,7428,7308,1384,904,588
7152,7432,7308,1384,904,588
7152,7436,7312,1384,904,588
7156,7448,7320,1384,904,588
7156,7448,7320,1388,904,588
7160,7456,7328,1384,904,588
7160,7456,7328,1384,904,588
7164,7464,7332,1384,904,588
7160,7456,7324,1388,904,588
7156,7444,7320,1384,904,588
7156,7436,7312,1384,904,588
7152,7428,7308,1388,904,588
7148,7416,7300,1388,904,588
7144,7408,7292,1384,904,588
7144,7400,7288,1384,904,588
7140,7392,7284,1384,904,588
7140,7388,7280,1384,904,588
7144,7392,7284,1384,904,588
7136,7384,7276,1384,904,588
7136,7380,7276,1388,904,588
7136,7380,7276,1384,904,588
7136,7380,7276,1384,904,588
7136,7380,7280,1388,904,588
7136,7384,7280,1384,904,588
7132,7380,7276,1388,904,588
7128,7376,7272,1388,904,588
7128,7376,7272,1388,904,588
7128,7380,7272,1388,904,588
7132,7388,7280,1384,904,588
7132,7388,7280,1388,904,588
7136,7396,7284,1388,904,588
7136,7396,7284,1388,904,588
7136,7400,7288,1388,904,588
7140,7408,7296,1388,904,588
7140,7412,7296,1384,904,588
7140,7412,7296,1388,904,588
7140,7412,7296,1384,904,588
7140,7420,7300,1384,904,588
7140,7420,7300,1384,904,588
7144,7428,7304,1384,904,588
7140,7428,7304,1384,904,588
7148,7436,7312,1384,904,588
7148,7444,7316,1388,904,588
7148,7448,7320,1384,904,588
7148,7452,7320,1384,904,588
7152,7460,7328,1384,904,588
7152,7460,7324,1388,904,588
7156,7468,7332,1388,904,588
7156,7472,7332,1388,904,588
7156,7476,7336,1384,904,588
7156,7480,7336,1384,904,588
7156,7480,7340,1388,904,588
7164,7492,7348,1388,904,588
7164,7492,7348,1388,904,588
7160,7488,7344,1388,904,592
7160,7480,7340,1384,904,588
7152,7464,7328,1388,904,588
7144,7448,7316,1388,904,592
7144,7440,7312,1384,904,588
7136,7428,7304,1384,904,588
7140,7428,7304,1388,904,588
7136,7424,7304,1388,904,592
7136,7420,7296,1388,904,588
7136,7420,7300,1384,904,588
7136,7420,7296,1384,904,588
7132,7412,7292,1384,904,588
7128,7412,7292,1384,904,588
7128,7412,7292,1384,904,588
7128,7408,7288,1384,904,588
7132,7412,7292,1384,904,588
7128,7416,7296,1384,904,588
7128,7416,7292,1384,904,588
7128,7416,7292,1384,904,588
7132,7420,7296,1384,904,588
7136,7428,7304,1384,904,588
7136,7428,7304,1384,904,588
7136,7436,7304,1384,904,588
7132,7428,7300,1384,904,588
7132,7432,7304,1384,904,588
7132,7436,7304,1384,904,588
7132,7440,7304,1384,904,588
7132,7440,7308,1384,904,588
7132,7444,7308,1384,904,588
7136,7448,7316,1384,904,588
7136,7444,7308,1384,904,588
7136,7440,7308,1384,904,588
7132,7428,7300,1384,904,588
7124,7412,7288,1384,904,588
7120,7392,7280,1388,904,588
7116,7384,7272,1384,904,588
7112,7372,7264,1384,904,588
7108,7360,7256,1384,904,588
7108,7352,7252,1384,904,588
7104,7344,7248,1384,904,588
7108,7348,7252,1384,904,588
7104,7344,7244,1384,904,588
7108,7340,7248,1384,904,588
7112,7344,7248,1384,904,588
7116,7348,7252,1384,904,588
7112,7344,7252,1384,904,588
7108,7340,7248,1384,904,588
7112,7344,7248,1384,904,588
7112,7344,7252,1384,904,588
7116,7352,7256,1388,904,588
7116,7352,7256,1384,904,588
7116,7352,7256,1384,904,588
7120,7360,7260,1384,904,588
7120,7360,7260,1384,904,588
7116,7360,7260,1384,904,588
7120,7368,7264,1384,904,588
7124,7372,7272,1384,904,588
7124,7376,7272,1384,904,588
7128,7384,7276,1384,904,588
7128,7388,7280,1384,904,588
7128,7388,7280,1384,904,588
7132,7396,7284,1384,904,588
7132,7400,7288,1384,904,588
7136,7408,7292,1384,904,588
7144,7416,7300,1384,904,588
7140,7416,7300,1388,904,588
7144,7420,7300,1384,904,588
7148,7428,7308,1388,904,588
7144,7420,7304,1384,904,588
7144,7412,7296,1384,904,588
7136,7400,7288,1384,904,588
7132,7384,7280,1384,904,588
7128,7372,7268,1384,904,588
7124,7360,7260,1384,904,588
7124,7356,7260,1384,904,588
7120,7344,7252,1384,904,588
7116,7332,7244,1384,904,588
7116,7332,7244,1384,904,588
7120,7336,7248,1384,904,588
7116,7328,7240,1384,904,588
7116,7328,7244,1384,904,588
7116,7328,7244,1384,904,588
7120,7332,7244,1384,904,588
7116,7328,7244,1384,904,588
7116,7328,7240,1384,904,588
7116,7332,7244,1384,904,588
7116,7332,7244,1384,904,588
7116,7336,7244,1384,904,588
7120,7344,7252,1388,904,588
7120,7344,7252,1384,904,588
7120,7348,7256,1384,904,588
7124,7352,7256,1384,904,588
7124,7356,7260,1384,904,588
7124,7360,7260,1384,904,588
7124,7360,7264,1384,904,588
7128,7368,7268,1384,904,588
7132,7372,7272,1384,904,588
7132,7376,7272,1384,904,588
7132,7384,7276,1384,904,588
7132,7384,7280,1384,904,588
7132,7388,7280,1384,904,588
7132,7392,7280,1384,904,588
7136,7400,7288,1384,904,588
7136,7400,7288,1384,904,588
7140,7408,7292,1384,904,588
7136,7412,7292,1388,904,588
7140,7416,7300,1388,904,588
7140,7416,7296,1384,904,588
7140,7404,7292,1384,904,588
7136,7396,7284,1384,904,588
7128,7380,7272,1384,904,588
7120,7364,7264,1384,904,588
7120,7356,7260,1384,904,588
7116,7344,7252,1384,904,588
7112,7336,7244,1384,904,588
7104,7324,7236,1384,904,588
7104,7320,7232,1384,904,588
7104,7320,7232,1384,904,588
7104,7320,7236,1384,904,588
7104,7316,7232,1384,904,588
7104,7316,7228,1384,904,588
7104,7316,7232,1384,904,588
7104,7320,7232,1384,904,588
7104,7320,7236,1384,904,588
7104,7316,7232,1384,904,588
7100,7316,7232,1384,904,588
7100,7316,7228,1384,904,588
7104,7320,7236,1384,904,588
7100,7320,7236,1384,904,588
7100,7324,7232,1384,904,588
7100,7324,7236,1384,904,588
7100,7332,7240,1384,904,588
7104,7332,7240,1384,904,588
7100,7336,7240,1384,904,588
7108,7344,7248,1384,904,588
7108,7348,7252,1384,904,588
7108,7352,7252,1384,904,588
7108,7352,7252,1384,904,588
7100,7352,7248,1384,904,588
7108,7360,7256,1384,904,588
7112,7364,7264,1384,904,588
7112,7372,7268,1384,904,588
7112,7376,7268,1384,904,588
7116,7380,7276,1384,904,588
7112,7380,7272,1384,904,588
7112,7384,7272,1384,904,588
7116,7384,7272,1384,904,588
7112,7372,7264,1384,904,588
7108,7360,7260,1384,904,588
7100,7348,7248,1384,904,588
7092,7332,7236,1384,904,588
7092,7324,7232,1384,904,588
7088,7312,7224,1384,904,588
7080,7300,7216,1384,904,588
7084,7296,7216,1384,904,588
7080,7292,7212,1384,904,588
7080,7292,7212,1384,904,588
7080,7292,7212,1384,904,588
7076,7288,7208,1384,904,588
7076,7288,7208,1384,900,588
7076,7284,7204,1384,904,588
7072,7284,7204,1384,900,588
7076,7284,7208,1384,900,588
7076,7292,7212,1384,904,588
7076,7292,7208,1384,904,588
7076,7292,7212,1384,904,588
7072,7292,7208,1384,904,588
7076,7296,7212,1384,904,588
7076,7300,7212,1384,900,588
7084,7304,7220,1384,904,588
7084,7312,7224,1384,900,588
7084,7316,7228,1384,900,588
7088,7320,7228,1384,904,588
7088,7324,7232,1384,904,588
7084,7324,7232,1384,904,588
7088,7328,7232,1384,904,588
7092,7332,7240,1384,904,588
7100,7344,7244,1384,904,588
7100,7344,7248,1384,904,588
7100,7352,7252,1384,904,588
7104,7356,7256,1384,904,588
7104,7364,7260,1384,904,588
7108,7368,7264,1384,904,588
7104,7368,7260,1384,904,588
7108,7376,7268,1384,904,588
7108,7372,7264,1384,904,588
7112,7368,7264,1384,904,588
7104,7352,7252,1384,904,588
7100,7340,7244,1384,904,588
7092,7328,7236,1384,904,588
7092,7324,7232,1384,904,588
7088,7312,7224,1384,904,588
7092,7308,7220,1384,904,588
7092,7308,7220,1384,904,588
7092,7308,7224,1384,904,588
7092,7304,7224,1384,904,588
7092,7304,7220,1384,904,588
7088,7300,7220,1384,904,588
7092,7304,7220,1384,904,588
7092,7304,7220,1384,900,588
7096,7308,7228,1384,904,588
7100,7316,7232,1384,904,588
7104,7320,7232,1384,904,588
7104,7320,7236,1384,904,588
7104,7320,7236,1384,900,588
7104,7324,7236,1384,904,588
7108,7328,7240,1384,904,588
7108,7332,7244,1384,904,588
7112,7340,7248,1384,904,588
7112,7340,7248,1384,904,588
7120,7348,7256,1384,904,588
7120,7356,7256,1384,904,588
7116,7356,7256,1384,904,588
7120,7360,7264,1384,904,588
7124,7368,7272,1384,904,588
7128,7376,7272,1384,904,588
7128,7380,7276,1384,904,588
7128,7384,7280,1384,904,588
7132,7392,7284,1384,904,588
7136,7396,7288,1384,904,588
7136,7400,7288,1384,904,588
7136,7408,7292,1384,904,588
7144,7412,7300,1384,904,588
7140,7412,7296,1384,904,588
7136,7404,7292,1384,904,588
7136,7396,7284,1384,904,588
7124,7380,7272,1388,904,588
7124,7372,7268,1384,904,588
7120,7360,7264,1384,904,588
7120,7352,7256,1388,904,588
7112,7344,7248,1384,904,588
7112,7336,7244,1384,904,588
7112,7336,7248,1384,904,588
7108,7332,7240,1384,904,588
7112,7336,7244,1384,904,588
7108,7328,7240,1384,904,588
7108,7328,7240,1384,904,588
7108,7328,7236,1384,904,588
7108,7328,7240,1384,904,588
7108,7328,7240,1384,904,588
7108,7332,7240,1384,904,588
7108,7332,7240,1384,904,588
7112,7336,7248,1384,904,588
7108,7336,7244,1384,904,588
7112,7344,7248,1384,904,588
7112,7348,7252,1384,904,588
7112,7348,7252,1384,904,588
7112,7352,7256,1384,904,588
7112,7356,7256,1384,904,588
7116,7360,7260,1384,904,588
7116,7364,7264,1384,904,588
7116,7368,7264,1384,904,588
7112,7368,7264,1384,904,588
7116,7372,7268,1384,904,588
7116,7380,7272,1384,904,588
7116,7380,7272,1384,904,588
7120,7384,7276,1384,904,588
7120,7392,7276,1384,904,588
7124,7396,7284,1384,904,588
7124,7404,7288,1384,904,588
7124,7408,7288,1388,904,588
7128,7412,7292,1384,904,588
7128,7412,7288,1388,904,588
7124,7404,7284,1384,904,588
7124,7396,7280,1384,904,588
7120,7384,7272,1384,904,588
7112,7372,7264,1384,904,588
7104,7356,7252,1384,904,588
7100,7344,7248,1384,904,588
7104,7340,7244,1384,904,588
7100,7332,7236,1384,904,588
7092,7320,7228,1384,904,588
7096,7324,7232,1384,904,588
7092,7316,7224,1384,904,588
7088,7316,7224,1384,904,588
7088,7312,7224,1384,904,588
7088,7316,7224,1384,904,588
7088,7316,7224,1384,904,588
7088,7312,7224,1384,904,588
7084,7312,7224,1384,904,588
7088,7316,7224,1384,904,588
7088,7316,7224,1384,904,588
7084,7320,7224,1384,904,588
7092,7328,7232,1384,904,588
7092,7328,7232,1384,904,588
7096,7336,7240,1384,904,588
7088,7328,7232,1384,904,588
7088,7336,7236,1384,904,588
7092,7340,7240,1384,904,588
7092,7344,7240,1384,904,588
7100,7352,7252,1384,904,588
7096,7352,7248,1384,904,588
7096,7352,7248,1384,904,588
7096,7356,7252,1384,904,588
7096,7364,7252,1384,904,588
7100,7368,7256,1384,904,588
7104,7376,7264,1384,904,588
7100,7376,7260,1384,904,588
7104,7380,7268,1384,904,588
7104,7388,7272,1384,904,588
7104,7392,7272,1384,904,588
7108,7392,7276,1384,904,588
7104,7384,7268,1384,904,588
7104,7376,7264,1384,904,588
7104,7372,7264,1384,904,588
7096,7356,7252,1384,904,588
7096,7348,7244,1384,904,588
7088,7336,7236,1384,904,588
7088,7332,7232,1384,904,588
7084,7324,7228,1384,904,588
7084,7320,7228,1384,904,588
7080,7312,7220,1384,904,588
7080,7312,7220,1384,904,588
7088,7316,7224,1384,904,588
7084,7312,7220,1384,904,588
7088,7316,7224,1384,904,588
7088,7316,7224,1384,904,588
7088,7316,7228,1384,904,588
7088,7316,7224,1384,904,588
7092,7324,7232,1384,904,588
7092,7324,7232,1384,904,588
7092,7324,7232,1384,904,588
7096,7332,7236,1384,904,588
7096,7336,7240,1384,904,588
7100,7340,7244,1384,904,588
7104,7348,7248,1384,904,588
7104,7348,7248,1384,904,588
7112,7360,7256,1384,904,588
7112,7364,7260,1384,904,588
7112,7364,7260,1384,904,588
7112,7368,7260,1384,904,588
7116,7372,7268,1388,904,588
7116,7376,7268,1384,904,588
7116,7380,7268,1388,904,592
7116,7384,7272,1384,904,588
7124,7392,7280,1384,904,588
7120,7396,7280,1384,904,588
7124,7400,7284,1384,904,588
7128,7408,7288,1384,904,588
7132,7412,7292,1388,904,588
7132,7408,7288,1384,904,588
7132,7400,7284,1388,904,592
7124,7388,7276,1388,904,588
7120,7380,7268,1388,904,588
7124,7376,7268,1384,904,588
7120,7368,7264,1388,904,592
7112,7352,7252,1384,904,588
7112,7348,7248,1384,904,588
7108,7340,7248,1384,904,588
7108,7344,7248,1384,904,588
7108,7340,7244,1384,904,588
7112,7344,7248,1384,904,588
7112,7344,7248,1384,904,588
7108,7336,7244,1384,904,588
7112,7340,7248,1384,904,588
7108,7344,7248,1384,904,588
7112,7344,7248,1384,904,588
7108,7340,7248,1384,904,588
7112,7348,7252,1384,904,588
7112,7352,7252,1384,904,588
7116,7356,7256,1384,904,588
7116,7360,7260,1384,904,588
7116,7360,7260,1384,904,588
7120,7368,7264,1384,904,588
7120,7372,7264,1388,904,588
7124,7376,7268,1384,904,588
7120,7376,7272,1384,904,588
7124,7384,7276,1384,904,588
7128,7388,7280,1384,904,588
7120,7388,7272,1384,904,588
7120,7388,7272,1388,904,592
7124,7396,7280,1388,904,592
7124,7400,7280,1388,904,592
7124,7400,7280,1388,904,592
7120,7400,7280,1388,904,592
7124,7408,7288,1388,904,592
7124,7412,7292,1388,904,592
7128,7416,7292,1388,904,592
7128,7416,7292,1388,904,592
7124,7408,7284,1388,904,592
7124,7400,7284,1388,904,592
7120,7388,7272,1388,904,592
7112,7376,7264,1388,904,592
7108,7364,7256,1388,904,592
7104,7352,7248,1388,904,592
7100,7344,7244,1388,904,592
7096,7336,7236,1388,904,592
7092,7328,7232,1388,904,592
7096,7332,7236,1388,904,592
7092,7324,7232,1388,904,592
7092,7328,7232,1388,904,592
7092,7324,7228,1388,904,592
7088,7320,7224,1384,904,588
7092,7324,7228,1384,904,588
7088,7316,7224,1388,904,592
7092,7324,7232,1384,904,588
7088,7324,7232,1384,904,588
7092,7328,7232,1384,904,588
7092,7332,7232,1384,904,588
7092,7328,7232,1384,904,588
7092,7332,7232,1384,904,588
7088,7332,7232,1384,904,588
7092,7336,7240,1384,904,588
7092,7340,7240,1384,904,588
7092,7340,7240,1384,904,588
7092,7344,7240,1384,904,588
7092,7348,7244,1384,904,588
7100,7356,7248,1384,904,588
7096,7356,7252,1384,904,588
7104,7368,7260,1384,904,588
7104,7368,7260,1384,904,588
7096,7368,7256,1384,904,588
7100,7372,7260,1384,904,588
7100,7376,7260,1384,904,588
7104,7384,7268,1384,904,588
7100,7380,7260,1384,904,592
7104,7388,7268,1384,904,588
7108,7392,7272,1384,904,588
7104,7384,7268,1384,904,588
7100,7372,7260,1384,904,588
7100,7364,7252,1384,904,588
7092,7348,7244,1384,904,588
7092,7344,7240,1384,904,588
7088,7332,7232,1384,904,588
7080,7320,7224,1384,904,588
7080,7316,7220,1384,904,588
7076,7308,7216,1384,904,588
7080,7312,7220,1384,904,588
7076,7304,7216,1384,904,588
7076,7304,7216,1384,904,588
7080,7304,7216,1384,904,588
7076,7304,7216,1384,904,588
7076,7304,7216,1384,904,588
7076,7300,7212,1384,904,588
7084,7308,7220,1384,904,588
7084,7312,7220,1384,904,588
7080,7308,7220,1384,904,588
7084,7316,7224,1384,904,588
7088,7320,7228,1384,904,588
7092,7324,7232,1384,904,588
7088,7324,7228,1384,904,588
7092,7328,7232,1384,904,588
7096,7332,7236,1384,904,588
7096,7336,7240,1384,904,588
7100,7344,7244,1384,904,588
7100,7344,7244,1384,904,588
7104,7352,7248,1384,904,588
7104,7356,7252,1384,904,588
7108,7360,7256,1384,904,588
7104,7360,7256,1384,904,588
7112,7376,7264,1384,904,588
7112,7376,7268,1384,904,588
7116,7384,7272,1384,904,588
7116,7384,7272,1384,904,588
7120,7388,7276,1384,904,588
7120,7388,7276,1384,904,588
7120,7384,7272,1384,904,588
7120,7380,7272,1384,904,588
7112,7364,7256,1384,904,588
7104,7352,7248,1384,904,588
7104,7348,7248,1384,904,588
7104,7340,7244,1384,904,588
7104,7332,7240,1384,904,588
7100,7324,7232,1384,904,588
7100,7324,7232,1384,904,588
7104,7328,7236,1384,904,588
7100,7324,7232,1384,904,588
7104,7324,7236,1384,904,588
7104,7324,7236,1384,904,588
7104,7328,7236,1384,904,588
7100,7324,7232,1384,904,588
7100,7324,7232,1384,904,588
7108,7332,7240,1384,904,588
7104,7332,7240,1384,904,588
7104,7332,7236,1388,904,588
7108,7336,7244,1384,904,588
7108,7340,7244,1384,904,588
7112,7348,7252,1384,904,588
7112,7352,7252,1384,904,588
7120,7360,7256,1384,904,588
7120,7364,7260,1384,904,588
7120,7364,7260,1388,904,588
7120,7368,7264,1384,904,588
7120,7372,7264,1384,904,588
7124,7376,7268,1388,904,592
7120,7380,7268,1384,904,588
7124,7384,7276,1388,904,588
7128,7392,7280,1384,904,588
7132,7400,7284,1384,904,588
7128,7400,7284,1388,904,592
7128,7400,7284,1388,904,592
7132,7408,7292,1384,904,592
7128,7408,7288,1384,904,592
7132,7412,7292,1388,904,592
7128,7404,7284,1388,904,592
7132,7400,7284,1388,904,592
7124,7392,7280,1384,904,592
7116,7376,7268,1388,904,592
7116,7368,7264,1388,904,592
7112,7360,7256,1384,904,588
7108,7348,7248,1384,904,588
7104,7336,7244,1384,904,588
7100,7328,7232,1384,904,588
7096,7324,7232,1384,904,588
7096,7320,7232,1384,904,588
7100,7324,7232,1388,904,588
7096,7324,7232,1384,904,588
7100,7320,7232,1384,904,588
7096,7320,7232,1384,904,588
7096,7320,7228,1384,904,588
7096,7324,7232,1384,904,588
7096,7324,7228,1384,904,588
7096,7328,7232,1384,904,588
7092,7320,7228,1384,904,588
7096,7328,7232,1384,904,588
7096,7332,7236,1384,904,588
7096,7332,7232,1384,904,588
7096,7332,7236,1384,904,588
7092,7332,7236,1384,904,588
7096,7336,7240,1384,904,588
7100,7344,7244,1384,904,588
7100,7344,7244,1384,904,588
7100,7348,7244,1384,904,588
7104,7356,7248,1384,904,588
7100,7356,7252,1384,904,592
7104,7360,7252,1384,904,588
7104,7364,7256,1384,904,588
7104,7368,7256,1384,904,588
7104,7372,7260,1384,904,588
7104,7372,7260,1388,904,592
7108,7384,7268,1384,904,588
7112,7388,7272,1384,904,592
7112,7388,7268,1384,904,592
7108,7380,7264,1384,904,592
7108,7372,7260,1384,904,592
7100,7356,7252,1384,904,588
7092,7340,7236,1384,904,588
7088,7328,7232,1384,904,588
7088,7324,7228,1384,904,592
7084,7316,7220,1384,904,588
7080,7304,7216,1384,904,588
7080,7304,7216,1384,904,588
7080,7300,7212,1384,904,588
7080,7300,7212,1384,904,588
7080,7296,7212,1384,904,588
7076,7296,7208,1384,904,588
7080,7296,7212,1384,904,588
7080,7296,7208,1384,904,588
7080,7296,7212,1388,904,592
7072,7292,7208,1384,904,588
7080,7300,7212,1384,904,588
7076,7300,7212,1384,904,588
7076,7300,7216,1384,904,588
7076,7300,7212,1384,904,588
7076,7304,7216,1384,904,588
7080,7308,7216,1384,904,588
7076,7308,7216,1384,904,588
7080,7316,7224,1384,904,588
7084,7320,7224,1384,904,588
7076,7316,7220,1384,904,588
7080,7320,7224,1384,904,592
7080,7324,7224,1384,904,588
7084,7332,7232,1384,904,588
7084,7336,7232,1384,904,588
7084,7340,7236,1388,904,592
7088,7344,7240,1384,904,588
7092,7352,7244,1384,904,588
7088,7348,7240,1384,904,588
7088,7356,7244,1388,904,592
7092,7360,7248,1388,904,592
7092,7364,7252,1388,904,592
7096,7368,7252,1388,904,592
7096,7360,7248,1388,904,592
7092,7356,7248,1388,904,592
7088,7344,7240,1388,904,592
7084,7328,7228,1384,904,592
7080,7320,7224,1384,904,588
7080,7312,7220,1384,904,588
7076,7304,7216,1384,904,588
7080,7304,7216,1384,904,588
7076,7300,7212,1384,904,588
7076,7296,7212,1384,904,588
7076,7296,7208,1384,904,588
7072,7292,7204,1384,904,588
7076,7292,7208,1384,904,588
7076,7292,7208,1384,904,588
7080,7296,7212,1384,904,588
7080,7296,7212,1384,904,588
7084,7304,7216,1384,904,588
7084,7304,7216,1384,904,588
7088,7308,7220,1384,904,588
7088,7308,7224,1384,904,588
7092,7316,7224,1384,904,588
7096,7324,7232,1384,904,588
7096,7324,7232,1384,904,588
7092,7324,7232,1384,904,588
7092,7324,7232,1384,904,588
7096,7332,7236,1384,904,588
7096,7336,7236,1384,904,588
7100,7340,7240,1384,904,588
7100,7344,7244,1384,904,588
7104,7352,7248,1384,904,588
7104,7352,7248,1384,904,588
7104,7356,7252,1384,904,588
7104,7360,7252,1384,904,588
7108,7364,7256,1388,904,592
7112,7372,7260,1388,904,592
7116,7380,7268,1384,904,592
7120,7384,7272,1384,904,588
7116,7384,7272,1384,904,588
7120,7384,7272,1384,904,592
7116,7376,7264,1384,904,588
7112,7364,7260,1384,904,588
7112,7356,7252,1384,904,588
7108,7348,7248,1384,904,592
7100,7332,7240,1384,904,592
7104,7332,7236,1384,904,588
7100,7324,7232,1384,904,588
7096,7312,7224,1384,904,588
7096,7316,7228,1384,904,588
7096,7312,7224,1384,904,588
7096,7312,7224,1384,904,588
7092,7308,7220,1384,904,588
7092,7308,7220,1384,904,588
7096,7312,7224,1384,904,588
7096,7312,7228,1384,904,588
7100,7316,7228,1384,904,588
7104,7324,7236,1384,904,588
7104,7324,7236,1384,904,588
7100,7324,7232,1384,904,588
7104,7328,7236,1384,904,588
7108,7336,7244,1384,904,588
7108,7340,7244,1384,904,588
7108,7340,7240,1384,904,588
7104,7336,7240,1384,904,588
7104,7344,7244,1384,904,588
7104,7344,7244,1384,904,588
7112,7356,7252,1384,904,588
7108,7352,7248,1384,904,588
7112,7360,7260,1384,904,588
7112,7364,7260,1384,904,588
7116,7368,7260,1384,904,588
7116,7372,7264,1384,904,588
7116,7376,7264,1388,904,592
7116,7380,7268,1388,904,592
7116,7384,7268,1384,904,588
7120,7392,7276,1384,904,588
7124,7400,7280,1384,904,588
7128,7404,7280,1384,904,592
7124,7392,7280,1388,904,592
7116,7384,7272,1384,904,592
7112,7368,7260,1384,904,588
7108,7356,7252,1388,904,592
7104,7344,7244,1384,904,588
7096,7332,7236,1388,904,592
7096,7324,7232,1384,904,592
7096,7320,7228,1384,904,588
7096,7312,7224,1384,904,588
7092,7312,7220,1388,904,592
7092,7308,7224,1384,904,588
7092,7308,7220,1384,904,588
7088,7304,7220,1384,904,588
7092,7304,7220,1384,904,588
7088,7304,7216,1384,904,588
7088,7300,7212,1384,904,588
7084,7300,7212,1384,904,588
7080,7300,7212,1384,904,588
7084,7300,7216,1384,904,588
7080,7300,7212,1384,904,588
7080,7304,7216,1384,904,588
7080,7304,7216,1384,904,588
7084,7308,7220,1384,904,588
7084,7312,7220,1384,904,588
7088,7316,7224,1384,904,588
7088,7320,7224,1384,904,588
7088,7324,7228,1384,904,588
7092,7332,7232,1384,904,588
7100,7336,7240,1384,904,588
7096,7340,7240,1384,904,588
7096,7340,7240,1384,904,588
7092,7340,7240,1384,904,588
7092,7344,7240,1384,904,588
7092,7348,7240,1384,904,588
7096,7352,7244,1384,904,592
7096,7356,7248,1384,904,592
7096,7360,7252,1384,904,588
7100,7364,7256,1384,904,588
7100,7368,7256,1384,904,592
7100,7368,7256,1384,904,592
7096,7356,7248,1384,904,588
7092,7344,7240,1384,904,588
7084,7328,7232,1384,904,588
7080,7316,7220,1384,904,588
7076,7308,7216,1384,904,588
7072,7296,7204,1384,904,588
7072,7288,7204,1384,904,588
7068,7280,7196,1384,904,588
7064,7276,7192,1384,904,588
7068,7280,7196,1384,904,588
7064,7276,7192,1384,904,588
7064,7272,7192,1384,904,588
7060,7268,7188,1384,904,588
7060,7264,7188,1384,904,588
7060,7268,7188,1384,904,588
7060,7272,7192,1384,904,588
7060,7268,7192,1384,904,588
7064,7276,7192,1384,904,588
7060,7272,7192,1384,904,588
7060,7276,7196,1384,904,588
7060,7276,7196,1384,904,588
7060,7280,7196,1384,904,588
7064,7284,7196,1384,904,588
7064,7288,7200,1384,904,588
7068,7296,7208,1384,904,588
7068,7296,7208,1384,904,588
7072,7300,7212,1384,904,588
7072,7304,7212,1384,904,588
7072,7304,7212,1384,904,588
7072,7312,7216,1384,904,588
7080,7320,7224,1384,904,588
7084,7324,7228,1384,904,588
7084,7328,7232,1384,904,588
7084,7332,7232,1384,904,588
7088,7340,7236,1384,904,588
7084,7340,7236,1384,904,588
7088,7348,7244,1384,904,588
7096,7356,7248,1384,904,588
7092,7348,7240,1384,904,588
7092,7344,7240,1384,904,588
7088,7332,7232,1384,904,588
7084,7320,7224,1384,904,588
7076,7304,7212,1384,904,588
7072,7296,7208,1384,904,588
7068,7288,7204,1384,904,588
7072,7288,7200,1384,904,588
7064,7276,7192,1384,904,588
7064,7272,7192,1384,904,588
7064,7268,7192,1384,904,588
7064,7272,7192,1384,904,588
7068,7272,7192,1384,904,588
7068,7272,7196,1384,904,588
7072,7272,7196,1384,904,588
7076,7276,7200,1384,904,588
7072,7276,7200,1384,904,588
7076,7280,7200,1384,904,588
7080,7288,7204,1384,904,588
7084,7292,7212,1384,904,588
7076,7288,7204,1384,904,588
7084,7296,7212,1384,904,588
7084,7296,7212,1384,904,588
7084,7300,7216,1384,904,588
7088,7308,7216,1384,904,588
7092,7312,7224,1384,904,588
7092,7316,7224,1384,904,588
7092,7320,7228,1384,904,588
7092,7324,7228,1384,904,588
7096,7328,7232,1384,904,592
7100,7336,7236,1384,904,588
7104,7344,7244,1384,904,588
7100,7344,7240,1384,904,588
7108,7352,7248,1384,904,588
7108,7356,7252,1384,904,588
7112,7360,7256,1384,904,588
7116,7368,7264,1384,904,588
7116,7368,7260,1384,904,588
7112,7372,7260,1384,904,588
7112,7364,7256,1384,904,588
7108,7352,7252,1384,904,592
7108,7344,7248,1384,904,588
7104,7332,7236,1384,904,592
7100,7320,7228,1384,904,588
7096,7316,7228,1384,904,588
7096,7308,7220,1384,904,588
7096,7304,7216,1384,904,588
7088,7292,7212,1384,904,588
7088,7292,7208,1384,904,588
7088,7292,7208,1384,904,588
7092,7292,7212,1384,904,588
7088,7288,7208,1384,904,588
7088,7292,7208,1384,904,588
7092,7292,7212,1384,904,588
7088,7288,7204,1384,904,588
7088,7292,7208,1384,904,588
7084,7288,7208,1388,904,588
7084,7292,7208,1384,904,588
7088,7296,7212,1384,904,588
7088,7300,7216,1384,904,588
7088,7300,7212,1384,904,588
7088,7304,7216,1384,904,588
7092,7308,7220,1384,904,588
7092,7312,7220,1384,904,588
7096,7316,7228,1384,904,588
7092,7320,7224,1384,904,588
7092,7320,7224,1384,904,588
7092,7324,7228,1384,904,588
7100,7332,7236,1384,904,588
7096,7332,7236,1384,904,588
7096,7340,7240,1384,904,588
7092,7340,7236,1384,904,588
7100,7348,7244,1384,904,588
7100,7348,7244,1388,904,592
7096,7352,7244,1384,904,588
7100,7356,7248,1384,904,592
7100,7360,7248,1384,904,592
7104,7364,7256,1384,904,592
7104,7364,7256,1384,904,592
7104,7356,7252,1384,904,588
7096,7344,7240,1384,904,592
7088,7328,7228,1384,904,588
7084,7312,7220,1384,904,592
7080,7300,7212,1384,904,588
7076,7292,7204,1384,904,588
7072,7280,7196,1384,904,588
7072,7276,7196,1384,904,588
7072,7272,7196,1384,904,588
7072,7276,7196,1384,904,588
7068,7268,7192,1384,904,588
7072,7272,7192,1384,904,588
7068,7268,7192,1384,904,588
7064,7264,7184,1384,904,588
7064,7264,7188,1384,904,588
7068,7264,7188,1384,904,588
7064,7264,7188,1384,904,588
7060,7264,7188,1384,904,588
7068,7272,7192,1384,904,588
7064,7272,7192,1384,904,588
7068,7280,7196,1384,904,588
7068,7280,7196,1384,904,588
7068,7280,7200,1384,904,588
7068,7284,7200,1384,904,588
7068,7288,7204,1384,904,588
7072,7292,7204,1384,904,588
7068,7292,7204,1384,904,588
7068,7296,7208,1384,904,588
7072,7300,7212,1384,904,588
7072,7304,7212,1384,904,588
7072,7304,7212,1384,904,588
7072,7312,7216,1384,904,588
7072,7316,7216,1384,904,588
7076,7320,7220,1384,904,588
7076,7324,7224,1384,904,588
7080,7332,7228,1384,904,588
7084,7340,7236,1384,904,588
7084,7344,7236,1384,904,588
7080,7336,7232,1384,904,592
7084,7336,7232,1384,904,588
7080,7324,7224,1384,904,588
7072,7312,7216,1384,904,588
7068,7300,7208,1384,904,588
7068,7292,7204,1384,904,588
7060,7276,7192,1384,904,588
7056,7264,7188,1384,904,588
7056,7260,7180,1384,904,588
7052,7256,7176,1384,904,588
7048,7252,7176,1384,904,588
7048,7248,7172,1384,904,588
7052,7252,7180,1384,904,588
7052,7252,7172,1384,904,588
7052,7248,7176,1384,904,588
7056,7256,7180,1384,904,588
7056,7256,7180,1384,904,588
7056,7256,7180,1384,904,588
7060,7260,7184,1384,904,588
7060,7264,7184,1384,904,588
7056,7264,7184,1384,904,588
7060,7268,7188,1384,904,588
7064,7268,7188,1384,904,588
7072,7280,7200,1384,904,588
7068,7284,7200,1384,904,588
7072,7288,7204,1384,904,588
7076,7292,7204,1384,904,588
7076,7296,7208,1384,904,588
7076,7296,7212,1384,904,588
7080,7304,7216,1384,904,588
7084,7308,7220,1384,904,588
7084,7312,7220,1384,904,588
7084,7316,7220,1384,904,588
7088,7324,7228,1384,904,588
7092,7332,7236,1384,904,588
7092,7332,7232,1384,904,588
7096,7340,7240,1384,904,588
7100,7348,7244,1384,904,588
7100,7352,7248,1384,904,592
7096,7348,7244,1384,904,592
7096,7340,7236,1388,904,592
7092,7328,7228,1384,904,592
7088,7320,7224,1384,904,588
7088,7312,7220,1384,904,588
7084,7304,7216,1384,904,588
7080,7292,7208,1384,904,588
7076,7284,7204,1384,904,588
7072,7280,7196,1384,904,588
7076,7276,7200,1384,904,588
7072,7272,7192,1384,904,588
7072,7276,7196,1384,904,588
7076,7276,7196,1384,904,588
7076,7276,7196,1384,904,588
7080,7280,7200,1384,904,588
7076,7276,7200,1384,904,588
7084,7288,7204,1384,904,588
7084,7288,7204,1384,904,588
7088,7292,7212,1384,904,588
7084,7292,7212,1384,904,588
7088,7296,7212,1384,904,588
7088,7300,7216,1384,904,588
7092,7308,7220,1384,904,588
7096,7312,7224,1384,904,588
7096,7316,7224,1384,904,588
7100,7324,7232,1384,904,588
7096,7320,7228,1384,904,588
7100,7328,7232,1384,904,588
7100,7328,7236,1384,904,588
7100,7336,7236,1384,904,588
7104,7340,7240,1384,904,588
7104,7344,7244,1384,904,588
7104,7348,7244,1384,904,588
7104,7352,7248,1384,904,588
7108,7360,7252,1384,904,588
7104,7360,7252,1384,904,588
7112,7368,7256,1384,904,588
7112,7372,7256,1384,904,588
7116,7380,7264,1384,904,588
7112,7372,7260,1384,904,588
7108,7364,7252,1384,904,592
7104,7352,7244,1384,904,592
7100,7340,7240,1384,904,592
7096,7328,7232,1388,904,592
7096,7324,7232,1384,904,592
7088,7308,7216,1384,904,592
7088,7304,7216,1384,904,588
7084,7296,7208,1384,904,592
7084,7292,7208,1384,904,588
7076,7284,7200,1384,904,588
7076,7284,7200,1384,904,588
7072,7280,7196,1384,904,592
7076,7280,7200,1384,904,588
7076,7284,7200,1384,904,588
7072,7276,7192,1384,904,588
7068,7276,7192,1384,904,588
7072,7280,7196,1384,904,588
7072,7280,7196,1384,904,588
7072,7284,7200,1384,904,588
7072,7288,7200,1384,904,588
7080,7292,7204,1384,904,588
7080,7296,7208,1384,904,588
7076,7296,7208,1384,904,588
7076,7296,7208,1384,904,588
7076,7300,7208,1384,904,588
7076,7304,7208,1384,904,588
7076,7304,7212,1384,904,588
7080,7312,7216,1384,904,588
7084,7320,7220,1384,904,592
7084,7320,7220,1384,904,592
7084,7324,7228,1384,904,588
7088,7332,7232,1384,904,592
7088,7336,7232,1384,904,588
7084,7332,7228,1384,904,588
7084,7336,7232,1384,904,588
7088,7344,7240,1384,904,592
7092,7348,7244,1384,904,592
7092,7352,7244,1384,904,588
7092,7356,7244,1384,904,592
7092,7348,7240,1384,904,592
7084,7336,7232,1388,904,592
7080,7324,7224,1388,904,592
7072,7308,7212,1384,904,592
7068,7296,7204,1384,904,592
7068,7288,7200,1384,904,592
7064,7280,7192,1384,904,588
7060,7272,7188,1384,904,588
7056,7264,7184,1384,904,588
7056,7260,7184,1384,904,588
7056,7260,7180,1384,904,588
7052,7256,7176,1384,904,588
7052,7252,7176,1384,904,588
7052,7252,7176,1384,904,588
7052,7252,7176,1384,904,588
7052,7252,7176,1384,904,588
7052,7252,7176,1384,904,588
7048,7252,7172,1384,904,588
7056,7256,7180,1384,904,588
7060,7264,7184,1384,904,588
7052,7260,7180,1384,904,588
7056,7264,7184,1384,904,588
7056,7268,7184,1384,904,588
7056,7268,7188,1384,904,588
7060,7272,7192,1384,904,588
7064,7280,7196,1384,904,588
7064,7284,7196,1384,904,588
7064,7284,7200,1384,904,588
7068,7288,7200,1384,904,588
7072,7296,7208,1384,904,588
7072,7300,7212,1384,904,588
7068,7300,7208,1384,904,588
7076,7308,7212,1384,904,588
7072,7308,7216,1384,904,592
7072,7312,7216,1384,904,588
7076,7316,7220,1384,904,588
7076,7320,7220,1384,904,592
7080,7328,7228,1384,904,588
7080,7332,7228,1384,904,588
7080,7332,7228,1384,904,592
7076,7320,7220,1384,904,588
7076,7312,7220,1384,904,588
7072,7304,7212,1384,904,588
7068,7292,7200,1384,904,592
7068,7284,7196,1384,904,588
7064,7272,7188,1384,904,588
7060,7264,7184,1384,904,588
7060,7260,7180,1384,904,588
7060,7256,7180,1384,904,588
7060,7256,7180,1384,904,588
7060,7256,7180,1388,904,592
7060,7252,7176,1384,904,588
7060,7252,7180,1384,904,588
7064,7256,7180,1384,904,588
7068,7260,7188,1384,904,588
7068,7260,7184,1384,904,592
7072,7264,7188,1384,904,592
7076,7272,7196,1384,904,588
7076,7272,7196,1384,904,588
7072,7272,7192,1384,904,588
7076,7276,7196,1384,904,588
7076,7276,7196,1384,904,588
7084,7284,7204,1384,904,592
7088,7292,7208,1384,904,592
7084,7292,7208,1384,904,592
7088,7296,7212,1384,904,588
7088,7300,7216,1384,904,592
7092,7308,7220,1384,904,592
7096,7312,7224,1384,904,592
7096,7316,7228,1384,904,592
7092,7316,7220,1384,904,592
7096,7324,7228,1384,904,592
7096,7328,7232,1384,904,592
7100,7336,7236,1384,904,592
7100,7336,7236,1384,904,588
7104,7344,7244,1384,904,588
7104,7348,7248,1384,904,592
7108,7348,7248,1388,904,592
7108,7352,7248,1388,904,592
7108,7348,7244,1384,904,592
7100,7332,7232,1384,904,592
7104,7328,7236,1384,904,592
7096,7316,7224,1384,904,588
7096,7304,7220,1384,904,592
7084,7288,7204,1384,904,592
7084,7284,7204,1384,904,588
7076,7268,7192,1384,904,592
7076,7268,7192,1384,904,588
7072,7260,7188,1384,904,588
7076,7264,7188,1384,904,588
7076,7260,7184,1384,904,588
7080,7268,7192,1384,904,588
7072,7260,7184,1384,904,588
7076,7260,7188,1384,904,588
7076,7264,7188,1384,904,592
7076,7260,7188,1384,904,592
7072,7260,7188,1384,904,592
7076,7268,7192,1384,904,588
7072,7264,7188,1384,904,588
7080,7272,7192,1384,904,588
7080,7272,7196,1384,904,588
7080,7276,7196,1384,904,592
7076,7276,7196,1384,904,588
7076,7280,7196,1384,904,588
7080,7284,7204,1384,904,588
7080,7288,7204,1384,904,588
7080,7292,7204,1384,904,588
7080,7296,7208,1384,904,592
7084,7300,7212,1384,904,588
7084,7304,7216,1384,904,592
7088,7308,7216,1384,904,588
7088,7316,7220,1384,904,588
7088,7316,7224,1384,904,592
7084,7316,7220,1384,904,592
7084,7320,7220,1384,904,588
7088,7324,7228,1384,904,592
7092,7332,7228,1388,904,592
7092,7332,7228,1384,904,592
7096,7332,7232,1384,904,592
7092,7324,7224,1384,904,592
7084,7308,7216,1384,904,592
7080,7296,7208,1384,904,592
7076,7284,7200,1384,904,592
7068,7272,7192,1384,904,592
7068,7264,7184,1384,904,588
7068,7256,7180,1384,904,592
7064,7244,7172,1384,904,592
7060,7240,7172,1384,904,588
7060,7236,7168,1384,904,592
7056,7232,7168,1384,904,588
7060,7236,7168,1384,904,588
7060,7236,7168,1384,904,588
7060,7236,7172,1384,904,588
7064,7240,7172,1384,904,588
7056,7236,7168,1384,904,588
7056,7232,7164,1384,904,588
7052,7232,7164,1384,904,588
7056,7236,7168,1384,904,588
7060,7240,7172,1384,904,588
7060,7244,7176,1384,904,588
7060,7244,7176,1384,904,588
7060,7248,7172,1384,904,588
7060,7252,7176,1384,904,588
7056,7248,7176,1384,904,588
7060,7256,7180,1384,904,588
7064,7260,7180,1384,904,588
7064,7268,7188,1384,904,588
7064,7264,7184,1384,904,588
7068,7272,7188,1384,904,588
7064,7272,7188,1384,904,588
7064,7276,7192,1384,904,592
7068,7284,7196,1384,904,592
7068,7288,7200,1384,904,592
7068,7288,7200,1384,904,588
7068,7296,7204,1384,904,592
7072,7296,7204,1384,904,592
7068,7296,7204,1384,904,592
7068,7296,7204,1384,904,592
7072,7296,7204,1384,904,592
7068,7288,7196,1384,904,588
7064,7276,7188,1384,904,592
7060,7264,7184,1384,904,588
7052,7252,7172,1384,904,588
7052,7240,7168,1384,904,592
7044,7228,7160,1384,904,588
7040,7216,7152,1384,904,588
7040,7212,7152,1384,904,588
7044,7212,7152,1384,904,588
7040,7208,7144,1384,904,588
7036,7204,7144,1384,904,588
7040,7208,7148,1384,904,588
7040,7208,7148,1384,904,588
7040,7208,7144,1384,904,588
7048,7212,7152,1384,904,588
7048,7212,7152,1384,904,588
7052,7220,7156,1384,904,588
7048,7220,7156,1384,904,588
7052,7220,7160,1384,904,588
7052,7224,7160,1384,904,588
7056,7228,7164,1384,904,588
7056,7232,7164,1384,904,588
7056,7232,7168,1384,904,588
7064,7244,7172,1384,904,588
7060,7240,7172,1384,904,588
7060,7244,7176,1384,904,592
7060,7248,7176,1384,904,588
7064,7256,7180,1384,904,588
7064,7260,7184,1384,904,588
7068,7264,7188,1384,904,588
7072,7268,7188,1384,904,588
7076,7280,7200,1384,904,592
7072,7280,7196,1384,904,592
7072,7280,7196,1384,904,592
7076,7284,7200,1384,904,592
7076,7292,7204,1384,904,588
7080,7296,7208,1384,904,592
7080,7296,7208,1384,904,592
7084,7292,7204,1384,904,592
7080,7280,7196,1384,904,592
7072,7268,7188,1384,904,592
7072,7260,7184,1384,904,592
7068,7252,7180,1384,904,592
7068,7244,7176,1384,904,592
7064,7236,7168,1384,904,588
7064,7232,7172,1384,904,592
7064,7228,7164,1384,904,592
7064,7228,7164,1388,904,592
7064,7228,7164,1388,904,592
7068,7232,7168,1388,904,592
7064,7228,7168,1384,904,588
7064,7228,7168,1384,904,588
7068,7232,7168,1388,904,592
7068,7228,7168,1384,904,588
7072,7236,7172,1384,904,588
7072,7240,7176,1384,904,588
7072,7244,7176,1384,904,588
7076,7244,7180,1384,904,588
7076,7248,7180,1384,904,588
7072,7248,7180,1384,904,588
7080,7256,7184,1384,904,592
7076,7260,7184,1384,904,592
7080,7264,7188,1384,904,592
7076,7264,7188,1384,904,588
7080,7268,7192,1384,904,592
7080,7272,7192,1384,904,592
7080,7276,7196,1384,904,592
7084,7284,7204,1388,904,592
7084,7288,7200,1384,904,592
7088,7288,7208,1384,904,592
7088,7296,7208,1384,904,592
7088,7300,7212,1384,904,592
7088,7300,7212,1384,904,592
7092,7312,7220,1384,904,592
7092,7316,7220,1384,904,592
7092,7316,7224,1384,904,592
7092,7316,7220,1384,904,592
7088,7312,7216,1384,904,592
7088,7300,7212,1384,904,592
7080,7288,7200,1384,904,592
7080,7280,7196,1384,904,592
7072,7264,7188,1384,904,592
7072,7256,7184,1384,904,592
7064,7244,7172,1384,904,588
7064,7240,7168,1384,904,592
7060,7228,7164,1384,904,588
7064,7232,7164,1384,904,588
7060,7228,7160,1384,904,588
7056,7224,7160,1384,904,588
7064,7228,7164,1384,904,588
7060,7228,7164,1384,904,588
7064,7232,7168,1384,904,588
7064,7232,7168,1384,904,588
7064,7232,7168,1384,904,588
7060,7228,7164,1384,904,588
7060,7232,7168,1384,904,588
7064,7240,7172,1384,904,588
7060,7236,7168,1384,904,588
7060,7236,7168,1384,904,592
7060,7240,7172,1384,904,588
7060,7240,7172,1384,904,588
7064,7248,7176,1384,904,588
7060,7248,7172,1384,904,588
7068,7256,7180,1384,904,588
7068,7260,7184,1384,904,588
7072,7268,7188,1384,904,592
7068,7264,7184,1384,904,592
7068,7272,7192,1384,904,592
7076,7280,7196,1384,904,592
7072,7280,7196,1384,904,592
7072,7284,7196,1384,904,588
7076,7288,7200,1384,904,588
7076,7292,7204,1384,904,592
7072,7292,7200,1384,904,592
7076,7300,7208,1384,904,592
7080,7304,7212,1384,904,592
7080,7304,7212,1384,904,592
7080,7296,7204,1384,904,592
7072,7280,7196,1384,904,592
7068,7268,7188,1384,904,592
7060,7252,7176,1384,904,588
7052,7240,7168,1384,904,592
7052,7228,7160,1384,904,588
7052,7224,7160,1384,904,588
7048,7216,7152,1384,904,588
7044,7212,7148,1384,904,588
7044,7212,7148,1384,904,588
7044,7208,7148,1384,904,588
7044,7208,7144,1384,904,588
7040,7204,7144,1384,904,588
7040,7204,7144,1384,904,588
7040,7204,7144,1384,904,588
7040,7204,7144,1384,904,592
7040,7204,7144,1384,904,592
7040,7204,7144,1384,904,592
7036,7208,7144,1384,904,588
7040,7208,7148,1384,904,588
7040,7212,7144,1384,904,588
7040,7212,7148,1384,904,588
7044,7220,7156,1384,904,588
7052,7228,7160,1384,904,588
7052,7232,7164,1384,904,588
7056,7236,7168,1384,904,588
7056,7240,7168,1384,904,588
7060,7248,7176,1384,904,588
7056,7248,7172,1384,904,588
7060,7252,7176,1384,904,588
7064,7260,7184,1384,904,588
7064,7264,7180,1384,904,588
7064,7264,7184,1384,904,588
7064,7268,7188,1384,904,588
7068,7276,7196,1384,904,588
7068,7280,7192,1384,904,588
7068,7284,7196,1384,904,588
7072,7288,7200,1384,904,588
7072,7288,7200,1384,904,588
7072,7284,7196,1384,904,592
7068,7276,7192,1384,904,588
7064,7264,7184,1384,904,588
7064,7256,7180,1384,904,588
7060,7248,7172,1384,904,588
7056,7236,7164,1384,904,588
7052,7220,7156,1384,904,588
7052,7220,7156,1384,904,588
7048,7216,7152,1384,904,588
7052,7216,7152,1384,904,588
7048,7212,7152,1384,904,588
7052,7212,7152,1384,904,588
7052,7216,7152,1384,904,588
7056,7216,7152,1384,904,588
7056,7216,7152,1384,904,588
7056,7220,7160,1384,904,588
7068,7228,7168,1384,904,588
7064,7232,7168,1384,904,588
7064,7232,7168,1384,904,588
7064,7232,7164,1384,904,588
7064,7236,7168,1384,904,588
7068,7244,7172,1384,904,588
7072,7248,7176,1384,904,588
7072,7252,7180,1384,904,588
7072,7252,7184,1384,904,588
7072,7256,7184,1384,904,588
7080,7268,7188,1384,904,588
7080,7268,7192,1384,904,588
7080,7272,7196,1384,904,592
7080,7280,7196,1384,904,588
7088,7288,7204,1384,904,588
7088,7292,7204,1384,904,588
7084,7292,7204,1384,904,588
7084,7296,7208,1384,904,592
7088,7304,7212,1384,904,592
7088,7308,7216,1384,904,592
7096,7316,7220,1384,904,588
7096,7320,7224,1384,904,592
7100,7320,7228,1384,904,592
7096,7312,7220,1384,904,592
7088,7300,7212,1384,904,592
7084,7288,7200,1384,904,592
7080,7276,7192,1384,904,588
7072,7264,7188,1384,904,592
7076,7260,7184,1384,904,588
7068,7244,7176,1384,904,592
7068,7236,7168,1384,904,588
7068,7232,7168,1384,904,588
7064,7228,7164,1384,904,588
7064,7228,7164,1384,904,588
7060,7228,7160,1384,904,588
7064,7228,7164,1384,904,588
7064,7228,7164,1384,904,588
7064,7228,7160,1384,904,588
7064,7228,7168,1384,904,588
7064,7232,7168,1384,904,588
7060,7228,7164,1384,904,588
7064,7236,7168,1384,904,588
7064,7232,7164,1384,904,588
7064,7240,7168,1384,904,588
7068,7244,7172,1384,904,588
7068,7244,7172,1384,904,588
7068,7248,7176,1384,904,588
7072,7252,7180,1384,904,588
7068,7256,7180,1384,904,588
7072,7260,7184,1384,904,592
7072,7264,7184,1384,904,588
7076,7268,7188,1384,904,592
7072,7272,7188,1384,904,588
7072,7276,7188,1384,904,588
7072,7276,7192,1384,904,592
7072,7280,7192,1384,904,588
7072,7284,7196,1384,904,588
7076,7292,7204,1384,904,592
7076,7292,7200,1384,904,592
7076,7296,7204,1384,904,592
7076,7300,7204,1384,904,592
7080,7304,7208,1384,904,588
7080,7300,7208,1384,904,592
7076,7288,7200,1384,904,592
7068,7276,7188,1384,904,592
7068,7264,7188,1384,904,588
7064,7252,7176,1384,904,592
7060,7244,7168,1384,904,592
7056,7232,7164,1384,904,592
7052,7220,7156,1384,904,592
7052,7216,7152,1384,904,592
7044,7208,7148,1384,904,592
7048,7212,7152,1384,904,592
7048,7212,7148,1384,904,588
7048,7208,7144,1384,904,592
7044,7208,7144,1388,904,592
7048,7212,7148,1384,904,592
7048,7208,7144,1388,904,592
7040,7204,7140,1384,904,592
7044,7208,7144,1384,904,588
7044,7208,7148,1384,904,592
7044,7208,7148,1384,904,588
7044,7212,7148,1384,904,592
7044,7216,7152,1384,904,588
7044,7220,7152,1384,904,588
7048,7224,7156,1384,904,588
7052,7232,7160,1384,904,588
7048,7228,7160,1384,904,592
7052,7236,7164,1384,904,592
7048,7232,7160,1384,904,592
7056,7244,7172,1384,904,592
7060,7248,7176,1384,904,592
7060,7252,7176,1384,904,592
7060,7260,7180,1384,904,592
7060,7260,7180,1384,904,592
7060,7268,7184,1384,904,592
7064,7272,7188,1384,904,592
7064,7276,7192,1384,904,592
7068,7284,7196,1384,904,592
7068,7288,7196,1384,904,592
7068,7288,7196,1388,904,592
7068,7284,7196,1384,904,592
7064,7272,7188,1384,904,592
7056,7256,7176,1384,904,592
7052,7248,7168,1384,904,592
7048,7236,7164,1384,904,592
7048,7232,7160,1384,904,592
7044,7220,7152,1384,904,592
7040,7208,7148,1384,904,592
7040,7204,7144,1384,904,592
7032,7196,7136,1384,904,592
7028,7192,7132,1384,904,592
7032,7192,7132,1384,904,592
7032,7192,7132,1384,904,592
7032,7192,7132,1384,904,592
7032,7192,7132,1384,904,592
7032,7192,7132,1384,904,588
7040,7200,7140,1384,904,588
7040,7200,7140,1384,904,588
7036,7200,7140,1384,904,588
7040,7204,7140,1384,904,588
7044,7212,7148,1384,904,588
7048,7216,7152,1384,904,588
7048,7220,7152,1384,904,588
7048,7220,7152,1384,904,592
7048,7224,7152,1384,904,588
7048,7228,7160,1384,904,592
7052,7232,7164,1384,904,588
7052,7236,7164,1384,904,592
7052,7236,7164,1384,904,592
7052,7244,7168,1384,904,588
7060,7252,7176,1384,904,588
7064,7260,7180,1384,904,592
7064,7260,7184,1384,904,592
7068,7268,7188,1384,904,592
7064,7268,7188,1384,904,592
7072,7280,7196,1384,904,592
7072,7284,7200,1384,904,592
7076,7288,7200,1384,904,592
7076,7288,7200,1384,904,592
7072,7280,7196,1388,904,592
7068,7268,7188,1384,904,592
7064,7256,7180,1388,904,592
7056,7244,7168,1384,904,592
7060,7240,7168,1384,904,592
7056,7228,7160,1384,904,592
7052,7220,7156,1384,904,588
7052,7216,7152,1384,904,592
7052,7216,7152,1384,904,592
7056,7216,7156,1384,904,588
7056,7220,7156,1384,904,588
7060,7220,7156,1384,904,588
7060,7220,7156,1384,904,588
7056,7216,7152,1384,904,588
7056,7216,7156,1384,904,588
7060,7224,7156,1384,904,588
7060,7224,7160,1384,904,588
7060,7224,7160,1384,904,588
7064,7232,7164,1384,904,588
7068,7236,7168,1384,904,588
7064,7236,7168,1384,904,588
7068,7240,7172,1384,904,592
7072,7248,7176,1384,904,588
7072,7252,7176,1384,904,588
7076,7256,7180,1384,904,588
7076,7260,7184,1384,904,588
7076,7264,7188,1384,904,592
7076,7268,7188,1384,904,588
7076,7272,7192,1384,904,588
7080,7276,7192,1384,904,588
7080,7280,7196,1384,904,588
7084,7288,7200,1384,904,588
7088,7296,7208,1384,904,588
7084,7292,7204,1384,904,588
7084,7300,7208,1384,904,592
7088,7304,7212,1384,904,592
7088,7308,7212,1384,904,592
7088,7308,7212,1384,904,592
7088,7308,7212,1384,904,592
7084,7296,7208,1388,904,592
7084,7288,7204,1384,904,592
7080,7276,7192,1384,904,592
7068,7260,7180,1384,904,592
7064,7248,7176,1384,904,592
7064,7240,7168,1384,904,592
7060,7232,7160,1384,904,592
7064,7228,7164,1384,904,588
7056,7220,7156,1384,904,592
7060,7224,7160,1384,904,592
7056,7220,7156,1384,904,588
7056,7220,7156,1384,904,588
7056,7220,7156,1384,904,588
7056,7216,7156,1384,904,588
7052,7216,7152,1384,904,592
7052,7216,7152,1384,904,592
7048,7212,7148,1384,904,588
7052,7216,7152,1384,904,588
7048,7216,7152,1384,904,588
7052,7220,7156,1384,904,588
7052,7220,7156,1384,904,588
7052,7228,7160,1384,904,588
7056,7232,7160,1384,904,588
7060,7236,7168,1384,904,588
7060,7240,7168,1384,904,588
7064,7248,7172,1384,904,588
7060,7248,7172,1384,904,588
7056,7248,7172,1384,904,592
7056,7248,7172,1384,904,588
7060,7256,7176,1384,904,592
7064,7260,7180,1384,904,588
7060,7260,7180,1384,904,592
7064,7268,7184,1384,904,592
7068,7272,7188,1384,904,592
7064,7276,7188,1384,904,592
7072,7284,7196,1384,904,592
7072,7288,7196,1384,904,592
7072,7292,7200,1384,904,592
7072,7284,7196,1384,904,592
7068,7272,7188,1384,904,592
7064,7260,7180,1384,904,592
7052,7240,7164,1384,904,592
7048,7232,7160,1384,904,588
7044,7216,7148,1384,904,592
7040,7208,7144,1384,904,588
7040,7200,7140,1384,904,588
7036,7196,7136,1384,904,588
7036,7192,7132,1384,904,588
7036,7188,7132,1384,904,588
7036,7192,7132,1384,904,588
7036,7188,7132,1384,904,588
7036,7188,7132,1384,904,588
7032,7184,7128,1384,904,588
7032,7188,7128,1384,904,588
7032,7184,7128,1384,904,588
7028,7184,7124,1384,904,588
7028,7184,7124,1384,904,588
7032,7192,7132,1384,904,592
7032,7192,7132,1384,904,588
7036,7196,7140,1384,904,588
7040,7204,7140,1384,904,588
7036,7204,7140,1384,904,588
7044,7212,7148,1384,904,588
7040,7212,7144,1384,904,592
7044,7216,7148,1384,904,588
7044,7224,7152,1384,904,592
7048,7224,7156,1384,904,588
7048,7228,7160,1384,904,588
7052,7236,7164,1384,904,588
7052,7240,7164,1384,904,588
7052,7240,7168,1384,904,588
7052,7244,7168,1384,904,592
7056,7252,7172,1384,904,592
7056,7256,7176,1384,904,592
7060,7264,7180,1384,904,592
7064,7264,7184,1384,904,588
7060,7260,7180,1384,904,592
7060,7252,7176,1384,904,592
7056,7240,7168,1384,904,588
7052,7232,7160,1384,904,592
7052,7224,7156,1384,904,592
7048,7212,7148,1384,904,588
7044,7204,7140,1384,904,592
7044,7200,7140,1384,904,592
7044,7192,7136,1384,904,588
7044,7192,7136,1384,904,588
7044,7192,7136,1384,904,588
7044,7188,7136,1384,904,588
7048,7192,7136,1384,904,588
7048,7188,7136,1384,904,592
7044,7188,7136,1384,904,588
7052,7196,7140,1384,904,588
7052,7196,7140,1384,904,588
7052,7200,7144,1384,904,588
7052,7200,7144,1384,904,588
7052,7204,7144,1384,904,588
7052,7204,7148,1384,904,588
7060,7212,7152,1384,904,588
7056,7212,7152,1384,904,588
7060,7220,7156,1384,904,592
7064,7224,7160,1384,904,592
7064,7228,7164,1384,904,588
7068,7232,7168,1384,904,592
7068,7236,7172,1384,904,592
7068,7240,7168,1384,904,592
7072,7244,7172,1384,904,592
7072,7248,7176,1384,904,592
7076,7252,7180,1384,904,592
7076,7260,7184,1384,904,592
7076,7264,7188,1384,904,592
7076,7264,7184,1384,904,588
7080,7276,7196,1384,904,588
7080,7280,7196,1384,904,592
7080,7280,7196,1384,904,592
7084,7280,7196,1384,904,592
7084,7276,7192,1384,904,592
7080,7264,7188,1384,904,592
7068,7244,7172,1388,904,592
7064,7232,7164,1384,904,592
7060,7224,7160,1384,904,592
7056,7216,7152,1384,904,592
7056,7204,7148,1384,904,592
7056,7200,7144,1384,904,592
7048,7192,7136,1384,904,592
7052,7192,7140,1384,904,588
7048,7188,7136,1384,904,588
7052,7192,7136,1384,904,588
7048,7184,7132,1384,904,592
7044,7184,7132,1384,904,588
7048,7188,7136,1384,904,592
7048,7188,7132,1384,904,588
7048,7188,7136,1384,904,588
7040,7184,7128,1384,904,592
7040,7188,7132,1384,904,592
7044,7192,7136,1384,904,588
7048,7196,7140,1384,904,588
7048,7200,7140,1384,904,588
7048,7200,7140,1384,904,588
7052,7208,7148,1384,904,592
7052,7208,7148,1384,904,588
7052,7212,7148,1384,904,588
7056,7216,7152,1384,904,592
7056,7220,7156,1384,904,588
7052,7220,7152,1384,904,592
7052,7224,7156,1384,904,592
7052,7228,7156,1384,904,592
7052,7228,7156,1384,904,588
7052,7236,7160,1384,904,592
7052,7240,7164,1384,904,592
7052,7240,7164,1384,904,592
7052,7240,7164,1384,904,592
7056,7252,7168,1384,904,592
7060,7256,7172,1384,904,592
7060,7248,7172,1384,904,592
7056,7240,7164,1384,904,592
7048,7224,7152,1384,904,592
7044,7212,7144,1384,904,588
7036,7196,7136,1384,904,592
7032,7184,7124,1384,904,588
7024,7172,7116,1384,904,588
7028,7164,7116,1384,904,588
7020,7156,7108,1384,904,588
7020,7152,7104,1384,904,588
7016,7152,7100,1384,904,588
7016,7148,7100,1384,904,588
7016,7148,7100,1384,904,588
7016,7148,7100,1384,904,588
7016,7148,7100,1384,904,588
7020,7148,7104,1384,904,588
7016,7148,7104,1384,904,588
7016,7148,7104,1384,904,588
7016,7148,7100,1384,904,588
7020,7156,7108,1384,904,588
7016,7156,7104,1384,904,588
7024,7164,7112,1384,904,588
7024,7164,7116,1384,904,588
7024,7168,7116,1384,904,588
7028,7172,7120,1384,904,588
7032,7180,7124,1384,904,588
7032,7184,7124,1384,904,588
7032,7188,7128,1384,904,588
7036,7192,7136,1384,904,588
7040,7196,7140,1384,904,588
7040,7204,7140,1384,904,588
7044,7208,7144,1384,904,588
7044,7212,7148,1384,904,588
7044,7216,7148,1384,904,588
7044,7220,7148,1384,904,588
7048,7228,7156,1384,904,592
7052,7232,7160,1384,904,588
7048,7232,7156,1384,904,588
7052,7232,7160,1384,904,592
7056,7228,7156,1384,904,592
7052,7216,7152,1384,904,588
7044,7200,7140,1384,904,592
7040,7192,7132,1384,904,588
7036,7176,7128,1384,904,588
7036,7172,7124,1384,904,588
7032,7164,7116,1384,904,588
7028,7156,7108,1384,904,588
7028,7152,7108,1384,904,588
7032,7152,7112,1384,904,588
7032,7152,7112,1384,904,588
7032,7152,7108,1384,904,588
7032,7148,7108,1384,904,588
7032,7152,7108,1384,904,588
7032,7152,7112,1384,904,588
7036,7156,7112,1384,904,588
7036,7160,7116,1384,904,588
7040,7164,7120,1384,904,588
7040,7168,7120,1384,904,588
7044,7168,7124,1384,904,588
7044,7172,7124,1384,904,588
7048,7176,7128,1384,904,588
7048,7184,7132,1384,904,588
7056,7192,7140,1384,904,588
7056,7196,7144,1384,904,588
7056,7200,7144,1384,904,588
7060,7204,7148,1384,904,588
7056,7208,7148,1384,904,588
7060,7212,7156,1384,904,588
7064,7220,7156,1384,904,588
7064,7224,7160,1384,904,588
7064,7228,7160,1384,904,588
7064,7232,7164,1384,904,588
7068,7236,7168,1384,904,588
7072,7244,7172,1384,904,592
7072,7248,7172,1384,904,592
7072,7252,7176,1384,904,592
7068,7248,7172,1384,904,592
7072,7244,7172,1384,904,592
7064,7228,7160,1384,904,592
7060,7216,7152,1384,904,592
7056,7204,7148,1384,904,592
7052,7196,7140,1384,904,592
7048,7180,7128,1384,904,592
7044,7172,7124,1384,904,592
7040,7164,7116,1384,904,588
7036,7156,7112,1384,904,588
7040,7160,7116,1384,904,588
7036,7152,7112,1384,904,588
7036,7156,7112,1384,904,588
7032,7152,7108,1384,904,592
7028,7148,7104,1384,904,592
7032,7148,7108,1384,904,588
7032,7152,7108,1384,904,588
7032,7152,7108,1384,904,588
7032,7152,7108,1384,904,588
7032,7156,7112,1384,904,588
7036,7160,7116,1384,904,588
7032,7160,7112,1384,904,588
7032,7164,7116,1384,904,588
7040,7172,7124,1384,904,588
7040,7176,7120,1384,904,588
7036,7176,7124,1384,904,588
7040,7180,7128,1384,904,588
7036,7180,7128,1384,904,592
7040,7188,7132,1384,904,588
7044,7196,7136,1384,904,588
7044,7196,7140,1384,904,592
7048,7208,7148,1384,904,592
7048,7208,7144,1384,904,592
7048,7212,7148,1384,904,588
7044,7212,7144,1384,904,592
7048,7220,7148,1384,904,592
7048,7220,7152,1384,904,592
7048,7224,7156,1384,904,592
7048,7228,7156,1384,904,592
7044,7220,7148,1384,904,592
7044,7212,7144,1384,904,592
7040,7196,7136,1384,904,592
7032,7180,7124,1384,904,592
7028,7172,7116,1384,904,592
7024,7164,7112,1384,904,588
7024,7152,7108,1384,904,588
7016,7140,7100,1384,904,592
7020,7136,7096,1384,904,588
7016,7132,7092,1384,904,588
7020,7132,7092,1384,904,588
7012,7128,7088,1384,904,588
7016,7128,7092,1384,904,588
7012,7124,7088,1384,904,588
7008,7124,7084,1384,904,588
7016,7132,7092,1384,904,588
7020,7136,7096,1384,904,588
7012,7132,7092,1384,904,588
7016,7136,7092,1384,904,588
7016,7136,7096,1384,904,588
7016,7140,7096,1384,904,588
7020,7144,7100,1384,904,588
7020,7144,7100,1384,904,588
7020,7148,7104,1384,904,588
7020,7152,7104,1384,904,588
7024,7160,7108,1384,904,588
7024,7164,7112,1384,904,588
7024,7168,7116,1384,904,588
7028,7172,7116,1384,904,588
7028,7176,7120,1384,904,588
7028,7176,7120,1384,904,592
7028,7184,7124,1384,904,588
7032,7188,7128,1384,904,588
7032,7192,7132,1384,904,592
7036,7200,7136,1384,904,588
7036,7204,7140,1384,904,588
7044,7216,7148,1384,904,592
7040,7212,7144,1384,904,592
7044,7216,7148,1384,904,592
7048,7216,7148,1384,904,588
7044,7204,7140,1384,904,592
7036,7188,7132,1384,904,592
7028,7172,7120,1384,904,592
7024,7164,7112,1384,904,588
7024,7156,7108,1384,904,592
7024,7148,7104,1384,904,588
7016,7136,7096,1384,904,592
7016,7136,7092,1384,904,588
7020,7136,7096,1384,904,588
7020,7132,7092,1384,904,588
7024,7136,7096,1384,904,588
7020,7136,7092,1384,904,588
7024,7136,7096,1384,904,588
7024,7136,7100,1384,904,588
7028,7144,7104,1384,904,588
7028,7144,7100,1384,904,588
7032,7144,7108,1384,904,588
7032,7152,7108,1384,904,588
7036,7156,7112,1384,904,588
7036,7160,7112,1384,904,588
7036,7160,7116,1384,904,588
7040,7168,7120,1384,904,588
7044,7168,7120,1384,904,588
7044,7176,7124,1384,904,588
7048,7184,7128,1384,904,588
7048,7184,7132,1384,904,588
7048,7192,7136,1384,904,588
7052,7196,7140,1384,904,588
7056,7200,7144,1384,904,588
7056,7208,7144,1384,904,592
7056,7212,7148,1384,904,592
7060,7216,7152,1384,904,588
7060,7220,7152,1384,904,592
7060,7228,7156,1384,904,592
7064,7232,7164,1384,904,592
7068,7240,7168,1384,904,592
7076,7244,7172,1384,904,592
7068,7232,7164,1384,904,592
7068,7228,7160,1388,904,592
7064,7216,7152,1384,904,592
7056,7204,7144,1384,904,592
7052,7192,7136,1384,904,592
7048,7180,7128,1384,904,592
7048,7176,7124,1384,904,592
7044,7164,7120,1384,904,588
7044,7160,7116,1384,904,588
7040,7156,7116,1384,904,588
7044,7160,7116,1384,904,588
7040,7156,7112,1384,904,588
7040,7156,7112,1384,904,588
7040,7156,7112,1384,904,588
7044,7156,7112,1384,904,588
7040,7156,7112,1384,904,592
7044,7164,7116,1384,904,592
7044,7160,7116,1384,904,592
7044,7164,7116,1384,904,592
7040,7168,7116,1384,904,588
7040,7168,7120,1384,904,588
7044,7176,7124,1384,904,592
7044,7176,7124,1384,904,588
7044,7176,7124,1384,904,588
7048,7184,7128,1384,904,592
7044,7188,7132,1384,904,592
7044,7188,7128,1384,904,588
7044,7192,7132,1384,904,588
7044,7192,7136,1384,904,592
7048,7200,7140,1384,904,592
7044,7200,7136,1384,904,588
7052,7212,7144,1384,904,588
7052,7216,7148,1384,904,592
7056,7220,7156,1384,904,588
7052,7224,7152,1384,904,592
7052,7228,7156,1384,904,592
7056,7232,7160,1384,904,592
7052,7236,7160,1384,904,592
7052,7236,7156,1384,904,592
7052,7228,7156,1384,904,592
7048,7216,7152,1384,904,592
7048,7208,7144,1384,904,592
7044,7196,7136,1384,904,592
7040,7184,7128,1384,904,592
7036,7172,7120,1384,904,588
7032,7164,7112,1384,904,592
7032,7156,7108,1384,904,588
7028,7148,7104,1384,904,588
7024,7140,7096,1384,904,588
7024,7144,7100,1384,904,592
7020,7140,7096,1384,904,588
7020,7136,7096,1384,904,588
7024,7140,7096,1384,904,588
7024,7140,7100,1384,904,588
7028,7148,7104,1384,904,588
7024,7140,7096,1384,904,588
7020,7140,7096,1384,904,588
7020,7140,7096,1384,904,588
7016,7144,7100,1384,904,588
7020,7148,7100,1384,904,592
7024,7156,7104,1384,904,588
7028,7160,7112,1384,904,588
7020,7156,7108,1384,904,588
7024,7164,7112,1384,904,588
7028,7168,7116,1384,904,588
7024,7168,7112,1384,904,588
7032,7180,7120,1384,904,588
7032,7184,7124,1384,904,588
7028,7184,7124,1384,904,588
7028,7184,7124,1384,904,588
7032,7192,7128,1384,904,588
7032,7196,7132,1384,904,592
7032,7200,7136,1384,904,592
7032,7204,7136,1384,904,592
7036,7212,7140,1384,904,592
7036,7212,7140,1384,904,592
7036,7220,7144,1384,904,588
7040,7220,7148,1384,904,592
7036,7212,7140,1384,904,592
7036,7204,7136,1384,904,592
7028,7188,7124,1384,904,592
7024,7180,7120,1384,904,592
7024,7172,7116,1384,904,592
7024,7164,7112,1384,904,588
7020,7156,7108,1384,904,588
7016,7144,7100,1384,904,588
7012,7140,7092,1384,904,588
7016,7140,7096,1384,904,588
7016,7140,7096,1384,904,588
7016,7136,7096,1384,904,588
7016,7136,7092,1384,904,588
7016,7136,7096,1384,904,588
7020,7140,7100,1384,904,588
7024,7144,7100,1384,904,588
7024,7148,7104,1384,904,588
7024,7148,7104,1384,904,588
7032,7156,7112,1384,904,588
7024,7152,7104,1384,904,588
7028,7156,7108,1384,904,588
7032,7164,7116,1384,904,588
7032,7168,7116,1384,904,588
7036,7172,7120,1384,904,588
7040,7176,7124,1384,904,588
7040,7184,7128,1384,904,588
7040,7184,7128,1384,904,588
7040,7188,7132,1384,904,592
7040,7196,7132,1384,904,588
7044,7200,7136,1384,904,588
7044,7204,7140,1384,904,588
7052,7212,7148,1384,904,592
7056,7216,7152,1384,904,588
7056,7224,7156,1384,904,592
7060,7228,7156,1384,904,592
7060,7232,7164,1384,904,592
7060,7236,7164,1384,904,592
7060,7236,7164,1384,904,592
7060,7232,7160,1384,904,592
7056,7220,7152,1384,904,592
7056,7212,7148,1384,904,592
7048,7200,7136,1384,904,592
7044,7188,7128,1384,904,592
7040,7176,7120,1384,904,592
7036,7172,7120,1384,904,588
7040,7168,7116,1384,904,592
7040,7168,7116,1384,904,592
7044,7168,7120,1384,904,588
7044,7168,7120,1384,904,588
7040,7164,7116,1384,904,588
7040,7168,7116,1384,904,588
7040,7168,7120,1384,904,592
7040,7168,7120,1384,904,592
7044,7172,7120,1384,904,588
7044,7172,7120,1384,904,588
7044,7176,7124,1384,904,588
7048,7184,7128,1384,904,588
7048,7184,7132,1384,904,592
7044,7184,7128,1384,904,592
7048,7188,7132,1384,904,592
7052,7196,7136,1384,904,592
7052,7200,7140,1384,904,592
7052,7200,7140,1384,904,592
7048,7200,7140,1384,904,592
7052,7208,7144,1384,904,592
7052,7212,7148,1384,904,592
7052,7216,7148,1384,904,592
7056,7228,7156,1384,904,592
7056,7224,7152,1384,904,592
7056,7232,7160,1388,904,592
7056,7236,7160,1388,904,592
7060,7240,7164,1388,904,592
7060,7248,7168,1384,904,592
7064,7256,7172,1388,904,592
7064,7260,7176,1384,904,592
7064,7256,7172,1384,904,592
7064,7252,7172,1384,904,592
7064,7248,7168,1384,904,592
7056,7232,7160,1384,904,592
7052,7216,7148,1384,904,592
7048,7204,7140,1384,904,592
7040,7192,7132,1384,904,592
7032,7180,7120,1384,904,592
7032,7176,7120,1384,904,592
7032,7172,7120,1384,904,592
7032,7168,7116,1384,904,588
7028,7164,7112,1384,904,588
7028,7164,7112,1384,904,592
7028,7164,7108,1384,904,588
7024,7160,7108,1384,904,592
7028,7160,7112,1384,904,588
7024,7160,7108,1384,904,588
7024,7160,7108,1384,904,588
7020,7160,7108,1384,904,592
7020,7164,7108,1384,904,592
7024,7168,7116,1384,904,588
7028,7172,7116,1384,904,592
7028,7172,7116,1384,904,592
7028,7176,7120,1384,904,592
7024,7176,7120,1384,904,592
7028,7180,7120,1384,904,592
7032,7188,7124,1384,904,592
7028,7188,7124,1384,904,592
7032,7192,7132,1384,904,588
7032,7196,7132,1384,904,592
7032,7200,7132,1384,904,592
7040,7212,7140,1384,904,592
7040,7216,7144,1384,904,592
7040,7220,7148,1384,904,592
7044,7224,7152,1384,904,592
7048,7232,7160,1384,904,592
7048,7236,7160,1384,904,592
7048,7240,7160,1384,904,592
7048,7244,7164,1384,904,592
7048,7240,7160,1384,904,592
7044,7228,7152,1384,904,592
7040,7220,7148,1384,904,592
7036,7204,7136,1384,904,592
7032,7192,7128,1384,904,592
7024,7176,7120,1384,904,592
7024,7172,7116,1384,904,588
7020,7160,7108,1384,904,588
7016,7152,7104,1384,904,588
7016,7152,7104,1384,904,588
7016,7152,7100,1384,904,588
7016,7152,7104,1384,904,588
7016,7152,7100,1384,904,588
7020,7152,7104,1384,904,588
7016,7148,7100,1384,904,588
7012,7144,7096,1384,904,588
7012,7144,7096,1384,904,588
7020,7152,7104,1384,904,588
7020,7156,7108,1384,904,592
7024,7160,7108,1384,904,588
7024,7164,7112,1384,904,588
7028,7168,7116,1384,904,588
7032,7172,7116,1384,904,588
7032,7180,7124,1384,904,588
7036,7184,7124,1384,904,588
7032,7180,7120,1384,904,588
7036,7184,7128,1384,904,592
7040,7192,7132,1384,904,592
7044,7200,7136,1384,904,592
7048,7208,7144,1384,904,592
7048,7208,7144,1384,904,592
7048,7212,7144,1388,904,592
7048,7216,7148,1388,904,592
7052,7224,7156,1384,904,592
7056,7232,7156,1384,904,592
7056,7236,7160,1384,904,592
7060,7240,7164,1384,904,592
7060,7240,7168,1384,904,592
7064,7240,7168,1384,904,592
7060,7228,7156,1384,904,592
7056,7216,7148,1384,904,592
7052,7204,7144,1384,904,592
7048,7196,7136,1384,904,592
7044,7188,7132,1384,904,588
7044,7180,7128,1384,904,592
7044,7176,7124,1384,904,588
7040,7168,7120,1384,904,588
7040,7168,7120,1384,904,592
7040,7168,7120,1384,904,592
7044,7172,7124,1384,904,588
7044,7172,7124,1384,904,592
7044,7172,7124,1384,904,592
7048,7176,7124,1384,904,592
7052,7180,7128,1384,904,592
7052,7180,7132,1384,904,592
7052,7184,7132,1384,904,592
7052,7188,7132,1384,904,592
7056,7192,7136,1384,904,588
7052,7192,7136,1384,904,592
7052,7192,7136,1384,904,588
7052,7196,7136,1384,904,592
7052,7196,7140,1384,904,592
7056,7204,7144,1384,904,592
7056,7208,7144,1384,904,592
7056,7212,7152,1384,904,592
7060,7220,7156,1384,904,592
7060,7224,7152,1384,904,592
7060,7228,7156,1384,904,592
7064,7236,7164,1388,904,592
7068,7240,7164,1388,904,592
7064,7240,7164,1384,904,592
7064,7244,7168,1384,904,592
7064,7248,7172,1384,904,592
7068,7252,7172,1384,904,592
7064,7256,7172,1384,904,592
7064,7252,7176,1384,904,592
7064,7248,7168,1384,904,592
7060,7236,7160,1384,904,592
7060,7224,7156,1384,904,592
7052,7208,7144,1384,904,592
7048,7200,7140,1384,904,592
7044,7184,7128,1384,904,592
7040,7176,7120,1384,904,592
7040,7172,7120,1384,904,592
7036,7168,7116,1384,904,592
7036,7168,7116,1384,904,588
7032,7160,7112,1384,904,588
7032,7160,7108,1384,904,592
7032,7160,7112,1384,904,592
7028,7156,7108,1384,904,592
7028,7156,7108,1384,904,592
7028,7156,7108,1384,904,592
7028,7160,7108,1384,904,592
7028,7160,7112,1384,904,588
7028,7160,7108,1384,904,592
7028,7164,7112,1384,904,588
7032,7168,7116,1384,904,588
7028,7168,7116,1384,904,588
7032,7172,7116,1384,904,592
7036,7176,7124,1384,904,592
7032,7180,7120,1384,904,588
7032,7180,7120,1384,904,592
7028,7180,7120,1384,904,592
7032,7188,7124,1384,904,592
7028,7184,7120,1384,904,592
7032,7192,7128,1384,904,588
7036,7200,7132,1384,904,592
7036,7204,7132,1384,904,588
7036,7208,7136,1384,904,592
7036,7212,7140,1384,904,592
7044,7220,7148,1384,904,592
7040,7220,7148,1384,904,592
7044,7228,7152,1384,904,592
7048,7228,7152,1384,904,592
7040,7216,7144,1384,904,592
7036,7204,7136,1384,904,592
7032,7192,7128,1384,904,592
7024,7176,7116,1384,904,592
7020,7164,7112,1384,904,592
7016,7156,7100,1384,904,592
7016,7148,7096,1384,904,592
7012,7136,7092,1384,904,592
7012,7136,7092,1384,904,592
7012,7132,7088,1384,904,588
7008,7128,7084,1384,904,592
7012,7132,7088,1384,904,588
7016,7136,7092,1384,904,588
7016,7132,7092,1384,904,588
7016,7136,7092,1384,904,588
7012,7132,7088,1384,904,588
7012,7132,7088,1384,904,588
7016,7136,7092,1384,904,588
7020,7144,7100,1384,904,588
7020,7148,7100,1384,904,592
7020,7148,7100,1384,904,588
7020,7152,7104,1384,904,588
7020,7156,7104,1384,904,588
7024,7160,7108,1384,904,588
7024,7164,7108,1384,904,588
7028,7168,7116,1384,904,588
7032,7176,7120,1384,904,592
7032,7176,7120,1384,904,588
7032,7180,7124,1384,904,588
7032,7184,7124,1384,904,588
7036,7192,7132,1384,904,588
7036,7196,7132,1384,904,588
7044,7204,7140,1384,904,588
7044,7212,7144,1384,904,588
7048,7216,7148,1384,904,588
7048,7220,7152,1384,904,592
7048,7220,7148,1384,904,592
7048,7216,7148,1384,904,592
7044,7204,7140,1384,904,588
7044,7196,7136,1384,904,592
7036,7184,7124,1384,904,588
7036,7176,7124,1384,904,588
7032,7168,7116,1384,904,588
7028,7160,7108,1384,904,588
7032,7156,7108,1384,904,588
7032,7156,7108,1384,904,588
7032,7152,7108,1384,904,588
7036,7156,7112,1384,904,588
7032,7152,7108,1384,904,588
7032,7152,7108,1384,904,588
7036,7156,7108,1384,904,588
7040,7160,7112,1384,904,588
7036,7156,7112,1384,904,588
7040,7160,7116,1384,904,588
7044,7164,7116,1384,904,592
7040,7168,7120,1384,904,588
7044,7176,7124,1384,904,588
7048,7180,7124,1384,904,588
7048,7184,7128,1384,904,588
7048,7184,7132,1384,904,588
7052,7192,7136,1384,904,588
7048,7192,7132,1384,904,588
7056,7200,7140,1384,904,592
7056,7208,7148,1384,904,592
7060,7212,7148,1384,904,592
7060,7220,7156,1384,904,592
7060,7220,7152,1384,904,588
7060,7224,7156,1384,904,588
7060,7228,7156,1384,904,592
7064,7236,7164,1384,904,592
7064,7236,7164,1384,904,592
7064,7244,7168,1384,904,592
7060,7244,7164,1384,904,592
7064,7252,7172,1384,904,592
7064,7252,7172,1388,904,592
7068,7248,7168,1384,904,592
7068,7240,7168,1384,904,592
7064,7228,7156,1384,904,592
7056,7216,7148,1384,904,592
7052,7200,7140,1384,904,592
7052,7196,7136,1384,904,592
7048,7184,7132,1384,904,592
7048,7176,7128,1384,904,592
7040,7168,7116,1384,904,588
7040,7168,7116,1384,904,592
7040,7164,7116,1384,904,592
7040,7164,7116,1384,904,592
7044,7168,7120,1384,904,588
7036,7164,7116,1384,904,588
7040,7164,7116,1384,904,588
7040,7168,7116,1384,904,588
7040,7168,7116,1384,904,588
7040,7168,7120,1384,904,588
7040,7172,7124,1384,904,588
7040,7172,7120,1384,904,588
7040,7172,7124,1384,904,588
7040,7180,7124,1384,904,588
7036,7176,7120,1384,904,588
7040,7180,7128,1384,904,588
7036,7184,7124,1384,904,588
7036,7188,7128,1384,904,592
7040,7192,7132,1384,904,592
7040,7196,7132,1384,904,588
7044,7204,7136,1384,904,592
7048,7208,7144,1384,904,592
7044,7208,7144,1384,904,592
7044,7208,7140,1384,904,592
7048,7220,7148,1384,904,592
7052,7224,7152,1384,904,592
7052,7228,7156,1384,904,592
7052,7232,7156,1384,904,592
7052,7236,7160,1384,904,592
7056,7240,7160,1384,904,592
7052,7232,7156,1384,904,592
7048,7224,7152,1384,904,592
7048,7216,7148,1384,904,592
7040,7196,7132,1384,904,592
7036,7188,7128,1384,904,592
7032,7176,7120,1384,904,592
7028,7164,7112,1384,904,592
7024,7152,7104,1384,904,592
7020,7140,7096,1384,904,588
7016,7136,7092,1384,904,588
7020,7140,7096,1384,904,592
7016,7136,7088,1384,904,588
7016,7136,7092,1384,904,588
7016,7136,7092,1384,904,592
7016,7136,7092,1384,904,588
7016,7136,7092,1384,904,592
7012,7136,7092,1384,904,588
7016,7140,7092,1384,904,588
7020,7144,7100,1384,904,588
7020,7148,7104,1384,904,592
7024,7152,7104,1384,904,592
7024,7156,7108,1384,904,592
7020,7156,7104,1384,904,588
7020,7156,7104,1384,904,592
7020,7160,7104,1384,904,592
7024,7168,7112,1384,904,588
7024,7168,7112,1384,904,592
7024,7172,7116,1384,904,588
7028,7180,7120,1384,904,592
7028,7184,7124,1384,904,592
7032,7188,7124,1384,904,592
7036,7196,7132,1384,904,592
7032,7196,7132,1384,904,592
7036,7204,7136,1384,904,592
7036,7208,7140,1384,904,592
7040,7216,7144,1384,904,592
7044,7220,7148,1384,904,592
7048,7224,7152,1384,904,592
7048,7224,7152,1384,904,592
7048,7220,7148,1384,904,592
7044,7208,7140,1384,904,592
7036,7196,7128,1384,904,592
7032,7180,7124,1384,904,592
7028,7172,7116,1384,904,588
7032,7168,7112,1384,904,588
7032,7164,7112,1384,904,588
7028,7152,7104,1384,904,588
7024,7148,7104,1384,904,588
7024,7144,7100,1384,904,588
7032,7152,7108,1384,904,588
7032,7148,7108,1384,904,588
7028,7148,7104,1384,904,588
7028,7148,7104,1384,904,588
7032,7152,7104,1384,904,588
7028,7148,7104,1384,904,588
7032,7152,7104,1384,904,588
7032,7156,7108,1384,904,592
7040,7164,7116,1384,904,592
7040,7168,7116,1384,904,592
7040,7168,7116,1384,904,592
7040,7172,7120,1384,904,592
7048,7184,7128,1384,904,592
7048,7188,7132,1384,904,592
7044,7188,7128,1384,904,592
7048,7192,7132,1384,904,592
7052,7196,7136,1384,904,592
7052,7200,7140,1384,904,592
7056,7212,7144,1384,904,592
7056,7212,7144,1384,904,592
7056,7216,7152,1384,904,592
7060,7224,7156,1384,904,592
7064,7232,7160,1388,904,592
7064,7236,7160,1384,904,592
7064,7240,7164,1388,904,592
7064,7244,7164,1388,904,592
7064,7248,7168,1384,904,592
7068,7248,7172,1384,904,592
7064,7240,7164,1384,904,592
7068,7236,7160,1384,904,592
7064,7224,7156,1384,904,592
7056,7212,7144,1384,904,592
7052,7200,7136,1384,904,592
7048,7188,7128,1384,904,592
7048,7180,7124,1384,904,592
7048,7172,7120,1384,904,592
7040,7168,7116,1384,904,592
7044,7168,7116,1384,904,588
7040,7164,7116,1384,904,592
7040,7160,7112,1384,904,588
7036,7156,7108,1384,904,588
7040,7164,7112,1384,904,588
7040,7164,7116,1384,904,592
7040,7164,7112,1384,904,592
7040,7164,7116,1384,904,588
7036,7164,7112,1384,904,588
7036,7164,7112,1384,904,592
7040,7168,7116,1384,904,592
7040,7172,7120,1384,904,592
7040,7176,7124,1384,904,592
7044,7184,7128,1384,904,592
7048,7188,7128,1388,904,592
7044,7188,7128,1384,904,592
7044,7192,7132,1384,904,592
7044,7196,7132,1384,904,592
7048,7204,7140,1388,904,592
7044,7204,7136,1384,904,592
7048,7208,7140,1384,904,592
7052,7216,7148,1384,904,592
7056,7224,7152,1384,904,592
7052,7220,7148,1388,904,592
7052,7228,7152,1384,904,592
7052,7228,7152,1384,904,592
7056,7240,7160,1384,904,592
7056,7240,7160,1384,904,592
7056,7244,7160,1384,904,592
7052,7240,7160,1384,904,592
7056,7236,7156,1384,904,592
7052,7224,7148,1384,904,592
7044,7208,7136,1384,904,592
7044,7196,7132,1384,904,592
7036,7184,7124,1384,904,592
7032,7172,7116,1384,904,592
7028,7164,7108,1384,904,592
7024,7152,7100,1384,904,592
7020,7144,7096,1384,904,592
7020,7144,7096,1384,904,592
7024,7148,7100,1384,904,592
7024,7148,7096,1384,904,588
7024,7144,7096,1384,904,592
7020,7140,7096,1384,904,592
7020,7144,7100,1384,904,588
7020,7144,7096,1384,904,588
7020,7144,7096,1384,904,592
7020,7148,7100,1384,904,592
7024,7152,7100,1384,904,592
7024,7152,7100,1384,904,592
7024,7152,7104,1384,904,592
7024,7156,7104,1384,904,592
7028,7164,7112,1384,904,592
7024,7164,7112,1384,904,592
7028,7168,7112,1384,904,592
7028,7172,7116,1384,904,592
7028,7176,7116,1384,904,592
7028,7180,7120,1384,904,592
7032,7188,7124,1384,904,592
7032,7188,7124,1384,904,592
7032,7196,7128,1384,904,592
7036,7200,7132,1384,904,592
7036,7204,7136,1384,904,592
7036,7208,7136,1384,904,592
7036,7212,7140,1384,904,592
7040,7220,7144,1384,904,592
7040,7220,7144,1384,904,592
7040,7224,7148,1384,904,592
7044,7228,7148,1384,904,592
7040,7220,7144,1384,904,592
7040,7212,7140,1384,904,592
7032,7196,7132,1384,904,592
7024,7180,7116,1384,904,592
7024,7172,7116,1384,904,592
7016,7156,7100,1384,904,592
7016,7148,7096,1384,904,588
7012,7140,7092,1384,904,588
7012,7140,7092,1384,904,588
7016,7140,7096,1384,904,592
7012,7136,7092,1384,904,588
7012,7136,7088,1384,904,592
7016,7136,7092,1384,904,588
7012,7136,7088,1384,904,588
7012,7132,7092,1384,904,588
7012,7132,7088,1384,904,588
7012,7136,7088,1384,904,592
7012,7136,7088,1384,904,588
7012,7136,7088,1384,904,588
7012,7144,7092,1384,904,588
7012,7144,7096,1384,904,588
7016,7148,7096,1384,904,588
7020,7152,7100,1384,904,588
7020,7156,7104,1384,904,588
7024,7164,7108,1384,904,588
7024,7168,7112,1384,904,592
7032,7176,7116,1384,904,588
7028,7176,7116,1384,904,588
7032,7180,7124,1384,904,592
7028,7184,7120,1384,904,592
7036,7192,7132,1384,904,588
7036,7196,7132,1384,904,592
7040,7204,7132,1384,904,592
7040,7208,7136,1384,904,592
7040,7212,7140,1384,904,592
7040,7216,7140,1384,904,592
7044,7220,7148,1384,904,592
7048,7228,7148,1384,904,592
7044,7224,7148,1384,904,592
7044,7216,7144,1384,904,592
7040,7204,7136,1384,904,592
7044,7200,7136,1384,904,592
7036,7188,7124,1384,904,592
7036,7180,7120,1388,904,592
7032,7168,7116,1384,904,592
7032,7164,7112,1384,904,592
7028,7160,7108,1384,904,592
7024,7148,7100,1384,904,592
7028,7152,7104,1384,904,592
7028,7152,7104,1384,904,592
7024,7148,7100,1388,904,592
7036,7160,7112,1384,904,592
7028,7152,7104,1384,904,592
7032,7156,7104,1384,904,592
7036,7160,7108,1384,904,592
7036,7160,7112,1384,904,592
7032,7164,7112,1384,904,592
7036,7168,7112,1384,904,592
7036,7168,7116,1384,904,592
7040,7172,7116,1384,904,592
7040,7180,7124,1384,904,592
7044,7184,7124,1384,904,592
7044,7188,7128,1384,904,592
7044,7188,7128,1384,904,592
7048,7196,7136,1384,904,592
7052,7204,7140,1384,904,592
7056,7212,7144,1384,904,592
7056,7212,7144,1388,904,592
7056,7216,7144,1388,904,592
7060,7224,7152,1388,908,592
7056,7228,7152,1388,904,592
7060,7232,7156,1388,904,592
7064,7236,7160,1388,908,592
7064,7240,7164,1388,908,592
7064,7248,7168,1388,908,592
7068,7252,7172,1388,908,592
7068,7256,7172,1388,908,592
7068,7256,7172,1388,908,592
7068,7248,7168,1388,908,592
7068,7240,7164,1384,904,592
7056,7220,7148,1388,908,592
7052,7208,7140,1384,904,592
7052,7200,7136,1388,904,592
7044,7188,7128,1388,904,592
7044,7180,7120,1388,904,592
7036,7168,7112,1384,904,592
7036,7168,7112,1384,904,592
7036,7164,7108,1384,904,592
7036,7160,7108,1384,904,592
7036,7160,7112,1384,904,592
7036,7164,7112,1384,904,592
7032,7160,7108,1384,904,592
7032,7156,7108,1384,904,592
7028,7156,7104,1384,904,592
7028,7160,7104,1384,904,592
7032,7164,7108,1384,904,592
7028,7160,7108,1384,904,592
7032,7168,7112,1384,904,592
7032,7172,7116,1384,904,592
7036,7176,7116,1384,904,592
7036,7176,7120,1384,904,592
7036,7180,7120,1384,904,592
7032,7180,7120,1384,904,592
7036,7188,7124,1384,904,592
7040,7192,7128,1384,904,592
7036,7192,7128,1384,904,592
7036,7196,7128,1384,904,592
7040,7204,7136,1384,904,592
7040,7208,7136,1384,904,592
7040,7208,7136,1384,904,592
7044,7216,7140,1384,904,592
7044,7216,7144,1384,904,592
7044,7224,7144,1384,908,592
7044,7228,7148,1384,904,592
7044,7232,7152,1384,904,592
7044,7232,7152,1384,908,592
7048,7236,7156,1384,908,592
7052,7232,7152,1384,908,592
7044,7220,7144,1384,908,592
7040,7208,7136,1384,904,592
7032,7192,7128,1384,904,592
7032,7184,7120,1384,904,592
7024,7168,7108,1384,904,592
7024,7160,7108,1384,904,592
7016,7148,7096,1384,904,592
7020,7148,7096,1384,904,592
7020,7148,7100,1384,904,592
7020,7144,7096,1384,904,592
7016,7144,7096,1384,904,592
7016,7140,7092,1384,904,592
7016,7140,7092,1384,904,592
7012,7140,7092,1384,904,592
7016,7140,7092,1384,904,588
7016,7144,7092,1384,904,592
7016,7148,7096,1384,904,592
7016,7148,7096,1384,904,592
7016,7152,7096,1384,904,592
7020,7152,7100,1384,904,592
7020,7160,7104,1384,904,592
7020,7160,7104,1384,904,592
7020,7164,7108,1384,904,592
7016,7164,7104,1384,904,592
7020,7168,7108,1384,904,592
7020,7172,7112,1384,904,592
7020,7176,7116,1384,904,592
7024,7184,7120,1384,904,592
7028,7188,7120,1384,904,592
7024,7188,7120,1384,904,592
7028,7192,7124,1384,904,592
7024,7196,7124,1384,904,592
7028,7200,7128,1384,904,592
7028,7204,7132,1384,904,592
7032,7212,7136,1384,904,592
7032,7216,7136,1384,904,592
7036,7220,7144,1384,904,592
7036,7220,7144,1384,908,592
7036,7216,7140,1384,904,592
7036,7212,7136,1384,904,592
7028,7196,7128,1384,904,592
7028,7184,7120,1384,904,592
7028,7180,7116,1384,904,592
7020,7164,7108,1384,904,592
7016,7152,7096,1384,904,592
7016,7148,7096,1384,904,592
7012,7144,7092,1384,904,592
7016,7144,7092,1384,904,592
7016,7148,7096,1384,904,592
7016,7144,7092,1384,904,592
7016,7140,7092,1384,904,592
7016,7144,7096,1384,904,592
7016,7140,7096,1384,904,592
7020,7148,7096,1384,904,592
7020,7148,7096,1384,904,592
7028,7156,7104,1384,904,592
7024,7156,7104,1384,904,592
7028,7160,7108,1384,904,592
7028,7164,7112,1384,904,592
7032,7168,7116,1384,904,592
7032,7172,7116,1384,904,592
7036,7176,7116,1384,904,592
7032,7176,7120,1384,904,592
7040,7188,7124,1384,904,592
7040,7192,7128,1384,904,592
7044,7196,7132,1384,904,592
7044,7200,7132,1384,904,592
7044,7204,7140,1384,904,592
7048,7208,7140,1384,904,592
7044,7212,7140,1384,904,592
7048,7216,7144,1384,904,592
7056,7224,7152,1384,904,592
7056,7228,7156,1384,904,592
7060,7236,7160,1384,908,592
7060,7240,7160,1388,908,592
7060,7244,7164,1384,908,592
7060,7240,7160,1384,908,592
7060,7232,7156,1384,908,592
7052,7220,7148,1388,908,592
7052,7208,7140,1384,904,592
7044,7196,7132,1384,904,592
7044,7188,7128,1384,904,592
7040,7180,7120,1384,904,592
7040,7172,7116,1384,904,592
7036,7168,7116,1384,904,592
7036,7164,7108,1384,904,592
7036,7164,7112,1384,904,592
7036,7168,7112,1384,904,592
7040,7168,7112,1384,904,592
7036,7164,7112,1384,904,592
7040,7164,7112,1384,904,592
7036,7164,7112,1384,904,592
7040,7168,7116,1384,904,592
7040,7172,7116,1384,904,592
7044,7176,7120,1384,904,592
7040,7176,7120,1384,904,592
7044,7184,7124,1384,904,592
7044,7184,7124,1384,904,592
7044,7184,7128,1384,904,592
7044,7188,7128,1384,904,592
7048,7192,7132,1384,904,592
7052,7200,7136,1384,904,592
7048,7200,7136,1384,904,592
7048,7204,7136,1384,904,592
7048,7212,7140,1384,908,592
7048,7212,7140,1384,904,592
7048,7216,7140,1384,904,592
7048,7220,7144,1384,904,592
7052,7224,7148,1384,904,592
7052,7228,7152,1384,904,592
7056,7236,7156,1384,904,592
7052,7236,7156,1384,904,592
7056,7240,7160,1388,908,592
7060,7248,7168,1384,908,592
7060,7252,7164,1384,908,592
7056,7240,7160,1388,908,592
7060,7236,7160,1384,908,592
7052,7224,7148,1384,908,592
7048,7208,7140,1384,908,592
7040,7196,7132,1384,908,592
7036,7184,7124,1384,904,592
7036,7172,7116,1384,904,592
7028,7164,7108,1384,904,592
7028,7160,7104,1384,904,592
7028,7156,7104,1384,904,592
7028,7156,7104,1384,904,592
7028,7152,7104,1384,904,592
7028,7156,7104,1384,904,592
7024,7152,7100,1384,904,592
7024,7144,7096,1384,904,592
7024,7148,7100,1384,904,592
7020,7144,7096,1384,904,592
7024,7148,7100,1384,904,592
7020,7148,7096,1384,904,592
7020,7148,7096,1384,904,592
7020,7152,7096,1384,904,592
7020,7156,7100,1384,904,592
7024,7160,7104,1384,904,592
7028,7164,7108,1384,904,592
7028,7168,7108,1384,904,592
7032,7172,7116,1384,904,592
7028,7176,7116,1384,904,592
7032,7180,7120,1384,904,592
7028,7180,7120,1384,904,592
7028,7184,7120,1384,904,592
7032,7192,7124,1384,904,592
7036,7192,7128,1384,904,592
7032,7196,7128,1384,904,592
7032,7200,7128,1384,904,592
7036,7204,7132,1384,904,592
7036,7208,7136,1384,904,592
7036,7212,7140,1384,904,592
7040,7220,7144,1384,904,592
7040,7216,7144,1384,904,592
7040,7216,7140,1384,904,592
7040,7204,7132,1384,908,592
7032,7192,7128,1384,904,592
7020,7172,7108,1384,904,592
7016,7160,7104,1384,904,592
7012,7148,7096,1384,904,592
7012,7140,7092,1384,904,592
7004,7128,7084,1384,904,592
7004,7124,7080,1384,904,592
7004,7124,7080,1384,904,592
7004,7120,7072,1384,904,592
7000,7116,7076,1384,904,592
7000,7112,7072,1384,904,592
7000,7116,7072,1384,904,592
7004,7116,7076,1384,904,592
7004,7120,7076,1384,904,592
7008,7124,7080,1384,904,588
7008,7124,7080,1384,904,588
7008,7124,7080,1384,904,592
7008,7128,7084,1384,904,592
7008,7132,7084,1384,904,592
7012,7136,7088,1384,904,592
7016,7140,7092,1384,904,592
7012,7144,7092,1384,904,592
7016,7148,7096,1384,904,592
7024,7160,7104,1384,904,592
7024,7160,7108,1384,904,592
7024,7160,7108,1384,904,592
7020,7164,7104,1384,904,592
7024,7168,7112,1384,904,592
7024,7168,7108,1384,904,592
7028,7180,7120,1384,904,592
7032,7188,7124,1384,904,592
7032,7188,7124,1384,904,592
7036,7196,7128,1384,904,592
7036,7200,7132,1384,904,592
7036,7204,7132,1384,904,592
7040,7208,7136,1384,904,592
7040,7204,7132,1384,904,592
7040,7196,7132,1384,904,592
7032,7184,7120,1384,904,592
7032,7172,7116,1384,904,592
7024,7160,7104,1384,904,592
7020,7152,7096,1384,904,592
7016,7140,7092,1384,904,592
7012,7132,7084,1384,904,592
7016,7132,7084,1384,904,592
7016,7128,7084,1384,904,592
7020,7132,7092,1384,904,592
7020,7132,7088,1384,904,592
7024,7136,7092,1384,904,592
7020,7128,7088,1384,904,592
7024,7132,7088,1384,904,588
7024,7136,7092,1384,904,592
7024,7136,7092,1384,904,592
7024,7140,7092,1384,904,592
7024,7140,7096,1384,904,588
7028,7144,7096,1384,904,592
7032,7152,7104,1384,904,592
7028,7152,7104,1384,904,592
7032,7160,7108,1384,904,592
7036,7160,7108,1384,904,592
7036,7168,7112,1384,904,592
7040,7172,7116,1384,904,592
7040,7176,7120,1384,904,592
7040,7180,7120,1384,904,592
7044,7188,7124,1384,904,592
7040,7188,7124,1384,904,592
7044,7192,7132,1384,904,592
7040,7196,7128,1384,904,592
7040,7196,7132,1384,904,592
7040,7204,7132,1384,904,592
7044,7208,7136,1384,904,592
7048,7216,7140,1384,904,592
7052,7224,7148,1384,904,592
7048,7224,7148,1384,904,592
7052,7228,7148,1384,904,592
7056,7224,7148,1384,904,592
7048,7208,7140,1384,904,592
7044,7196,7132,1384,904,592
7040,7184,7124,1384,904,592
7036,7172,7112,1384,904,592
7028,7160,7104,1384,904,592
7028,7152,7100,1384,904,592
7024,7144,7096,1384,904,592
7020,7136,7092,1384,904,592
7020,7132,7088,1384,904,592
7016,7132,7084,1384,904,592
7020,7132,7084,1384,904,592
7020,7132,7084,1384,904,592
7016,7132,7088,1384,904,592
7016,7128,7084,1384,904,592
7016,7132,7084,1384,904,592
7020,7136,7088,1384,904,592
7020,7136,7088,1384,904,592
7024,7144,7096,1384,904,592
7020,7140,7092,1384,904,592
7016,7140,7088,1384,904,592
7020,7144,7092,1384,904,592
7020,7148,7096,1384,904,592
7016,7148,7096,1384,904,592
7020,7156,7104,1384,904,592
7020,7156,7104,1384,904,592
7020,7160,7104,1384,904,592
7024,7168,7108,1384,904,592
7024,7168,7108,1384,904,592
7024,7172,7112,1384,904,592
7028,7180,7116,1384,904,592
7032,7184,7120,1384,904,592
7032,7188,7120,1384,904,592
7032,7192,7124,1384,904,592
7032,7196,7124,1384,904,592
7032,7200,7128,1384,904,592
7032,7204,7132,1384,904,592
7032,7204,7132,1384,908,592
7032,7204,7128,1384,904,592
7032,7196,7128,1384,904,592
7024,7184,7116,1384,904,592
7024,7172,7108,1384,904,592
7020,7160,7104,1384,904,592
7012,7148,7096,1384,904,592
7008,7132,7084,1384,904,592
7004,7124,7076,1384,904,592
7004,7120,7076,1384,904,592
7008,7120,7080,1384,904,592
7000,7112,7068,1384,904,592
7000,7112,7068,1384,904,592
7000,7108,7068,1384,904,592
7000,7108,7068,1384,904,588
6996,7104,7064,1384,904,592
7000,7108,7068,1384,904,592
7000,7112,7072,1384,904,592
7000,7112,7068,1384,904,592
7000,7112,7072,1384,904,592
7000,7116,7072,1384,904,592
7000,7120,7076,1384,904,592
