5912,6884,6608,1656,1028,684
5908,6884,6608,1660,1028,684
5912,6888,6612,1656,1028,684
5908,6884,6608,1660,1028,684
5908,6888,6608,1656,1028,684
5908,6892,6612,1656,1028,684
5912,6892,6612,1660,1028,684
5908,6884,6608,1660,1028,684
5908,6872,6604,1656,1028,684
5904,6856,6592,1656,1028,684
5900,6848,6584,1656,1028,684
5900,6840,6576,1656,1028,684
5904,6832,6576,1656,1028,684
5900,6820,6568,1656,1028,684
5896,6812,6564,1656,1028,684
5896,6808,6560,1656,1028,684
5896,6804,6556,1656,1028,684
5896,6800,6556,1660,1028,684
5896,6796,6552,1656,1028,684
5896,6796,6552,1656,1028,684
5896,6796,6552,1656,1028,684
5892,6792,6548,1656,1028,684
5892,6788,6548,1656,1028,684
5892,6792,6548,1656,1028,684
5888,6788,6544,1656,1028,684
5892,6792,6548,1656,1028,684
5888,6788,6548,1656,1028,684
5892,6796,6552,1656,1028,684
5896,6800,6556,1656,1028,684
5896,6800,6556,1656,1028,684
5892,6800,6552,1656,1028,684
5892,6804,6556,1656,1028,684
5892,6804,6556,1656,1028,684
5892,6808,6560,1656,1028,684
5892,6808,6560,1656,1028,684
5896,6816,6564,1656,1028,684
5892,6816,6560,1656,1028,684
5896,6824,6568,1656,1028,684
5896,6824,6568,1656,1028,684
5896,6828,6568,1656,1028,684
5896,6832,6576,1656,1028,684
5896,6836,6576,1656,1028,684
5896,6840,6576,1656,1028,684
5900,6844,6580,1656,1028,684
5900,6848,6580,1656,1028,684
5900,6852,6584,1656,1028,684
5900,6856,6584,1656,1028,684
5904,6860,6592,1656,1028,684
5904,6868,6596,1660,1028,684
5904,6872,6596,1656,1028,684
5908,6880,6604,1656,1028,684
5912,6884,6604,1656,1028,684
5912,6888,6608,1656,1028,684
5908,6880,6604,1656,1028,684
5904,6872,6596,1656,1028,684
5904,6864,6592,1656,1028,684
5904,6856,6588,1660,1028,684
5904,6848,6584,1656,1028,684
5900,6836,6576,1656,1028,684
5900,6828,6572,1656,1028,684
5896,6820,6564,1656,1028,684
5900,6816,6560,1656,1028,684
5900,6808,6560,1656,1028,684
5896,6800,6552,1656,1028,684
5900,6800,6552,1656,1028,684
5896,6792,6552,1656,1028,684
5896,6796,6552,1656,1028,684
5896,6796,6552,1660,1028,684
5896,6792,6548,1656,1028,684
5896,6792,6548,1656,1028,684
5896,6792,6548,1656,1028,684
5896,6792,6548,1656,1028,684
5896,6792,6548,1656,1028,684
5896,6796,6548,1656,1028,684
5896,6796,6548,1656,1028,684
5896,6796,6552,1656,1028,684
5896,6804,6552,1656,1028,684
5896,6804,6556,1660,1028,684
5896,6804,6556,1656,1028,684
5896,6808,6556,1660,1028,684
5896,6808,6556,1656,1028,684
5896,6816,6560,1656,1028,684
5896,6816,6560,1656,1028,684
5896,6820,6564,1656,1028,684
5904,6828,6572,1660,1028,684
5900,6832,6572,1656,1028,684
5900,6832,6568,1660,1028,684
5900,6832,6572,1660,1028,684
5900,6836,6576,1660,1028,684
5900,6840,6576,1660,1028,684
5900,6844,6576,1660,1028,684
5904,6852,6584,1660,1028,684
5904,6856,6588,1660,1028,684
5904,6856,6588,1660,1028,684
5904,6860,6588,1660,1032,684
5904,6864,6592,1660,1032,684
5904,6868,6592,1660,1032,684
5904,6868,6592,1660,1032,684
5900,6860,6588,1660,1032,684
5900,6852,6584,1660,1028,684
5896,6840,6576,1656,1028,684
5900,6832,6572,1656,1028,684
5896,6824,6564,1656,1028,684
5896,6816,6560,1656,1028,684
5896,6808,6556,1660,1028,684
5896,6804,6552,1656,1028,684
5896,6800,6552,1656,1028,684
5896,6796,6548,1660,1028,684
5896,6792,6544,1656,1028,684
5892,6792,6544,1656,1028,684
5892,6792,6544,1660,1032,684
5892,6788,6540,1656,1028,684
5892,6788,6540,1656,1028,684
5892,6788,6544,1656,1028,684
5892,6792,6540,1660,1032,684
5892,6788,6540,1656,1028,684
5892,6792,6544,1660,1032,684
5896,6800,6548,1660,1032,684
5896,6800,6548,1660,1032,684
5900,6804,6552,1656,1032,684
5900,6812,6556,1660,1032,684
5900,6812,6556,1656,1032,684
5892,6804,6552,1660,1032,684
5892,6804,6552,1660,1032,684
5892,6808,6552,1660,1032,684
5892,6812,6556,1660,1032,684
5892,6812,6556,1660,1032,684
5892,6816,6560,1660,1032,684
5896,6824,6564,1660,1032,684
5892,6816,6560,1660,1032,684
5892,6824,6564,1660,1032,684
5892,6824,6564,1660,1032,684
5884,6820,6560,1660,1032,684
5888,6824,6564,1660,1032,688
5888,6828,6564,1660,1032,684
5892,6832,6568,1660,1032,688
5892,6836,6572,1660,1032,688
5896,6844,6576,1660,1032,688
5896,6848,6580,1660,1032,688
5896,6852,6576,1660,1032,688
5900,6856,6584,1660,1032,688
5892,6852,6580,1660,1032,688
5896,6848,6576,1660,1032,688
5896,6840,6572,1664,1036,688
5892,6828,6564,1660,1032,688
5892,6820,6560,1660,1032,688
5896,6812,6556,1660,1032,688
5896,6808,6556,1660,1032,688
5892,6796,6544,1660,1032,688
5892,6788,6540,1660,1032,688
5892,6784,6540,1660,1032,688
5892,6776,6532,1660,1032,688
5888,6768,6528,1660,1032,688
5888,6764,6524,1660,1032,688
5884,6760,6520,1660,1032,688
5884,6756,6520,1660,1036,688
5884,6756,6520,1660,1032,688
5884,6756,6520,1660,1036,688
5888,6760,6520,1660,1032,688
5884,6756,6520,1660,1032,688
5884,6756,6520,1660,1032,688
5880,6752,6516,1660,1032,688
5880,6752,6516,1660,1036,688
5876,6748,6512,1660,1036,688
5876,6748,6512,1660,1036,688
5876,6748,6512,1660,1036,688
5876,6748,6512,1660,1036,688
5872,6748,6512,1660,1036,688
5872,6748,6512,1660,1036,688
5872,6748,6512,1660,1036,688
5872,6752,6512,1660,1036,688
5872,6756,6516,1660,1036,688
5872,6756,6516,1660,1036,688
5872,6756,6516,1660,1036,688
5868,6756,6516,1660,1036,688
5868,6760,6520,1660,1036,688
5872,6764,6520,1660,1036,688
5872,6768,6524,1660,1036,688
5868,6768,6524,1660,1036,688
5872,6772,6528,1664,1036,688
5876,6780,6532,1660,1036,688
5872,6780,6532,1660,1036,688
5872,6788,6532,1660,1036,688
5872,6788,6536,1664,1036,688
5872,6792,6536,1664,1036,688
5872,6796,6540,1664,1036,688
5876,6800,6544,1660,1036,688
5876,6804,6548,1660,1036,688
5876,6804,6548,1660,1036,688
5872,6792,6540,1660,1036,688
5872,6788,6536,1660,1036,688
5868,6772,6528,1660,1036,688
5868,6764,6520,1664,1036,688
5864,6748,6512,1660,1036,688
5864,6744,6508,1660,1036,688
5864,6732,6500,1664,1036,688
5856,6716,6488,1660,1036,688
5856,6712,6484,1664,1036,688
5856,6704,6484,1664,1036,688
5852,6692,6476,1660,1036,688
5856,6696,6476,1660,1036,688
5852,6688,6472,1660,1036,688
5848,6684,6472,1660,1036,688
5848,6680,6468,1660,1036,688
5844,6680,6464,1660,1036,688
5844,6676,6464,1660,1036,688
5844,6676,6460,1660,1036,688
5840,6672,6460,1660,1036,688
5844,6680,6464,1664,1036,688
5844,6676,6464,1660,1036,688
5840,6672,6460,1660,1036,688
5844,6676,6464,1660,1036,688
5840,6676,6464,1664,1036,688
5844,6676,6464,1664,1036,688
5844,6684,6472,1664,1036,688
5848,6688,6472,1664,1040,688
5840,6680,6464,1664,1036,688
5844,6688,6468,1664,1040,688
5844,6692,6472,1664,1036,688
5844,6696,6476,1664,1036,688
5852,6708,6484,1664,1040,688
5848,6708,6484,1664,1040,688
5852,6712,6488,1664,1040,688
5848,6712,6488,1664,1040,688
5844,6708,6484,1664,1040,688
5840,6708,6480,1664,1040,688
5836,6704,6480,1664,1040,688
5840,6708,6484,1664,1040,692
5840,6712,6484,1664,1040,692
5840,6716,6488,1664,1040,688
5840,6716,6488,1664,1040,688
5840,6716,6488,1664,1040,688
5836,6708,6484,1664,1040,688
5836,6696,6476,1664,1040,688
5836,6688,6472,1664,1040,688
5836,6680,6464,1664,1040,692
5832,6668,6456,1664,1040,688
5832,6664,6452,1664,1040,692
5832,6652,6448,1664,1040,688
5832,6648,6444,1664,1040,688
5828,6640,6440,1664,1040,692
5828,6636,6436,1664,1040,692
5828,6632,6432,1664,1040,688
5828,6632,6436,1664,1040,692
5828,6632,6432,1664,1040,688
5828,6628,6432,1664,1040,692
5828,6632,6432,1664,1040,692
5828,6632,6436,1664,1040,692
5828,6632,6432,1664,1040,692
5828,6632,6432,1664,1040,692
5828,6636,6432,1664,1040,692
5828,6636,6436,1664,1040,692
5832,6640,6440,1664,1040,688
5832,6644,6440,1664,1040,692
5836,6652,6444,1664,1040,692
5836,6652,6444,1664,1040,692
5840,6660,6452,1664,1040,692
5836,6664,6452,1664,1040,692
5840,6664,6456,1664,1040,692
5836,6664,6452,1664,1040,692
5836,6668,6456,1664,1040,692
5836,6672,6456,1664,1040,692
5836,6676,6460,1664,1040,692
5840,6680,6460,1664,1040,692
5840,6684,6464,1664,1040,692
5840,6688,6468,1664,1040,692
5844,6696,6472,1664,1040,692
5844,6700,6476,1664,1044,692
5844,6708,6480,1664,1044,692
5848,6712,6484,1664,1044,692
5848,6716,6484,1664,1044,692
5848,6720,6488,1664,1044,692
5852,6728,6492,1664,1044,692
5848,6728,6492,1664,1044,692
5848,6724,6488,1664,1044,692
5848,6716,6488,1664,1044,692
5844,6704,6480,1664,1044,692
5840,6688,6468,1664,1044,692
5840,6680,6460,1664,1044,692
5836,6668,6456,1664,1044,692
5836,6660,6448,1664,1040,692
5832,6652,6444,1664,1044,692
5832,6644,6436,1664,1040,692
5832,6640,6436,1664,1040,692
5832,6640,6432,1664,1040,692
5836,6636,6436,1664,1040,692
5836,6636,6432,1664,1040,692
5836,6636,6432,1664,1040,692
5832,6632,6428,1664,1044,692
5828,6628,6424,1664,1044,692
5832,6632,6428,1664,1044,692
5832,6632,6432,1664,1044,692
5832,6636,6432,1664,1044,692
5832,6636,6432,1664,1044,692
5836,6640,6436,1664,1044,692
5836,6648,6436,1664,1044,692
5836,6652,6440,1664,1044,692
5836,6652,6440,1664,1044,692
5836,6656,6444,1664,1044,692
5840,6660,6444,1664,1044,692
5836,6660,6448,1664,1044,692
5840,6668,6452,1664,1044,692
5840,6672,6452,1664,1044,692
5840,6676,6456,1664,1044,692
5840,6680,6460,1664,1044,692
5844,6684,6464,1664,1044,692
5840,6684,6464,1668,1044,692
5844,6692,6468,1664,1044,692
5844,6696,6468,1664,1044,692
5844,6700,6472,1664,1044,692
5848,6704,6476,1664,1044,692
5848,6708,6480,1664,1044,692
5852,6716,6488,1664,1044,692
5848,6716,6480,1664,1044,692
5844,6716,6484,1664,1044,692
5848,6724,6488,1664,1044,692
5848,6728,6488,1664,1044,692
5848,6728,6492,1668,1044,692
5848,6736,6496,1664,1044,692
5856,6744,6504,1664,1044,692
5852,6736,6496,1664,1044,692
5852,6728,6492,1664,1044,692
5844,6716,6480,1664,1044,692
5844,6708,6476,1664,1044,692
5844,6704,6472,1664,1044,692
5840,6692,6464,1664,1044,692
5844,6684,6464,1664,1044,692
5844,6684,6464,1664,1044,692
5844,6676,6456,1664,1044,692
5840,6668,6452,1664,1044,692
5836,6664,6448,1664,1044,692
5840,6664,6448,1664,1044,692
5840,6664,6448,1664,1044,692
5840,6668,6448,1664,1044,692
5836,6664,6448,1664,1044,692
5836,6664,6448,1664,1044,692
5836,6664,6448,1664,1044,692
5836,6660,6444,1664,1044,692
5836,6664,6448,1664,1044,692
5836,6664,6448,1664,1044,692
5836,6668,6448,1664,1044,692
5840,6672,6452,1664,1044,692
5840,6676,6456,1664,1044,692
5836,6676,6456,1664,1044,692
5840,6680,6460,1664,1044,692
5836,6680,6460,1664,1044,692
5840,6688,6464,1664,1044,692
5840,6688,6460,1664,1044,692
5840,6692,6468,1664,1044,692
5840,6696,6468,1664,1044,692
5840,6700,6472,1664,1044,692
5840,6704,6472,1664,1044,692
5844,6712,6480,1664,1044,692
5848,6716,6480,1664,1044,692
5844,6716,6480,1664,1044,692
5844,6720,6484,1664,1044,692
5848,6728,6488,1664,1044,692
5844,6728,6488,1664,1044,692
5844,6732,6488,1664,1044,692
5848,6740,6496,1664,1044,692
5844,6736,6492,1664,1048,692
5844,6740,6492,1664,1044,692
5844,6740,6496,1664,1048,692
5844,6732,6488,1664,1044,692
5844,6728,6492,1668,1048,692
5844,6720,6484,1664,1044,692
5844,6712,6480,1664,1044,692
5844,6708,6476,1664,1044,692
5840,6696,6468,1664,1044,692
5840,6696,6464,1664,1044,692
5836,6684,6460,1664,1044,692
5832,6680,6452,1664,1044,692
5832,6672,6452,1664,1044,692
5832,6676,6452,1664,1044,692
5828,6672,6448,1664,1044,692
5832,6676,6452,1664,1044,692
5832,6676,6452,1664,1044,692
5836,6680,6456,1664,1044,692
5832,6680,6456,1664,1044,692
5836,6680,6456,1664,1044,692
5832,6676,6452,1664,1044,692
5832,6684,6456,1664,1044,692
5836,6688,6460,1664,1044,692
5832,6684,6456,1664,1044,692
5832,6684,6460,1664,1044,692
5832,6688,6460,1664,1044,692
5832,6696,6464,1664,1044,692
5832,6696,6464,1668,1048,692
5836,6704,6468,1664,1044,692
5832,6704,6472,1664,1044,692
5836,6708,6472,1664,1044,692
5844,6724,6480,1664,1044,692
5844,6728,6484,1664,1044,692
5848,6732,6492,1664,1044,692
5848,6740,6492,1664,1044,692
5848,6744,6496,1664,1048,692
5848,6748,6496,1664,1048,692
5848,6752,6500,1668,1048,692
5848,6756,6504,1664,1048,692
5852,6764,6508,1664,1048,692
5848,6764,6508,1664,1048,692
5848,6764,6508,1664,1048,692
5844,6760,6504,1668,1048,692
5848,6760,6508,1668,1048,692
5848,6752,6504,1668,1048,696
5848,6748,6500,1664,1048,692
5848,6744,6496,1664,1048,692
5844,6732,6488,1664,1048,692
5840,6720,6480,1664,1048,692
5844,6720,6480,1664,1048,692
5840,6712,6476,1664,1044,692
5840,6708,6472,1664,1044,692
5840,6704,6468,1664,1048,692
5836,6700,6464,1664,1048,692
5840,6700,6468,1664,1048,692
5840,6704,6468,1668,1048,696
5836,6700,6464,1664,1044,692
5840,6704,6468,1668,1048,696
5840,6704,6468,1664,1044,692
5836,6700,6464,1668,1048,692
5836,6704,6468,1664,1044,692
5840,6708,6472,1664,1044,692
5840,6712,6472,1664,1044,692
5840,6716,6476,1664,1044,692
5840,6716,6476,1664,1048,692
5836,6716,6476,1664,1044,692
5840,6720,6476,1664,1044,692
5844,6724,6484,1664,1044,692
5840,6728,6480,1664,1044,692
5844,6732,6488,1664,1044,692
5844,6736,6488,1664,1044,692
5848,6744,6492,1664,1044,692
5844,6744,6492,1664,1048,692
5844,6748,6496,1664,1044,692
5844,6748,6496,1664,1044,692
5844,6756,6500,1664,1044,692
5844,6760,6500,1664,1044,692
5848,6764,6508,1664,1048,692
5848,6768,6508,1668,1048,692
5852,6776,6512,1664,1044,692
5852,6780,6516,1664,1048,692
5852,6784,6516,1664,1048,692
5852,6784,6520,1664,1048,692
5852,6780,6516,1664,1048,692
5848,6768,6508,1664,1048,692
5848,6760,6504,1664,1044,692
5848,6756,6500,1664,1048,692
5848,6748,6496,1664,1044,692
5844,6740,6488,1664,1044,692
5844,6736,6488,1664,1044,692
5844,6728,6484,1664,1044,692
5840,6720,6476,1664,1044,692
5840,6716,6476,1664,1044,692
5844,6716,6476,1664,1044,692
5840,6708,6472,1664,1044,692
5840,6708,6472,1664,1044,692
5840,6712,6472,1664,1044,692
5840,6712,6472,1664,1044,692
5844,6716,6476,1664,1044,692
5844,6716,6476,1664,1044,692
5844,6720,6480,1664,1044,692
5844,6716,6476,1664,1044,692
5840,6720,6476,1664,1044,692
5844,6724,6480,1664,1044,692
5844,6724,6480,1664,1044,692
5844,6728,6480,1664,1044,692
5844,6728,6484,1664,1044,692
5840,6732,6484,1664,1044,692
5844,6740,6488,1664,1044,692
5848,6744,6492,1664,1044,692
5848,6744,6496,1664,1044,692
5848,6748,6496,1664,1044,692
5848,6756,6500,1664,1044,692
5848,6756,6500,1664,1044,692
5848,6760,6504,1664,1044,692
5848,6760,6504,1664,1044,692
5848,6768,6508,1664,1044,692
5848,6772,6512,1664,1044,692
5848,6772,6512,1664,1044,692
5848,6776,6512,1664,1044,692
5848,6780,6516,1664,1044,692
5848,6780,6516,1664,1044,692
5848,6772,6508,1664,1044,692
5844,6760,6504,1664,1044,692
5848,6756,6500,1664,1044,692
5844,6748,6496,1664,1044,692
5844,6740,6492,1664,1044,692
5840,6732,6488,1664,1044,692
5840,6724,6480,1664,1044,692
5836,6712,6472,1664,1044,692
5836,6708,6468,1664,1044,692
5836,6708,6468,1664,1044,692
5836,6704,6468,1664,1044,692
5836,6704,6464,1664,1044,692
5832,6700,6464,1664,1044,692
5832,6696,6460,1664,1044,692
5828,6696,6460,1664,1044,692
5832,6700,6464,1664,1044,692
5832,6696,6460,1664,1044,692
5832,6700,6464,1664,1044,692
5828,6696,6460,1664,1044,692
5828,6700,6464,1664,1044,692
5832,6704,6464,1664,1044,692
5832,6708,6468,1664,1044,692
5832,6712,6472,1664,1044,692
5832,6712,6472,1664,1044,692
5832,6712,6472,1664,1044,692
5828,6712,6472,1664,1044,692
5832,6716,6472,1664,1044,692
5828,6716,6472,1664,1044,692
5828,6720,6472,1664,1044,692
5832,6724,6480,1664,1044,692
5832,6724,6480,1664,1044,692
5832,6732,6480,1664,1044,692
5836,6736,6488,1664,1044,692
5836,6744,6492,1664,1044,692
5840,6748,6496,1664,1044,692
5840,6752,6500,1664,1044,692
5840,6752,6496,1664,1044,692
5840,6748,6496,1664,1044,692
5832,6736,6488,1664,1044,692
5832,6728,6480,1664,1044,692
5832,6720,6476,1664,1044,692
5832,6712,6472,1664,1044,692
5832,6704,6468,1664,1044,692
5828,6696,6460,1664,1044,692
5828,6692,6456,1664,1040,692
5824,6680,6448,1664,1040,692
5824,6676,6444,1664,1040,692
5824,6672,6444,1664,1040,692
5828,6676,6448,1664,1040,692
5828,6676,6448,1664,1040,692
5824,6672,6444,1664,1040,692
5820,6668,6440,1664,1040,692
5824,6672,6444,1664,1040,692
5824,6672,6444,1664,1040,692
5824,6672,6448,1664,1040,692
5820,6668,6444,1664,1040,692
5824,6672,6444,1664,1040,692
5820,6672,6444,1664,1040,692
5824,6676,6448,1664,1040,692
5820,6676,6448,1664,1040,692
5820,6680,6448,1664,1040,692
5824,6688,6452,1664,1040,692
5824,6692,6456,1664,1040,692
5824,6692,6456,1664,1040,692
5828,6696,6460,1664,1040,692
5824,6700,6460,1664,1040,692
5828,6704,6464,1664,1040,692
5828,6708,6468,1664,1040,692
5828,6712,6468,1664,1040,692
5832,6716,6472,1664,1040,692
5832,6720,6472,1664,1044,692
5832,6724,6476,1664,1040,692
5832,6732,6484,1664,1040,692
5836,6740,6484,1664,1040,692
5832,6740,6484,1664,1040,692
5832,6744,6488,1664,1044,692
5832,6744,6488,1664,1044,692
5832,6740,6484,1664,1040,692
5832,6736,6484,1664,1040,692
5832,6728,6484,1664,1040,692
5824,6712,6468,1664,1040,692
5824,6704,6464,1664,1040,692
5828,6700,6464,1664,1040,692
5828,6696,6460,1664,1040,692
5824,6688,6456,1664,1040,692
5824,6680,6452,1664,1040,692
5816,6672,6440,1664,1040,692
5824,6672,6444,1664,1040,692
5820,6672,6440,1664,1040,692
5816,6668,6440,1664,1040,692
5816,6664,6436,1664,1040,692
5816,6664,6436,1664,1040,692
5812,6660,6436,1664,1040,692
5812,6660,6436,1664,1040,692
5816,6664,6436,1664,1040,692
5812,6660,6432,1664,1040,692
5816,6664,6436,1664,1040,692
5816,6668,6440,1664,1040,692
5816,6672,6440,1664,1040,692
5816,6672,6444,1664,1040,692
5816,6676,6444,1664,1040,692
5812,6672,6444,1664,1040,692
5812,6676,6444,1664,1040,692
5812,6672,6440,1664,1040,692
5812,6676,6444,1664,1040,692
5812,6680,6448,1664,1040,692
5816,6688,6452,1664,1040,692
5816,6688,6452,1664,1040,688
5816,6692,6452,1664,1040,692
5812,6692,6452,1664,1040,692
5816,6696,6456,1664,1040,688
5816,6700,6460,1664,1040,692
5816,6704,6460,1664,1040,692
5820,6712,6468,1664,1040,692
5820,6716,6468,1664,1040,692
5816,6712,6464,1664,1040,692
5812,6704,6460,1664,1040,692
5812,6696,6456,1664,1040,692
5808,6684,6448,1664,1040,692
5808,6676,6444,1664,1040,692
5800,6664,6432,1664,1040,692
5804,6664,6432,1664,1040,692
5804,6656,6428,1664,1040,692
5800,6648,6420,1664,1040,692
5796,6640,6416,1664,1040,692
5796,6632,6412,1664,1040,692
5800,6636,6416,1664,1040,692
5800,6636,6416,1664,1040,692
5796,6632,6412,1664,1040,692
5800,6636,6416,1664,1040,692
5800,6636,6416,1664,1040,692
5800,6640,6416,1664,1040,692
5800,6640,6420,1664,1040,692
5804,6644,6420,1664,1040,688
5804,6644,6420,1664,1040,688
5804,6648,6424,1664,1040,688
5808,6648,6424,1664,1040,688
5804,6652,6424,1664,1040,688
5804,6652,6428,1664,1040,692
5804,6656,6428,1664,1040,688
5804,6660,6432,1664,1040,692
5808,6664,6432,1664,1040,688
5804,6668,6436,1664,1040,688
5804,6668,6432,1664,1040,692
5808,6672,6440,1664,1040,692
5808,6676,6440,1664,1040,692
5808,6684,6444,1664,1040,692
5808,6684,6448,1664,1040,692
5808,6688,6448,1664,1040,692
5808,6688,6448,1664,1040,692
5812,6696,6456,1664,1040,692
5808,6696,6452,1664,1040,692
5812,6700,6456,1664,1040,692
5808,6700,6456,1664,1040,692
5808,6696,6452,1664,1040,692
5804,6684,6444,1664,1040,692
5808,6680,6444,1664,1040,692
5808,6676,6440,1664,1040,692
5804,6668,6436,1664,1040,692
5804,6660,6428,1664,1040,692
5804,6656,6428,1664,1040,692
5804,6652,6424,1664,1040,692
5804,6644,6420,1664,1040,688
5804,6644,6420,1664,1040,688
5804,6640,6416,1664,1040,688
5800,6640,6416,1664,1040,688
5796,6636,6412,1664,1040,688
5800,6636,6416,1664,1040,688
5796,6636,6412,1664,1040,688
5800,6636,6416,1664,1040,692
5800,6636,6412,1664,1040,692
5800,6640,6416,1664,1040,688
5800,6644,6416,1664,1040,692
5800,6644,6416,1664,1040,692
5800,6644,6420,1664,1040,692
5800,6648,6420,1664,1040,692
5800,6648,6420,1664,1040,692
5804,6656,6424,1664,1040,692
5804,6660,6428,1664,1040,692
5804,6664,6428,1664,1040,692
5808,6672,6436,1664,1040,692
5812,6676,6440,1664,1040,692
5808,6680,6440,1664,1040,692
5812,6688,6444,1664,1040,692
5812,6688,6444,1664,1040,692
5812,6696,6448,1664,1040,692
5812,6696,6452,1664,1040,692
5816,6704,6456,1664,1040,692
5816,6708,6456,1664,1040,692
5812,6712,6460,1664,1040,692
5816,6720,6464,1664,1040,692
5820,6724,6468,1664,1040,692
5824,6732,6476,1664,1040,692
5824,6736,6476,1664,1040,692
5824,6740,6480,1664,1040,692
5824,6740,6476,1664,1040,692
5824,6736,6476,1664,1040,692
5824,6728,6472,1664,1040,692
5828,6728,6472,1664,1040,692
5824,6716,6464,1664,1040,692
5816,6704,6456,1664,1040,692
5820,6696,6452,1664,1040,692
5820,6692,6452,1664,1040,692
5816,6688,6448,1664,1040,692
5812,6676,6440,1664,1040,692
5812,6668,6436,1664,1040,692
5808,6664,6432,1664,1040,692
5808,6660,6428,1664,1040,692
5808,6660,6428,1664,1040,692
5804,6656,6424,1664,1040,692
5804,6652,6424,1664,1040,692
5796,6644,6416,1664,1040,692
5792,6640,6412,1664,1040,692
5796,6640,6412,1664,1040,692
5788,6636,6412,1664,1040,692
5788,6632,6408,1664,1040,692
5788,6632,6408,1664,1040,692
5788,6632,6412,1664,1040,692
5784,6628,6404,1664,1040,692
5784,6632,6408,1664,1040,692
5784,6628,6404,1664,1040,692
5780,6628,6404,1664,1040,692
5780,6632,6408,1664,1040,692
5784,6636,6412,1664,1040,692
5780,6636,6408,1664,1040,692
5784,6640,6412,1664,1040,692
5784,6644,6416,1664,1040,692
5784,6644,6416,1664,1040,692
5788,6652,6420,1664,1040,692
5788,6656,6424,1664,1040,692
5784,6656,6420,1664,1044,692
5788,6664,6428,1664,1044,692
5792,6668,6432,1664,1044,692
5788,6672,6432,1664,1044,692
5792,6676,6436,1664,1044,692
5788,6676,6436,1664,1044,692
5788,6680,6436,1664,1044,692
5788,6684,6440,1664,1044,692
5792,6692,6444,1664,1044,692
5792,6688,6444,1664,1044,692
5788,6680,6436,1664,1044,692
5788,6672,6432,1664,1044,692
5784,6664,6428,1664,1044,692
5788,6660,6428,1664,1044,692
5780,6648,6416,1664,1044,692
5780,6640,6412,1664,1044,692
5780,6632,6408,1664,1044,692
5780,6628,6404,1664,1044,692
5776,6616,6396,1664,1044,692
5776,6616,6396,1664,1044,692
5776,6612,6396,1664,1044,692
5776,6608,6392,1664,1044,692
5772,6608,6392,1664,1044,692
5772,6608,6388,1664,1044,692
5772,6608,6388,1664,1044,692
5772,6608,6388,1664,1044,692
5776,6612,6392,1664,1040,692
5776,6612,6396,1664,1044,692
5776,6616,6396,1664,1040,692
5772,6612,6392,1664,1044,692
5776,6616,6396,1664,1040,692
5776,6620,6400,1664,1040,692
5776,6620,6400,1664,1044,692
5776,6624,6400,1664,1040,692
5780,6632,6404,1664,1040,692
5780,6632,6404,1664,1040,692
5772,6624,6400,1664,1044,692
5780,6632,6408,1664,1044,692
5780,6640,6412,1664,1044,692
5780,6644,6412,1664,1044,692
5780,6644,6416,1664,1044,692
5780,6648,6416,1664,1044,692
5776,6644,6412,1664,1044,692
5780,6652,6420,1664,1044,692
5776,6656,6420,1664,1044,692
5776,6656,6420,1664,1044,692
5780,6660,6424,1664,1044,692
5776,6660,6424,1664,1044,692
5780,6668,6428,1664,1044,692
5780,6672,6428,1664,1044,692
5780,6676,6432,1664,1044,692
5776,6672,6428,1664,1044,692
5776,6668,6428,1664,1044,692
5776,6664,6424,1664,1044,692
5776,6656,6420,1664,1044,692
5776,6652,6416,1664,1044,692
5776,6644,6412,1664,1044,692
5772,6636,6408,1664,1044,692
5776,6636,6408,1664,1044,692
5772,6628,6400,1664,1044,692
5776,6624,6404,1664,1044,692
5772,6620,6400,1664,1044,692
5768,6616,6392,1664,1044,692
5768,6616,6392,1664,1044,692
5768,6612,6392,1664,1044,692
5768,6612,6392,1664,1044,692
5768,6616,6392,1664,1044,692
5772,6616,6396,1664,1044,692
5768,6616,6396,1664,1044,692
5772,6620,6396,1664,1044,692
5768,6620,6396,1664,1044,692
5772,6624,6400,1664,1044,692
5772,6628,6400,1664,1044,692
5776,6632,6404,1664,1044,692
5772,6632,6404,1664,1044,692
5772,6636,6404,1664,1044,692
5776,6640,6408,1664,1044,692
5776,6644,6408,1664,1044,692
5776,6644,6412,1664,1044,692
5776,6648,6412,1664,1044,692
5772,6648,6412,1664,1044,692
5776,6652,6416,1664,1044,692
5772,6656,6416,1664,1044,692
5772,6656,6416,1664,1044,692
5776,6664,6424,1664,1044,692
5780,6668,6424,1664,1044,692
5780,6676,6432,1664,1044,692
5780,6680,6432,1664,1044,692
5784,6684,6436,1664,1044,692
5784,6692,6440,1664,1044,692
5784,6692,6440,1664,1044,692
5788,6700,6448,1664,1044,692
5788,6704,6448,1664,1044,692
5788,6708,6448,1664,1044,692
5788,6708,6452,1664,1044,692
5784,6708,6448,1664,1044,692
5784,6704,6448,1664,1044,692
5784,6700,6444,1664,1044,692
5784,6692,6440,1664,1044,692
5784,6684,6436,1664,1044,692
5780,6676,6432,1664,1044,692
5780,6672,6428,1664,1044,692
5780,6664,6424,1664,1044,692
5780,6660,6424,1664,1044,692
5776,6652,6416,1664,1044,692
5776,6648,6412,1664,1044,692
5776,6644,6408,1664,1044,692
5772,6640,6408,1664,1044,692
5772,6636,6404,1664,1044,692
5776,6644,6412,1664,1044,692
5772,6636,6408,1664,1044,692
5772,6636,6408,1664,1044,692
5772,6640,6408,1664,1044,692
5772,6640,6408,1664,1044,692
5772,6644,6408,1664,1044,692
5768,6640,6404,1664,1044,692
5772,6644,6408,1664,1044,692
5772,6644,6412,1664,1044,692
5772,6648,6412,1664,1044,692
5772,6648,6412,1664,1044,692
5772,6652,6416,1664,1044,692
5772,6652,6416,1664,1044,692
5772,6656,6416,1664,1044,692
5772,6660,6420,1664,1044,692
5772,6664,6424,1664,1044,692
5776,6668,6424,1664,1044,692
5776,6676,6428,1664,1044,692
5776,6676,6428,1664,1044,692
5776,6680,6432,1664,1044,692
5776,6684,6432,1664,1044,692
5776,6688,6436,1664,1044,692
5780,6692,6440,1664,1044,692
5780,6700,6444,1664,1044,692
5784,6704,6448,1664,1044,692
5784,6708,6452,1664,1044,692
5788,6716,6456,1664,1044,692
5784,6716,6452,1664,1044,692
5784,6720,6456,1664,1044,692
5784,6724,6460,1664,1044,692
5784,6724,6460,1664,1044,692
5784,6728,6464,1664,1044,692
5784,6728,6464,1664,1044,692
5784,6720,6460,1664,1044,692
5780,6712,6452,1664,1044,692
5776,6704,6448,1664,1044,692
5780,6700,6444,1664,1044,692
5776,6692,6440,1664,1044,692
5776,6684,6432,1664,1044,692
5776,6684,6436,1664,1044,692
5776,6676,6432,1664,1044,692
5776,6672,6428,1664,1044,692
5772,6668,6424,1664,1044,692
5776,6668,6424,1664,1044,692
5772,6668,6424,1664,1044,692
5772,6660,6420,1664,1044,692
5768,6660,6420,1664,1044,692
5768,6660,6420,1664,1044,692
5768,6660,6416,1664,1044,692
5772,6664,6420,1664,1044,692
5768,6660,6416,1664,1044,692
5764,6656,6416,1664,1044,692
5768,6664,6420,1664,1044,692
5768,6664,6420,1664,1044,692
5768,6664,6420,1664,1044,692
5768,6668,6424,1664,1044,692
5764,6668,6420,1664,1044,692
5768,6672,6428,1664,1044,692
5768,6676,6428,1664,1044,692
5768,6672,6424,1664,1044,692
5768,6676,6428,1664,1044,692
5764,6676,6428,1664,1044,692
5768,6684,6436,1664,1044,692
5772,6688,6436,1664,1044,692
5768,6684,6432,1664,1044,692
5764,6684,6432,1664,1044,692
5768,6692,6436,1664,1044,692
5768,6692,6440,1664,1044,692
5768,6696,6440,1664,1044,692
5772,6704,6444,1664,1044,692
5768,6704,6444,1664,1044,692
5772,6712,6448,1664,1044,692
5772,6712,6452,1664,1044,692
5772,6712,6448,1664,1044,692
5772,6708,6448,1664,1044,692
5772,6708,6448,1664,1044,692
5768,6696,6440,1664,1044,692
5768,6692,6436,1664,1044,692
5764,6684,6432,1664,1044,692
5768,6684,6432,1664,1044,692
5764,6676,6428,1664,1044,692
5764,6672,6420,1664,1044,692
5760,6664,6416,1664,1044,692
5760,6664,6416,1664,1044,692
5764,6664,6420,1664,1044,692
5764,6664,6420,1664,1044,692
5764,6664,6420,1664,1044,692
5764,6668,6420,1664,1044,692
5760,6664,6416,1664,1044,692
5760,6664,6416,1664,1044,692
5764,6664,6420,1664,1044,692
5764,6664,6420,1664,1044,692
5764,6668,6420,1664,1044,692
5764,6668,6420,1664,1044,692
5764,6672,6424,1664,1044,692
5764,6672,6424,1664,1044,692
5760,6672,6420,1664,1044,692
5764,6676,6424,1660,1044,692
5764,6680,6428,1664,1044,692
5764,6680,6428,1664,1044,692
5764,6684,6432,1664,1044,692
5764,6688,6432,1664,1044,692
5764,6688,6432,1664,1044,692
5764,6692,6436,1664,1044,692
5764,6696,6440,1664,1044,692
5764,6700,6440,1664,1044,692
5764,6700,6440,1664,1044,692
5768,6708,6444,1664,1044,692
5768,6712,6448,1664,1044,692
5768,6716,6452,1664,1044,692
5768,6716,6448,1664,1044,692
5768,6720,6452,1664,1044,692
5768,6724,6452,1660,1044,692
5768,6728,6456,1664,1044,692
5768,6732,6460,1664,1044,692
5772,6736,6460,1664,1044,692
5768,6736,6460,1664,1044,692
5768,6728,6456,1664,1044,692
5768,6724,6452,1664,1044,692
5764,6716,6448,1664,1044,692
5764,6708,6444,1664,1044,692
5764,6700,6440,1660,1044,692
5764,6700,6440,1664,1044,692
5764,6692,6436,1664,1044,692
5764,6688,6432,1664,1044,692
5760,6676,6424,1664,1044,692
5756,6672,6420,1664,1044,692
5756,6668,6420,1660,1040,692
5756,6664,6416,1664,1044,692
5756,6664,6416,1660,1040,692
5756,6668,6416,1664,1044,692
5752,6664,6416,1660,1044,692
5752,6664,6416,1664,1044,692
5756,6664,6416,1664,1044,692
5756,6664,6416,1664,1044,692
5752,6660,6412,1664,1044,692
5756,6668,6420,1664,1044,692
5756,6668,6420,1660,1040,692
5756,6668,6420,1664,1044,692
5756,6672,6420,1660,1040,692
5756,6676,6424,1660,1040,692
5756,6676,6424,1664,1044,692
5756,6676,6424,1664,1044,692
5756,6680,6424,1664,1044,692
5752,6680,6428,1660,1040,692
5752,6684,6428,1664,1044,692
5752,6684,6424,1664,1044,692
5756,6692,6432,1664,1044,692
5752,6688,6428,1660,1044,692
5752,6692,6432,1664,1044,692
5756,6696,6436,1664,1044,692
5752,6696,6436,1664,1044,692
5756,6704,6440,1664,1044,692
5756,6704,6440,1664,1044,692
5756,6712,6444,1660,1044,692
5760,6720,6448,1660,1044,692
5760,6720,6452,1660,1044,692
5764,6724,6456,1660,1044,692
5760,6728,6456,1664,1044,692
5768,6736,6464,1664,1044,692
5768,6740,6464,1664,1044,692
5768,6744,6464,1664,1044,692
5764,6744,6464,1664,1044,692
5764,6740,6464,1664,1044,692
5768,6740,6464,1664,1044,692
5764,6732,6460,1664,1044,692
5764,6724,6456,1664,1044,692
5760,6716,6448,1664,1044,692
5764,6712,6444,1660,1044,692
5756,6704,6440,1664,1044,692
5756,6700,6436,1664,1044,692
5756,6692,6432,1664,1044,692
5756,6688,6428,1660,1044,692
5756,6688,6428,1664,1044,692
5752,6680,6424,1660,1040,692
5752,6680,6424,1660,1040,692
5756,6680,6428,1660,1040,692
5752,6676,6420,1660,1040,692
5756,6680,6424,1660,1044,692
5752,6676,6420,1660,1040,692
5752,6680,6424,1660,1040,692
5752,6680,6424,1660,1040,692
5756,6684,6428,1660,1040,692
5756,6684,6428,1664,1044,692
5756,6688,6428,1664,1044,692
5756,6688,6432,1660,1040,692
5756,6688,6432,1660,1040,692
5756,6692,6432,1660,1040,692
5756,6692,6432,1660,1040,692
5756,6696,6436,1660,1040,692
5756,6700,6436,1660,1044,692
5756,6700,6436,1660,1040,692
5756,6704,6440,1660,1040,692
5760,6708,6440,1660,1044,692
5756,6708,6444,1664,1044,692
5756,6712,6440,1664,1044,692
5760,6716,6448,1664,1044,692
5756,6716,6444,1664,1044,692
5756,6716,6444,1664,1044,692
5756,6720,6448,1664,1044,692
5752,6720,6448,1664,1044,692
5756,6724,6448,1664,1044,692
5756,6728,6452,1664,1044,692
5756,6732,6452,1664,1044,692
5760,6736,6460,1664,1044,692
5756,6736,6456,1664,1044,692
5756,6732,6456,1664,1044,692
5756,6724,6452,1660,1044,692
5756,6716,6444,1660,1044,692
5752,6712,6444,1660,1044,692
5752,6704,6440,1660,1044,692
5752,6700,6436,1660,1044,692
5756,6700,6436,1660,1044,692
5752,6692,6432,1660,1044,692
5748,6684,6424,1660,1040,692
5748,6680,6424,1660,1040,692
5748,6676,6420,1660,1040,692
5744,6676,6416,1664,1044,692
5748,6676,6420,1664,1044,692
5748,6676,6420,1664,1044,692
5748,6672,6420,1664,1044,692
5748,6676,6420,1664,1044,692
5744,6672,6416,1664,1044,692
5744,6672,6416,1664,1040,692
5744,6672,6416,1660,1040,692
5744,6672,6416,1660,1040,692
5740,6668,6416,1660,1040,692
5740,6672,6416,1660,1040,692
5744,6676,6420,1660,1040,692
5744,6680,6420,1660,1040,692
5744,6680,6420,1660,1044,692
5744,6684,6424,1660,1040,692
5744,6684,6420,1660,1040,692
5748,6692,6428,1660,1040,692
5744,6692,6428,1660,1040,692
5744,6692,6428,1660,1040,692
5748,6696,6432,1660,1040,692
5744,6696,6428,1660,1044,692
5748,6704,6436,1660,1040,692
5748,6708,6436,1660,1040,692
5748,6708,6440,1660,1040,692
5748,6712,6444,1660,1044,692
5752,6720,6444,1660,1040,692
5756,6724,6452,1664,1044,692
5756,6728,6452,1660,1044,692
5756,6728,6452,1660,1040,692
5756,6724,6452,1660,1044,692
5752,6712,6440,1660,1044,692
5748,6704,6436,1660,1044,692
5748,6696,6432,1660,1040,692
5748,6688,6428,1660,1040,692
5748,6684,6424,1660,1040,692
5744,6676,6420,1660,1040,692
5744,6672,6416,1660,1040,692
5744,6664,6412,1660,1040,692
5744,6660,6408,1660,1040,692
5748,6664,6412,1660,1040,692
5744,6660,6412,1660,1040,692
5744,6656,6408,1660,1040,692
5740,6656,6404,1660,1040,692
5748,6660,6408,1660,1040,692
5744,6656,6408,1660,1040,692
5744,6656,6404,1660,1040,692
5744,6656,6408,1660,1040,692
5740,6656,6404,1660,1040,692
5744,6660,6408,1660,1040,692
5744,6664,6408,1660,1040,692
5740,6660,6408,1660,1040,692
5744,6668,6412,1660,1040,692
5748,6672,6420,1660,1040,692
5748,6672,6416,1660,1040,692
5744,6672,6416,1660,1040,692
5748,6680,6420,1660,1040,692
5748,6680,6420,1660,1040,692
5748,6684,6424,1660,1040,692
5752,6692,6428,1660,1040,692
5752,6692,6428,1660,1040,692
5752,6700,6432,1660,1040,692
5756,6704,6436,1660,1040,692
5756,6712,6440,1660,1040,692
5756,6712,6440,1660,1040,692
5756,6716,6444,1660,1040,692
5760,6724,6448,1660,1040,692
5760,6728,6452,1660,1040,692
5756,6728,6452,1664,1040,692
5760,6732,6452,1660,1040,692
5760,6736,6456,1660,1040,692
5760,6736,6456,1660,1040,692
5756,6728,6452,1660,1040,692
5760,6724,6448,1660,1040,692
5756,6712,6444,1660,1040,692
5760,6708,6440,1660,1040,692
5752,6692,6428,1660,1040,692
5752,6688,6428,1660,1040,692
5752,6680,6420,1660,1040,692
5752,6672,6416,1660,1040,692
5752,6668,6416,1660,1040,692
5752,6660,6412,1660,1040,692
5752,6656,6408,1660,1040,692
5752,6652,6404,1660,1040,692
5748,6648,6400,1660,1040,688
5748,6644,6400,1660,1040,688
5744,6640,6396,1660,1040,688
5744,6636,6396,1660,1040,692
5744,6636,6392,1660,1040,688
5744,6636,6392,1660,1040,692
5744,6640,6396,1660,1040,688
5744,6636,6392,1660,1040,688
5744,6640,6396,1660,1040,688
5744,6640,6396,1660,1040,692
5744,6640,6396,1660,1040,688
5740,6640,6396,1660,1040,688
5740,6644,6396,1660,1040,688
5744,6648,6400,1660,1040,688
5744,6648,6400,1660,1040,688
5744,6652,6400,1660,1040,688
5744,6656,6408,1660,1040,688
5744,6656,6404,1660,1040,688
5744,6660,6408,1660,1040,688
5748,6664,6408,1660,1040,688
5744,6664,6412,1660,1040,688
5744,6668,6412,1660,1040,688
5748,6672,6416,1660,1040,688
5748,6676,6416,1660,1040,688
5752,6684,6424,1660,1040,688
5756,6688,6428,1660,1040,688
5752,6688,6428,1660,1040,688
5752,6692,6428,1660,1040,692
5752,6696,6428,1660,1040,688
5752,6696,6432,1660,1040,688
5748,6696,6428,1660,1040,688
5752,6708,6436,1660,1040,688
5756,6708,6440,1660,1040,688
5752,6704,6436,1660,1040,688
5752,6696,6432,1660,1040,692
5748,6680,6420,1660,1040,688
5748,6672,6416,1660,1040,688
5744,6664,6412,1660,1040,688
5744,6652,6404,1660,1040,688
5744,6644,6400,1660,1040,688
5744,6636,6396,1660,1040,688
5740,6628,6388,1660,1040,688
5740,6620,6384,1660,1036,688
5736,6608,6376,1660,1036,688
5736,6608,6376,1660,1036,688
5736,6604,6372,1660,1036,688
5736,6604,6372,1660,1036,688
5732,6600,6368,1660,1036,688
5732,6600,6368,1660,1036,688
5732,6596,6368,1660,1036,688
5728,6592,6364,1660,1036,688
5728,6592,6364,1660,1036,688
5732,6592,6364,1660,1036,688
5732,6596,6364,1660,1036,688
5732,6596,6364,1660,1036,688
5732,6600,6368,1660,1036,688
5728,6596,6368,1660,1036,688
5732,6600,6368,1660,1036,688
5732,6604,6368,1660,1036,688
5728,6600,6368,1660,1036,688
5728,6600,6368,1660,1036,688
5728,6604,6372,1660,1036,688
5728,6608,6372,1660,1036,688
5732,6612,6376,1660,1036,688
5728,6612,6376,1660,1036,688
5728,6616,6376,1660,1036,688
5728,6616,6380,1660,1036,688
5728,6620,6380,1660,1036,688
5732,6628,6384,1660,1036,688
5728,6624,6380,1660,1040,688
5728,6628,6384,1660,1040,688
5732,6632,6388,1660,1040,688
5732,6636,6388,1660,1040,688
5728,6636,6388,1660,1036,688
5732,6640,6392,1660,1036,688
5732,6644,6392,1660,1040,688
5732,6644,6396,1660,1040,688
5732,6632,6388,1660,1040,688
5724,6616,6376,1660,1040,688
5724,6604,6372,1660,1040,688
5720,6592,6360,1660,1036,688
5724,6588,6360,1660,1036,688
5716,6576,6352,1660,1036,688
5720,6572,6352,1660,1036,688
5716,6560,6340,1660,1036,688
5716,6552,6336,1660,1036,688
5716,6552,6336,1660,1036,688
5716,6548,6336,1660,1036,688
5712,6544,6332,1660,1036,688
5716,6548,6332,1660,1036,688
5712,6540,6328,1660,1036,688
5712,6540,6332,1660,1036,688
5716,6540,6332,1660,1036,688
5712,6540,6328,1660,1036,688
5712,6540,6328,1660,1036,688
5716,6544,6332,1660,1036,688
5716,6544,6332,1660,1036,688
5712,6544,6332,1660,1036,688
5716,6548,6336,1660,1036,688
5712,6548,6332,1660,1036,688
5712,6548,6332,1660,1036,688
5712,6552,6336,1660,1036,688
5716,6556,6336,1660,1036,688
5716,6560,6340,1660,1036,688
5720,6564,6344,1660,1036,688
5716,6564,6344,1660,1036,688
5720,6568,6348,1660,1036,688
5712,6568,6344,1660,1036,688
5716,6572,6348,1660,1036,688
5720,6580,6356,1660,1036,688
5720,6580,6352,1660,1036,688
5720,6584,6356,1660,1036,688
5720,6592,6360,1656,1036,688
5720,6592,6360,1660,1036,688
5716,6592,6360,1660,1036,688
5720,6596,6364,1660,1036,688
5720,6600,6368,1660,1036,688
5720,6596,6364,1656,1036,688
5720,6588,6360,1660,1036,688
5720,6580,6352,1656,1036,688
5716,6568,6344,1656,1036,688
5712,6556,6340,1660,1036,688
5712,6548,6332,1656,1036,688
5712,6536,6324,1656,1032,688
5708,6528,6320,1656,1032,688
5708,6520,6312,1656,1032,688
5708,6512,6308,1656,1032,688
5708,6512,6308,1656,1032,688
5708,6508,6304,1656,1032,688
5708,6508,6308,1656,1032,688
5704,6500,6300,1656,1032,688
5704,6504,6304,1656,1032,688
5704,6500,6300,1656,1032,688
5704,6500,6304,1656,1032,688
5704,6500,6300,1656,1032,688
5704,6500,6304,1656,1032,688
5708,6504,6308,1656,1032,688
5708,6508,6308,1656,1032,688
5708,6508,6308,1656,1032,688
5704,6504,6304,1656,1032,688
5708,6512,6308,1656,1032,688
5708,6512,6312,1656,1032,688
5708,6516,6312,1656,1032,688
5708,6520,6316,1656,1032,688
5708,6520,6316,1656,1032,688
5708,6524,6316,1656,1032,688
5708,6528,6320,1656,1032,688
5708,6528,6320,1656,1032,688
5708,6532,6320,1656,1032,688
5708,6536,6324,1660,1032,688
5712,6544,6328,1656,1032,688
5712,6548,6332,1656,1032,688
5712,6552,6336,1660,1032,688
5716,6556,6340,1660,1032,688
5712,6556,6340,1660,1032,688
5712,6560,6336,1656,1032,688
5712,6560,6340,1660,1032,688
5708,6564,6336,1660,1032,688
5712,6572,6344,1660,1032,688
5712,6576,6348,1660,1032,688
5716,6580,6352,1660,1032,688
5712,6576,6348,1660,1032,688
5716,6572,6348,1660,1032,688
5712,6560,6340,1656,1032,688
5712,6548,6332,1656,1032,688
5708,6536,6324,1660,1032,688
5704,6524,6316,1656,1032,688
5704,6520,6312,1656,1032,688
5700,6508,6304,1656,1032,688
5700,6500,6300,1656,1032,688
5700,6492,6296,1656,1032,688
5700,6488,6296,1660,1032,688
5696,6480,6288,1656,1032,684
5696,6476,6288,1656,1032,684
5692,6472,6280,1656,1032,684
5692,6468,6280,1656,1032,684
5688,6464,6276,1656,1032,684
5692,6464,6276,1656,1032,684
5688,6464,6276,1660,1032,688
5688,6464,6276,1656,1032,684
5692,6464,6280,1656,1032,684
5696,6472,6284,1656,1032,684
5692,6468,6276,1660,1032,688
5688,6468,6280,1656,1032,684
5688,6468,6280,1656,1032,684
5688,6468,6276,1656,1032,684
5688,6472,6280,1656,1032,684
5684,6468,6276,1656,1032,684
5688,6472,6280,1656,1032,684
5688,6476,6280,1656,1032,684
5684,6476,6284,1656,1032,684
5688,6480,6284,1656,1032,684
5688,6484,6288,1656,1032,684
5684,6484,6288,1656,1032,684
5684,6484,6288,1656,1032,684
5684,6488,6288,1656,1032,684
5688,6492,6292,1656,1032,684
5688,6496,6296,1656,1032,684
5688,6500,6296,1656,1032,684
5692,6508,6300,1656,1032,684
5692,6512,6304,1656,1032,684
5692,6512,6304,1656,1032,684
5688,6508,6300,1656,1032,684
5688,6500,6296,1656,1032,684
5684,6488,6288,1656,1032,684
5680,6472,6280,1656,1032,684
5680,6464,6276,1656,1032,684
5676,6452,6268,1656,1032,684
5680,6448,6264,1656,1032,684
5668,6428,6248,1656,1032,684
5668,6416,6244,1656,1032,684
5664,6408,6236,1656,1032,684
5656,6392,6224,1656,1032,684
5656,6384,6220,1656,1032,684
5652,6376,6212,1656,1028,684
5652,6376,6216,1656,1028,684
5648,6368,6208,1656,1028,684
5644,6364,6208,1656,1028,684
5644,6360,6204,1656,1028,684
5644,6356,6204,1656,1028,684
5644,6360,6204,1656,1028,684
5648,6364,6204,1656,1028,684
5648,6364,6208,1656,1028,684
5652,6372,6208,1656,1028,684
5652,6376,6216,1656,1028,684
5656,6380,6216,1656,1028,684
5660,6388,6224,1656,1028,684
5660,6392,6224,1656,1028,684
5660,6396,6228,1656,1028,684
5664,6404,6232,1656,1028,684
5664,6408,6232,1656,1028,684
5668,6412,6236,1656,1028,684
5668,6416,6240,1656,1028,684
5668,6420,6240,1656,1028,684
5668,6424,6244,1656,1028,684
5668,6428,6248,1656,1028,684
5668,6432,6248,1656,1028,684
5672,6436,6256,1656,1028,684
5668,6440,6256,1656,1028,684
5668,6444,6256,1656,1028,684
5668,6448,6260,1656,1028,684
5672,6452,6264,1656,1028,684
5668,6456,6264,1656,1032,684
5668,6456,6264,1656,1032,684
5664,6448,6260,1656,1032,684
5668,6444,6256,1656,1028,684
5664,6432,6248,1656,1032,684
5668,6424,6244,1656,1032,684
5664,6416,6240,1656,1028,684
5668,6412,6236,1656,1028,684
5664,6404,6232,1656,1032,684
5664,6392,6224,1656,1028,684
5660,6384,6220,1656,1028,684
5664,6380,6220,1656,1028,684
5660,6372,6212,1656,1028,684
5656,6368,6208,1656,1028,684
5656,6368,6208,1656,1028,684
5652,6368,6208,1656,1028,684
5652,6368,6208,1656,1028,684
5652,6364,6204,1656,1028,684
5652,6364,6208,1656,1028,684
5652,6364,6208,1656,1028,684
5652,6364,6204,1656,1028,684
5648,6360,6200,1656,1028,684
5644,6360,6200,1656,1028,684
5648,6364,6204,1656,1028,684
5644,6360,6200,1656,1028,684
5644,6360,6204,1656,1028,684
5640,6364,6204,1656,1028,684
5640,6360,6200,1656,1028,684
5640,6364,6204,1656,1028,684
5636,6364,6200,1656,1028,684
5640,6368,6208,1656,1028,684
5640,6372,6208,1656,1028,684
5644,6380,6212,1656,1028,684
5644,6384,6216,1656,1028,684
5648,6392,6224,1656,1028,684
5652,6396,6224,1656,1028,684
5648,6400,6224,1656,1028,684
5652,6404,6228,1656,1028,684
5652,6412,6236,1656,1032,684
5656,6416,6236,1656,1032,684
5656,6424,6244,1656,1028,684
5656,6428,6244,1656,1032,684
5656,6432,6248,1656,1028,684
5656,6432,6248,1656,1032,684
5656,6424,6240,1656,1032,684
5652,6412,6236,1656,1032,684
5652,6408,6232,1656,1032,684
5648,6392,6224,1656,1032,684
5648,6384,6216,1656,1032,684
5648,6372,6208,1656,1028,684
5644,6364,6200,1656,1028,684
5640,6356,6196,1656,1032,684
5644,6348,6192,1656,1028,684
5644,6348,6192,1656,1028,684
5640,6336,6188,1656,1032,684
5640,6336,6188,1656,1028,684
5636,6332,6184,1656,1028,684
5636,6332,6184,1656,1028,684
5640,6336,6188,1656,1028,684
5640,6336,6184,1656,1028,684
5640,6340,6188,1656,1028,684
5640,6336,6188,1656,1032,684
5640,6340,6188,1656,1028,684
5640,6340,6188,1656,1032,684
5644,6348,6192,1656,1032,684
5644,6348,6192,1656,1028,684
5644,6348,6192,1660,1032,684
5644,6352,6196,1656,1032,684
5644,6356,6196,1660,1032,684
5644,6360,6196,1660,1032,684
5644,6364,6200,1660,1032,684
5648,6368,6204,1656,1032,684
5648,6372,6204,1660,1032,684
5648,6376,6212,1660,1032,684
5648,6380,6212,1660,1032,684
5652,6384,6216,1660,1032,684
5652,6392,6220,1656,1032,684
5656,6400,6224,1656,1032,684
5656,6404,6228,1660,1032,684
5656,6412,6232,1656,1032,684
5660,6416,6236,1656,1032,684
5660,6424,6240,1660,1032,684
5660,6424,6240,1660,1032,684
5664,6420,6240,1660,1032,688
5660,6408,6232,1660,1032,688
5656,6396,6220,1660,1032,688
5656,6388,6216,1660,1032,688
5656,6376,6212,1660,1032,684
5656,6368,6208,1660,1032,684
5648,6360,6196,1660,1032,684
5648,6348,6192,1660,1032,688
5648,6344,6188,1656,1032,684
5648,6336,6184,1660,1032,684
5644,6332,6180,1660,1032,684
5652,6336,6188,1660,1032,684
5652,6340,6188,1656,1032,684
5652,6340,6188,1660,1032,684
5652,6340,6188,1660,1032,684
5648,6336,6188,1656,1032,684
5644,6332,6180,1660,1032,684
5648,6336,6184,1656,1032,684
5648,6336,6184,1656,1032,684
5648,6336,6188,1656,1032,684
5644,6336,6188,1656,1032,684
5644,6340,6184,1660,1032,684
5644,6344,6188,1660,1032,684
5648,6352,6192,1660,1032,684
5652,6356,6196,1660,1032,684
5652,6364,6200,1660,1032,684
5656,6368,6204,1660,1032,684
5656,6372,6204,1660,1032,684
5652,6376,6208,1660,1032,684
5656,6380,6212,1660,1032,684
5656,6384,6216,1660,1032,684
5656,6388,6216,1660,1032,688
5660,6396,6224,1660,1032,688
5660,6400,6224,1660,1032,688
5660,6408,6228,1660,1032,688
5664,6412,6232,1660,1032,688
5668,6424,6240,1660,1032,688
5668,6428,6244,1660,1032,688
5664,6424,6240,1660,1032,688
5664,6432,6244,1660,1032,688
5668,6440,6248,1660,1032,688
5664,6440,6248,1660,1032,688
5664,6436,6248,1660,1032,688
5664,6424,6240,1660,1036,688
5664,6420,6236,1660,1032,688
5660,6404,6224,1660,1036,688
5656,6392,6216,1660,1032,688
5656,6384,6212,1660,1036,688
5652,6372,6200,1660,1032,688
5652,6364,6196,1660,1032,688
5648,6356,6192,1656,1032,688
5648,6348,6188,1660,1032,688
5652,6348,6188,1660,1032,688
5648,6344,6188,1660,1032,688
5648,6340,6184,1660,1032,688
5648,6340,6184,1660,1032,688
5648,6344,6188,1660,1032,688
5648,6344,6184,1660,1032,688
5648,6344,6188,1660,1032,688
5648,6344,6188,1660,1032,688
5644,6344,6188,1660,1032,688
5644,6348,6188,1660,1032,688
5648,6352,6188,1660,1032,688
5648,6356,6192,1660,1032,688
5644,6356,6188,1660,1036,688
5648,6360,6196,1660,1036,688
5648,6364,6196,1660,1032,688
5648,6368,6200,1660,1036,688
5644,6368,6196,1660,1036,688
5644,6372,6200,1660,1036,688
5648,6376,6204,1660,1036,688
5648,6380,6204,1660,1036,688
5648,6384,6208,1660,1036,688
5648,6388,6212,1660,1036,688
5648,6392,6212,1660,1036,688
5648,6400,6220,1660,1036,688
5652,6408,6224,1660,1036,688
5652,6408,6224,1660,1036,688
5652,6416,6228,1660,1036,688
5652,6420,6232,1660,1036,688
5656,6424,6236,1660,1036,688
5656,6432,6240,1660,1036,688
5660,6440,6248,1660,1036,688
5664,6448,6252,1660,1036,688
5664,6452,6252,1660,1036,688
5664,6456,6256,1660,1036,688
5660,6444,6248,1660,1036,688
5660,6440,6244,1660,1036,688
5656,6428,6236,1660,1036,688
5656,6416,6228,1660,1036,688
5656,6412,6228,1660,1036,688
5656,6408,6224,1660,1036,688
5652,6400,6220,1660,1036,688
5652,6396,6212,1660,1036,688
5652,6388,6212,1660,1036,688
5656,6392,6212,1660,1036,688
5656,6388,6212,1660,1036,688
5652,6388,6208,1660,1036,688
5656,6392,6212,1660,1036,688
5656,6392,6212,1660,1036,688
5656,6396,6216,1660,1036,688
5656,6396,6212,1660,1036,688
5652,6396,6212,1660,1036,688
5656,6396,6216,1660,1036,688
5652,6396,6216,1660,1036,688
5660,6404,6220,1660,1036,688
5660,6412,6224,1660,1036,688
5656,6412,6224,1660,1036,688
5660,6416,6228,1660,1036,688
5660,6420,6232,1660,1036,688
5660,6424,6232,1660,1040,688
5660,6428,6236,1660,1040,688
5664,6432,6240,1660,1036,688
5664,6436,6240,1660,1040,688
5664,6444,6244,1660,1040,688
5664,6448,6248,1660,1040,688
5664,6448,6248,1660,1040,688
5668,6456,6252,1660,1040,688
5664,6460,6256,1660,1040,688
5664,6464,6256,1660,1040,688
5668,6472,6264,1664,1040,688
5668,6476,6264,1664,1040,688
5672,6484,6272,1664,1040,688
5672,6492,6276,1660,1040,688
5672,6496,6276,1664,1040,692
5672,6500,6280,1664,1040,688
5676,6504,6284,1664,1040,688
5672,6504,6280,1664,1040,688
5668,6496,6276,1664,1040,688
5668,6488,6272,1664,1040,692
5668,6484,6268,1664,1040,692
5668,6472,6264,1664,1040,692
5668,6468,6260,1664,1040,692
5668,6464,6256,1664,1040,692
5668,6460,6256,1660,1040,688
5664,6452,6248,1664,1040,688
5664,6448,6244,1664,1040,692
5660,6440,6240,1664,1040,692
5660,6436,6240,1664,1040,692
5660,6440,6244,1664,1040,692
5660,6440,6240,1664,1040,688
5660,6440,6240,1664,1040,692
5656,6440,6240,1664,1040,692
5656,6440,6240,1664,1040,692
5656,6440,6240,1664,1040,692
5660,6444,6244,1664,1040,692
5660,6444,6244,1664,1040,692
5664,6452,6248,1664,1040,688
5664,6456,6248,1660,1040,688
5664,6460,6256,1664,1040,692
5668,6468,6256,1664,1040,692
5668,6472,6260,1664,1040,692
5676,6484,6268,1664,1040,692
5676,6492,6276,1660,1040,688
5684,6500,6280,1664,1040,692
5684,6508,6284,1664,1040,692
5680,6508,6284,1664,1040,692
5680,6508,6284,1664,1040,692
5680,6516,6288,1664,1040,692
5680,6520,6292,1664,1040,692
5684,6532,6300,1664,1040,692
5688,6536,6304,1664,1040,692
5684,6536,6304,1664,1044,692
5680,6536,6300,1664,1040,692
5684,6544,6304,1664,1044,692
5680,6544,6304,1664,1044,692
5676,6540,6304,1664,1044,692
5680,6548,6308,1664,1044,692
5684,6556,6312,1664,1044,692
5684,6552,6312,1664,1044,692
5684,6556,6312,1664,1044,692
5688,6548,6312,1664,1044,692
5684,6540,6308,1664,1044,692
5680,6524,6296,1664,1044,692
5684,6524,6296,1664,1044,692
5684,6516,6292,1664,1044,692
5680,6508,6284,1664,1044,692
5680,6504,6284,1664,1044,692
5676,6496,6276,1664,1044,692
5680,6500,6280,1664,1044,692
5680,6496,6280,1664,1044,692
5680,6496,6276,1664,1044,692
5680,6496,6276,1664,1044,692
5680,6500,6280,1664,1044,692
5680,6500,6280,1664,1044,692
5680,6500,6280,1664,1044,692
5680,6504,6280,1664,1044,692
5680,6504,6280,1664,1044,692
5680,6508,6284,1664,1044,692
5680,6508,6284,1664,1044,692
5684,6512,6288,1664,1044,692
5684,6516,6292,1664,1044,692
5684,6520,6292,1664,1044,692
5684,6528,6296,1664,1044,692
5688,6532,6300,1664,1044,692
5688,6536,6304,1664,1044,692
5688,6540,6304,1664,1044,692
5692,6548,6312,1664,1044,692
5692,6552,6312,1664,1044,692
5696,6560,6320,1664,1044,692
5700,6568,6324,1664,1044,692
5696,6572,6328,1664,1044,692
5696,6572,6328,1664,1044,692
5700,6580,6328,1664,1044,692
5700,6588,6336,1664,1044,692
5704,6592,6340,1664,1044,692
5704,6596,6340,1664,1044,692
5700,6600,6344,1664,1044,692
5704,6604,6348,1664,1044,692
5700,6608,6348,1664,1044,692
5704,6616,6352,1664,1044,692
5708,6620,6356,1664,1044,692
5704,6620,6356,1664,1044,692
5704,6616,6352,1664,1044,692
5704,6608,6348,1664,1044,692
5708,6608,6352,1664,1044,692
5712,6604,6348,1664,1044,692
5708,6600,6344,1664,1044,692
5708,6596,6344,1664,1044,692
5708,6592,6340,1664,1044,692
5712,6592,6340,1664,1044,692
5708,6588,6336,1664,1044,692
5712,6592,6340,1664,1044,692
5712,6592,6340,1664,1044,692
5712,6592,6340,1664,1044,692
5708,6588,6336,1664,1044,692
5704,6580,6332,1664,1044,692
5700,6580,6328,1664,1044,692
5700,6576,6328,1664,1044,692
5696,6572,6328,1664,1044,692
5696,6572,6328,1664,1044,692
5696,6572,6324,1664,1044,692
5696,6572,6324,1664,1044,692
5696,6576,6328,1664,1044,692
5696,6576,6328,1664,1044,692
5696,6580,6332,1664,1044,692
5696,6580,6328,1664,1044,692
5700,6588,6336,1664,1044,692
5692,6584,6332,1664,1044,692
5700,6596,6340,1664,1044,692
5696,6592,6340,1664,1044,692
5700,6596,6340,1664,1044,692
5700,6600,6344,1664,1044,692
5704,6608,6348,1664,1044,692
5704,6612,6348,1664,1044,692
5700,6608,6352,1664,1044,692
5700,6616,6352,1664,1044,692
5704,6624,6360,1664,1044,692
5708,6628,6364,1664,1044,692
5708,6636,6364,1664,1044,692
5712,6640,6368,1664,1044,692
5712,6648,6376,1668,1044,692
5712,6652,6376,1664,1044,692
5716,6656,6380,1664,1044,692
5716,6656,6380,1664,1044,692
5716,6652,6376,1664,1044,692
5716,6644,6372,1664,1044,692
5712,6632,6368,1664,1044,692
5712,6624,6360,1664,1044,692
5708,6620,6356,1664,1044,692
5712,6620,6360,1664,1044,692
5708,6612,6352,1664,1044,692
5708,6608,6348,1660,1044,692
5708,6600,6344,1664,1044,692
5704,6592,6340,1664,1044,692
5704,6592,6336,1664,1044,692
5704,6592,6340,1664,1044,692
5700,6588,6336,1664,1044,692
5700,6588,6336,1664,1044,692
5696,6584,6332,1664,1044,692
5696,6580,6328,1664,1044,692
5696,6584,6332,1664,1044,692
5696,6584,6332,1664,1044,692
5696,6584,6332,1664,1044,692
5700,6588,6336,1664,1040,692
5700,6592,6340,1664,1044,692
5700,6592,6340,1664,1044,692
5704,6600,6344,1664,1040,692
5704,6600,6344,1664,1044,692
5704,6604,6348,1664,1044,692
5700,6604,6348,1664,1044,692
5700,6604,6344,1664,1044,692
5696,6604,6344,1664,1044,692
5700,6608,6348,1664,1044,692
5704,6620,6356,1664,1044,692
5700,6616,6352,1664,1044,692
5700,6620,6352,1664,1044,692
5704,6624,6360,1664,1044,692
5700,6620,6356,1664,1044,692
5704,6628,6364,1664,1044,692
5704,6632,6364,1664,1044,692
5700,6632,6364,1664,1044,692
5700,6636,6368,1664,1044,692
5700,6636,6368,1664,1044,692
5704,6644,6372,1664,1044,692
5700,6640,6368,1664,1044,692
5700,6644,6368,1664,1044,692
5696,6636,6368,1664,1044,692
5696,6632,6364,1664,1044,692
5696,6624,6360,1664,1044,692
5700,6620,6360,1664,1044,692
5696,6608,6348,1664,1044,692
5696,6604,6348,1664,1044,692
5696,6600,6340,1664,1044,692
5700,6600,6348,1664,1044,692
5696,6592,6336,1664,1044,692
5692,6584,6332,1664,1044,692
5688,6580,6328,1664,1044,692
5688,6576,6328,1664,1040,692
5688,6572,6328,1664,1040,692
5692,6576,6328,1664,1044,692
5688,6572,6328,1664,1044,692
5684,6568,6324,1664,1040,692
5684,6564,6320,1664,1040,692
5684,6564,6320,1664,1040,692
5684,6568,6320,1664,1040,692
5684,6568,6324,1664,1040,692
5688,6572,6328,1664,1040,692
5688,6572,6324,1664,1040,692
5692,6580,6328,1664,1040,692
5688,6580,6328,1664,1040,692
5688,6580,6332,1664,1040,692
5692,6588,6336,1664,1040,692
5688,6584,6332,1664,1040,692
5688,6588,6336,1664,1040,692
5692,6592,6340,1664,1040,692
5692,6596,6340,1664,1040,692
5692,6600,6344,1664,1040,692
5696,6604,6344,1664,1040,692
5692,6604,6344,1664,1040,692
5692,6608,6348,1664,1040,692
5696,6612,6348,1664,1040,692
5696,6616,6352,1664,1040,692
5696,6620,6356,1664,1040,692
5692,6616,6352,1664,1040,692
5688,6612,6348,1664,1040,692
5688,6612,6352,1664,1040,692
5688,6608,6348,1664,1040,692
5688,6600,6344,1664,1040,692
5684,6592,6340,1664,1040,692
5684,6584,6332,1664,1040,692
5680,6576,6328,1664,1040,692
5676,6568,6324,1664,1040,692
5676,6564,6320,1664,1040,692
5680,6560,6320,1664,1040,688
5676,6552,6312,1664,1040,692
5676,6548,6312,1664,1040,688
5676,6552,6312,1664,1040,688
5672,6548,6308,1664,1040,688
5672,6548,6308,1660,1040,688
5672,6548,6308,1664,1040,688
5676,6552,6312,1664,1040,688
5676,6552,6312,1664,1040,688
5676,6552,6308,1664,1040,688
5676,6552,6312,1664,1040,688
5676,6552,6312,1664,1040,688
5676,6552,6312,1664,1040,688
5676,6556,6316,1664,1040,688
5680,6560,6316,1664,1040,688
5676,6564,6316,1664,1036,688
5680,6564,6320,1664,1040,688
5680,6568,6320,1660,1036,688
5676,6568,6320,1660,1036,688
5680,6576,6328,1660,1036,688
5684,6580,6332,1660,1036,688
5684,6584,6332,1660,1036,688
5680,6580,6328,1664,1036,688
5684,6588,6332,1660,1036,688
5680,6588,6332,1660,1036,688
5684,6592,6336,1660,1036,688
5680,6592,6336,1664,1036,688
5680,6592,6336,1664,1036,688
5680,6592,6336,1660,1036,688
5680,6588,6336,1660,1036,688
5672,6572,6324,1664,1036,688
5676,6568,6324,1660,1036,688
5672,6560,6316,1664,1036,688
5672,6548,6312,1660,1036,688
5668,6540,6304,1660,1036,688
5664,6532,6296,1660,1036,688
5664,6528,6296,1660,1036,688
5660,6516,6288,1660,1036,688
5660,6512,6284,1660,1036,688
5660,6512,6284,1660,1036,688
5660,6508,6284,1660,1036,688
5660,6508,6284,1660,1036,688
5660,6504,6280,1660,1036,688
5660,6504,6280,1660,1036,688
5660,6504,6280,1660,1032,688
5656,6500,6276,1660,1036,688
5660,6504,6280,1660,1036,688
5660,6504,6280,1660,1032,688
5656,6500,6280,1660,1032,688
5656,6500,6280,1660,1032,688
5652,6500,6276,1660,1032,688
5656,6504,6280,1660,1032,688
5656,6504,6280,1660,1032,688
5652,6504,6280,1660,1032,688
5652,6504,6280,1660,1032,688
5652,6508,6280,1660,1032,688
5656,6512,6284,1660,1032,688
5652,6512,6284,1660,1032,688
5656,6516,6284,1660,1032,688
5652,6516,6284,1660,1032,688
5652,6516,6288,1660,1032,688
5660,6528,6296,1660,1032,688
5656,6524,6292,1660,1032,688
5656,6528,6292,1660,1032,688
5656,6532,6296,1660,1032,688
5660,6536,6300,1660,1032,688
5660,6536,6300,1660,1032,688
5660,6532,6296,1660,1032,688
5656,6524,6292,1660,1032,688
5656,6516,6288,1660,1032,688
5656,6508,6280,1660,1032,688
5652,6496,6276,1660,1032,688
5652,6488,6272,1660,1032,688
5652,6484,6268,1660,1032,688
5652,6476,6264,1660,1032,684
5648,6468,6260,1660,1032,684
5648,6464,6256,1660,1032,684
5648,6460,6252,1660,1032,684
5648,6460,6252,1660,1028,684
5648,6456,6248,1660,1028,684
5652,6460,6252,1660,1028,684
5648,6460,6252,1660,1028,684
5648,6460,6252,1660,1028,684
5648,6456,6252,1660,1028,684
5648,6456,6252,1660,1028,684
5648,6460,6252,1660,1028,684
5644,6452,6248,1660,1028,684
5644,6456,6248,1660,1028,684
5648,6456,6252,1660,1028,684
5648,6460,6252,1660,1028,684
5644,6460,6252,1660,1028,684
5644,6456,6248,1660,1028,684
5644,6464,6252,1660,1028,684
5644,6464,6252,1660,1028,684
5644,6464,6252,1660,1028,684
5640,6464,6252,1656,1028,684
5640,6464,6256,1660,1028,684
5640,6468,6256,1660,1028,684
5636,6464,6252,1660,1028,684
5640,6468,6256,1656,1028,684
5636,6468,6256,1660,1028,684
5640,6476,6260,1660,1028,684
5640,6476,6260,1660,1028,684
5640,6476,6260,1660,1028,684
5640,6480,6264,1660,1028,684
5644,6488,6268,1660,1028,684
5644,6492,6272,1660,1028,684
5648,6500,6276,1660,1028,684
5648,6500,6276,1660,1028,684
5644,6492,6272,1660,1028,684
5644,6484,6268,1660,1028,684
5644,6476,6264,1660,1028,684
5640,6468,6256,1660,1028,684
5640,6456,6252,1656,1028,684
5636,6448,6244,1656,1028,684
5632,6436,6236,1656,1028,684
5632,6428,6232,1656,1028,684
5632,6424,6228,1660,1028,684
5628,6416,6220,1656,1024,684
5628,6412,6220,1656,1024,684
5628,6408,6216,1660,1024,684
5628,6408,6216,1660,1024,684
5628,6412,6216,1660,1024,684
5628,6408,6216,1660,1024,684
5632,6412,6220,1660,1024,684
5632,6416,6224,1660,1024,684
5640,6424,6228,1656,1024,684
5640,6424,6228,1656,1024,684
5636,6424,6228,1660,1024,684
5640,6432,6232,1660,1024,684
5640,6432,6236,1656,1024,684
5640,6436,6236,1660,1024,684
5640,6436,6236,1656,1024,684
5640,6440,6240,1656,1024,684
5640,6444,6240,1656,1024,680
5644,6448,6244,1656,1024,680
5644,6452,6248,1656,1024,680
5640,6452,6244,1656,1024,680
5644,6460,6248,1656,1024,680
5644,6464,6252,1656,1024,680
5644,6464,6256,1656,1024,680
5644,6472,6256,1656,1024,680
5648,6476,6260,1656,1024,680
5644,6476,6260,1656,1024,680
5648,6484,6264,1656,1024,680
5652,6488,6268,1656,1024,680
5652,6492,6272,1656,1024,680
5652,6496,6276,1660,1024,684
5652,6500,6276,1660,1024,684
5652,6504,6276,1656,1024,684
5656,6508,6280,1656,1024,684
5652,6508,6280,1656,1024,680
5652,6504,6276,1660,1024,684
5648,6492,6268,1660,1024,684
5648,6488,6268,1660,1024,684
5648,6480,6264,1660,1024,684
5644,6472,6256,1656,1024,680
5644,6468,6256,1656,1024,680
5648,6464,6256,1656,1024,680
5648,6460,6252,1660,1024,680
5644,6452,6248,1660,1024,680
5644,6448,6244,1656,1024,680
5644,6444,6240,1656,1024,680
5644,6444,6240,1656,1024,680
5644,6444,6244,1660,1024,680
5644,6444,6240,1660,1024,680
5640,6440,6236,1656,1024,680
5640,6440,6236,1656,1024,680
5640,6440,6236,1660,1024,680
5640,6440,6240,1656,1024,680
5640,6440,6240,1656,1024,680
5640,6444,6236,1656,1020,680
5640,6444,6240,1656,1024,680
5636,6444,6240,1656,1024,680
5636,6448,6240,1656,1024,680
5636,6448,6240,1660,1024,680
5640,6452,6244,1656,1024,680
5640,6456,6248,1660,1024,680
5636,6456,6244,1660,1024,680
5640,6460,6248,1656,1024,680
5640,6464,6252,1656,1024,680
5640,6468,6252,1660,1024,680
5640,6472,6256,1660,1024,680
5640,6472,6252,1660,1024,680
5640,6476,6260,1660,1024,680
5644,6484,6264,1656,1024,680
5648,6488,6268,1660,1024,680
5644,6488,6268,1656,1024,680
5648,6496,6272,1660,1024,680
5648,6500,6276,1660,1024,680
5648,6504,6276,1660,1024,680
5644,6500,6272,1656,1024,680
5648,6500,6276,1660,1024,680
5648,6492,6272,1656,1024,680
5648,6488,6268,1656,1024,680
5644,6476,6260,1656,1024,680
5644,6468,6256,1656,1024,680
5644,6468,6256,1656,1024,680
5640,6460,6248,1656,1020,680
5640,6456,6248,1656,1020,680
5640,6448,6240,1656,1020,680
5640,6444,6240,1656,1020,680
5640,6444,6240,1656,1020,680
5636,6444,6236,1656,1020,680
5636,6444,6240,1656,1020,680
5636,6444,6236,1656,1020,680
5640,6448,6240,1656,1020,680
5640,6448,6240,1656,1020,680
5636,6444,6236,1656,1020,680
5640,6452,6244,1660,1020,680
5640,6452,6240,1656,1020,680
5636,6452,6240,1656,1020,680
5640,6456,6248,1656,1020,680
5640,6460,6248,1656,1020,680
5636,6460,6244,1656,1020,680
5644,6468,6252,1656,1020,680
5640,6468,6252,1656,1020,680
5640,6472,6252,1656,1020,680
5640,6476,6256,1656,1020,680
5644,6480,6260,1656,1020,680
5640,6480,6260,1660,1020,680
5644,6488,6264,1660,1020,680
5644,6492,6264,1660,1020,680
5644,6496,6268,1660,1024,680
5644,6500,6272,1660,1024,680
5644,6500,6268,1660,1020,680
5648,6508,6276,1656,1020,680
5648,6512,6280,1656,1020,680
5648,6516,6280,1656,1020,680
5656,6528,6288,1656,1020,680
5652,6528,6288,1656,1020,680
5648,6528,6288,1656,1024,680
5648,6524,6284,1656,1024,680
5648,6520,6284,1656,1024,680
5648,6516,6280,1656,1024,680
5652,6508,6276,1656,1024,680
5648,6500,6272,1656,1020,680
5648,6496,6272,1656,1020,680
5648,6488,6264,1660,1024,680
5644,6484,6260,1656,1020,680
5644,6472,6256,1660,1020,680
5644,6468,6252,1656,1020,680
5644,6464,6252,1656,1020,680
5644,6460,6248,1656,1020,680
5640,6460,6244,1656,1020,680
5644,6460,6248,1656,1020,680
5640,6460,6244,1656,1020,680
5640,6460,6244,1656,1020,680
5640,6460,6248,1656,1020,680
5644,6464,6252,1656,1020,680
5644,6464,6248,1656,1020,680
5644,6464,6248,1656,1020,680
5644,6472,6252,1656,1020,680
5640,6468,6252,1656,1020,680
5644,6476,6252,1656,1020,680
5648,6484,6264,1656,1020,680
5644,6480,6256,1656,1020,680
5648,6488,6264,1656,1020,680
5644,6488,6260,1656,1020,680
5648,6492,6268,1656,1020,680
5652,6500,6272,1660,1020,680
5652,6504,6276,1656,1020,680
5652,6512,6276,1656,1020,680
5648,6508,6276,1656,1020,680
5652,6516,6280,1660,1020,680
5652,6516,6280,1656,1020,680
5656,6528,6288,1660,1024,680
5652,6528,6288,1660,1020,680
5656,6536,6292,1660,1020,680
5656,6536,6292,1660,1024,680
5656,6540,6292,1660,1024,680
5656,6548,6300,1660,1024,680
5656,6548,6300,1660,1024,680
5660,6556,6304,1660,1024,680
5660,6560,6308,1656,1024,680
5664,6568,6312,1660,1024,680
5660,6568,6312,1660,1024,680
5660,6572,6312,1660,1024,680
5656,6568,6312,1660,1024,680
5660,6560,6308,1660,1024,680
5656,6556,6304,1660,1024,680
5660,6548,6304,1660,1024,680
5656,6536,6292,1660,1024,680
5656,6532,6292,1660,1024,680
5652,6524,6284,1660,1024,680
5656,6520,6284,1660,1024,680
5656,6516,6280,1660,1024,680
5656,6508,6276,1660,1024,680
5652,6500,6272,1660,1024,680
5652,6500,6272,1660,1024,680
5652,6496,6268,1660,1024,680
5652,6500,6268,1660,1024,680
5652,6500,6272,1660,1020,680
5648,6496,6268,1660,1020,680
5648,6496,6268,1660,1020,680
5648,6496,6264,1656,1020,680
5648,6500,6268,1656,1020,680
5648,6500,6268,1656,1020,680
5648,6500,6272,1656,1020,680
5652,6504,6276,1660,1020,680
5652,6508,6276,1656,1020,680
5656,6512,6280,1660,1020,680
5652,6516,6280,1660,1020,680
5652,6516,6280,1660,1020,680
5652,6516,6280,1656,1020,680
5648,6516,6280,1656,1020,680
5648,6516,6280,1656,1020,680
5648,6520,6280,1656,1020,680
5648,6524,6280,1656,1020,680
5652,6532,6288,1660,1024,680
5652,6536,6292,1660,1024,680
5656,6544,6296,1660,1024,680
5656,6548,6296,1660,1024,680
5656,6548,6300,1660,1024,680
5660,6556,6304,1660,1024,680
5656,6560,6304,1660,1024,680
5660,6564,6308,1660,1024,680
5656,6564,6308,1660,1024,680
5656,6568,6308,1660,1024,680
5664,6580,6320,1660,1024,680
5660,6580,6316,1660,1024,680
5660,6584,6320,1660,1024,680
5660,6584,6320,1660,1024,680
5660,6584,6320,1660,1024,680
5660,6576,6316,1660,1024,680
5660,6568,6312,1660,1024,680
5656,6560,6304,1660,1024,680
5656,6548,6300,1660,1024,680
5656,6544,6296,1660,1024,680
5656,6536,6292,1660,1024,680
5652,6528,6288,1660,1024,680
5652,6524,6284,1660,1024,680
5648,6516,6280,1656,1024,680
5648,6516,6276,1656,1024,680
5648,6512,6280,1660,1024,680
5648,6508,6272,1660,1024,680
5648,6512,6276,1660,1024,680
5644,6508,6276,1660,1024,680
5640,6504,6268,1660,1024,680
5644,6504,6272,1660,1024,680
5640,6504,6268,1660,1024,680
5644,6508,6272,1660,1024,680
5644,6508,6272,1660,1024,680
5644,6508,6272,1660,1024,680
5644,6512,6276,1660,1024,680
5648,6516,6280,1660,1024,680
5648,6520,6284,1660,1024,680
5648,6524,6280,1660,1024,680
5648,6524,6284,1660,1024,680
5648,6528,6288,1660,1024,680
5648,6528,6284,1660,1024,680
5648,6536,6288,1660,1024,680
5648,6536,6288,1660,1024,680
5648,6540,6292,1660,1024,680
5648,6540,6292,1660,1024,680
5648,6544,6292,1660,1024,680
5648,6548,6292,1660,1024,680
5652,6552,6300,1660,1024,680
5648,6556,6300,1660,1024,680
5648,6556,6300,1660,1024,684
5652,6560,6304,1660,1024,684
5656,6568,6308,1660,1024,680
5652,6568,6308,1660,1024,680
5652,6572,6312,1660,1024,684
5656,6580,6316,1660,1024,684
5652,6576,6312,1660,1024,684
5656,6572,6312,1660,1024,684
5652,6564,6304,1660,1024,684
5648,6552,6296,1660,1024,684
5648,6544,6292,1660,1024,684
5644,6532,6284,1656,1024,680
5644,6528,6284,1660,1024,680
5644,6524,6280,1660,1024,680
5644,6516,6276,1660,1024,680
5644,6512,6272,1660,1024,684
5644,6508,6268,1660,1024,680
5648,6512,6276,1660,1024,680
5648,6512,6276,1660,1024,680
5648,6508,6272,1660,1024,684
5644,6508,6268,1660,1024,684
5644,6508,6272,1660,1024,684
5648,6512,6276,1660,1024,680
5640,6504,6268,1660,1024,684
5640,6504,6268,1660,1024,680
5640,6504,6264,1660,1024,684
5640,6504,6268,1660,1024,680
5640,6508,6272,1660,1024,684
5640,6508,6268,1660,1024,680
5640,6512,6268,1660,1024,684
5640,6512,6272,1660,1024,684
5640,6516,6272,1660,1024,684
5640,6516,6272,1660,1024,684
5644,6524,6276,1660,1024,684
5644,6524,6280,1660,1024,684
5644,6532,6284,1660,1024,684
5644,6536,6284,1660,1024,684
5648,6544,6288,1660,1024,684
5648,6544,6288,1660,1024,684
5652,6552,6296,1660,1024,684
5652,6556,6296,1660,1024,684
5652,6560,6300,1660,1024,684
5652,6564,6304,1660,1024,684
5648,6564,6300,1660,1024,684
5652,6568,6304,1660,1028,684
5652,6572,6308,1660,1028,684
5652,6576,6308,1660,1024,684
5656,6584,6316,1660,1028,684
5660,6588,6320,1660,1028,684
5660,6596,6324,1660,1028,684
5656,6592,6320,1660,1028,684
5660,6592,6320,1660,1028,684
5660,6584,6320,1660,1028,684
5656,6576,6312,1660,1028,684
5656,6568,6308,1660,1028,684
5656,6556,6300,1660,1028,684
5652,6544,6288,1660,1028,684
5648,6532,6284,1660,1028,684
5652,6528,6284,1660,1028,684
5652,6520,6276,1660,1024,684
5648,6512,6272,1660,1024,684
5648,6504,6268,1660,1024,684
5644,6500,6264,1660,1024,684
5644,6496,6264,1660,1024,684
5644,6496,6260,1660,1024,684
5640,6488,6256,1660,1024,684
5640,6488,6256,1660,1024,684
5640,6488,6256,1660,1024,684
5640,6488,6256,1660,1024,684
5640,6488,6256,1660,1028,684
5640,6488,6256,1660,1024,684
5644,6492,6256,1660,1024,684
5640,6492,6256,1660,1024,684
5640,6492,6256,1660,1024,684
5640,6496,6260,1660,1024,684
5644,6500,6264,1660,1028,684
5648,6508,6268,1660,1024,684
5644,6504,6268,1660,1028,684
5644,6508,6268,1660,1024,684
5644,6512,6272,1660,1024,684
5644,6516,6272,1660,1024,684
5648,6520,6276,1660,1024,684
5648,6520,6276,1660,1028,684
5644,6524,6276,1660,1028,684
5648,6532,6280,1660,1028,684
5648,6536,6284,1660,1028,684
5648,6536,6284,1660,1028,684
5652,6544,6292,1660,1028,684
5652,6544,6288,1660,1028,684
5652,6548,6292,1660,1028,684
5652,6552,6292,1660,1028,684
5656,6560,6304,1660,1028,684
5652,6560,6300,1660,1028,684
5652,6564,6300,1660,1028,684
5656,6572,6308,1660,1028,684
5656,6572,6308,1660,1028,684
5656,6576,6308,1660,1028,684
5652,6576,6312,1660,1028,684
5656,6576,6308,1660,1028,684
5652,6564,6304,1660,1028,684
5652,6552,6296,1660,1028,684
5652,6540,6288,1660,1028,684
5648,6528,6276,1660,1028,684
5644,6516,6268,1660,1028,684
5644,6512,6268,1660,1028,684
5644,6500,6260,1660,1028,684
5640,6488,6256,1660,1028,684
5640,6484,6252,1660,1028,684
5636,6476,6248,1660,1028,684
5640,6476,6248,1660,1028,684
5640,6476,6248,1660,1028,684
5636,6472,6244,1660,1028,684
5636,6468,6240,1660,1028,684
5636,6468,6240,1660,1028,684
5640,6476,6244,1660,1028,684
5640,6472,6244,1660,1028,684
5636,6468,6240,1660,1028,684
5636,6468,6240,1660,1028,684
5636,6472,6244,1660,1028,684
5640,6476,6248,1660,1028,684
5640,6480,6248,1660,1028,684
5640,6484,6252,1660,1028,684
5640,6484,6248,1660,1028,684
5640,6488,6252,1660,1028,684
5640,6488,6252,1660,1028,684
5636,6488,6252,1660,1028,684
5636,6492,6252,1660,1028,684
5640,6500,6260,1660,1028,684
5640,6500,6260,1660,1028,684
5644,6512,6268,1660,1028,684
5644,6512,6268,1660,1028,684
5644,6516,6268,1660,1028,684
5644,6516,6268,1660,1028,684
5644,6524,6272,1660,1028,684
5648,6528,6276,1660,1028,684
5644,6528,6276,1660,1028,684
5644,6536,6280,1660,1028,684
5644,6536,6280,1660,1028,684
5648,6540,6284,1660,1028,684
5644,6540,6284,1660,1028,684
5648,6552,6288,1660,1028,684
5652,6556,6296,1660,1028,684
5648,6556,6292,1660,1028,684
5652,6548,6292,1660,1028,684
5648,6540,6284,1660,1028,684
5648,6528,6276,1660,1028,684
5648,6520,6272,1660,1028,684
5644,6512,6268,1660,1028,684
5640,6504,6260,1660,1028,684
5640,6496,6256,1660,1028,684
5640,6484,6252,1660,1028,684
5636,6480,6244,1660,1028,684
5636,6476,6244,1660,1028,684
5636,6472,6240,1660,1028,684
5636,6472,6240,1660,1028,684
5632,6468,6236,1660,1028,684
5632,6468,6236,1660,1028,684
5636,6468,6240,1660,1028,684
5636,6472,6240,1660,1028,684
5636,6472,6240,1660,1028,684
5636,6472,6240,1660,1028,684
5636,6476,6244,1660,1028,684
5636,6476,6244,1660,1028,684
5636,6480,6244,1660,1028,684
5636,6480,6248,1660,1028,684
5636,6484,6248,1660,1028,684
5636,6488,6248,1660,1028,684
5636,6492,6252,1660,1028,684
5640,6496,6256,1660,1028,684
5640,6500,6256,1660,1028,684
5640,6504,6256,1660,1028,684
5644,6512,6264,1660,1028,684
5644,6512,6268,1660,1028,684
5644,6520,6268,1660,1028,684
5644,6520,6268,1660,1028,684
5648,6528,6276,1660,1028,684
5648,6532,6276,1660,1028,684
5648,6540,6284,1660,1028,684
5648,6540,6284,1660,1028,684
5648,6544,6284,1660,1028,684
5648,6548,6288,1660,1028,684
5652,6556,6292,1660,1028,684
5652,6560,6296,1660,1028,684
5652,6560,6296,1660,1028,684
5652,6568,6300,1660,1032,684
5652,6572,6300,1660,1032,684
5656,6580,6308,1660,1032,684
5656,6580,6308,1660,1032,684
5656,6576,6304,1660,1032,684
5656,6568,6300,1660,1032,684
5652,6556,6292,1660,1032,684
5652,6540,6284,1660,1032,684
5648,6528,6276,1660,1032,684
5644,6516,6264,1660,1028,684
5648,6512,6264,1660,1028,684
5644,6500,6260,1660,1028,684
5644,6492,6252,1660,1028,684
5640,6484,6244,1660,1028,684
5636,6476,6240,1660,1028,684
5636,6468,6236,1660,1028,684
5636,6464,6236,1660,1028,684
5636,6468,6236,1660,1028,684
5632,6464,6236,1660,1028,684
5636,6464,6232,1660,1028,684
5632,6464,6232,1660,1028,684
5632,6460,6228,1660,1028,684
5632,6460,6232,1660,1028,684
5632,6460,6232,1660,1028,684
5632,6464,6232,1660,1028,684
5636,6468,6236,1660,1028,684
5640,6472,6240,1660,1028,684
5640,6476,6244,1660,1028,684
5636,6476,6240,1660,1028,684
5636,6476,6240,1660,1028,684
5636,6480,6244,1660,1028,684
5636,6484,6244,1660,1028,684
5636,6484,6244,1660,1028,684
5636,6488,6248,1660,1028,684
5636,6492,6248,1660,1028,684
5640,6496,6256,1660,1028,684
5640,6500,6260,1660,1028,684
5640,6504,6260,1660,1032,684
5640,6508,6260,1660,1032,684
5640,6508,6260,1660,1032,684
5640,6512,6264,1660,1032,684
5636,6512,6260,1660,1028,684
5640,6520,6268,1660,1028,684
5644,6524,6272,1660,1032,684
5644,6528,6272,1660,1028,684
5644,6532,6276,1660,1032,684
5644,6540,6280,1660,1032,684
5648,6544,6284,1660,1032,684
5648,6548,6284,1660,1032,684
5652,6556,6292,1660,1032,684
5648,6556,6288,1660,1032,684
5652,6556,6292,1660,1032,684
5648,6544,6284,1660,1032,684
5648,6532,6276,1660,1032,684
5644,6520,6268,1660,1032,684
5644,6508,6260,1660,1032,684
5640,6496,6252,1660,1032,684
5640,6488,6248,1660,1032,684
5636,6476,6240,1660,1032,684
5632,6464,6232,1660,1032,684
5636,6460,6232,1660,1028,684
5632,6448,6224,1660,1028,684
5632,6448,6220,1660,1028,684
5632,6444,6220,1660,1028,684
5628,6436,6216,1660,1028,684
5628,6440,6216,1660,1028,684
5628,6436,6212,1660,1028,684
5632,6440,6216,1660,1028,684
5628,6432,6212,1660,1028,684
5628,6436,6212,1660,1028,684
5624,6432,6212,1660,1028,684
5624,6432,6212,1660,1028,684
5628,6436,6212,1660,1028,684
5628,6440,6216,1660,1028,684
5628,6440,6216,1660,1028,684
5632,6448,6220,1660,1028,684
5628,6448,6220,1660,1028,684
5628,6448,6220,1660,1028,684
5628,6452,6224,1660,1028,684
5628,6456,6224,1660,1028,684
5628,6456,6228,1660,1028,684
5628,6460,6228,1660,1028,684
5632,6468,6236,1660,1028,684
5636,6476,6240,1660,1028,684
5636,6476,6240,1660,1028,684
5636,6480,6244,1660,1032,684
5636,6484,6244,1660,1032,684
5636,6488,6248,1660,1032,684
5636,6488,6248,1660,1032,684
5636,6492,6248,1660,1032,684
5636,6496,6252,1660,1032,684
5640,6504,6256,1664,1032,684
5636,6504,6256,1660,1032,684
5636,6508,6260,1664,1032,684
5640,6516,6264,1660,1032,684
5640,6520,6268,1664,1032,688
5644,6528,6272,1664,1032,688
5640,6524,6268,1660,1032,684
5640,6528,6272,1660,1032,684
5640,6520,6268,1660,1032,688
5636,6504,6256,1664,1032,688
5636,6496,6252,1664,1032,688
5632,6480,6240,1664,1032,688
5632,6468,6236,1660,1032,688
5628,6456,6228,1664,1032,688
5632,6452,6228,1664,1032,688
5624,6436,6216,1660,1032,688
5624,6432,6208,1660,1032,684
5620,6420,6200,1660,1032,684
5620,6416,6200,1660,1032,684
5620,6416,6204,1660,1032,684
5620,6412,6196,1660,1032,684
5616,6408,6196,1660,1032,684
5616,6408,6196,1660,1032,684
5616,6404,6192,1660,1032,684
5612,6400,6192,1660,1032,684
5612,6396,6188,1660,1032,684
5608,6396,6188,1660,1032,684
5608,6396,6188,1660,1028,684
5612,6396,6188,1660,1032,684
5612,6400,6192,1660,1028,684
5612,6404,6192,1660,1032,684
5612,6400,6188,1660,1032,684
5608,6400,6188,1660,1032,684
5612,6408,6196,1660,1032,684
5608,6404,6192,1660,1032,684
5612,6408,6192,1660,1032,684
5608,6408,6192,1660,1032,684
5612,6412,6196,1660,1032,684
5612,6416,6200,1660,1032,684
5612,6424,6204,1660,1032,684
5612,6424,6204,1660,1032,684
5616,6432,6208,1660,1032,684
5612,6428,6204,1660,1032,684
5616,6436,6212,1664,1032,688
5616,6440,6216,1664,1032,688
5612,6440,6212,1664,1032,688
5612,6444,6216,1664,1032,688
5616,6452,6220,1660,1032,684
5620,6452,6220,1664,1032,688
5612,6448,6220,1664,1032,688
5616,6452,6220,1664,1032,688
5612,6436,6212,1664,1032,688
5612,6424,6204,1660,1032,688
5608,6408,6196,1664,1032,688
5608,6400,6188,1664,1032,688
5604,6388,6180,1660,1032,684
5604,6380,6180,1660,1032,684
5604,6376,6176,1664,1032,684
5600,6360,6164,1660,1032,684
5600,6356,6160,1660,1028,684
5596,6352,6156,1660,1032,684
5600,6348,6160,1660,1032,684
5596,6348,6156,1660,1028,684
5596,6344,6156,1660,1028,684
5596,6344,6152,1660,1028,684
5596,6344,6152,1660,1028,684
5596,6340,6152,1660,1028,684
5596,6340,6152,1660,1028,684
5596,6344,6152,1660,1028,684
5592,6344,6152,1660,1028,684
5592,6344,6152,1660,1028,684
5596,6348,6156,1660,1028,684
5596,6352,6156,1660,1028,684
5596,6356,6160,1660,1028,684
5596,6352,6160,1660,1028,684
5596,6356,6160,1660,1028,684
5596,6360,6164,1660,1028,684
5600,6368,6168,1660,1032,684
5596,6368,6168,1660,1032,684
5600,6372,6168,1660,1028,684
5600,6376,6172,1660,1032,684
5600,6380,6176,1660,1032,684
5604,6388,6180,1660,1032,684
5600,6388,6180,1660,1032,684
5604,6396,6184,1660,1032,684
5604,6400,6188,1660,1032,684
5604,6404,6188,1660,1032,684
5608,6408,6192,1660,1032,684
5604,6408,6192,1660,1032,684
5608,6416,6200,1660,1032,684
5608,6420,6200,1660,1032,684
5612,6424,6204,1660,1032,684
5612,6428,6204,1664,1032,684
5612,6432,6208,1664,1032,684
5612,6432,6208,1664,1032,688
5612,6416,6200,1660,1032,688
5612,6408,6192,1664,1032,688
5608,6392,6188,1660,1032,684
5604,6376,6176,1660,1032,688
5600,6364,6164,1660,1032,684
5600,6352,6156,1664,1032,688
5596,6340,6152,1660,1032,684
5592,6328,6144,1660,1032,684
5592,6320,6140,1660,1028,684
5592,6312,6132,1660,1028,684
5584,6300,6124,1660,1028,684
5588,6300,6128,1660,1028,684
5588,6296,6124,1660,1028,684
5588,6296,6128,1660,1028,684
5584,6292,6120,1660,1028,684
5584,6292,6120,1660,1028,684
5584,6288,6120,1660,1028,684
5580,6284,6116,1660,1028,684
5584,6288,6120,1660,1028,684
5580,6288,6116,1660,1028,684
5580,6288,6116,1660,1028,684
5584,6292,6120,1660,1028,684
5584,6292,6120,1660,1028,684
5584,6296,6124,1664,1032,684
5584,6296,6124,1660,1028,684
5580,6296,6120,1660,1028,684
5580,6300,6124,1660,1028,684
5580,6300,6124,1664,1032,684
5584,6304,6128,1664,1032,684
5584,6312,6132,1664,1032,684
5584,6312,6132,1664,1032,684
5588,6320,6136,1664,1032,684
5588,6320,6136,1664,1032,684
5588,6324,6140,1664,1032,684
5588,6328,6144,1664,1032,684
5588,6332,6144,1664,1032,684
5588,6332,6144,1664,1032,684
5584,6336,6144,1664,1032,688
5588,6344,6152,1664,1032,688
5592,6352,6156,1664,1032,684
5592,6352,6156,1664,1032,688
5592,6356,6160,1664,1032,688
5600,6368,6168,1664,1032,688
5600,6372,6172,1664,1032,688
5596,6368,6168,1664,1032,688
5596,6372,6172,1664,1032,688
5596,6368,6168,1664,1032,688
5596,6356,6160,1664,1032,688
5592,6340,6152,1664,1032,688
5592,6328,6144,1664,1032,688
5588,6316,6136,1664,1032,688
5584,6300,6124,1664,1032,688
5580,6284,6112,1664,1032,688
5576,6272,6108,1660,1032,684
5576,6260,6100,1660,1032,684
5576,6248,6092,1664,1032,684
5572,6240,6088,1664,1032,684
5572,6236,6084,1664,1032,684
5568,6232,6080,1660,1028,684
5572,6232,6084,1660,1028,684
5568,6228,6076,1664,1032,684
5568,6228,6080,1664,1028,684
5564,6224,6076,1664,1032,684
5564,6220,6072,1664,1028,684
5564,6220,6076,1664,1032,684
5564,6220,6072,1664,1032,684
5564,6220,6072,1660,1028,684
5564,6220,6076,1660,1028,684
5564,6224,6076,1660,1028,684
5564,6224,6076,1660,1028,684
5564,6224,6076,1660,1028,684
5564,6228,6076,1660,1028,684
5564,6228,6080,1660,1028,684
5564,6232,6080,1660,1028,684
5568,6236,6084,1660,1028,684
5572,6244,6092,1660,1028,684
5572,6248,6092,1660,1028,684
5568,6248,6092,1660,1028,684
5568,6252,6092,1660,1028,684
5568,6252,6092,1660,1028,684
5568,6256,6096,1660,1028,684
5568,6260,6100,1660,1028,684
5568,6264,6100,1660,1032,684
5568,6268,6104,1660,1032,684
5572,6272,6104,1660,1032,684
5572,6276,6108,1660,1032,684
5572,6280,6112,1660,1032,684
5572,6284,6112,1664,1032,684
5576,6292,6116,1664,1032,684
5576,6296,6120,1664,1032,684
5572,6288,6116,1664,1032,684
5576,6284,6116,1660,1032,684
5572,6268,6104,1660,1032,684
5572,6260,6100,1660,1032,684
5564,6240,6084,1660,1032,684
5568,6232,6080,1660,1032,684
5564,6220,6072,1660,1028,684
5560,6204,6064,1660,1028,684
5556,6192,6056,1660,1028,684
5556,6184,6052,1660,1028,684
5556,6180,6048,1660,1028,684
5556,6176,6044,1660,1028,684
5556,6180,6044,1660,1028,684
5552,6172,6040,1660,1028,684
5548,6168,6040,1660,1028,684
5552,6168,6040,1660,1028,684
5548,6168,6036,1660,1028,684
5548,6168,6036,1660,1028,684
5552,6168,6040,1660,1028,684
5548,6168,6036,1660,1028,684
5548,6168,6036,1660,1028,684
5548,6172,6040,1660,1028,684
5548,6172,6040,1660,1028,684
5552,6176,6044,1660,1028,684
5548,6180,6044,1660,1028,684
5552,6184,6048,1660,1032,684
5552,6188,6048,1660,1028,684
5552,6192,6052,1664,1032,684
5556,6200,6056,1660,1032,684
5556,6204,6060,1664,1032,684
5556,6204,6060,1664,1032,684
5560,6212,6068,1660,1032,684
5560,6216,6068,1660,1032,684
5556,6220,6068,1660,1032,684
5560,6228,6076,1660,1032,684
5564,6236,6084,1664,1032,684
5564,6240,6084,1660,1032,684
5564,6244,6084,1664,1032,684
5568,6248,6088,1660,1032,684
5572,6256,6096,1664,1032,688
5568,6260,6096,1664,1032,684
5572,6264,6100,1660,1032,684
5572,6268,6100,1664,1032,688
5568,6260,6096,1664,1032,688
5568,6248,6092,1664,1032,688
5568,6236,6084,1664,1032,688
5564,6220,6072,1664,1032,688
5564,6208,6064,1664,1032,688
5564,6200,6060,1664,1032,688
5556,6184,6048,1664,1032,684
5560,6180,6048,1660,1032,684
5556,6168,6040,1660,1032,684
5552,6160,6032,1660,1032,684
5552,6152,6028,1664,1032,688
5552,6148,6028,1664,1032,684
5552,6148,6024,1660,1032,684
5552,6148,6024,1660,1032,684
5552,6148,6024,1664,1032,684
5552,6148,6024,1660,1032,684
5552,6148,6024,1660,1032,684
5552,6152,6028,1660,1032,684
5552,6152,6028,1660,1032,684
5548,6148,6024,1664,1032,684
5552,6152,6028,1660,1032,684
5552,6156,6028,1660,1032,684
5552,6160,6032,1660,1032,684
5556,6168,6036,1660,1032,684
5560,6172,6040,1660,1032,684
5560,6180,6044,1660,1032,684
5560,6180,6048,1660,1032,684
5564,6188,6052,1660,1032,684
5560,6188,6052,1664,1032,684
5560,6192,6056,1660,1032,684
5560,6200,6060,1664,1032,684
5564,6204,6060,1664,1032,688
5568,6212,6068,1664,1032,688
5568,6216,6072,1664,1032,688
5568,6220,6072,1664,1032,688
5568,6228,6076,1664,1032,688
5572,6232,6080,1664,1032,688
5572,6240,6084,1664,1032,688
5572,6244,6084,1664,1032,688
5572,6252,6088,1664,1032,688
5572,6252,6092,1664,1032,688
5576,6264,6100,1664,1032,688
5580,6272,6104,1664,1032,688
5580,6276,6104,1664,1032,688
5584,6284,6112,1664,1032,688
5584,6292,6116,1664,1032,688
5584,6292,6116,1664,1036,688
5584,6288,6116,1664,1036,688
5584,6284,6116,1664,1036,688
5580,6264,6104,1664,1036,688
5576,6248,6092,1664,1036,688
5576,6240,6084,1664,1036,688
5576,6228,6080,1664,1032,688
5572,6216,6068,1664,1032,688
5572,6204,6060,1664,1032,688
5568,6188,6052,1664,1032,688
5564,6180,6044,1664,1032,688
5564,6176,6044,1664,1032,688
5564,6172,6040,1664,1032,688
5564,6168,6036,1664,1032,688
5560,6168,6036,1664,1032,688
5560,6168,6036,1664,1032,688
5564,6168,6040,1664,1032,688
5564,6168,6040,1664,1032,688
5564,6172,6040,1664,1032,688
5564,6172,6040,1664,1032,688
5560,6172,6040,1664,1032,688
5560,6172,6040,1664,1032,688
5564,6180,6044,1664,1032,688
5564,6180,6044,1664,1032,688
5568,6188,6052,1664,1036,688
5568,6192,6052,1664,1032,688
5568,6196,6060,1664,1032,688
5572,6200,6060,1664,1036,688
5568,6204,6060,1664,1036,688
5572,6212,6068,1664,1036,688
5572,6216,6068,1664,1036,688
5572,6216,6072,1664,1036,688
5576,6224,6076,1664,1036,688
5572,6228,6076,1664,1036,688
5572,6232,6080,1664,1036,688
5576,6240,6084,1664,1036,688
5576,6244,6084,1664,1036,688
5576,6248,6088,1664,1036,688
5576,6256,6092,1664,1036,688
5580,6260,6100,1664,1036,688
5580,6264,6100,1664,1036,688
5584,6272,6108,1664,1036,688
5580,6276,6108,1664,1036,688
5584,6284,6112,1664,1036,688
5584,6288,6112,1664,1036,688
5584,6292,6116,1664,1036,688
5580,6292,6112,1664,1036,688
5584,6296,6120,1664,1036,688
5584,6300,6120,1664,1036,688
5584,6292,6116,1664,1036,688
5580,6276,6104,1664,1036,688
5576,6260,6096,1664,1036,688
5576,6252,6092,1664,1036,688
5576,6240,6084,1664,1036,688
5572,6228,6076,1664,1036,688
5568,6216,6068,1664,1036,688
5568,6208,6064,1664,1036,688
5572,6204,6064,1664,1036,688
5568,6196,6056,1664,1036,688
5564,6188,6052,1664,1036,688
5568,6188,6052,1664,1036,688
5564,6188,6052,1664,1036,688
5564,6188,6052,1664,1036,688
5564,6184,6048,1664,1036,688
5564,6184,6048,1664,1036,688
5564,6184,6048,1664,1036,688
5564,6184,6048,1664,1036,688
5560,6184,6048,1664,1036,688
5560,6184,6048,1664,1036,688
5564,6188,6048,1664,1036,688
5564,6188,6052,1664,1036,688
5560,6188,6048,1664,1036,688
5560,6192,6056,1664,1036,688
5560,6196,6056,1664,1036,688
5564,6204,6060,1664,1036,688
5568,6212,6064,1664,1036,688
5568,6212,6068,1664,1036,688
5568,6216,6068,1664,1036,688
5568,6220,6068,1664,1036,688
5572,6228,6076,1664,1036,688
5572,6236,6080,1664,1036,688
5572,6240,6084,1664,1040,688
5572,6240,6084,1664,1040,688
5572,6244,6084,1664,1040,688
5576,6256,6092,1664,1040,688
5580,6260,6096,1664,1040,688
5580,6268,6100,1664,1040,688
5580,6268,6100,1664,1040,688
5580,6276,6108,1664,1040,688
5584,6284,6116,1664,1040,688
5584,6288,6112,1664,1040,688
5580,6288,6116,1668,1040,692
5584,6284,6112,1668,1040,692
5584,6272,6108,1664,1040,688
5580,6256,6096,1668,1040,692
5576,6244,6088,1668,1040,692
5576,6236,6080,1668,1040,692
5572,6224,6072,1664,1040,688
5572,6216,6068,1664,1040,688
5572,6212,6068,1664,1040,688
5568,6200,6060,1664,1040,688
5568,6196,6056,1664,1040,688
5568,6192,6056,1664,1040,688
5568,6192,6052,1664,1036,688
5572,6196,6056,1664,1036,688
5572,6196,6056,1664,1040,688
5568,6196,6056,1664,1036,688
5568,6196,6056,1668,1040,688
5572,6200,6056,1664,1040,688
5572,6200,6060,1664,1036,688
5572,6204,6064,1664,1036,688
5572,6204,6064,1664,1040,688
5568,6204,6060,1664,1036,688
5576,6216,6068,1664,1036,688
5572,6216,6068,1664,1036,688
5572,6216,6068,1664,1036,688
5572,6220,6072,1664,1036,688
5576,6228,6076,1664,1040,688
5576,6232,6080,1664,1036,688
5576,6236,6084,1664,1036,688
5576,6240,6084,1664,1040,688
5576,6248,6088,1664,1040,688
5580,6252,6092,1664,1040,688
5580,6256,6092,1664,1040,688
5580,6264,6100,1664,1040,688
5580,6268,6104,1664,1040,688
5580,6272,6104,1664,1040,688
5580,6276,6104,1664,1040,688
5580,6280,6108,1664,1040,692
5584,6292,6116,1664,1040,688
5584,6296,6116,1664,1040,692
5588,6304,6124,1664,1040,692
5588,6312,6128,1668,1040,692
5592,6320,6132,1668,1040,692
5592,6320,6136,1664,1040,692
5592,6324,6136,1664,1040,692
5596,6332,6144,1664,1040,692
5592,6324,6136,1668,1040,692
5592,6316,6132,1664,1040,692
5592,6300,6124,1664,1040,692
5588,6288,6116,1668,1040,692
5584,6272,6104,1664,1040,692
5588,6264,6100,1664,1040,692
5580,6248,6088,1664,1040,692
5580,6236,6084,1668,1040,692
5580,6232,6076,1664,1040,692
5576,6216,6068,1664,1040,692
5576,6212,6064,1664,1040,692
5576,6212,6064,1664,1040,688
5568,6204,6060,1664,1040,692
5572,6204,6060,1664,1036,688
5576,6212,6064,1664,1040,688
5576,6212,6064,1664,1036,688
5572,6208,6060,1664,1040,688
5572,6208,6064,1664,1036,688
5572,6208,6064,1664,1036,688
5572,6208,6064,1664,1036,688
5576,6212,6068,1664,1036,688
5572,6216,6068,1664,1040,688
5576,6220,6072,1668,1040,692
5576,6224,6072,1668,1040,692
5576,6224,6072,1664,1040,688
5576,6232,6076,1668,1040,692
5576,6232,6080,1664,1040,692
5576,6236,6080,1664,1040,688
5576,6240,6084,1668,1040,692
5580,6248,6088,1664,1040,688
5584,6252,6092,1664,1040,692
5584,6260,6096,1664,1040,688
5584,6264,6100,1664,1040,688
5584,6268,6100,1664,1040,688
5584,6272,6104,1664,1040,688
5588,6280,6108,1664,1040,688
5588,6284,6112,1664,1040,692
5588,6288,6112,1664,1040,692
5588,6292,6116,1664,1040,692
5592,6300,6124,1664,1040,692
5592,6308,6124,1664,1040,688
5592,6312,6128,1664,1040,688
5596,6316,6132,1668,1040,692
5596,6324,6136,1664,1040,692
5596,6332,6140,1664,1040,692
5600,6336,6144,1664,1040,692
5600,6344,6148,1664,1040,692
5600,6336,6144,1664,1040,692
5596,6324,6136,1664,1040,692
5596,6312,6128,1664,1040,692
5596,6300,6120,1664,1040,692
5592,6284,6112,1664,1040,692
5592,6276,6104,1664,1040,692
5588,6268,6100,1664,1040,688
5584,6252,6088,1664,1040,688
5584,6244,6084,1664,1040,692
5576,6228,6072,1664,1040,692
5580,6224,6072,1664,1040,692
5580,6220,6068,1664,1040,688
5580,6220,6068,1664,1036,688
5580,6220,6072,1664,1036,688
5580,6220,6068,1664,1036,688
5580,6224,6072,1664,1036,688
5584,6224,6072,1664,1036,688
5580,6224,6072,1664,1036,688
5580,6224,6072,1664,1036,688
5584,6228,6076,1664,1036,688
5584,6228,6076,1664,1036,688
5584,6232,6076,1664,1036,688
5584,6232,6076,1664,1036,688
5580,6236,6080,1664,1036,688
5588,6244,6084,1664,1036,688
5588,6248,6088,1664,1036,688
5588,6252,6088,1664,1036,688
5592,6260,6096,1664,1036,688
5588,6260,6096,1664,1036,688
5588,6264,6100,1664,1036,688
5588,6268,6100,1664,1040,688
5588,6276,6104,1664,1040,688
5592,6280,6108,1664,1036,688
5588,6280,6108,1664,1036,688
5588,6284,6108,1664,1036,688
5588,6288,6112,1664,1040,688
5596,6300,6120,1664,1040,688
5592,6300,6120,1664,1040,688
5592,6304,6120,1664,1040,688
5596,6312,6128,1664,1040,688
5596,6316,6128,1664,1040,688
5596,6320,6132,1664,1040,688
5600,6332,6140,1664,1040,692
5604,6336,6144,1668,1040,692
5600,6340,6144,1668,1040,692
5600,6344,6144,1668,1040,692
5596,6332,6140,1668,1040,692
5596,6328,6132,1664,1040,692
5596,6312,6128,1664,1040,692
5592,6300,6120,1664,1040,688
5592,6288,6116,1664,1040,692
5592,6276,6104,1664,1040,692
5588,6268,6100,1664,1040,688
5588,6260,6096,1664,1040,688
5588,6252,6088,1668,1040,688
5584,6244,6084,1664,1040,688
5584,6240,6080,1664,1036,688
5584,6236,6076,1664,1040,688
5580,6236,6076,1664,1036,688
5580,6232,6076,1664,1036,688
5580,6232,6076,1664,1036,688
5580,6232,6076,1664,1036,688
5580,6232,6076,1668,1040,688
5580,6232,6076,1664,1040,688
5580,6236,6076,1668,1040,688
5580,6236,6076,1668,1040,688
5580,6240,6080,1664,1036,688
5584,6244,6084,1664,1036,688
5584,6248,6084,1668,1040,692
5584,6248,6084,1664,1040,688
5584,6252,6088,1664,1040,688
5584,6256,6088,1664,1040,688
5588,6264,6096,1664,1036,688
5584,6264,6096,1664,1040,688
5588,6272,6100,1664,1036,688
5588,6276,6104,1668,1040,688
5588,6280,6104,1668,1040,692
5588,6284,6108,1668,1040,692
5588,6292,6112,1664,1040,688
5592,6300,6116,1664,1040,688
5592,6300,6116,1664,1040,688
5592,6304,6116,1668,1040,688
5592,6312,6124,1668,1040,692
5596,6320,6128,1668,1040,688
5596,6324,6132,1668,1040,688
5596,6328,6136,1668,1040,692
5596,6332,6136,1668,1040,688
5600,6340,6140,1664,1040,688
5600,6336,6140,1668,1040,692
5596,6328,6132,1664,1040,692
5596,6312,6124,1668,1040,688
5592,6300,6116,1668,1040,692
5592,6288,6108,1668,1040,688
5592,6280,6104,1664,1040,688
5588,6272,6100,1668,1040,692
5588,6260,6092,1664,1040,688
5588,6252,6088,1664,1040,688
5588,6252,6088,1664,1036,688
5592,6248,6084,1664,1036,688
5584,6244,6080,1664,1036,688
5584,6244,6080,1664,1036,688
5584,6244,6080,1664,1036,688
5584,6248,6084,1668,1040,688
5584,6248,6084,1668,1036,688
5584,6244,6080,1668,1040,688
5580,6244,6080,1664,1036,688
5584,6248,6084,1664,1036,688
5584,6252,6084,1664,1036,688
5584,6252,6084,1664,1036,688
5584,6256,6088,1664,1036,688
5588,6260,6092,1664,1036,688
5584,6264,6092,1664,1036,688
5588,6272,6100,1664,1036,688
5588,6272,6096,1668,1040,688
5588,6280,6100,1664,1036,688
5588,6280,6104,1664,1036,688
5588,6284,6104,1664,1040,688
5588,6288,6108,1664,1036,688
5588,6292,6108,1664,1040,688
5588,6300,6112,1664,1040,688
5592,6308,6120,1664,1040,688
5596,6312,6124,1668,1040,688
5592,6316,6124,1668,1040,688
5596,6324,6128,1668,1040,692
5596,6328,6132,1668,1040,688
5596,6332,6136,1668,1040,688
5600,6340,6140,1668,1040,688
5604,6344,6144,1664,1040,688
5604,6352,6148,1668,1040,688
5604,6356,6148,1668,1040,688
5604,6364,6156,1668,1040,692
5600,6364,6152,1668,1040,692
5600,6364,6156,1668,1040,692
5600,6356,6152,1668,1040,692
5596,6344,6140,1668,1040,692
5596,6328,6132,1664,1040,688
5596,6316,6124,1668,1040,692
5592,6304,6116,1664,1040,688
5592,6296,6112,1668,1040,688
5588,6284,6104,1668,1040,688
5592,6276,6100,1664,1040,688
5588,6268,6092,1668,1040,688
5588,6256,6088,1664,1040,688
5588,6252,6084,1664,1036,688
5588,6248,6084,1664,1036,688
5588,6252,6084,1668,1036,688
5588,6248,6084,1664,1036,688
5584,6248,6084,1664,1036,688
5580,6244,6076,1664,1036,688
5584,6248,6080,1664,1036,688
5580,6244,6076,1668,1036,688
5580,6244,6076,1664,1036,688
5580,6248,6080,1664,1036,688
5584,6256,6084,1664,1036,688
5588,6256,6088,1664,1036,688
5588,6260,6092,1664,1036,688
5584,6264,6088,1664,1036,688
5584,6264,6092,1664,1036,688
5588,6268,6096,1664,1036,688
5588,6276,6100,1664,1036,688
5588,6280,6100,1664,1036,688
5588,6284,6100,1668,1036,688
5592,6288,6108,1668,1036,688
5592,6292,6108,1664,1036,688
5592,6300,6112,1668,1036,688
5592,6304,6116,1664,1036,688
5596,6312,6120,1668,1036,688
5592,6312,6120,1668,1036,688
5596,6320,6128,1664,1036,688
5600,6328,6132,1664,1036,688
5600,6336,6136,1664,1036,688
5600,6336,6136,1664,1036,688
5604,6344,6140,1664,1036,688
5600,6348,6144,1664,1036,688
5600,6352,6144,1668,1040,688
5604,6356,6148,1668,1040,688
5600,6360,6152,1668,1040,688
5604,6368,6156,1668,1040,692
5604,6376,6160,1668,1040,688
5608,6376,6164,1668,1040,688
5608,6368,6160,1668,1040,688
5600,6356,6148,1668,1040,688
5604,6344,6144,1668,1040,692
5600,6328,6132,1668,1040,688
5596,6316,6124,1668,1040,688
5592,6300,6112,1668,1040,688
5592,6292,6108,1668,1040,688
5592,6280,6100,1664,1036,688
5588,6268,6092,1668,1036,688
5588,6260,6092,1668,1036,688
5580,6248,6080,1668,1036,688
5584,6252,6084,1664,1036,688
5588,6256,6088,1664,1036,688
5584,6252,6080,1664,1036,688
5584,6248,6080,1664,1036,688
5584,6248,6080,1668,1036,688
5588,6252,6084,1668,1036,688
5584,6248,6080,1664,1036,688
5580,6248,6080,1664,1036,688
5584,6252,6080,1668,1036,688
5580,6252,6080,1664,1036,688
5584,6256,6084,1668,1036,688
5584,6256,6088,1664,1036,688
5584,6260,6088,1668,1036,688
5584,6264,6088,1664,1036,688
5584,6264,6092,1668,1036,688
5584,6268,6092,1668,1036,688
5584,6268,6092,1668,1036,688
5584,6272,6096,1664,1036,688
5584,6276,6096,1664,1036,688
5584,6280,6100,1664,1036,688
5584,6284,6100,1664,1036,688
5584,6284,6104,1664,1036,688
5584,6292,6104,1664,1036,688
5588,6300,6112,1664,1036,688
5592,6304,6116,1664,1036,688
5588,6304,6116,1668,1036,688
5592,6312,6120,1668,1036,688
5588,6316,6120,1668,1036,688
5592,6320,6124,1668,1036,688
5596,6328,6132,1668,1036,688
5600,6332,6136,1668,1040,688
5596,6328,6128,1668,1040,688
5592,6312,6120,1668,1040,688
5588,6300,6112,1668,1040,688
5588,6284,6104,1668,1040,688
5588,6276,6096,1668,1040,688
5584,6264,6088,1668,1040,688
5580,6252,6080,1668,1036,688
5580,6244,6076,1668,1036,688
5576,6228,6068,1668,1036,688
5576,6224,6064,1668,1036,688
5576,6220,6064,1668,1036,688
5580,6224,6064,1668,1036,688
5576,6216,6060,1664,1036,688
5576,6220,6060,1664,1036,688
5572,6216,6060,1668,1036,688
5572,6216,6060,1668,1036,688
5572,6216,6056,1668,1036,688
5576,6220,6064,1664,1036,688
5576,6224,6064,1664,1036,688
5576,6224,6064,1664,1036,688
5580,6228,6068,1668,1036,688
5580,6228,6068,1664,1036,688
5576,6232,6068,1664,1036,688
5580,6236,6072,1664,1036,688
5580,6240,6076,1664,1036,688
5576,6240,6072,1664,1036,688
5576,6244,6076,1668,1036,688
5580,6248,6080,1668,1036,688
5580,6256,6084,1668,1036,688
5580,6260,6084,1664,1036,688
5580,6264,6088,1664,1036,688
5580,6264,6088,1664,1036,688
5580,6268,6088,1668,1036,688
5580,6272,6092,1668,1036,688
5584,6280,6100,1668,1036,688
5584,6284,6100,1664,1036,688
5588,6292,6104,1668,1036,688
5588,6300,6112,1668,1036,688
5588,6300,6112,1668,1036,688
5592,6308,6116,1668,1036,688
5588,6308,6116,1668,1040,688
5588,6304,6112,1668,1040,688
5588,6292,6108,1668,1040,688
5584,6276,6096,1668,1040,688
5584,6260,6088,1668,1040,688
5580,6244,6076,1668,1040,688
5576,6228,6064,1668,1040,688
5572,6212,6056,1668,1036,688
5568,6196,6044,1668,1036,688
5564,6188,6040,1664,1036,688
5564,6176,6032,1668,1036,688
5560,6168,6024,1668,1036,688
5560,6164,6024,1664,1036,688
5560,6160,6020,1664,1036,688
5560,6164,6024,1664,1036,688
5560,6160,6024,1668,1036,688
5560,6156,6020,1668,1036,688
5556,6156,6016,1668,1036,688
5560,6156,6020,1668,1036,688
5556,6156,6016,1668,1036,688
5556,6152,6016,1664,1036,688
5552,6152,6012,1668,1036,688
5556,6156,6020,1668,1036,688
5552,6152,6012,1668,1036,688
5552,6156,6016,1668,1036,688
5556,6160,6020,1668,1036,688
5552,6160,6020,1668,1036,688
5552,6160,6020,1668,1036,688
5556,6168,6024,1668,1036,688
5556,6172,6028,1668,1036,688
5556,6176,6032,1668,1036,688
5560,6184,6036,1668,1036,688
5556,6184,6036,1668,1036,688
5564,6196,6044,1668,1036,688
5564,6196,6048,1668,1040,688
5564,6204,6048,1668,1036,688
5568,6208,6052,1668,1036,688
5568,6216,6056,1668,1036,688
5572,6224,6060,1668,1040,688
5572,6228,6064,1668,1040,688
5572,6232,6068,1668,1040,688
5576,6240,6072,1668,1036,688
5572,6244,6072,1668,1040,688
5576,6248,6076,1668,1040,688
5576,6244,6072,1668,1040,688
5568,6228,6064,1668,1040,688
5568,6212,6056,1668,1040,688
5564,6196,6044,1668,1040,688
5564,6184,6036,1668,1040,688
5560,6168,6028,1668,1040,688
5564,6164,6024,1668,1040,688
5556,6144,6012,1668,1036,688
5556,6136,6008,1668,1036,688
5552,6128,6000,1668,1036,688
5552,6120,5996,1668,1036,688
5548,6112,5992,1668,1036,688
5552,6116,5992,1668,1036,688
5548,6112,5992,1668,1036,688
5552,6112,5992,1668,1036,688
5552,6112,5992,1668,1036,688
5552,6112,5992,1668,1036,688
5548,6112,5988,1668,1036,688
5548,6112,5992,1668,1036,688
5548,6112,5988,1668,1036,688
5552,6116,5996,1668,1036,688
5552,6120,5996,1668,1036,688
5552,6120,5996,1668,1036,688
5556,6128,6000,1668,1036,688
5556,6128,6004,1668,1036,688
5556,6132,6004,1668,1036,688
5560,6140,6008,1668,1036,688
5556,6140,6008,1668,1036,688
5552,6140,6008,1668,1036,688
5556,6148,6012,1668,1036,688
5560,6152,6016,1668,1036,688
5560,6156,6016,1668,1036,688
5560,6160,6020,1668,1040,688
5560,6164,6020,1668,1040,688
5564,6172,6028,1668,1040,688
5564,6180,6032,1668,1040,688
5568,6184,6036,1668,1040,688
5564,6188,6036,1668,1040,688
5564,6188,6040,1668,1040,688
5560,6180,6032,1668,1040,692
5560,6164,6024,1668,1040,688
5556,6148,6016,1668,1040,688
5556,6132,6008,1668,1040,688
5552,6116,5996,1668,1040,688
5552,6104,5988,1668,1040,688
5548,6092,5980,1668,1040,688
5544,6080,5972,1668,1040,688
5540,6068,5960,1668,1036,688
5544,6064,5960,1668,1040,688
5544,6060,5960,1668,1036,688
5544,6056,5956,1668,1040,688
5544,6052,5956,1668,1036,688
5540,6052,5952,1668,1040,688
5540,6048,5952,1668,1040,688
5540,6048,5948,1668,1040,688
5540,6052,5952,1668,1036,688
5544,6056,5956,1668,1040,688
5540,6052,5952,1668,1040,688
5540,6056,5956,1668,1040,688
5544,6060,5960,1668,1040,688
5544,6064,5964,1668,1040,688
5548,6068,5964,1668,1040,688
5548,6076,5968,1668,1040,688
5548,6080,5972,1668,1040,688
5552,6084,5976,1668,1040,692
5552,6092,5976,1668,1040,688
5552,6096,5980,1668,1040,688
5552,6100,5984,1668,1040,688
5556,6112,5992,1668,1040,692
5556,6112,5992,1668,1040,692
5560,6120,5996,1668,1040,692
5560,6124,6000,1668,1040,692
5560,6132,6004,1668,1040,692
5560,6136,6008,1668,1040,692
5564,6144,6012,1668,1040,692
5560,6148,6012,1668,1040,692
5564,6152,6016,1668,1040,692
5564,6156,6020,1668,1040,692
5568,6168,6028,1672,1040,692
5568,6168,6028,1672,1040,692
5568,6172,6028,1668,1040,692
5568,6168,6028,1672,1044,692
5560,6152,6016,1668,1040,692
5560,6140,6012,1668,1040,692
5556,6120,5996,1668,1040,692
5560,6112,5992,1668,1040,692
5556,6100,5984,1668,1040,692
5548,6084,5972,1668,1040,692
5548,6076,5968,1668,1040,692
5548,6068,5964,1668,1040,692
5548,6064,5960,1668,1040,692
5548,6060,5960,1668,1040,692
5548,6060,5956,1668,1040,692
5548,6060,5956,1668,1040,692
5548,6060,5956,1668,1040,692
5548,6064,5960,1668,1040,692
5548,6064,5960,1668,1040,692
5552,6068,5964,1668,1040,692
5552,6068,5964,1672,1040,692
5552,6072,5968,1668,1040,692
5552,6072,5968,1668,1040,692
5552,6080,5968,1668,1040,692
5556,6084,5972,1672,1044,692
5556,6088,5976,1672,1044,692
5556,6088,5976,1668,1040,692
5552,6092,5976,1668,1040,692
5552,6096,5980,1668,1040,692
5556,6104,5984,1668,1040,692
5556,6104,5988,1668,1040,692
5556,6108,5992,1668,1044,692
5560,6116,5996,1672,1044,692
5560,6120,6000,1668,1044,692
5564,6128,6000,1672,1044,692
5564,6132,6004,1672,1044,692
5560,6132,6004,1668,1044,692
5560,6140,6008,1672,1044,692
5564,6144,6012,1672,1044,692
5564,6148,6012,1672,1044,692
5564,6152,6016,1672,1044,692
5568,6160,6020,1672,1044,692
5568,6164,6028,1672,1044,692
5568,6164,6024,1672,1044,692
5564,6152,6016,1672,1044,692
5564,6140,6012,1672,1044,692
5560,6128,6000,1672,1044,692
5560,6112,5992,1672,1044,692
5556,6100,5984,1672,1044,692
5560,6100,5984,1672,1044,692
5560,6092,5980,1672,1044,692
5556,6080,5972,1672,1044,692
5556,6076,5972,1672,1044,692
5552,6068,5968,1672,1044,692
5556,6068,5964,1672,1044,692
5552,6068,5964,1672,1044,692
5556,6072,5968,1672,1044,692
5552,6068,5964,1672,1044,692
5548,6068,5960,1672,1044,692
5548,6064,5960,1672,1044,692
5552,6068,5964,1672,1044,692
5552,6072,5968,1672,1044,692
5552,6072,5968,1672,1044,692
5552,6076,5968,1672,1044,692
5556,6080,5972,1672,1044,692
5552,6084,5972,1672,1044,692
5556,6088,5976,1672,1044,692
5556,6092,5976,1672,1044,692
5556,6096,5984,1672,1044,692
5556,6100,5984,1672,1044,692
5556,6104,5988,1672,1044,692
5560,6108,5988,1672,1044,692
5556,6112,5992,1672,1044,692
5560,6120,5996,1672,1044,692
5560,6124,5996,1672,1044,692
5560,6128,6000,1672,1044,692
5564,6136,6008,1672,1048,692
5564,6144,6012,1672,1048,692
5568,6148,6016,1672,1048,692
5568,6156,6016,1672,1048,692
5568,6160,6024,1672,1048,692
5568,6168,6024,1672,1048,692
5572,6168,6024,1672,1048,692
5568,6160,6020,1672,1048,692
5572,6148,6016,1672,1048,692
5568,6136,6008,1672,1048,692
5568,6120,5996,1672,1048,692
5564,6108,5988,1672,1048,692
5560,6096,5980,1672,1044,692
5560,6088,5976,1672,1048,692
5560,6084,5972,1672,1044,692
5560,6076,5968,1668,1044,692
5560,6072,5964,1672,1044,692
5560,6072,5964,1672,1044,692
5560,6068,5964,1672,1044,692
5560,6072,5964,1672,1044,692
5560,6072,5968,1672,1048,692
5560,6076,5968,1672,1048,692
5560,6076,5972,1672,1044,692
5564,6080,5972,1672,1044,692
5564,6080,5972,1672,1044,692
5560,6084,5972,1672,1044,692
5564,6088,5980,1672,1044,692
5568,6096,5984,1672,1048,692
5568,6100,5988,1672,1048,692
5568,6104,5988,1672,1044,692
5568,6108,5992,1672,1048,692
5572,6116,5996,1672,1048,692
5572,6120,6000,1672,1048,692
5572,6124,6000,1672,1048,692
5576,6132,6004,1672,1048,692
5576,6136,6008,1672,1048,696
5576,6144,6012,1672,1048,692
5584,6156,6024,1672,1048,692
5584,6160,6024,1672,1048,696
5584,6164,6028,1672,1048,696
5584,6172,6032,1672,1048,696
5584,6180,6036,1672,1048,696
5588,6188,6040,1672,1048,696
5588,6192,6044,1672,1048,696
5588,6196,6048,1672,1048,696
5588,6200,6048,1672,1048,696
5588,6208,6052,1672,1048,696
5592,6216,6060,1672,1048,696
5596,6224,6064,1672,1048,696
5592,6224,6064,1672,1048,696
5588,6216,6056,1672,1048,696
5588,6204,6052,1672,1048,696
5588,6192,6044,1672,1048,696
5588,6180,6036,1672,1048,696
5588,6164,6028,1672,1048,696
5584,6152,6020,1672,1048,696
5584,6144,6016,1672,1048,696
5580,6132,6008,1672,1048,696
5580,6124,6000,1672,1048,696
5576,6116,5996,1672,1048,696
5576,6112,5992,1672,1048,696
5576,6108,5992,1672,1048,696
5576,6112,5992,1672,1048,696
5576,6112,5992,1672,1048,696
5576,6108,5992,1672,1048,696
5576,6112,5992,1672,1048,696
5576,6116,5992,1672,1048,696
5580,6120,5996,1672,1048,696
5580,6124,6000,1672,1048,696
5580,6124,6004,1672,1048,696
5584,6128,6004,1672,1048,696
5584,6132,6008,1672,1048,696
5584,6136,6008,1672,1048,696
5584,6144,6012,1672,1048,696
5584,6144,6012,1672,1048,696
5580,6148,6012,1672,1048,696
5584,6156,6020,1672,1048,696
5588,6164,6028,1672,1048,696
5588,6168,6032,1672,1048,696
5596,6180,6036,1672,1048,696
5592,6184,6036,1672,1048,696
5592,6188,6040,1672,1048,696
5596,6196,6048,1672,1048,696
5596,6200,6052,1672,1048,696
5596,6208,6056,1672,1048,696
5600,6212,6056,1672,1048,696
5600,6220,6060,1672,1048,696
5600,6224,6064,1672,1048,696
5600,6228,6068,1672,1048,696
5600,6236,6072,1672,1048,696
5600,6240,6072,1672,1048,696
5604,6252,6080,1672,1048,696
5604,6256,6084,1672,1048,696
5608,6264,6088,1672,1048,696
5608,6264,6092,1672,1052,696
5604,6248,6080,1672,1052,696
5604,6240,6076,1672,1048,696
5600,6224,6064,1672,1048,696
5596,6208,6056,1672,1048,696
5600,6204,6052,1672,1048,696
5596,6188,6044,1672,1048,696
5596,6180,6036,1672,1048,696
5596,6172,6032,1672,1048,696
5592,6164,6028,1672,1048,696
5592,6160,6024,1672,1048,696
5592,6160,6024,1672,1048,696
5592,6160,6024,1672,1048,696
5596,6168,6028,1672,1048,696
5592,6160,6024,1672,1048,696
5592,6164,6028,1672,1048,696
5592,6164,6028,1672,1048,696
5592,6164,6028,1672,1048,696
5596,6168,6032,1672,1048,696
5592,6168,6028,1672,1048,696
5592,6172,6032,1672,1048,696
5592,6176,6036,1672,1048,696
5592,6180,6036,1672,1048,696
5596,6188,6040,1672,1048,696
5600,6192,6048,1672,1048,696
5600,6200,6048,1672,1048,696
5596,6200,6048,1672,1048,696
5600,6208,6056,1672,1048,696
5600,6212,6060,1672,1048,696
5604,6220,6064,1672,1048,696
5604,6224,6064,1672,1048,696
5604,6232,6068,1672,1048,696
5604,6232,6072,1672,1048,696
5608,6240,6076,1672,1048,696
5608,6244,6080,1672,1048,696
5608,6248,6080,1672,1048,696
5604,6252,6084,1672,1048,696
5608,6260,6088,1672,1048,696
5608,6264,6092,1672,1048,696
5612,6276,6096,1672,1048,696
5612,6280,6100,1672,1048,696
5616,6288,6104,1672,1048,696
5612,6284,6104,1672,1052,696
5608,6276,6096,1672,1048,696
5612,6264,6092,1672,1048,696
5608,6252,6084,1672,1048,696
5608,6236,6076,1672,1048,696
5600,6224,6064,1672,1048,696
5600,6216,6060,1672,1048,696
5600,6208,6056,1672,1048,696
5600,6200,6052,1672,1048,696
5600,6192,6048,1672,1048,696
5600,6188,6044,1672,1048,696
5596,6188,6040,1672,1048,696
5596,6188,6040,1672,1048,696
5600,6192,6044,1672,1048,696
5596,6188,6040,1672,1048,696
5596,6192,6044,1672,1048,696
5604,6196,6048,1672,1048,696
5604,6200,6048,1672,1048,696
5600,6200,6048,1672,1048,696
5600,6200,6048,1672,1048,696
5604,6208,6056,1672,1048,696
5600,6208,6056,1672,1048,696
5600,6212,6056,1672,1048,692
5608,6224,6064,1672,1048,696
5608,6228,6064,1672,1048,696
5608,6232,6068,1672,1048,696
5612,6236,6072,1672,1048,696
5612,6244,6076,1672,1048,696
5612,6248,6080,1672,1048,696
5612,6252,6084,1672,1048,696
5612,6256,6084,1672,1048,696
5616,6264,6088,1672,1048,696
5612,6264,6092,1672,1048,696
5612,6272,6092,1672,1048,696
5616,6280,6100,1672,1048,696
5616,6284,6104,1672,1048,696
5620,6292,6108,1672,1048,696
5620,6296,6112,1672,1048,696
5620,6304,6116,1672,1048,696
5628,6316,6124,1672,1048,696
5624,6316,6124,1672,1048,696
5628,6320,6128,1672,1048,696
5624,6316,6124,1672,1048,696
5624,6304,6116,1672,1048,696
5616,6284,6100,1672,1048,696
5616,6268,6096,1672,1048,696
5612,6256,6084,1672,1048,696
5612,6244,6080,1672,1048,696
5608,6232,6072,1672,1048,696
5612,6228,6068,1672,1048,696
5608,6216,6060,1672,1048,696
5608,6212,6056,1672,1048,696
5604,6204,6052,1672,1044,692
5608,6208,6056,1672,1044,692
5604,6200,6052,1668,1044,692
5608,6204,6052,1668,1044,692
5608,6208,6056,1668,1044,692
5608,6208,6052,1668,1044,692
5604,6204,6052,1672,1044,692
5604,6204,6052,1672,1044,692
5604,6204,6052,1672,1044,692
5608,6212,6056,1672,1044,692
5608,6216,6060,1672,1044,692
5608,6220,6064,1672,1044,692
5608,6224,6064,1672,1044,692
5608,6228,6068,1672,1044,692
5608,6232,6068,1672,1044,692
5612,6236,6076,1672,1044,692
5612,6240,6076,1672,1044,692
5608,6240,6076,1672,1044,692
5612,6248,6080,1672,1044,692
5612,6252,6084,1672,1044,692
5612,6260,6088,1672,1044,692
5616,6268,6092,1672,1044,692
5616,6268,6092,1672,1044,692
5616,6276,6096,1672,1044,692
5616,6280,6096,1668,1044,692
5620,6288,6104,1672,1044,692
5620,6296,6112,1672,1044,692
5624,6300,6112,1672,1044,692
5624,6308,6116,1672,1044,692
5624,6312,6120,1672,1044,692
5624,6316,6124,1672,1044,692
5624,6320,6124,1672,1044,692
5624,6324,6128,1672,1044,692
5632,6336,6136,1672,1044,692
5624,6332,6132,1672,1044,692
5624,6324,6128,1672,1044,692
5624,6312,6120,1672,1044,692
5620,6296,6112,1672,1044,692
5628,6292,6112,1672,1044,692
5620,6276,6096,1672,1044,692
5616,6260,6092,1672,1044,692
5616,6248,6080,1672,1044,692
5612,6240,6076,1672,1044,692
5612,6232,6072,1672,1044,692
5612,6228,6068,1672,1044,692
5612,6220,6064,1668,1044,692
5612,6220,6064,1672,1044,692
5608,6216,6060,1668,1044,692
5608,6216,6064,1672,1044,692
5608,6216,6060,1672,1044,692
5604,6212,6056,1668,1044,692
5612,6220,6064,1668,1040,692
5612,6224,6064,1668,1040,692
5612,6228,6068,1668,1040,692
5608,6228,6068,1668,1040,692
5612,6232,6072,1668,1040,692
5612,6236,6072,1668,1040,692
5616,6240,6076,1668,1040,692
5616,6248,6084,1668,1040,692
5616,6252,6084,1668,1040,692
5620,6260,6092,1668,1040,692
5616,6260,6092,1668,1040,692
5620,6272,6096,1668,1040,692
5620,6272,6096,1668,1040,692
5620,6280,6100,1668,1040,692
5620,6284,6104,1668,1040,692
5620,6288,6104,1672,1044,692
5620,6292,6108,1672,1044,692
5624,6300,6112,1672,1044,692
5624,6304,6116,1668,1040,692
5620,6308,6116,1672,1044,692
5628,6320,6128,1668,1040,692
5624,6320,6124,1668,1044,692
5624,6324,6128,1672,1044,692
5628,6332,6132,1672,1044,692
5628,6336,6136,1672,1044,692
5632,6344,6140,1672,1044,692
5632,6356,6148,1672,1044,692
5636,6360,6152,1672,1044,692
5632,6356,6148,1672,1044,692
5632,6344,6144,1672,1044,692
5628,6332,6136,1672,1044,692
5628,6316,6124,1672,1044,692
5624,6304,6116,1672,1044,692
5624,6300,6112,1672,1044,692
5620,6288,6108,1672,1044,692
5620,6276,6100,1668,1040,692
5616,6268,6092,1668,1040,692
5616,6264,6092,1668,1040,692
5616,6256,6084,1668,1040,692
5616,6256,6084,1668,1040,692
5616,6252,6084,1668,1040,692
5612,6252,6080,1668,1040,692
5616,6252,6084,1668,1040,692
5612,6252,6080,1668,1040,692
5612,6252,6084,1668,1040,692
5612,6252,6080,1668,1040,688
5612,6252,6080,1668,1040,692
5612,6256,6084,1668,1040,688
5612,6256,6084,1668,1040,692
5608,6256,6084,1668,1040,688
5608,6260,6084,1668,1040,688
5612,6264,6088,1668,1040,688
5616,6272,6096,1668,1040,688
5616,6276,6096,1668,1040,688
5616,6284,6100,1668,1040,688
5620,6288,6104,1668,1040,688
5616,6292,6104,1668,1040,688
5620,6296,6108,1668,1040,688
5620,6300,6112,1668,1040,688
5620,6304,6112,1668,1040,688
5620,6308,6116,1668,1040,688
5620,6312,6120,1668,1040,688
5624,6320,6124,1668,1040,692
5628,6328,6132,1668,1040,692
5628,6336,6136,1668,1040,688
5632,6344,6140,1668,1040,688
5628,6348,6140,1668,1040,688
5632,6352,6148,1668,1040,692
5628,6348,6140,1668,1040,688
5628,6344,6140,1668,1040,692
5628,6332,6132,1668,1040,692
5628,6320,6124,1668,1040,692
5624,6304,6116,1668,1040,692
5620,6292,6108,1668,1040,692
5620,6284,6100,1668,1040,688
5616,6272,6096,1668,1040,688
5616,6264,6088,1668,1040,692
5612,6256,6084,1668,1040,688
5612,6248,6076,1668,1040,688
5608,6244,6076,1668,1040,688
5612,6244,6076,1672,1040,692
5612,6248,6076,1672,1040,688
5612,6248,6076,1668,1040,688
5608,6248,6076,1668,1036,688
5612,6248,6080,1668,1036,688
5612,6248,6076,1668,1036,688
5612,6252,6080,1668,1036,688
5608,6248,6076,1668,1036,688
5616,6260,6088,1668,1036,688
5616,6264,6088,1668,1036,688
5612,6260,6084,1668,1036,688
5612,6264,6088,1668,1036,688
5612,6272,6092,1668,1036,688
5616,6272,6092,1668,1036,688
5616,6280,6096,1668,1036,688
5612,6280,6096,1668,1040,688
5616,6288,6100,1668,1036,688
5616,6292,6104,1668,1040,688
5616,6296,6108,1668,1040,688
5616,6300,6112,1668,1040,688
5616,6304,6108,1668,1040,688
5620,6312,6116,1668,1040,688
5624,6320,6124,1668,1036,688
5624,6324,6124,1668,1040,688
5624,6332,6128,1668,1040,688
5624,6336,6132,1668,1040,688
5628,6344,6140,1668,1040,688
5628,6348,6140,1668,1040,688
5628,6356,6144,1668,1040,688
5628,6360,6144,1668,1040,688
5628,6360,6144,1668,1040,688
5628,6352,6140,1668,1040,688
5624,6336,6132,1668,1040,688
5624,6324,6128,1668,1040,688
5624,6312,6116,1668,1040,688
5616,6296,6108,1668,1040,688
5616,6280,6100,1668,1040,688
5612,6272,6092,1668,1040,688
5612,6256,6080,1668,1036,688
5608,6248,6076,1668,1036,688
5612,6240,6072,1668,1036,688
5608,6236,6068,1668,1036,688
5608,6232,6064,1668,1036,688
5608,6232,6068,1668,1036,688
5612,6232,6068,1668,1036,688
5612,6232,6068,1668,1036,688
5608,6232,6068,1668,1036,688
5612,6232,6068,1668,1036,688
5608,6232,6068,1668,1036,688
5612,6236,6068,1668,1036,688
5612,6240,6072,1668,1036,688
5612,6240,6072,1668,1036,688
5612,6244,6076,1668,1036,688
5612,6248,6076,1668,1036,688
5612,6252,6080,1668,1036,688
5608,6252,6076,1668,1036,688
5612,6256,6080,1668,1036,688
5616,6264,6088,1668,1036,688
5616,6268,6092,1668,1036,688
5616,6272,6092,1668,1036,688
5620,6276,6096,1668,1036,688
5612,6276,6092,1668,1036,688
5620,6284,6100,1668,1036,688
5620,6292,6104,1668,1036,688
5620,6296,6108,1668,1036,688
5620,6300,6108,1668,1036,688
5624,6308,6116,1668,1040,688
5620,6312,6116,1668,1036,688
5624,6316,6120,1668,1040,688
5620,6320,6120,1668,1040,688
5624,6324,6124,1672,1040,688
5624,6336,6128,1668,1040,688
5628,6344,6136,1668,1040,688
5628,6348,6140,1668,1040,688
5628,6352,6140,1668,1040,688
5632,6360,6148,1668,1040,688
5632,6356,6144,1668,1040,688
5628,6344,6136,1668,1040,688
5624,6328,6124,1668,1040,688
5624,6312,6116,1668,1040,688
5624,6304,6112,1668,1040,688
5624,6292,6104,1668,1040,688
5620,6280,6096,1668,1040,688
5620,6268,6088,1668,1040,688
5620,6260,6084,1668,1036,688
5620,6256,6084,1668,1036,688
5616,6248,6076,1668,1036,688
5616,6244,6072,1668,1036,688
5612,6240,6072,1668,1036,688
5612,6240,6068,1668,1036,688
5616,6244,6072,1668,1036,688
5612,6240,6072,1668,1036,688
5616,6244,6076,1668,1036,688
5616,6248,6076,1668,1036,688
5616,6244,6076,1668,1036,688
5616,6248,6076,1668,1036,688
5616,6256,6080,1668,1036,688
5620,6256,6084,1668,1036,688
5616,6260,6084,1668,1036,688
5616,6260,6080,1668,1036,688
5616,6264,6084,1668,1036,688
5620,6268,6088,1668,1036,688
5616,6272,6092,1668,1036,688
5620,6280,6096,1668,1036,688
5624,6288,6100,1672,1040,688
5624,6292,6104,1668,1040,688
5628,6300,6112,1668,1040,688
5628,6304,6112,1668,1036,688
5628,6308,6116,1668,1040,688
5624,6312,6116,1668,1040,688
5628,6320,6120,1668,1040,688
5632,6328,6128,1668,1040,688
5632,6332,6128,1668,1040,688
5636,6340,6136,1668,1040,688
5636,6344,6136,1668,1040,688
5636,6352,6140,1668,1040,688
5636,6356,6144,1668,1040,688
5632,6356,6144,1668,1040,688
5632,6352,6144,1668,1040,688
5632,6348,6140,1668,1040,688
5628,6328,6128,1668,1040,688
5624,6312,6116,1668,1040,688
5624,6304,6108,1668,1040,688
5624,6292,6104,1668,1040,688
5620,6280,6096,1672,1040,688
5620,6276,6092,1668,1040,688
5620,6272,6092,1672,1040,688
5616,6260,6080,1668,1040,688
5616,6256,6080,1672,1040,688
5616,6256,6080,1668,1040,688
5616,6256,6080,1668,1040,688
5616,6256,6080,1668,1040,688
5616,6256,6080,1668,1040,688
5616,6260,6080,1668,1040,688
5616,6260,6084,1668,1040,688
5616,6260,6084,1668,1040,688
5616,6264,6084,1668,1040,688
5620,6264,6088,1668,1040,688
5620,6268,6088,1668,1040,688
5616,6268,6084,1668,1040,688
5616,6272,6088,1668,1040,688
5616,6276,6092,1668,1040,688
5616,6280,6092,1668,1040,688
5620,6284,6096,1672,1040,688
5620,6292,6104,1668,1040,688
5620,6292,6100,1672,1040,688
5620,6300,6108,1672,1040,688
5620,6304,6108,1672,1040,688
5624,6308,6112,1672,1040,688
5624,6316,6116,1672,1040,688
5628,6324,6120,1668,1040,688
5628,6324,6124,1672,1040,688
5628,6332,6124,1672,1040,692
5628,6336,6128,1668,1040,688
5632,6344,6132,1668,1040,688
5632,6348,6136,1672,1040,688
5632,6352,6144,1672,1040,688
5632,6356,6144,1672,1040,692
5628,6352,6136,1672,1040,692
5628,6344,6136,1672,1044,692
5624,6328,6120,1672,1040,692
5624,6312,6116,1668,1040,692
5620,6300,6104,1672,1040,692
5620,6288,6100,1668,1040,688
5616,6280,6092,1668,1040,688
5620,6272,6088,1668,1040,688
5616,6260,6080,1668,1040,692
5616,6256,6076,1668,1040,688
5616,6252,6076,1668,1040,688
5620,6256,6080,1668,1040,688
5616,6252,6076,1668,1040,688
5616,6256,6076,1668,1040,688
5612,6252,6076,1668,1040,688
5616,6256,6076,1668,1040,688
5616,6256,6076,1668,1040,688
5616,6260,6080,1672,1040,688
5616,6260,6080,1668,1040,688
5616,6260,6080,1668,1040,688
5616,6264,6084,1668,1040,688
5616,6272,6088,1668,1040,688
5620,6280,6092,1668,1040,688
5620,6280,6092,1672,1040,688
5620,6284,6092,1668,1040,688
5620,6284,6096,1668,1040,692
5620,6292,6100,1672,1040,692
5620,6296,6104,1672,1040,692
5624,6304,6108,1672,1040,692
5624,6312,6112,1668,1040,688
5624,6316,6112,1668,1040,692
5624,6320,6116,1672,1040,692
5628,6324,6120,1672,1040,692
5628,6332,6124,1672,1040,692
5628,6336,6124,1672,1040,692
5628,6344,6132,1672,1044,692
5628,6348,6132,1672,1044,692
5632,6356,6140,1672,1044,692
5632,6360,6140,1672,1044,692
5636,6368,6144,1672,1044,692
5636,6372,6148,1672,1044,692
5636,6376,6152,1672,1044,692
5636,6380,6152,1672,1044,692
5632,6372,6152,1672,1044,692
5632,6360,6144,1672,1044,692
5628,6344,6132,1672,1044,692
5628,6332,6124,1672,1044,692
5624,6312,6112,1672,1044,692
5624,6304,6108,1672,1044,692
5624,6292,6100,1672,1044,692
5616,6280,6092,1672,1044,692
5616,6272,6084,1672,1040,692
5616,6260,6080,1672,1040,692
5616,6256,6076,1668,1040,692
5612,6252,6072,1668,1040,692
5612,6252,6072,1668,1040,692
5616,6256,6076,1672,1040,692
5616,6252,6076,1672,1040,692
5616,6256,6076,1672,1040,692
5616,6256,6076,1668,1040,692
5616,6256,6080,1672,1040,692
5620,6260,6080,1672,1040,692
5620,6264,6080,1668,1040,692
5616,6264,6080,1668,1040,692
5616,6264,6084,1668,1040,692
5620,6268,6084,1668,1040,692
5620,6276,6088,1668,1040,692
5620,6280,6092,1668,1040,692
5624,6288,6096,1672,1040,692
5624,6292,6100,1668,1040,692
5624,6296,6100,1672,1040,692
5624,6300,6104,1672,1040,692
5624,6304,6104,1672,1044,692
5624,6308,6108,1672,1040,692
5624,6312,6112,1672,1044,692
5628,6320,6116,1668,1040,692
5628,6328,6120,1672,1044,692
5628,6332,6124,1672,1044,692
5628,6336,6128,1672,1044,692
5628,6340,6128,1672,1044,692
5632,6348,6132,1672,1044,692
5632,6352,6136,1668,1044,692
5632,6360,6140,1672,1044,692
5636,6368,6148,1672,1044,692
5632,6368,6144,1672,1044,692
5640,6380,6156,1672,1044,692
5640,6384,6156,1672,1044,692
5640,6388,6160,1672,1044,692
5636,6384,6156,1672,1044,692
5636,6372,6148,1672,1044,692
5632,6356,6140,1672,1044,692
5628,6340,6128,1672,1044,692
5628,6328,6120,1672,1044,692
5624,6316,6112,1668,1044,692
5624,6304,6104,1668,1044,692
5624,6292,6100,1668,1044,692
5620,6280,6092,1672,1044,692
5620,6276,6088,1668,1040,692
5620,6268,6084,1668,1040,692
5624,6268,6080,1668,1040,692
5620,6264,6084,1668,1040,692
5620,6264,6080,1668,1040,692
5624,6268,6084,1668,1040,692
5624,6272,6088,1668,1040,692
5624,6272,6088,1668,1040,692
5624,6272,6088,1668,1040,692
5628,6280,6092,1668,1040,692
5624,6276,6092,1668,1040,692
5624,6280,6092,1668,1040,692
5624,6284,6096,1668,1040,692
5628,6288,6100,1668,1040,692
5624,6292,6100,1668,1040,692
5628,6300,6104,1668,1040,692
5628,6304,6108,1668,1040,692
5628,6308,6108,1672,1040,692
5628,6312,6112,1668,1040,692
5628,6312,6112,1668,1040,692
5628,6316,6116,1668,1040,692
5632,6328,6120,1672,1040,692
5632,6328,6120,1672,1044,692
5632,6332,6124,1668,1040,692
5628,6336,6124,1672,1044,692
5636,6348,6132,1672,1044,692
5636,6352,6136,1672,1044,692
5636,6360,6140,1672,1044,692
5636,6364,6144,1672,1044,692
5640,6372,6148,1672,1044,692
5640,6376,6152,1672,1044,692
5640,6380,6156,1672,1044,692
5640,6388,6160,1672,1044,692
5644,6396,6168,1672,1044,692
5648,6404,6168,1672,1044,692
5648,6404,6172,1672,1044,692
5644,6408,6172,1672,1044,692
5644,6400,6168,1672,1044,692
5640,6384,6160,1672,1044,692
5636,6368,6148,1672,1044,692
5636,6352,6140,1672,1044,692
5632,6340,6132,1672,1044,692
5628,6328,6120,1668,1044,692
5628,6320,6116,1672,1044,692
5624,6308,6108,1672,1044,692
5620,6292,6100,1672,1044,692
5620,6284,6092,1672,1044,692
5620,6284,6096,1672,1044,692
5624,6284,6096,1672,1044,692
5620,6284,6092,1672,1044,692
5620,6284,6092,1672,1044,692
5620,6280,6092,1672,1040,692
5620,6284,6092,1668,1040,692
5620,6280,6092,1672,1044,692
5620,6284,6092,1672,1044,692
5624,6288,6096,1672,1044,692
5624,6288,6096,1672,1044,692
5620,6288,6096,1668,1040,692
5616,6284,6096,1668,1040,692
5616,6288,6096,1672,1044,692
5616,6288,6096,1668,1040,692
5620,6296,6100,1672,1044,692
5616,6292,6096,1668,1040,692
5616,6296,6100,1672,1044,692
5616,6300,6104,1672,1044,692
5620,6308,6108,1672,1044,692
5620,6312,6112,1672,1044,692
5620,6316,6112,1672,1044,692
5624,6324,6116,1672,1044,692
5624,6328,6120,1672,1044,692
5632,6340,6128,1672,1044,692
5628,6340,6128,1672,1044,692
5628,6340,6128,1672,1044,692
5628,6348,6132,1672,1044,692
5624,6348,6132,1672,1044,692
5632,6360,6144,1672,1044,692
5628,6360,6140,1672,1044,692
5632,6368,6144,1672,1044,692
5632,6364,6144,1672,1044,692
5628,6356,6140,1672,1044,692
5624,6340,6128,1672,1044,692
5624,6324,6120,1672,1044,692
5620,6312,6108,1672,1044,692
5616,6300,6100,1672,1044,692
5616,6288,6096,1672,1044,692
5616,6284,6092,1672,1044,692
5612,6272,6084,1672,1044,692
5612,6264,6080,1672,1044,692
5612,6264,6080,1668,1044,692
5608,6260,6076,1672,1040,692
5612,6260,6076,1672,1044,692
5616,6268,6084,1672,1044,692
5616,6268,6080,1672,1044,692
5612,6264,6080,1672,1044,692
5612,6264,6080,1668,1040,692
5612,6268,6080,1668,1040,692
5612,6264,6080,1672,1040,692
5612,6268,6084,1668,1040,692
5608,6268,6080,1668,1040,692
5616,6276,6088,1672,1040,692
5612,6280,6088,1668,1040,692
5616,6284,6092,1672,1040,692
5616,6292,6096,1672,1044,692
5620,6296,6100,1668,1040,692
5616,6296,6100,1672,1044,692
5616,6304,6104,1672,1044,692
5620,6312,6108,1668,1044,692
5620,6316,6112,1672,1044,692
5624,6320,6116,1668,1040,692
5624,6328,6120,1668,1044,692
5632,6340,6128,1672,1044,692
5632,6344,6132,1668,1044,692
5632,6352,6136,1672,1044,692
5632,6352,6136,1672,1044,692
5632,6360,6140,1672,1044,692
5632,6364,6144,1672,1044,692
5636,6372,6148,1672,1044,692
5636,6376,6152,1672,1044,692
5636,6384,6156,1672,1044,692
5636,6388,6156,1672,1044,692
5636,6392,6160,1672,1044,692
5632,6384,6152,1672,1044,692
5632,6372,6148,1672,1044,692
5628,6356,6136,1672,1044,692
5628,6340,6128,1672,1044,692
5628,6328,6120,1668,1044,692
5624,6316,6112,1672,1044,692
5620,6304,6104,1672,1044,692
5620,6292,6096,1672,1044,692
5620,6284,6092,1672,1044,692
5620,6276,6092,1668,1040,692
5616,6268,6084,1672,1040,692
5616,6264,6080,1672,1040,692
5612,6264,6080,1672,1040,692
5616,6264,6080,1668,1040,692
5612,6260,6076,1668,1040,692
5612,6260,6080,1668,1040,692
5612,6260,6076,1668,1040,692
5616,6264,6080,1668,1040,692
5612,6264,6080,1672,1040,692
5616,6264,6080,1672,1040,692
5612,6268,6080,1668,1040,692
5616,6272,6084,1668,1040,692
5616,6276,6088,1672,1040,692
5616,6276,6088,1672,1040,692
5616,6280,6088,1672,1040,692
5616,6280,6092,1672,1040,692
5616,6288,6096,1668,1040,692
5616,6292,6096,1672,1040,692
5616,6296,6100,1668,1040,692
5620,6300,6104,1668,1040,688
5620,6308,6104,1668,1040,692
5620,6312,6108,1668,1040,688
5620,6316,6108,1668,1040,692
5620,6316,6112,1668,1040,692
5624,6328,6120,1668,1040,692
5624,6328,6120,1672,1040,692
5620,6332,6120,1672,1040,692
5620,6336,6124,1668,1040,692
5624,6344,6128,1672,1044,692
5624,6348,6128,1672,1040,692
5628,6360,6140,1672,1040,692
5632,6364,6140,1672,1044,692
5632,6368,6144,1672,1044,692
5632,6372,6148,1672,1044,692
5632,6384,6152,1672,1044,692
5632,6384,6152,1672,1044,692
5632,6380,6152,1672,1044,692
5628,6368,6144,1672,1044,692
5628,6356,6136,1668,1044,692
5624,6344,6128,1672,1044,692
5624,6328,6120,1668,1040,692
5620,6316,6112,1668,1040,692
5620,6304,6104,1668,1040,692
5620,6296,6100,1668,1040,692
5620,6288,6096,1668,1040,692
5616,6276,6084,1668,1040,688
5616,6268,6080,1668,1040,688
5612,6260,6076,1668,1040,692
5612,6260,6076,1668,1040,688
5612,6260,6076,1668,1040,688
5612,6260,6076,1668,1040,688
5620,6268,6084,1668,1040,688
5616,6268,6080,1668,1040,688
5612,6260,6076,1668,1040,688
5612,6264,6080,1668,1040,688
5612,6268,6080,1668,1040,688
5616,6272,6084,1668,1040,688
5616,6276,6084,1668,1040,688
5616,6276,6084,1668,1040,688
5616,6280,6088,1668,1040,688
5620,6288,6092,1668,1040,688
5620,6292,6096,1668,1040,688
5620,6296,6100,1668,1040,688
5624,6304,6104,1668,1040,688
5620,6304,6104,1668,1040,688
5620,6308,6104,1668,1040,688
5620,6312,6108,1668,1040,688
5620,6316,6112,1668,1040,688
5624,6324,6116,1668,1040,688
5620,6324,6116,1668,1040,688
5624,6332,6120,1668,1040,688
5624,6336,6124,1668,1040,688
5624,6340,6128,1668,1040,692
5628,6348,6132,1668,1040,688
5628,6352,6132,1672,1040,692
5628,6356,6136,1668,1040,688
5632,6364,6144,1668,1040,692
5632,6368,6144,1672,1040,692
5632,6376,6148,1668,1040,692
5632,6380,6152,1668,1040,692
5632,6380,6152,1672,1040,692
5632,6376,6148,1672,1044,692
5628,6364,6140,1668,1040,692
5624,6348,6132,1668,1040,692
5624,6336,6124,1672,1040,692
5620,6320,6112,1672,1040,692
5620,6308,6108,1672,1040,692
5620,6300,6100,1672,1040,692
5620,6292,6096,1668,1040,688
5616,6284,6092,1668,1040,688
