5992,7108,7744,1452,952,592
5996,7112,7752,1452,952,592
6000,7120,7756,1452,952,592
6004,7128,7764,1452,952,592
6004,7128,7768,1452,952,592
6008,7136,7772,1452,952,592
6004,7136,7772,1452,952,592
6004,7140,7772,1452,952,592
6008,7144,7780,1452,952,592
6004,7136,7772,1456,952,592
6000,7132,7764,1456,952,592
5996,7124,7756,1456,956,592
5992,7116,7752,1452,952,592
5992,7108,7744,1456,956,596
5988,7100,7736,1452,952,592
5988,7096,7732,1456,952,592
5988,7092,7732,1456,952,592
5988,7092,7732,1452,952,592
5992,7096,7736,1452,952,592
5992,7100,7740,1456,952,592
5996,7100,7744,1456,952,592
5992,7104,7740,1452,952,592
5996,7104,7744,1452,952,592
5992,7100,7740,1452,952,592
5996,7108,7748,1456,952,592
5996,7104,7744,1452,952,592
5996,7108,7744,1452,952,592
5996,7108,7748,1456,952,592
6000,7116,7752,1456,952,592
6000,7120,7756,1452,952,592
6004,7120,7760,1452,952,592
6004,7124,7760,1452,952,592
6004,7128,7764,1452,952,592
6004,7132,7764,1456,952,592
6008,7140,7772,1456,952,592
6012,7144,7776,1456,952,592
6016,7152,7784,1456,952,592
6012,7152,7784,1456,952,592
6012,7148,7784,1456,952,592
6012,7152,7784,1456,952,592
6012,7148,7784,1456,952,592
6012,7140,7776,1456,956,592
6008,7136,7772,1456,952,592
6008,7128,7764,1456,952,592
6004,7120,7760,1452,952,592
6008,7124,7764,1452,952,592
6004,7112,7752,1456,952,592
6008,7116,7760,1452,952,592
6008,7116,7760,1452,952,592
6012,7120,7764,1452,952,592
6008,7116,7760,1452,952,592
6008,7120,7760,1456,952,592
6008,7116,7760,1452,952,592
6008,7116,7760,1452,952,592
6012,7120,7764,1452,952,592
6012,7120,7764,1452,952,592
6012,7120,7764,1452,952,592
6012,7120,7764,1456,952,592
6012,7124,7764,1456,952,592
6016,7128,7772,1452,952,592
6012,7124,7768,1456,952,592
6008,7124,7764,1456,952,592
6008,7128,7768,1452,952,592
6012,7132,7772,1452,952,592
6012,7140,7780,1456,952,592
6012,7140,7780,1452,952,592
6012,7144,7780,1452,952,592
6012,7144,7780,1456,952,592
6012,7144,7776,1456,952,592
6012,7140,7776,1456,952,592
6008,7132,7772,1456,952,592
6004,7128,7764,1456,952,592
6004,7124,7760,1452,952,592
6000,7116,7756,1452,952,592
6004,7116,7756,1452,952,592
6000,7108,7748,1452,952,592
5996,7104,7748,1452,952,592
5996,7104,7744,1452,952,592
5996,7104,7744,1452,952,592
6000,7108,7752,1452,952,592
6000,7112,7752,1452,952,592
6000,7112,7752,1452,952,592
6000,7112,7752,1452,952,592
6000,7112,7748,1452,952,592
6000,7112,7752,1452,952,592
6000,7112,7752,1452,952,592
6000,7116,7756,1452,952,592
6004,7120,7760,1452,952,592
6004,7124,7760,1452,952,592
6004,7128,7764,1452,952,592
6004,7132,7768,1452,952,592
6004,7132,7768,1452,952,592
6004,7136,7772,1452,952,592
6008,7140,7772,1452,952,592
6008,7148,7776,1452,952,592
6008,7148,7780,1452,952,592
6008,7152,7780,1452,952,592
6008,7156,7784,1452,952,592
6008,7152,7780,1452,952,592
6008,7152,7780,1452,952,592
6004,7144,7772,1452,952,592
6000,7136,7764,1452,952,592
6000,7132,7764,1452,952,592
5996,7124,7756,1452,952,592
5992,7116,7748,1452,952,592
5992,7116,7748,1452,952,592
5996,7120,7752,1452,952,592
5996,7124,7752,1452,952,592
5992,7120,7752,1452,952,592
5996,7124,7756,1452,952,592
6000,7128,7760,1452,952,592
6000,7128,7760,1452,952,592
6000,7132,7764,1452,952,592
6004,7136,7764,1452,952,592
5996,7132,7760,1452,952,592
6000,7132,7760,1452,952,592
6004,7140,7768,1452,952,592
6004,7140,7772,1452,952,592
6004,7140,7772,1452,952,592
6000,7140,7768,1452,952,592
6000,7144,7772,1452,952,592
6000,7144,7772,1452,952,592
6004,7148,7776,1452,952,592
6004,7152,7776,1452,952,592
6004,7156,7780,1452,952,592
6004,7160,7784,1456,952,592
6008,7164,7788,1452,952,592
6004,7164,7784,1452,952,592
6004,7160,7780,1452,952,592
5996,7152,7772,1456,952,592
5996,7144,7764,1452,952,592
5992,7136,7760,1452,952,592
5992,7132,7756,1452,952,592
5988,7124,7752,1452,952,592
5984,7120,7744,1452,952,592
5988,7120,7748,1452,952,592
5992,7124,7752,1452,952,592
5988,7120,7752,1452,952,592
5988,7120,7752,1452,952,592
5988,7120,7748,1452,952,592
5992,7124,7752,1452,952,592
5988,7120,7748,1452,952,592
5988,7120,7748,1452,952,592
5988,7120,7748,1452,952,592
5988,7124,7752,1452,952,592
5988,7124,7752,1452,952,592
5988,7124,7752,1452,952,592
5992,7128,7752,1456,952,592
5992,7132,7760,1452,952,592
5996,7140,7764,1456,952,592
5996,7140,7764,1452,952,592
6000,7148,7768,1456,952,592
6000,7152,7772,1452,952,592
6000,7156,7776,1456,952,592
6004,7160,7780,1456,956,592
6004,7164,7784,1452,952,592
6008,7168,7788,1452,952,592
6008,7176,7796,1452,952,592
6004,7172,7788,1452,952,592
6008,7168,7788,1456,952,592
6000,7160,7776,1452,952,592
6000,7156,7776,1456,956,592
5996,7144,7768,1452,952,592
5996,7140,7764,1456,952,592
6000,7144,7768,1456,952,592
6000,7140,7764,1452,952,592
6000,7140,7768,1452,952,592
6000,7136,7764,1456,952,592
6000,7136,7764,1452,952,592
6004,7144,7772,1452,952,592
6000,7136,7764,1452,952,592
6004,7140,7768,1452,952,592
6004,7140,7772,1456,952,592
6004,7144,7772,1452,952,592
6004,7140,7772,1456,952,592
6004,7140,7764,1452,952,592
6004,7144,7772,1456,952,592
6004,7140,7768,1452,952,592
6004,7144,7772,1452,952,592
6004,7148,7772,1452,952,592
6008,7152,7780,1456,952,592
6012,7160,7784,1456,952,592
6012,7160,7784,1452,952,592
6016,7168,7792,1452,952,592
6016,7168,7792,1452,952,592
6016,7172,7796,1452,952,592
6016,7176,7800,1452,952,592
6016,7180,7800,1456,952,592
6016,7180,7800,1456,952,592
6016,7172,7796,1456,952,592
6012,7168,7792,1456,952,592
6012,7160,7788,1456,952,592
6008,7148,7776,1456,952,592
6008,7148,7776,1456,952,592
6008,7144,7772,1456,952,592
6012,7144,7776,1452,952,592
6012,7140,7772,1452,952,592
6012,7144,7780,1452,952,592
6012,7144,7776,1452,952,592
6012,7140,7776,1456,952,592
6012,7144,7776,1456,952,592
6016,7144,7780,1452,952,592
6012,7140,7776,1452,952,592
6016,7148,7784,1452,952,592
6016,7144,7780,1452,952,592
6012,7144,7776,1456,952,592
6012,7140,7776,1452,952,592
6008,7140,7772,1452,952,592
6016,7148,7784,1452,952,592
6012,7148,7780,1452,952,592
6016,7152,7784,1452,952,592
6016,7156,7788,1456,952,592
6016,7160,7788,1452,952,592
6020,7164,7796,1456,952,592
6012,7160,7788,1456,952,592
6016,7164,7792,1456,952,592
6016,7172,7796,1456,952,592
6016,7168,7796,1452,952,592
6012,7164,7788,1456,952,592
6008,7156,7784,1456,952,592
6004,7148,7772,1456,952,592
6008,7148,7776,1456,952,592
6000,7140,7768,1456,952,592
6004,7136,7768,1456,952,592
6004,7132,7764,1452,952,592
6000,7132,7764,1456,952,592
6004,7132,7764,1452,952,592
6000,7128,7760,1452,952,592
6000,7128,7760,1456,952,592
6004,7136,7768,1452,952,592
6004,7136,7768,1452,952,592
6004,7136,7764,1452,952,592
6000,7132,7764,1452,952,592
6004,7136,7768,1452,952,592
6000,7132,7764,1452,952,592
6000,7136,7764,1452,952,592
6000,7136,7764,1452,952,592
6000,7140,7768,1456,952,592
6004,7144,7772,1452,952,592
6004,7148,7776,1452,952,592
6004,7152,7776,1452,952,592
6008,7156,7780,1452,952,592
6004,7160,7784,1452,952,592
6004,7160,7784,1456,952,592
6008,7164,7784,1456,952,592
6008,7168,7792,1456,952,592
6008,7172,7792,1456,952,592
6008,7172,7792,1456,952,592
6008,7172,7792,1456,952,592
6004,7164,7780,1456,956,592
6000,7152,7776,1456,956,592
6000,7148,7772,1456,952,592
5996,7144,7764,1456,952,592
5996,7140,7764,1452,952,592
5996,7136,7760,1456,952,592
5996,7136,7760,1456,952,592
5996,7136,7760,1452,952,592
6000,7140,7764,1452,952,592
6000,7140,7768,1452,952,592
6000,7140,7768,1456,952,592
6000,7140,7764,1452,952,592
6000,7144,7768,1452,952,592
6000,7144,7768,1452,952,592
5996,7136,7760,1456,952,592
5996,7136,7760,1452,952,592
6000,7144,7768,1456,952,592
5996,7144,7764,1452,952,592
6000,7144,7768,1452,952,592
6000,7148,7772,1452,952,592
6000,7156,7772,1452,952,592
6000,7156,7776,1452,952,592
6000,7160,7780,1452,952,592
6000,7160,7776,1456,952,592
6004,7168,7784,1456,952,592
6004,7172,7788,1452,952,592
6004,7172,7788,1456,952,592
6008,7180,7796,1456,952,592
6008,7180,7792,1456,956,592
6004,7176,7792,1456,956,592
6004,7176,7792,1452,952,592
6000,7168,7784,1452,952,592
5996,7156,7772,1456,952,592
5996,7152,7768,1452,952,592
5992,7144,7764,1456,952,592
5992,7140,7760,1456,952,592
5992,7140,7760,1452,952,592
5992,7136,7756,1452,952,592
5988,7136,7756,1452,952,592
5992,7136,7756,1452,952,592
5992,7140,7760,1452,952,592
5992,7140,7760,1452,952,592
5996,7144,7760,1452,952,592
5996,7140,7760,1452,952,592
5992,7140,7760,1452,952,592
5996,7144,7764,1452,952,592
5992,7144,7760,1452,952,592
5996,7148,7764,1456,952,592
5996,7148,7764,1452,952,592
5996,7148,7764,1452,952,592
5996,7152,7772,1452,952,592
6000,7160,7776,1452,952,592
6000,7160,7776,1452,952,592
6000,7168,7784,1456,952,592
6004,7172,7784,1456,956,592
6004,7176,7788,1456,956,592
6004,7180,7792,1456,952,592
6008,7188,7800,1452,952,592
6008,7188,7800,1456,956,592
6008,7192,7800,1456,956,592
6008,7188,7800,1456,956,592
6004,7184,7792,1456,956,592
6004,7180,7788,1456,956,592
6004,7176,7788,1456,956,592
6004,7168,7784,1456,956,592
6000,7164,7776,1456,956,592
6004,7160,7780,1456,956,592
6000,7160,7776,1456,952,592
5996,7152,7768,1456,956,592
6000,7156,7772,1456,952,592
6000,7156,7776,1456,956,592
6000,7160,7776,1456,956,592
6004,7164,7780,1456,952,592
6004,7164,7780,1456,952,592
6008,7164,7784,1456,952,592
6008,7164,7784,1456,952,592
6008,7164,7784,1456,952,592
6008,7168,7788,1456,952,592
6008,7168,7784,1456,952,592
6008,7172,7788,1456,952,592
6012,7172,7792,1456,952,592
6012,7176,7796,1456,952,592
6012,7180,7796,1456,952,592
6016,7184,7800,1456,952,592
6016,7188,7804,1456,952,592
6016,7188,7800,1456,952,592
6020,7192,7808,1456,952,592
6020,7196,7808,1456,956,592
6020,7200,7812,1456,956,592
6020,7200,7812,1456,956,592
6016,7196,7812,1456,956,592
6016,7196,7812,1456,956,596
6016,7192,7808,1456,956,592
6016,7184,7800,1456,956,596
6012,7180,7796,1456,952,592
6012,7172,7792,1456,952,592
6012,7168,7788,1456,952,592
6008,7160,7780,1456,952,592
6008,7164,7784,1456,952,592
6012,7172,7792,1456,952,592
6016,7176,7796,1456,952,592
6012,7172,7792,1456,952,592
6012,7172,7792,1456,952,592
6016,7172,7796,1456,952,592
6012,7172,7788,1456,952,592
6012,7172,7792,1456,952,592
6012,7168,7788,1456,952,592
6012,7168,7788,1452,952,592
6012,7168,7792,1456,952,592
6012,7168,7788,1456,952,592
6016,7176,7800,1456,952,592
6012,7176,7792,1456,952,592
6012,7176,7792,1456,952,592
6016,7184,7800,1456,952,592
6016,7184,7800,1456,952,592
6016,7184,7800,1456,952,592
6016,7188,7804,1456,952,592
6012,7192,7804,1456,952,592
6012,7192,7804,1456,952,592
6020,7200,7812,1452,952,592
6016,7200,7812,1456,952,592
6016,7196,7808,1456,952,592
6012,7188,7800,1456,952,592
6012,7184,7800,1456,952,592
6008,7176,7792,1456,952,592
6004,7168,7784,1456,952,592
6004,7164,7784,1452,952,592
6000,7156,7776,1456,952,592
6004,7160,7776,1456,952,592
6000,7156,7776,1452,952,592
6004,7164,7784,1452,952,592
6000,7156,7776,1452,952,592
6004,7160,7780,1452,952,592
6004,7160,7780,1452,952,592
6004,7160,7780,1452,952,592
6004,7160,7780,1452,952,592
6000,7156,7772,1452,952,592
5996,7156,7772,1452,952,592
6000,7156,7772,1456,952,592
6000,7160,7780,1456,952,592
6004,7168,7784,1456,952,592
6004,7168,7784,1452,952,592
6008,7176,7792,1452,952,592
6004,7172,7788,1452,952,592
6004,7172,7788,1456,952,592
6004,7176,7792,1456,952,592
6004,7180,7792,1456,952,592
6004,7184,7792,1456,952,592
6008,7188,7800,1456,952,592
6008,7192,7800,1456,956,592
6008,7192,7804,1456,956,596
6004,7188,7796,1456,952,592
6000,7180,7792,1456,956,592
6000,7176,7784,1456,952,592
5996,7168,7780,1456,952,592
5996,7164,7776,1456,952,592
5992,7156,7772,1456,952,592
5992,7156,7768,1456,952,592
5992,7152,7768,1456,952,592
5992,7152,7764,1456,952,592
5992,7152,7764,1456,952,592
5992,7156,7768,1456,952,592
5992,7152,7768,1456,952,592
5992,7156,7768,1456,952,592
5996,7160,7772,1456,952,592
5992,7156,7768,1456,952,592
5992,7152,7768,1456,952,592
5992,7156,7772,1456,952,592
5996,7160,7776,1456,952,592
5996,7160,7772,1456,952,592
5996,7164,7776,1456,952,592
5996,7168,7776,1456,952,592
5996,7168,7776,1456,952,592
6000,7176,7788,1456,952,592
6000,7176,7784,1456,952,592
6000,7184,7792,1456,952,592
6004,7192,7796,1456,952,592
6000,7188,7792,1456,956,592
6000,7192,7796,1456,956,592
6000,7196,7796,1456,956,592
5996,7196,7796,1456,956,592
6000,7196,7796,1456,956,592
6000,7196,7800,1456,956,592
5996,7188,7788,1456,956,596
5988,7180,7780,1456,956,592
5988,7180,7780,1456,956,592
5988,7176,7780,1456,952,592
5984,7168,7772,1456,952,592
5984,7164,7768,1456,952,592
5984,7164,7768,1456,952,592
5980,7160,7764,1456,952,592
5980,7156,7760,1456,952,592
5984,7160,7764,1456,952,592
5992,7168,7776,1456,952,592
5988,7164,7772,1456,952,592
5988,7164,7768,1456,952,592
5988,7168,7772,1456,952,592
5992,7168,7772,1456,952,592
5992,7172,7776,1456,956,592
5996,7176,7780,1456,952,592
5992,7172,7776,1456,956,592
5996,7180,7784,1456,956,592
5996,7184,7784,1456,956,596
5996,7188,7788,1456,956,592
6000,7196,7796,1456,956,596
6008,7204,7804,1456,956,596
6004,7204,7804,1456,956,592
6000,7204,7800,1456,956,596
6004,7208,7804,1456,956,596
6004,7216,7808,1456,956,596
6008,7220,7812,1456,956,596
6012,7228,7820,1456,956,596
6012,7228,7824,1456,956,596
6004,7216,7808,1456,956,596
5996,7204,7796,1456,956,596
5996,7200,7792,1456,956,596
5996,7200,7792,1456,956,596
5992,7196,7788,1456,956,596
5996,7196,7788,1456,956,596
5996,7196,7788,1456,956,596
6000,7196,7792,1456,956,596
6000,7200,7796,1456,956,596
5996,7196,7788,1456,956,596
5996,7200,7796,1456,956,596
5996,7196,7792,1456,956,596
5996,7196,7792,1456,956,596
5992,7192,7784,1456,956,596
5992,7192,7788,1456,956,596
5992,7196,7788,1456,956,596
5992,7196,7788,1456,956,592
5992,7192,7788,1456,956,592
5992,7192,7788,1456,956,592
5992,7196,7788,1456,956,592
6000,7204,7800,1456,956,592
5996,7204,7796,1456,956,596
6004,7212,7804,1456,956,592
6000,7208,7804,1456,956,596
6000,7208,7800,1456,956,596
5996,7208,7804,1456,956,596
5996,7208,7800,1456,956,596
6004,7220,7812,1456,956,596
6000,7220,7808,1456,956,596
6000,7220,7812,1456,956,596
6000,7220,7808,1456,956,596
5996,7208,7800,1456,956,596
5992,7196,7792,1456,956,596
5992,7192,7788,1456,956,596
5992,7192,7788,1456,956,596
5992,7188,7788,1456,956,596
5992,7184,7784,1456,956,596
5996,7184,7788,1456,956,596
5996,7184,7788,1456,956,596
5996,7180,7784,1456,956,596
5992,7176,7780,1456,952,592
5988,7172,7780,1456,956,596
5992,7180,7784,1456,956,596
6000,7184,7796,1456,956,592
6000,7184,7796,1456,952,592
5996,7172,7784,1456,952,592
5988,7160,7776,1456,952,592
5996,7164,7780,1456,956,592
5992,7160,7776,1456,956,596
5992,7156,7772,1456,952,592
5992,7160,7776,1456,956,596
5992,7164,7776,1456,952,592
5992,7164,7772,1456,956,592
5992,7168,7776,1456,956,592
5992,7172,7784,1456,956,592
5992,7172,7784,1456,956,596
5992,7176,7788,1456,956,596
5992,7176,7784,1456,956,596
5992,7176,7788,1456,956,596
5992,7176,7784,1456,956,592
5988,7168,7776,1456,956,592
5980,7152,7764,1456,956,592
5976,7144,7756,1456,956,596
5976,7140,7752,1456,956,596
5976,7136,7748,1456,956,596
5976,7132,7748,1456,952,592
5976,7132,7744,1456,956,592
5976,7132,7744,1456,952,592
5976,7128,7744,1456,952,592
5976,7132,7748,1456,952,592
5976,7132,7748,1456,952,592
5980,7132,7748,1456,952,592
5980,7136,7752,1456,952,592
5976,7128,7744,1456,952,592
5976,7128,7744,1456,952,592
5972,7124,7736,1456,952,592
5968,7124,7736,1456,956,592
5972,7128,7740,1456,956,592
5972,7132,7744,1456,956,596
5972,7132,7744,1456,956,596
5976,7136,7748,1456,956,596
5976,7140,7752,1456,956,596
5976,7144,7752,1456,956,596
5976,7148,7756,1456,956,596
5980,7156,7764,1456,956,596
5980,7156,7764,1456,956,596
5980,7160,7764,1456,956,596
5980,7160,7768,1456,956,596
5976,7156,7760,1456,956,596
5976,7148,7756,1456,956,596
5972,7140,7748,1456,956,596
5964,7128,7736,1456,956,596
5968,7124,7736,1456,956,596
5968,7120,7732,1456,956,592
5964,7116,7732,1456,956,596
5968,7116,7732,1456,956,592
5960,7108,7720,1456,952,592
5960,7108,7724,1456,956,596
5960,7104,7720,1456,956,592
5960,7108,7724,1456,952,592
5960,7108,7720,1456,952,592
5964,7108,7724,1456,956,596
5960,7108,7720,1456,956,592
5960,7104,7716,1456,956,596
5960,7108,7724,1456,956,596
5964,7112,7728,1456,956,592
5964,7112,7728,1456,952,592
5968,7116,7732,1456,956,592
5968,7120,7736,1456,956,592
5968,7124,7736,1452,952,592
5968,7124,7736,1456,952,592
5968,7128,7740,1456,956,592
5968,7128,7740,1456,956,592
5968,7132,7740,1456,956,592
5972,7136,7748,1456,956,596
5972,7140,7748,1456,956,596
5968,7136,7744,1456,956,596
5972,7140,7748,1456,956,596
5964,7128,7736,1456,956,596
5964,7124,7732,1456,956,596
5960,7116,7724,1456,956,596
5960,7108,7724,1456,956,596
5956,7100,7716,1456,956,596
5952,7096,7708,1456,956,596
5956,7092,7708,1456,956,596
5952,7088,7704,1456,956,596
5952,7088,7704,1456,956,592
5952,7088,7708,1456,956,596
5952,7088,7704,1456,956,596
5960,7092,7712,1456,956,596
5960,7092,7712,1456,956,596
5956,7092,7708,1456,956,596
5956,7088,7708,1456,956,596
5952,7088,7700,1456,956,596
5952,7092,7704,1456,956,596
5956,7096,7708,1456,956,596
5956,7096,7712,1456,956,596
5956,7104,7716,1456,956,596
5960,7108,7720,1456,956,596
5964,7116,7724,1456,956,596
5960,7116,7724,1456,956,596
5964,7120,7732,1456,956,596
5968,7124,7732,1456,956,596
5964,7124,7732,1456,956,596
5968,7132,7736,1456,956,596
5972,7136,7740,1456,956,596
5972,7144,7748,1456,956,596
5976,7148,7748,1456,956,596
5972,7148,7748,1456,956,596
5972,7148,7748,1460,956,596
5972,7144,7744,1456,956,596
5968,7140,7740,1456,956,596
5972,7140,7740,1456,956,596
5968,7136,7736,1456,956,596
5968,7136,7736,1456,956,596
5964,7128,7732,1456,956,596
5964,7128,7728,1456,956,596
5964,7128,7732,1456,956,596
5964,7128,7732,1456,956,596
5964,7128,7728,1456,956,596
5964,7128,7732,1456,956,596
5964,7128,7732,1456,956,596
5964,7128,7732,1456,956,596
5964,7128,7732,1456,956,596
5968,7132,7732,1456,956,596
5968,7128,7732,1456,956,596
5968,7132,7736,1456,956,596
5968,7136,7736,1456,956,596
5968,7140,7736,1456,956,596
5968,7140,7740,1456,956,596
5972,7144,7748,1456,956,596
5976,7152,7756,1456,956,596
5976,7152,7752,1456,956,596
5976,7156,7756,1456,956,596
5976,7160,7756,1460,956,596
5980,7164,7764,1456,956,596
5984,7172,7768,1456,956,596
5984,7172,7772,1456,956,596
5984,7172,7772,1456,956,596
5984,7168,7768,1456,956,596
5984,7168,7768,1456,956,596
5980,7156,7760,1456,956,596
5980,7152,7752,1456,956,596
5980,7148,7752,1456,956,596
5984,7152,7760,1456,956,596
5980,7148,7756,1456,956,596
5980,7144,7752,1456,956,596
5984,7148,7760,1456,956,596
5980,7144,7752,1456,956,596
5980,7144,7756,1456,956,596
5984,7148,7756,1456,956,596
5984,7148,7756,1456,956,596
5980,7140,7752,1456,956,596
5976,7140,7748,1456,956,596
5980,7140,7748,1456,956,596
5976,7136,7744,1456,956,596
5980,7140,7748,1456,956,596
5980,7144,7752,1456,956,596
5980,7144,7752,1456,956,596
5980,7148,7756,1456,956,596
5980,7148,7756,1456,956,596
5984,7152,7760,1456,956,596
5984,7156,7764,1456,956,596
5984,7160,7764,1456,956,596
5984,7164,7768,1456,956,596
5984,7168,7768,1456,956,596
5988,7172,7772,1456,956,596
5988,7172,7776,1456,956,596
5984,7168,7768,1456,956,596
5980,7160,7760,1456,956,596
5980,7160,7760,1456,956,596
5976,7148,7752,1456,956,596
5972,7144,7748,1456,956,596
5972,7140,7744,1456,956,596
5972,7140,7744,1456,956,596
5968,7132,7740,1456,956,596
5968,7132,7736,1456,956,596
5972,7136,7744,1456,956,596
5972,7136,7740,1456,956,596
5972,7136,7740,1456,956,596
5968,7132,7740,1456,956,596
5968,7132,7740,1456,956,596
5968,7136,7740,1456,956,596
5972,7140,7744,1456,956,596
5972,7140,7744,1456,956,596
5968,7140,7740,1456,956,596
5976,7148,7752,1456,956,596
5972,7148,7748,1456,956,596
5980,7160,7756,1456,956,596
5976,7156,7756,1456,956,596
5976,7160,7760,1456,956,596
5980,7164,7764,1456,956,596
5980,7168,7768,1456,956,596
5980,7172,7768,1456,956,596
5980,7172,7768,1456,956,596
5980,7180,7776,1456,956,596
5980,7180,7776,1456,956,596
5980,7180,7772,1456,956,596
5972,7172,7768,1456,956,596
5972,7168,7760,1456,956,596
5972,7164,7760,1456,956,596
5968,7156,7752,1456,956,596
5968,7152,7748,1456,956,596
5964,7144,7744,1456,956,596
5968,7144,7744,1456,956,596
5964,7140,7740,1456,956,596
5964,7140,7740,1456,956,596
5968,7140,7744,1456,956,596
5968,7140,7744,1456,956,596
5968,7144,7748,1456,956,596
5972,7148,7748,1456,956,596
5964,7136,7736,1456,956,596
5968,7140,7744,1452,956,596
5972,7148,7748,1456,956,596
5968,7144,7744,1456,956,596
5968,7148,7748,1456,956,596
5972,7148,7748,1456,956,596
5972,7152,7752,1456,956,596
5972,7152,7752,1456,956,596
5968,7152,7752,1456,956,596
5972,7160,7756,1456,956,596
5972,7160,7760,1456,956,596
5972,7164,7760,1456,956,596
5972,7164,7760,1456,956,596
5972,7168,7764,1456,956,596
5976,7176,7772,1456,956,596
5972,7176,7768,1456,956,596
5972,7172,7764,1456,956,596
5972,7172,7764,1456,956,596
5972,7164,7760,1456,956,596
5964,7152,7748,1456,956,596
5964,7148,7744,1456,956,596
5964,7144,7740,1456,956,596
5960,7140,7740,1456,956,596
5964,7136,7740,1456,956,596
5964,7136,7740,1456,956,596
5960,7132,7732,1456,956,596
5956,7124,7728,1456,956,596
5956,7120,7724,1456,956,596
5960,7128,7732,1456,956,596
5960,7120,7724,1456,956,596
5956,7120,7720,1456,956,596
5952,7116,7716,1452,956,596
5956,7120,7724,1456,956,596
5960,7124,7728,1456,956,596
5960,7124,7728,1456,956,596
5960,7124,7728,1456,956,596
5960,7124,7728,1456,956,596
5960,7128,7728,1456,956,596
5956,7128,7728,1456,956,596
5956,7128,7724,1456,956,596
5960,7132,7732,1456,956,596
5960,7136,7736,1456,956,596
5964,7144,7740,1456,956,596
5964,7144,7744,1456,956,596
5968,7152,7752,1456,956,596
5968,7152,7752,1456,956,596
5964,7148,7744,1456,956,596
5960,7144,7740,1456,956,596
5960,7136,7736,1456,956,596
5956,7128,7724,1456,956,596
5952,7120,7716,1456,956,596
5948,7112,7712,1456,956,596
5948,7108,7712,1456,956,596
5948,7108,7708,1456,956,596
5948,7108,7708,1456,956,596
5948,7108,7708,1452,956,596
5948,7104,7708,1452,956,596
5948,7104,7708,1452,956,596
5944,7100,7704,1452,956,596
5948,7108,7708,1456,956,596
5948,7104,7704,1452,956,596
5948,7108,7708,1452,956,596
5948,7108,7708,1456,956,596
5948,7104,7704,1456,956,596
5948,7108,7708,1452,956,596
5952,7112,7712,1452,956,596
5956,7116,7716,1452,956,596
5952,7120,7716,1456,956,596
5960,7128,7728,1456,956,596
5960,7132,7732,1452,956,596
5960,7132,7732,1452,956,596
5960,7136,7732,1456,956,596
5960,7136,7736,1456,956,596
5960,7140,7736,1456,956,596
5964,7144,7740,1456,956,596
5964,7152,7748,1456,956,596
5964,7148,7744,1456,956,596
5964,7148,7744,1456,956,596
5960,7140,7736,1456,956,596
5956,7132,7732,1456,956,596
5956,7128,7724,1456,956,596
5952,7116,7716,1456,956,596
5952,7116,7716,1456,956,596
5948,7104,7704,1456,956,596
5944,7100,7696,1456,956,596
5944,7096,7696,1456,956,596
5944,7100,7700,1452,956,596
5944,7100,7700,1456,956,596
5944,7100,7700,1452,956,596
5952,7108,7708,1456,956,596
5952,7112,7712,1456,956,596
5952,7112,7716,1452,956,596
5952,7112,7712,1452,956,596
5952,7116,7712,1456,956,596
5952,7116,7716,1456,956,596
5952,7116,7712,1452,956,596
5948,7112,7708,1456,956,596
5952,7120,7716,1456,956,596
5952,7120,7716,1452,956,596
5956,7128,7724,1452,956,596
5956,7132,7724,1456,956,596
5964,7140,7736,1456,956,596
5960,7140,7732,1456,956,596
5960,7144,7736,1456,956,596
5964,7148,7740,1456,956,596
5964,7148,7740,1456,956,596
5964,7152,7744,1456,956,596
5964,7152,7744,1456,956,596
5960,7144,7732,1456,956,596
5960,7140,7732,1456,956,596
5956,7128,7724,1456,956,596
5960,7128,7724,1456,956,596
5956,7120,7716,1456,956,596
5960,7124,7724,1456,956,596
5956,7120,7720,1456,956,596
5956,7116,7716,1456,956,596
5960,7120,7720,1456,956,596
5960,7120,7720,1456,956,596
5960,7120,7720,1456,956,596
5960,7120,7720,1456,956,596
5964,7124,7724,1456,956,596
5964,7124,7724,1456,956,596
5968,7128,7732,1456,956,596
5968,7128,7728,1456,956,596
5968,7132,7732,1456,956,596
5968,7132,7732,1456,956,596
5972,7140,7736,1456,956,596
5972,7144,7740,1456,956,596
5972,7144,7744,1452,956,596
5972,7144,7740,1456,956,596
5976,7152,7752,1456,956,596
5976,7152,7752,1456,956,596
5976,7156,7752,1456,956,596
5980,7160,7760,1456,956,596
5980,7164,7756,1456,956,596
5980,7164,7760,1456,956,596
5976,7160,7756,1456,956,596
5980,7160,7756,1456,956,596
5972,7148,7748,1456,956,596
5972,7144,7740,1456,956,596
5968,7136,7736,1456,956,596
5968,7132,7732,1456,956,596
5968,7128,7728,1456,956,596
5968,7124,7728,1456,956,596
5968,7124,7728,1456,956,596
5972,7128,7732,1452,952,596
5968,7124,7728,1452,952,592
5968,7124,7732,1456,956,596
5968,7124,7728,1452,952,596
5968,7124,7732,1452,952,592
5972,7132,7736,1456,956,596
5972,7128,7736,1456,956,596
5972,7128,7732,1456,956,596
5968,7128,7732,1456,956,596
5972,7132,7736,1452,952,592
5972,7132,7736,1452,952,592
5972,7136,7740,1456,956,596
5972,7136,7740,1456,956,596
5972,7140,7740,1456,956,596
5972,7144,7744,1456,956,596
5976,7148,7748,1452,952,596
5976,7148,7748,1452,952,596
5976,7152,7748,1456,956,596
5976,7156,7752,1456,956,596
5976,7156,7752,1456,956,596
5972,7148,7744,1456,956,596
5968,7140,7740,1456,956,596
5964,7136,7732,1456,956,596
5964,7128,7732,1452,956,596
5960,7120,7724,1452,952,596
5956,7116,7716,1452,952,592
5960,7112,7716,1452,952,592
5960,7112,7720,1452,952,592
5956,7108,7712,1452,952,592
5960,7112,7716,1452,952,592
5956,7104,7708,1452,952,596
5956,7108,7712,1452,952,592
5956,7104,7708,1452,952,592
5956,7108,7712,1452,952,596
5952,7100,7704,1452,952,592
5952,7104,7708,1456,956,596
5956,7112,7712,1452,952,596
5960,7108,7712,1456,956,596
5956,7108,7708,1452,952,596
5960,7116,7720,1452,952,596
5960,7120,7716,1452,952,596
5964,7128,7728,1456,956,596
5964,7128,7728,1456,956,596
5960,7128,7728,1456,956,596
5964,7140,7736,1456,956,596
5964,7140,7736,1456,956,596
5964,7136,7732,1456,956,596
5960,7136,7732,1456,956,596
5960,7136,7732,1456,956,596
5952,7124,7716,1456,956,596
5948,7116,7712,1456,956,596
5948,7112,7708,1456,956,596
5948,7108,7704,1456,956,596
5944,7100,7696,1456,956,596
5944,7092,7692,1452,952,596
5940,7088,7688,1452,952,596
5944,7088,7692,1452,952,596
5944,7092,7692,1452,952,592
5948,7092,7696,1452,952,596
5944,7092,7692,1456,956,596
5948,7092,7696,1452,952,592
5948,7096,7696,1452,952,592
5944,7088,7692,1452,952,596
5940,7084,7684,1452,952,592
5940,7084,7684,1452,952,592
5940,7084,7684,1452,952,592
5944,7088,7692,1452,952,592
5948,7096,7696,1452,952,592
5948,7092,7696,1452,952,596
5948,7096,7696,1452,952,592
5948,7100,7700,1456,952,596
5948,7100,7700,1452,952,596
5948,7108,7704,1452,952,592
5952,7112,7708,1452,952,596
5948,7112,7708,1452,956,596
5952,7112,7712,1452,952,596
5948,7112,7708,1452,952,592
5944,7104,7700,1452,952,596
5944,7104,7700,1456,956,596
5936,7088,7684,1452,952,592
5936,7080,7680,1452,952,596
5936,7076,7676,1452,952,596
5932,7068,7672,1452,952,596
5932,7068,7672,1452,952,596
5936,7064,7672,1452,952,592
5932,7060,7664,1452,952,592
5932,7064,7668,1452,952,596
5932,7064,7668,1452,952,592
5932,7060,7668,1452,952,592
5932,7060,7664,1452,952,592
5932,7060,7668,1452,952,592
5932,7060,7664,1452,952,592
5932,7056,7664,1452,952,592
5936,7064,7668,1452,952,592
5928,7056,7660,1452,952,592
5932,7060,7664,1452,952,592
5932,7060,7664,1452,952,592
5932,7064,7668,1452,952,592
5936,7068,7672,1452,952,592
5932,7072,7672,1452,952,592
5936,7076,7676,1456,952,596
5940,7084,7684,1456,952,596
5944,7088,7692,1452,952,592
5940,7088,7688,1452,952,592
5940,7084,7688,1452,952,596
5936,7084,7684,1452,952,596
5944,7088,7692,1456,956,596
5932,7068,7672,1452,952,596
5928,7064,7664,1452,952,596
5928,7056,7660,1452,952,592
5924,7044,7648,1452,952,592
5924,7040,7644,1452,952,592
5920,7036,7640,1452,952,592
5924,7036,7644,1452,952,592
5920,7028,7640,1452,952,592
5920,7024,7636,1452,952,592
5924,7032,7640,1452,952,592
5924,7032,7640,1452,952,592
5924,7036,7644,1452,952,592
5928,7036,7648,1452,952,592
5924,7036,7644,1452,952,592
5924,7032,7644,1452,952,592
5924,7036,7644,1452,952,592
5928,7040,7648,1452,952,592
5932,7044,7652,1452,952,592
5928,7048,7652,1452,952,592
5928,7048,7656,1452,952,592
5932,7056,7660,1452,952,592
5932,7056,7656,1452,952,592
5936,7060,7664,1452,952,592
5932,7060,7660,1452,952,592
5928,7060,7660,1452,952,592
5932,7068,7668,1452,952,592
5932,7072,7668,1452,952,592
5932,7072,7668,1452,952,592
5936,7076,7676,1452,952,592
5940,7076,7676,1452,952,592
5936,7068,7668,1452,952,592
5932,7056,7660,1452,952,592
5932,7052,7656,1452,952,592
5932,7048,7652,1452,952,592
5932,7044,7652,1452,952,592
5932,7044,7652,1452,952,592
5932,7040,7652,1452,952,592
5936,7040,7652,1452,952,592
5936,7040,7652,1452,952,592
5936,7036,7652,1452,952,592
5940,7044,7656,1452,952,592
5936,7040,7656,1452,952,592
5940,7040,7652,1452,952,592
5936,7032,7648,1452,952,592
5936,7036,7648,1452,952,592
5936,7036,7648,1452,952,592
5940,7040,7652,1452,952,592
5936,7036,7648,1452,952,592
5936,7036,7648,1452,952,592
5936,7040,7652,1452,952,592
5940,7048,7660,1452,952,592
5944,7048,7660,1452,952,592
5944,7052,7664,1452,952,592
5944,7056,7664,1452,952,592
5944,7056,7668,1452,952,592
5948,7064,7672,1456,952,592
5948,7072,7676,1456,952,592
5952,7072,7680,1456,952,592
5948,7068,7676,1452,952,592
5944,7056,7668,1452,952,592
5944,7056,7668,1452,952,592
5944,7052,7664,1452,952,592
5944,7048,7660,1452,952,592
5940,7040,7652,1452,952,592
5936,7032,7648,1452,952,592
5936,7032,7644,1452,952,592
5936,7032,7644,1452,952,592
5940,7032,7648,1452,952,592
5940,7032,7648,1452,952,592
5936,7028,7648,1452,952,592
5940,7032,7648,1452,952,592
5936,7028,7644,1456,952,592
5936,7028,7644,1452,952,592
5936,7032,7648,1452,952,592
5940,7032,7652,1452,952,592
5940,7036,7652,1452,952,592
5940,7036,7652,1452,952,592
5940,7036,7652,1452,952,592
5944,7044,7660,1452,952,592
5944,7048,7664,1452,952,592
5944,7048,7664,1452,952,592
5944,7048,7664,1452,952,592
5944,7052,7664,1452,952,592
5948,7056,7668,1452,952,592
5940,7052,7664,1452,952,592
5944,7056,7668,1452,952,592
5944,7056,7668,1452,952,592
5940,7052,7660,1452,952,592
5936,7048,7656,1452,952,592
5932,7040,7648,1452,952,592
5932,7032,7644,1452,952,592
5928,7028,7640,1452,952,592
5928,7020,7632,1452,952,592
5924,7020,7632,1452,952,592
5924,7016,7628,1452,952,592
5924,7012,7624,1452,952,592
5924,7012,7624,1452,952,592
5928,7016,7632,1452,952,592
5932,7020,7636,1452,952,592
5932,7020,7636,1452,952,592
5928,7020,7636,1452,952,592
5924,7012,7628,1452,952,592
5928,7016,7632,1452,952,592
5928,7020,7632,1452,952,592
5928,7016,7632,1452,952,592
5932,7024,7640,1452,952,592
5932,7024,7640,1452,952,592
5932,7028,7640,1452,952,592
5932,7032,7644,1452,952,592
5932,7032,7644,1452,952,592
5932,7036,7648,1452,952,592
5932,7040,7648,1452,952,592
5936,7048,7656,1452,952,592
5936,7048,7652,1452,952,592
5932,7048,7652,1452,952,592
5936,7052,7656,1452,952,592
5932,7052,7656,1452,952,592
5932,7052,7656,1452,952,592
5928,7044,7648,1452,952,592
5924,7036,7640,1452,952,592
5920,7028,7632,1452,952,592
5920,7020,7624,1452,952,592
5920,7020,7628,1452,952,592
5920,7020,7628,1452,952,592
5924,7020,7628,1452,952,592
5920,7020,7628,1452,952,592
5924,7024,7632,1452,952,592
5920,7016,7624,1452,952,592
5920,7016,7624,1452,952,592
5920,7020,7628,1452,952,592
5920,7020,7628,1452,952,592
5920,7020,7628,1452,952,592
5920,7020,7628,1452,952,592
5920,7024,7628,1452,952,592
5920,7024,7628,1452,952,592
5920,7024,7628,1452,952,592
5920,7024,7632,1452,952,592
5924,7036,7636,1452,952,592
5924,7036,7640,1452,952,592
5924,7040,7644,1452,952,592
5928,7044,7644,1452,952,592
5928,7048,7648,1452,952,592
5928,7052,7652,1452,952,592
5928,7056,7652,1452,952,592
5928,7056,7656,1452,952,592
5932,7060,7656,1452,952,592
5932,7064,7660,1452,952,592
5928,7060,7656,1452,952,592
5928,7056,7652,1452,952,592
5924,7048,7644,1452,952,592
5920,7040,7640,1452,952,592
5920,7036,7632,1452,952,592
5920,7036,7636,1452,952,592
5912,7020,7620,1452,952,592
5916,7024,7624,1452,952,592
5916,7024,7628,1452,952,592
5916,7024,7624,1452,952,592
5916,7024,7624,1452,952,592
5916,7024,7624,1452,952,592
5916,7024,7628,1452,952,592
5916,7024,7624,1452,952,592
5916,7024,7624,1452,952,592
5916,7024,7624,1452,952,592
5920,7032,7632,1452,952,592
5916,7032,7628,1452,952,592
5920,7036,7632,1452,952,592
5920,7036,7636,1452,952,592
5924,7044,7640,1452,952,592
5924,7044,7640,1452,952,592
5924,7052,7644,1452,952,592
5924,7048,7644,1452,952,592
5924,7056,7648,1452,952,592
5928,7064,7656,1452,952,592
5932,7068,7660,1452,952,592
5928,7068,7660,1452,952,592
5932,7072,7664,1452,952,592
5928,7072,7664,1452,952,592
5932,7080,7668,1452,952,592
5932,7076,7664,1452,952,592
5928,7068,7660,1452,952,592
5924,7060,7648,1452,952,592
5924,7056,7648,1452,952,592
5924,7056,7648,1452,952,592
5924,7048,7640,1452,952,592
5924,7048,7644,1452,952,592
5928,7052,7644,1452,952,592
5928,7052,7648,1452,952,592
5924,7044,7640,1452,952,592
5924,7044,7644,1452,952,592
5928,7052,7648,1452,952,592
5924,7048,7644,1452,952,592
5928,7052,7648,1452,952,592
5928,7048,7644,1452,952,592
5928,7048,7648,1452,952,592
5928,7052,7648,1452,952,592
5932,7052,7652,1452,952,592
5932,7056,7656,1452,952,592
5932,7056,7652,1452,952,592
5928,7056,7652,1452,952,592
5932,7064,7656,1452,952,592
5940,7072,7668,1452,952,592
5936,7072,7668,1452,952,592
5940,7080,7672,1452,952,592
5940,7080,7676,1452,952,592
5940,7084,7680,1452,952,592
5940,7088,7680,1452,952,592
5940,7088,7680,1452,952,592
5940,7088,7680,1452,952,592
5940,7084,7680,1452,952,592
5940,7080,7676,1452,952,592
5940,7076,7672,1452,952,592
5932,7064,7660,1452,952,592
5936,7064,7664,1452,952,592
5936,7060,7660,1452,952,592
5936,7056,7656,1452,952,592
5936,7060,7660,1452,952,592
5932,7048,7652,1452,952,592
5932,7052,7656,1452,952,592
5932,7048,7652,1452,952,592
5936,7052,7656,1452,952,592
5932,7052,7656,1452,952,592
5932,7052,7652,1452,952,592
5932,7048,7652,1452,952,592
5932,7048,7652,1452,952,592
5932,7052,7652,1452,952,592
5932,7056,7656,1456,952,592
5936,7064,7664,1452,952,592
5936,7064,7664,1452,952,592
5936,7064,7660,1452,952,592
5936,7068,7668,1452,952,592
5936,7072,7668,1452,952,592
5936,7076,7672,1452,952,592
5940,7080,7676,1452,952,592
5940,7088,7680,1452,952,592
5944,7092,7684,1452,952,592
5944,7096,7688,1452,952,592
5944,7100,7692,1452,952,592
5944,7100,7688,1452,952,592
5940,7092,7684,1452,952,592
5940,7088,7684,1452,952,592
5936,7080,7672,1452,952,592
5936,7080,7672,1452,952,592
5928,7068,7660,1452,952,592
5928,7064,7660,1452,952,592
5928,7060,7656,1452,952,592
5924,7056,7652,1452,952,592
5928,7060,7656,1452,952,592
5928,7060,7656,1452,952,592
5928,7060,7652,1452,952,592
5932,7064,7660,1452,952,592
5928,7060,7656,1452,952,592
5928,7060,7656,1452,952,592
5932,7064,7660,1452,952,592
5928,7064,7656,1452,952,592
5928,7064,7656,1452,952,592
5928,7068,7660,1452,952,592
5932,7072,7664,1452,952,592
5932,7076,7668,1452,952,592
5932,7080,7668,1452,952,592
5936,7088,7676,1452,952,592
5936,7088,7676,1452,952,592
5936,7092,7684,1452,952,592
5936,7092,7680,1452,952,592
5940,7104,7688,1452,952,592
5944,7108,7692,1452,952,592
5940,7108,7692,1452,952,592
5940,7112,7696,1452,952,592
5940,7112,7696,1452,952,592
5940,7108,7692,1452,952,592
5936,7104,7688,1452,952,592
5932,7092,7680,1452,952,592
5932,7088,7676,1452,952,592
5928,7080,7668,1452,952,592
5924,7076,7664,1452,952,592
5924,7076,7664,1452,952,592
5924,7072,7660,1452,952,592
5924,7068,7656,1452,952,592
5928,7072,7660,1452,952,592
5928,7076,7664,1452,952,592
5928,7076,7664,1452,952,592
5932,7080,7668,1452,952,592
5928,7076,7664,1452,952,592
5928,7080,7668,1452,952,592
5932,7084,7672,1452,952,592
5932,7084,7672,1452,952,592
5936,7088,7676,1452,952,592
5932,7088,7672,1452,952,592
5928,7084,7672,1452,952,592
5932,7088,7672,1452,952,592
5928,7088,7672,1452,952,592
5932,7092,7676,1456,952,592
5932,7096,7676,1456,952,592
5932,7096,7680,1452,952,592
5936,7104,7684,1456,952,592
5936,7108,7688,1456,952,592
5940,7116,7700,1456,952,592
5940,7116,7700,1456,952,592
5936,7112,7696,1456,952,592
5932,7108,7688,1456,952,592
5932,7104,7688,1452,952,592
5932,7100,7684,1452,952,592
5924,7088,7672,1452,952,592
5924,7080,7664,1452,952,592
5920,7072,7660,1452,952,592
5920,7072,7660,1452,952,592
5920,7072,7660,1452,952,592
5920,7068,7656,1452,952,592
5924,7072,7660,1452,952,592
5920,7068,7656,1456,952,592
5920,7068,7656,1452,952,592
5924,7072,7660,1452,952,592
5924,7072,7660,1452,952,592
5924,7072,7660,1452,952,592
5924,7072,7660,1452,952,592
5924,7076,7664,1452,952,592
5920,7072,7660,1452,952,592
5924,7076,7664,1452,952,592
5924,7076,7664,1452,952,592
5924,7080,7664,1452,952,592
5924,7084,7672,1452,952,592
5928,7088,7672,1452,952,592
5924,7088,7672,1452,952,592
5928,7092,7676,1452,952,592
5928,7092,7676,1452,952,592
5928,7096,7680,1452,952,592
5936,7108,7688,1452,952,592
5936,7108,7688,1452,952,592
5936,7112,7692,1452,952,592
5932,7108,7688,1452,952,592
5936,7112,7696,1452,952,592
5928,7096,7680,1452,952,592
5920,7088,7672,1452,952,592
5920,7080,7664,1452,952,592
5920,7076,7660,1452,952,592
5916,7068,7652,1452,952,592
5916,7068,7656,1452,952,592
5916,7068,7652,1452,952,592
5916,7064,7648,1452,952,592
5920,7068,7656,1452,952,592
5920,7068,7656,1452,952,592
5920,7068,7656,1452,952,592
5920,7068,7660,1452,952,592
5920,7072,7660,1452,952,592
5920,7068,7656,1452,952,592
5920,7068,7656,1452,952,592
5920,7068,7656,1452,952,592
5924,7076,7664,1452,952,592
5924,7076,7664,1452,952,592
5924,7080,7668,1452,952,592
5928,7084,7672,1452,952,592
5928,7084,7672,1452,952,592
5932,7092,7680,1452,952,592
5932,7096,7680,1452,952,592
5932,7100,7684,1452,952,592
5928,7092,7680,1452,952,592
5932,7100,7684,1452,952,592
5936,7104,7688,1452,952,592
5932,7104,7688,1452,952,592
5936,7112,7692,1456,952,592
5936,7108,7692,1456,952,592
5932,7100,7688,1452,952,592
5932,7096,7684,1452,952,592
5932,7088,7676,1452,952,592
5932,7084,7676,1452,952,592
5932,7084,7680,1452,952,592
5932,7080,7672,1452,952,592
5932,7076,7668,1452,952,592
5928,7068,7664,1452,952,592
5928,7068,7664,1452,952,592
5928,7068,7664,1452,952,592
5932,7072,7668,1452,952,592
5932,7068,7668,1452,952,592
5936,7072,7668,1452,952,592
5936,7072,7668,1452,952,592
5940,7076,7676,1452,952,592
5936,7072,7672,1452,952,592
5936,7076,7672,1456,952,592
5936,7076,7676,1452,952,592
5940,7080,7676,1452,952,592
5940,7080,7680,1452,952,592
5936,7080,7676,1452,952,592
5940,7084,7684,1452,952,592
5940,7084,7680,1452,952,592
5936,7084,7680,1452,952,592
5940,7092,7688,1452,952,592
5940,7096,7688,1452,952,592
5940,7096,7688,1452,952,592
5940,7100,7692,1452,952,592
5944,7100,7696,1452,952,592
5940,7100,7692,1452,952,592
5936,7088,7684,1452,952,592
5936,7088,7684,1452,952,592
5932,7084,7676,1452,952,592
5928,7072,7668,1452,952,592
5932,7072,7672,1452,952,592
5928,7064,7664,1452,952,592
5928,7060,7656,1452,952,592
5928,7060,7660,1452,948,592
5928,7064,7664,1452,948,592
5928,7064,7660,1452,952,592
5928,7064,7664,1452,952,592
5932,7068,7668,1452,952,592
5936,7076,7672,1452,952,592
5928,7068,7664,1452,952,592
5932,7068,7668,1452,952,592
5928,7068,7664,1452,952,592
5928,7068,7664,1452,952,592
5932,7072,7668,1452,952,592
5932,7076,7672,1452,952,592
5928,7072,7668,1452,952,592
5936,7084,7676,1452,952,592
5936,7084,7680,1452,952,592
5932,7084,7676,1452,952,592
5936,7092,7684,1452,952,592
5936,7096,7688,1456,952,592
5936,7096,7688,1452,952,592
5936,7100,7692,1452,952,592
5936,7100,7688,1452,952,592
5936,7096,7688,1452,952,592
5932,7092,7684,1456,952,592
5928,7084,7676,1456,952,592
5924,7076,7668,1452,952,592
5924,7072,7664,1452,952,592
5916,7060,7652,1452,952,592
5916,7052,7648,1452,952,592
5916,7052,7648,1452,952,592
5920,7056,7652,1452,952,592
5920,7052,7648,1452,952,592
5920,7052,7652,1452,952,592
5920,7052,7648,1452,952,592
5920,7056,7652,1452,952,592
5924,7060,7656,1452,952,592
5924,7064,7660,1452,952,592
5924,7064,7660,1452,952,592
5924,7064,7664,1452,952,592
5924,7064,7660,1452,952,592
5920,7060,7660,1452,952,592
5924,7060,7664,1452,952,592
5924,7060,7660,1452,952,592
5924,7060,7660,1452,952,592
5920,7056,7656,1452,952,592
5924,7060,7660,1452,952,592
5920,7056,7656,1452,952,592
5924,7060,7660,1452,952,592
5924,7064,7664,1452,952,592
5924,7064,7664,1452,952,592
5924,7064,7664,1452,952,592
5924,7064,7664,1452,952,592
5920,7060,7660,1452,952,592
5916,7052,7652,1452,952,592
5912,7044,7644,1452,952,592
5912,7036,7636,1452,952,592
5912,7032,7632,1452,952,592
5912,7032,7636,1456,952,592
5908,7024,7628,1452,952,592
5908,7024,7628,1452,952,592
5912,7024,7632,1452,952,592
5908,7024,7628,1452,952,592
5912,7024,7632,1452,952,592
5908,7020,7624,1452,952,592
5908,7024,7632,1452,952,592
5908,7020,7628,1452,952,592
5908,7024,7628,1452,952,592
5912,7020,7632,1452,952,592
5908,7016,7628,1452,952,592
5904,7016,7624,1452,952,592
5912,7024,7632,1452,952,592
5908,7016,7628,1452,952,592
5908,7020,7628,1452,952,592
5912,7020,7628,1452,952,592
5908,7016,7624,1452,952,592
5912,7028,7632,1452,952,592
5916,7032,7636,1452,952,592
5912,7032,7636,1452,952,592
5912,7032,7636,1452,952,592
5912,7036,7640,1452,952,592
5912,7036,7636,1452,952,592
5912,7036,7636,1452,952,592
5908,7028,7628,1452,952,592
5904,7020,7624,1452,952,592
5904,7016,7620,1452,952,592
5900,7008,7612,1452,952,592
5900,7004,7608,1452,952,592
5900,7000,7608,1452,952,592
5896,6996,7600,1452,952,592
5896,6996,7600,1452,948,592
5900,7000,7604,1452,952,592
5904,7004,7608,1452,952,592
5904,7004,7608,1452,952,592
5904,7008,7608,1452,952,592
5900,7004,7608,1452,952,592
5904,7008,7612,1452,952,592
5904,7008,7612,1452,952,592
5904,7012,7616,1452,952,592
5908,7016,7620,1452,952,592
5908,7016,7620,1452,952,592
5904,7016,7620,1452,952,592
5904,7016,7616,1452,952,592
5904,7020,7620,1452,952,592
5904,7020,7620,1452,952,592
5908,7024,7624,1452,952,592
5908,7024,7624,1452,948,592
5908,7028,7628,1452,952,592
5912,7032,7632,1452,952,592
5908,7032,7632,1452,952,592
5912,7040,7636,1452,952,592
5916,7044,7640,1452,952,592
5912,7044,7640,1452,952,592
5916,7044,7640,1452,952,592
5912,7032,7632,1452,952,592
5908,7028,7624,1452,952,592
5908,7024,7624,1452,952,592
5912,7024,7624,1452,952,592
5908,7020,7620,1452,952,592
5908,7016,7620,1452,952,592
5912,7020,7624,1452,948,592
5916,7020,7624,1452,948,592
5916,7020,7624,1452,948,592
5916,7020,7624,1452,952,592
5916,7020,7624,1452,948,592
5916,7024,7628,1452,952,592
5916,7024,7628,1452,952,592
5916,7024,7628,1452,952,592
5916,7020,7628,1452,952,592
5920,7024,7628,1452,952,592
5920,7024,7632,1452,952,592
5920,7024,7628,1452,948,592
5920,7024,7632,1452,952,592
5920,7028,7632,1452,952,592
5924,7032,7636,1452,952,592
5924,7036,7640,1452,952,592
5928,7044,7644,1452,952,592
5928,7044,7648,1452,952,592
5932,7052,7652,1456,952,592
5932,7052,7656,1452,952,592
5932,7056,7656,1452,952,592
5932,7056,7656,1452,952,592
5928,7052,7656,1452,952,592
5928,7052,7652,1452,952,592
5928,7044,7648,1452,952,592
5928,7040,7644,1452,952,592
5924,7036,7640,1452,952,592
5920,7032,7636,1452,952,592
5924,7032,7636,1452,952,592
5924,7028,7632,1452,952,592
5920,7024,7632,1452,948,592
5920,7024,7628,1452,948,592
5920,7028,7632,1452,948,592
5924,7032,7640,1452,948,592
5928,7036,7640,1452,952,592
5928,7036,7640,1452,952,592
5924,7036,7640,1452,952,592
5920,7032,7636,1452,952,592
5924,7040,7640,1452,952,592
5928,7044,7644,1452,952,592
5928,7044,7644,1452,952,592
5932,7052,7656,1452,952,592
5932,7060,7656,1452,952,592
5932,7060,7660,1452,952,592
5932,7064,7664,1452,952,592
5932,7064,7664,1452,952,592
5932,7068,7664,1452,952,592
5932,7068,7664,1452,952,592
5932,7076,7668,1452,952,592
5932,7076,7664,1452,952,592
5932,7076,7668,1456,952,592
5928,7076,7664,1452,952,592
5928,7076,7664,1452,952,592
5924,7068,7656,1452,952,592
5924,7064,7652,1452,952,592
5924,7060,7652,1452,952,592
5924,7060,7652,1452,952,592
5924,7060,7652,1452,952,592
5924,7056,7648,1452,952,592
5924,7056,7652,1452,952,592
5920,7052,7644,1452,952,592
5920,7052,7648,1452,952,592
5924,7056,7648,1452,952,592
5920,7052,7644,1452,952,592
5920,7052,7648,1452,952,592
5920,7052,7644,1452,952,592
5920,7052,7644,1452,952,592
5920,7056,7644,1452,952,592
5920,7060,7648,1452,952,592
5924,7064,7652,1452,952,592
5924,7068,7656,1452,952,592
5928,7072,7660,1452,952,592
5932,7080,7668,1452,952,592
5932,7084,7668,1452,952,592
5932,7084,7672,1452,952,592
5932,7084,7672,1452,952,592
5932,7092,7676,1452,952,592
5936,7096,7680,1452,952,592
5940,7100,7688,1452,952,592
5936,7100,7684,1452,952,592
5932,7092,7676,1452,952,592
5928,7088,7672,1452,952,592
5924,7076,7660,1452,952,592
5920,7068,7652,1452,952,592
5920,7068,7656,1452,952,592
5916,7060,7644,1452,952,592
5912,7056,7640,1452,952,592
5916,7056,7644,1452,952,592
5916,7056,7644,1452,952,592
5916,7052,7640,1452,952,592
5916,7056,7644,1452,952,592
5912,7052,7640,1452,952,592
5916,7056,7644,1452,952,592
5912,7052,7640,1452,952,592
5916,7052,7640,1452,952,592
5912,7052,7640,1452,952,592
5916,7056,7644,1452,952,592
5916,7052,7640,1452,952,592
5920,7060,7648,1452,952,592
5916,7060,7644,1452,952,592
5920,7068,7652,1452,952,592
5920,7064,7652,1452,952,592
5920,7072,7656,1452,952,592
5920,7072,7656,1452,952,592
5924,7080,7660,1452,952,592
5924,7080,7664,1452,952,592
5928,7088,7672,1452,952,592
5932,7092,7676,1452,952,592
5932,7096,7676,1452,952,592
5928,7092,7672,1452,952,592
5928,7088,7672,1456,952,596
5920,7072,7656,1452,952,592
5916,7064,7648,1452,952,592
5912,7060,7644,1452,952,592
5908,7052,7636,1452,952,596
5916,7056,7640,1452,952,592
5912,7048,7632,1452,952,592
5912,7048,7632,1452,952,592
5908,7044,7628,1452,952,592
5908,7040,7628,1452,952,592
5912,7048,7636,1452,952,592
5916,7052,7640,1452,952,592
5916,7052,7640,1452,952,592
5916,7052,7640,1452,952,592
5912,7048,7636,1452,952,592
5916,7056,7640,1452,952,596
5912,7052,7636,1452,952,596
5916,7056,7636,1452,952,592
5912,7052,7636,1452,952,596
5916,7056,7640,1452,952,592
5912,7056,7640,1452,952,592
5920,7064,7644,1452,952,592
5920,7068,7648,1452,952,596
5920,7072,7652,1452,952,596
5920,7080,7656,1452,952,596
5924,7088,7664,1452,952,596
5928,7092,7668,1456,956,596
5928,7096,7672,1456,956,596
5928,7096,7672,1456,956,596
5924,7092,7668,1456,956,596
5924,7088,7668,1456,956,596
5920,7084,7656,1456,956,596
5920,7076,7648,1456,956,596
5916,7068,7648,1456,956,596
5920,7068,7648,1456,956,596
5920,7068,7648,1456,952,596
5920,7064,7648,1456,952,596
5920,7068,7648,1456,956,596
5924,7064,7648,1456,952,596
5924,7064,7648,1456,952,596
5928,7068,7652,1456,952,596
5928,7068,7652,1456,952,596
5928,7064,7648,1456,952,596
5924,7064,7648,1456,952,596
5928,7068,7652,1456,952,596
5928,7064,7648,1456,952,596
5928,7068,7652,1456,952,596
5936,7076,7664,1452,952,596
5936,7080,7664,1456,952,596
5940,7084,7668,1456,952,596
5940,7084,7672,1452,952,592
5936,7084,7668,1456,952,596
5936,7088,7668,1456,952,596
5940,7092,7676,1456,956,596
5940,7096,7680,1456,952,596
5940,7096,7676,1456,952,596
5944,7100,7684,1456,956,596
5944,7100,7684,1456,956,596
5944,7104,7688,1456,956,596
5944,7100,7684,1452,952,596
5944,7100,7680,1452,952,596
5940,7092,7676,1456,952,596
5932,7080,7664,1456,952,596
5932,7076,7664,1452,952,596
5936,7076,7660,1452,952,596
5932,7072,7656,1452,952,592
5932,7068,7656,1452,952,592
5932,7068,7660,1452,952,592
5932,7068,7656,1452,952,592
5928,7064,7652,1452,952,592
5932,7072,7660,1456,952,596
5936,7072,7660,1456,952,596
5932,7072,7660,1456,952,596
5932,7072,7660,1452,952,596
5932,7076,7660,1452,952,596
5936,7076,7660,1452,952,596
5932,7076,7660,1452,952,592
5936,7080,7664,1452,952,592
5936,7080,7664,1452,952,596
5936,7084,7668,1452,952,596
5940,7092,7672,1452,952,592
5936,7092,7672,1456,952,596
5944,7100,7680,1452,952,596
5944,7104,7684,1452,952,596
5944,7112,7688,1452,952,596
5940,7108,7684,1456,952,596
5948,7116,7692,1452,952,596
5948,7120,7692,1452,952,596
5944,7120,7692,1456,956,596
5944,7112,7688,1456,956,596
5936,7104,7676,1456,952,596
5932,7096,7672,1452,952,596
5936,7096,7672,1456,956,596
5936,7092,7668,1452,952,596
5928,7084,7660,1452,952,596
5928,7080,7656,1452,952,596
5928,7076,7656,1452,952,596
5932,7084,7664,1452,952,592
5932,7084,7664,1452,952,592
5932,7080,7656,1452,952,592
5932,7084,7664,1452,952,592
5936,7084,7664,1452,952,596
5932,7080,7660,1452,952,596
5932,7084,7660,1452,952,596
5936,7092,7668,1452,952,592
5936,7092,7668,1452,952,596
5932,7088,7664,1452,952,596
5936,7092,7668,1452,952,596
5936,7100,7676,1456,952,596
5940,7100,7676,1456,952,596
5940,7104,7680,1452,952,596
5940,7108,7680,1452,952,596
5940,7112,7684,1456,956,596
5940,7116,7688,1456,952,596
5940,7116,7688,1452,952,596
5940,7120,7692,1452,952,592
5944,7120,7692,1452,952,596
5940,7120,7688,1452,952,596
5940,7116,7684,1452,952,596
5932,7104,7676,1452,952,596
5936,7104,7676,1452,952,596
5932,7096,7668,1452,952,596
5928,7088,7660,1456,952,596
5928,7084,7660,1452,952,592
5928,7080,7656,1452,952,592
5928,7080,7656,1452,952,592
5932,7084,7660,1452,952,592
5928,7080,7656,1452,952,592
5928,7076,7652,1452,952,592
5928,7080,7656,1452,952,592
5928,7080,7656,1452,952,592
5928,7080,7656,1452,952,592
5928,7080,7656,1452,952,592
5932,7084,7660,1452,952,592
5932,7084,7660,1452,952,592
5928,7084,7660,1452,952,592
5928,7084,7660,1452,952,592
5932,7088,7664,1452,952,592
5936,7096,7672,1452,952,596
5932,7092,7668,1452,952,592
5936,7100,7676,1456,952,596
5936,7108,7680,1452,952,592
5940,7108,7680,1452,952,592
5944,7116,7688,1452,952,592
5940,7116,7684,1452,952,592
5940,7116,7688,1452,952,592
5940,7116,7684,1452,952,592
5936,7108,7680,1452,952,596
5936,7104,7676,1452,952,596
5928,7092,7668,1456,952,596
5928,7088,7664,1452,952,592
5932,7088,7664,1452,952,592
5928,7084,7660,1452,952,592
5928,7080,7656,1452,952,592
5928,7076,7656,1452,952,592
5928,7076,7652,1452,952,592
5928,7080,7656,1452,952,592
5932,7084,7660,1452,952,592
5932,7088,7660,1452,952,592
5932,7088,7664,1452,952,592
5932,7088,7664,1452,952,592
5932,7088,7664,1452,952,592
5932,7088,7664,1452,952,592
5932,7092,7664,1452,952,592
5928,7088,7660,1452,952,592
5932,7088,7664,1452,952,592
5932,7092,7664,1452,952,592
5932,7096,7672,1452,952,592
5936,7100,7672,1452,952,592
5936,7104,7676,1452,952,592
5936,7108,7680,1452,952,592
5936,7112,7680,1452,952,592
5936,7112,7680,1452,952,592
5936,7112,7680,1452,952,596
5932,7108,7676,1452,952,596
5932,7104,7676,1452,952,592
5928,7096,7664,1452,952,592
5924,7088,7660,1452,952,592
5924,7088,7656,1452,952,592
5924,7080,7652,1452,952,592
5924,7076,7652,1452,952,592
5924,7080,7652,1452,952,592
5924,7076,7652,1452,952,596
5924,7076,7652,1452,952,596
5924,7076,7648,1452,952,592
5924,7076,7652,1452,952,592
5924,7080,7656,1452,952,592
5924,7076,7652,1452,952,592
5928,7080,7656,1452,952,592
5924,7080,7656,1452,952,592
5924,7080,7652,1452,952,596
5924,7080,7652,1452,952,592
5924,7080,7656,1452,952,592
5924,7084,7656,1452,952,592
5928,7092,7664,1452,952,596
5924,7088,7660,1452,952,596
5928,7096,7664,1452,952,592
5932,7100,7668,1452,952,596
5932,7104,7676,1456,952,596
5932,7108,7676,1456,952,596
5932,7108,7676,1456,952,596
5928,7108,7672,1456,952,596
5928,7100,7668,1452,952,596
5924,7092,7660,1452,952,596
5920,7084,7656,1452,952,592
5920,7080,7652,1452,952,592
5920,7080,7652,1452,952,592
5924,7080,7652,1452,952,592
5920,7076,7648,1452,952,596
5920,7072,7644,1452,952,592
5920,7068,7644,1452,952,592
5920,7072,7648,1452,952,592
5920,7072,7648,1452,952,592
5920,7072,7648,1452,952,592
5920,7076,7648,1452,952,592
5920,7076,7648,1452,952,592
5924,7076,7652,1452,952,596
5920,7076,7648,1452,952,592
5920,7072,7648,1452,952,592
5920,7076,7648,1452,952,596
5924,7080,7656,1452,952,592
5924,7088,7660,1452,952,592
5924,7084,7656,1452,952,592
5928,7092,7664,1452,952,592
5924,7092,7660,1452,952,592
5928,7096,7668,1452,952,596
5928,7100,7668,1452,952,596
5928,7100,7672,1452,952,596
5928,7100,7668,1452,952,596
5928,7100,7668,1452,952,596
5924,7088,7660,1452,952,596
5924,7084,7652,1452,952,592
5920,7080,7648,1452,952,592
5916,7072,7644,1452,952,592
5916,7068,7640,1452,952,592
5916,7064,7636,1452,952,592
5916,7064,7640,1452,952,592
5916,7064,7640,1452,952,592
5920,7064,7644,1452,952,592
5924,7072,7644,1452,952,592
5924,7072,7648,1452,952,592
5924,7072,7648,1452,952,592
5924,7072,7648,1452,952,592
5924,7072,7648,1452,952,592
5920,7068,7644,1452,952,592
5920,7072,7644,1456,952,596
5924,7076,7652,1452,952,596
5928,7080,7656,1452,952,592
5928,7080,7656,1452,952,592
5928,7084,7656,1452,952,596
5932,7092,7668,1452,952,592
5932,7096,7668,1452,952,596
5936,7100,7672,1452,952,592
5932,7100,7672,1452,952,596
5936,7108,7680,1456,952,596
5932,7100,7672,1456,952,596
5928,7096,7664,1452,952,592
5928,7088,7660,1452,952,592
5928,7084,7656,1452,952,592
5928,7084,7656,1452,952,592
5928,7076,7648,1452,952,592
5928,7076,7652,1452,952,592
5924,7072,7644,1452,952,592
5920,7064,7640,1452,952,592
5924,7064,7640,1452,952,592
5924,7064,7640,1456,952,592
5924,7068,7644,1452,952,592
5928,7068,7648,1452,952,592
5928,7072,7648,1452,952,592
5928,7072,7648,1452,952,592
5924,7064,7640,1452,952,592
5924,7064,7640,1452,952,592
5924,7064,7640,1452,952,592
5928,7072,7648,1456,952,596
5928,7072,7648,1452,952,592
5936,7088,7660,1452,952,592
5932,7080,7656,1452,952,592
5936,7088,7660,1456,952,596
5940,7092,7668,1452,952,592
5940,7096,7668,1452,952,592
5940,7100,7672,1452,952,592
5940,7100,7672,1456,952,592
5944,7100,7676,1456,952,596
5936,7092,7664,1452,952,592
5932,7080,7656,1452,952,592
5932,7072,7648,1452,952,592
5936,7076,7656,1452,952,592
5932,7072,7648,1452,952,592
5936,7072,7652,1452,952,592
5936,7072,7652,1452,952,592
5944,7076,7660,1452,952,592
5936,7068,7652,1452,952,592
5940,7072,7656,1452,952,592
5936,7068,7652,1452,952,592
5940,7076,7656,1456,952,592
5940,7076,7660,1452,952,592
5940,7076,7656,1456,952,592
5944,7080,7660,1456,952,592
5940,7076,7656,1456,952,592
5948,7084,7664,1452,952,592
5944,7084,7660,1452,952,592
5948,7092,7668,1452,952,592
5944,7088,7664,1456,952,592
5948,7096,7668,1456,952,592
5952,7104,7676,1456,952,596
5952,7108,7684,1452,952,592
5952,7112,7684,1456,952,592
5952,7112,7684,1452,952,592
5952,7116,7688,1452,952,592
5948,7112,7684,1456,952,592
5948,7108,7676,1456,952,592
5944,7104,7676,1456,952,592
5944,7100,7672,1452,952,592
5944,7100,7672,1452,952,592
5940,7092,7664,1456,952,592
5940,7092,7664,1456,952,596
5944,7100,7668,1452,952,592
5944,7100,7672,1452,952,592
5944,7096,7668,1452,952,592
5944,7100,7668,1456,952,592
5944,7100,7672,1456,952,592
5948,7108,7676,1456,952,592
5944,7104,7672,1452,952,592
5948,7112,7676,1452,952,592
5948,7108,7676,1452,952,592
5948,7116,7680,1456,952,592
5956,7124,7688,1456,952,592
5956,7128,7692,1456,952,592
5952,7128,7692,1456,952,592
5960,7140,7700,1456,952,592
5956,7136,7700,1456,952,592
5960,7148,7708,1456,952,592
5960,7152,7712,1456,952,596
5964,7156,7716,1456,952,596
5964,7160,7716,1456,952,596
5960,7160,7716,1456,952,596
5964,7164,7720,1456,952,596
5964,7160,7716,1456,952,596
5956,7152,7708,1456,956,596
5960,7152,7708,1456,956,596
5956,7144,7700,1456,952,596
5956,7144,7700,1456,952,596
5960,7148,7708,1456,952,596
5960,7148,7704,1456,956,596
5956,7148,7704,1456,952,596
5956,7148,7704,1456,952,592
5956,7144,7704,1456,952,596
5956,7152,7704,1456,952,596
5956,7148,7708,1456,952,596
5956,7152,7708,1456,956,596
5960,7156,7712,1456,956,596
5964,7164,7720,1456,952,596
5964,7164,7720,1456,952,592
5964,7168,7720,1456,956,596
5964,7172,7724,1456,956,596
5968,7176,7728,1456,956,596
5968,7180,7728,1456,952,596
5972,7188,7736,1456,956,596
5972,7192,7740,1456,956,596
5976,7200,7744,1456,956,596
5972,7196,7740,1456,956,596
5972,7204,7744,1456,956,596
5976,7208,7752,1456,956,596
5976,7208,7752,1456,956,596
5968,7200,7744,1456,956,596
5968,7200,7744,1456,956,596
5972,7196,7744,1456,956,596
5968,7192,7740,1456,956,596
5968,7188,7736,1456,956,596
5968,7192,7736,1456,956,596
5968,7188,7732,1456,956,596
5968,7188,7736,1456,956,596
5968,7188,7732,1456,956,596
5968,7192,7740,1456,956,596
5968,7192,7736,1456,956,596
5968,7192,7736,1456,956,596
5972,7204,7748,1456,956,596
5976,7204,7748,1456,956,596
5976,7208,7752,1456,956,596
5976,7212,7752,1456,956,596
5980,7216,7756,1456,956,596
5976,7212,7752,1460,956,596
5980,7220,7760,1460,956,596
5980,7228,7764,1456,956,596
5980,7228,7764,1456,956,596
5984,7236,7776,1460,956,596
5984,7240,7776,1460,956,596
5988,7244,7780,1460,956,596
5992,7256,7788,1460,956,596
5992,7256,7788,1460,956,596
5992,7260,7796,1460,956,596
5996,7264,7800,1460,956,596
5992,7260,7792,1460,960,596
5988,7252,7788,1460,960,596
5984,7248,7780,1460,956,596
5984,7244,7776,1460,956,596
5984,7244,7780,1460,956,596
5984,7240,7772,1460,956,596
5980,7236,7772,1460,956,596
5984,7236,7772,1460,956,596
5984,7236,7776,1460,956,596
5984,7236,7772,1460,956,596
5984,7240,7776,1460,956,596
5988,7240,7776,1460,956,596
5988,7244,7780,1460,956,596
5992,7252,7784,1460,956,596
5992,7252,7784,1460,960,596
5992,7256,7788,1460,960,596
5996,7264,7796,1460,956,596
5996,7264,7796,1460,956,596
5996,7268,7800,1460,960,596
5996,7272,7800,1460,960,596
6000,7276,7804,1460,956,596
6000,7284,7812,1460,956,596
6004,7288,7816,1460,956,596
6004,7292,7820,1460,960,596
6004,7292,7820,1460,956,596
6008,7300,7824,1460,960,596
6008,7300,7824,1460,960,596
6008,7308,7828,1460,960,596
6008,7308,7828,1460,960,596
6012,7316,7836,1460,960,596
6008,7308,7832,1460,960,596
6008,7304,7828,1460,960,596
6008,7300,7824,1460,960,596
6008,7300,7824,1460,960,596
6008,7296,7824,1460,960,596
6004,7296,7820,1460,960,596
6004,7292,7816,1460,960,596
6004,7292,7816,1460,960,596
6004,7292,7816,1460,960,596
6008,7300,7824,1460,960,596
6008,7300,7824,1460,960,596
6008,7300,7824,1460,960,596
6004,7304,7824,1460,960,596
6008,7304,7824,1460,960,596
6012,7312,7836,1460,960,596
6008,7308,7828,1460,960,596
6008,7308,7832,1460,960,596
6012,7316,7836,1460,960,596
6016,7324,7848,1460,960,596
6016,7328,7848,1460,960,596
6020,7328,7848,1460,960,596
6020,7336,7852,1460,960,596
6020,7336,7852,1460,960,596
6020,7340,7856,1460,960,596
6020,7340,7856,1460,960,596
6020,7344,7860,1460,960,596
6016,7344,7856,1460,960,596
6024,7352,7864,1460,960,596
6020,7352,7864,1460,960,596
6020,7348,7864,1460,960,596
6020,7348,7864,1460,960,596
6020,7340,7856,1460,960,596
6016,7336,7852,1460,960,596
6016,7332,7852,1460,960,596
6012,7328,7844,1460,960,596
6016,7324,7844,1460,960,596
6016,7324,7844,1460,960,596
6012,7320,7840,1460,960,596
6012,7320,7840,1460,960,596
6016,7324,7848,1460,960,596
6020,7332,7852,1460,960,596
6016,7328,7848,1460,960,596
6016,7324,7844,1460,960,596
6016,7328,7852,1460,960,596
6016,7332,7848,1460,960,596
6012,7324,7844,1460,960,596
6016,7328,7848,1460,960,596
6020,7336,7856,1460,960,596
6016,7336,7852,1460,960,596
6016,7336,7852,1460,960,596
6016,7340,7856,1460,960,596
6020,7344,7860,1460,960,596
6024,7352,7864,1460,960,596
6020,7352,7868,1460,960,596
6028,7360,7876,1460,960,596
6028,7364,7876,1460,960,596
6028,7368,7880,1460,960,596
6028,7368,7880,1460,960,596
6028,7368,7884,1460,960,596
6024,7364,7876,1460,960,596
6024,7360,7876,1460,960,596
6024,7356,7868,1460,960,596
6028,7356,7872,1460,960,596
6028,7356,7872,1460,960,596
6024,7352,7868,1460,960,596
6028,7352,7872,1460,960,596
6024,7348,7864,1460,960,596
6024,7348,7868,1460,960,596
6024,7348,7864,1460,960,596
6024,7352,7868,1460,960,596
6024,7352,7868,1460,960,596
6028,7352,7872,1460,960,596
6032,7360,7876,1460,960,596
6028,7356,7872,1460,960,596
6032,7364,7880,1460,960,596
6032,7364,7880,1460,960,596
6028,7360,7876,1460,960,596
6032,7368,7884,1460,960,596
6032,7372,7888,1460,960,596
6032,7372,7884,1460,960,596
6028,7372,7884,1460,960,596
6032,7376,7888,1460,960,596
6032,7376,7888,1460,960,596
6032,7380,7892,1460,960,596
6032,7384,7892,1460,960,596
6036,7388,7900,1460,960,596
6036,7392,7900,1464,964,600
6036,7388,7900,1460,960,596
6032,7384,7896,1460,960,596
6032,7384,7896,1460,960,596
6032,7376,7888,1460,960,596
6028,7368,7880,1460,960,596
6028,7364,7880,1460,960,596
6028,7364,7880,1460,960,596
6024,7356,7876,1460,960,596
6032,7368,7884,1460,960,596
6032,7364,7880,1460,960,596
6032,7364,7884,1460,960,596
6032,7364,7884,1460,960,596
6032,7364,7880,1460,960,596
6032,7368,7884,1460,960,596
6032,7364,7880,1460,960,596
6032,7368,7884,1460,960,596
6032,7368,7884,1460,960,596
6032,7368,7884,1460,960,596
6032,7368,7884,1460,960,596
6032,7372,7888,1460,960,596
6032,7372,7888,1460,960,596
6036,7380,7892,1460,960,596
6036,7380,7892,1460,960,596
6036,7384,7896,1460,960,596
6040,7388,7904,1460,960,596
6040,7388,7904,1460,960,596
6044,7400,7908,1460,960,596
6044,7400,7912,1464,964,600
6044,7408,7920,1460,960,600
6044,7408,7916,1460,960,596
6040,7404,7912,1460,960,596
6040,7404,7912,1460,960,596
6040,7396,7908,1460,960,596
6040,7392,7904,1460,960,596
6036,7388,7900,1460,960,596
6036,7380,7896,1460,960,596
6032,7376,7888,1460,960,596
6032,7376,7888,1460,960,596
6032,7372,7884,1460,960,596
6036,7376,7892,1460,960,596
6032,7372,7888,1460,960,596
6032,7372,7884,1460,960,596
6032,7368,7884,1460,960,596
6032,7372,7888,1460,960,596
6032,7368,7884,1460,960,596
6032,7372,7888,1460,960,596
6036,7376,7892,1460,960,596
6036,7380,7892,1460,960,596
6036,7380,7892,1460,960,596
6040,7384,7896,1460,960,596
6040,7384,7896,1460,960,596
6036,7384,7896,1460,960,596
6036,7388,7900,1460,960,596
6036,7384,7896,1464,960,600
6040,7392,7904,1460,960,596
6044,7404,7912,1460,960,596
6044,7404,7912,1460,960,596
6044,7408,7916,1460,960,596
6048,7412,7920,1464,964,600
6044,7412,7916,1464,964,600
6052,7420,7928,1460,960,600
6052,7420,7924,1460,960,596
6044,7412,7920,1460,960,596
6044,7412,7916,1460,960,596
6044,7408,7912,1464,964,600
6048,7412,7920,1460,960,596
6048,7404,7916,1460,960,596
6044,7400,7912,1460,960,596
6040,7396,7904,1464,964,600
6044,7396,7904,1460,960,596
6040,7392,7900,1464,964,600
6044,7396,7908,1460,960,600
6044,7396,7904,1464,964,600
6044,7400,7908,1460,960,600
6048,7400,7912,1464,964,600
6044,7400,7908,1464,960,600
6048,7404,7912,1464,964,600
6048,7404,7912,1460,960,596
6048,7404,7912,1460,964,600
6048,7404,7916,1460,960,596
6048,7408,7916,1460,960,600
6048,7408,7920,1464,964,600
6052,7412,7920,1464,964,600
6052,7416,7924,1460,964,600
6052,7416,7924,1464,964,600
6060,7428,7932,1464,964,600
6056,7424,7932,1464,964,600
6060,7432,7940,1464,964,600
6060,7436,7940,1464,964,600
6064,7440,7948,1464,964,600
6064,7440,7944,1464,964,600
6060,7440,7944,1464,964,600
6056,7432,7940,1464,964,600
6060,7436,7944,1464,964,600
6060,7436,7940,1464,964,600
6060,7428,7936,1464,964,600
6056,7420,7928,1464,964,600
6056,7416,7924,1460,960,600
6056,7412,7924,1460,960,600
6052,7408,7916,1460,960,596
6052,7404,7916,1460,960,600
6052,7404,7916,1460,960,600
6048,7400,7912,1460,960,600
6052,7404,7916,1464,960,600
6052,7404,7920,1464,960,600
6052,7404,7920,1464,964,600
6056,7404,7920,1464,964,600
6048,7396,7908,1464,964,600
6048,7396,7908,1464,964,600
6052,7400,7912,1464,964,600
6048,7396,7908,1464,964,600
6048,7396,7908,1464,964,600
6048,7400,7912,1464,964,600
6048,7396,7908,1464,964,600
6048,7400,7912,1464,964,600
6052,7408,7916,1464,964,600
6052,7408,7916,1464,964,600
6056,7412,7924,1464,964,600
6056,7420,7928,1464,964,600
6056,7420,7928,1464,964,600
6060,7424,7932,1464,964,600
6056,7420,7928,1464,964,600
6060,7432,7936,1464,964,600
6060,7428,7936,1464,964,600
6064,7428,7936,1464,964,600
6056,7416,7928,1464,964,600
6048,7400,7908,1464,964,600
6052,7404,7916,1464,964,600
6056,7404,7920,1464,964,600
6056,7404,7916,1464,964,600
6056,7404,7920,1464,964,600
6056,7404,7920,1464,964,600
6056,7404,7920,1464,964,600
6056,7400,7916,1464,960,600
6056,7400,7916,1464,964,600
6056,7400,7912,1464,964,600
6056,7400,7916,1464,964,600
6052,7400,7912,1464,964,600
6060,7404,7920,1464,964,600
6056,7404,7920,1464,964,600
6056,7404,7916,1464,964,600
6056,7408,7920,1464,964,600
6056,7404,7916,1464,964,600
6060,7408,7920,1464,964,600
6056,7408,7920,1464,964,600
6056,7408,7920,1464,964,600
6056,7412,7924,1464,964,600
6056,7412,7924,1464,964,600
6060,7420,7928,1464,964,600
6064,7424,7932,1464,964,600
6060,7424,7932,1464,964,600
6064,7428,7932,1464,964,600
6064,7428,7936,1464,964,600
6060,7424,7932,1464,964,600
6060,7416,7928,1464,964,600
6056,7408,7920,1464,964,600
6056,7408,7916,1464,964,600
6056,7400,7912,1464,964,600
6052,7396,7912,1464,964,600
6052,7392,7908,1464,964,600
6052,7388,7904,1464,964,600
6056,7388,7908,1464,964,600
6052,7388,7904,1464,964,600
6056,7392,7912,1464,964,600
6056,7392,7912,1464,964,600
6056,7388,7908,1464,964,600
6052,7388,7904,1464,964,600
6052,7384,7900,1464,964,600
6052,7384,7904,1464,964,600
6056,7388,7908,1464,964,600
6052,7384,7900,1464,964,600
6052,7384,7904,1464,964,600
6052,7384,7904,1464,964,600
6052,7384,7900,1464,964,600
6052,7388,7904,1464,964,600
6052,7388,7904,1464,964,600
6052,7388,7904,1464,964,600
6056,7400,7912,1464,964,600
6060,7400,7916,1464,964,600
6056,7400,7912,1464,964,600
6056,7404,7920,1464,964,600
6056,7404,7916,1464,964,600
6060,7408,7924,1464,964,600
6056,7404,7916,1464,964,600
6056,7404,7916,1464,964,600
6056,7400,7916,1464,964,600
6056,7392,7912,1464,964,600
6060,7392,7912,1464,964,600
6048,7376,7896,1464,964,600
6048,7372,7892,1464,964,600
6048,7368,7888,1464,964,600
6048,7364,7888,1464,964,600
6048,7364,7884,1464,964,600
6048,7360,7884,1464,964,600
6048,7360,7884,1464,964,600
6044,7360,7884,1464,964,600
6048,7356,7884,1464,964,600
6052,7368,7892,1464,964,600
6052,7364,7892,1464,960,600
6052,7364,7892,1464,964,600
6052,7364,7888,1464,964,600
6052,7364,7888,1464,964,600
6052,7364,7892,1464,964,600
6056,7372,7896,1464,964,600
6056,7372,7896,1464,964,600
6052,7368,7892,1464,964,600
6052,7372,7896,1464,964,600
6056,7380,7904,1464,964,600
6060,7384,7904,1464,964,600
6060,7388,7908,1464,964,600
6060,7388,7908,1464,964,600
6060,7392,7912,1464,964,600
6060,7392,7912,1464,964,600
6060,7388,7912,1464,964,600
6056,7384,7908,1464,964,600
6056,7380,7900,1464,964,600
6056,7372,7900,1464,964,600
6052,7364,7892,1464,964,600
6048,7356,7884,1464,964,600
6048,7352,7880,1464,964,600
6052,7352,7884,1464,964,600
6048,7348,7880,1464,960,600
6052,7348,7880,1464,960,600
6048,7344,7876,1464,964,600
6048,7340,7872,1464,964,600
6048,7344,7876,1464,960,600
6044,7340,7872,1464,960,600
6048,7340,7872,1464,960,600
6052,7344,7880,1464,960,600
6048,7340,7872,1464,964,600
6052,7348,7876,1464,960,600
6048,7340,7872,1464,960,600
6052,7348,7880,1464,960,600
6048,7348,7876,1464,960,600
6052,7348,7876,1464,960,600
6048,7344,7876,1464,964,600
6048,7348,7876,1464,964,600
6052,7352,7880,1464,964,600
6052,7356,7884,1464,960,600
6052,7356,7884,1464,964,600
6056,7360,7888,1464,960,600
6056,7364,7892,1464,960,600
6052,7360,7888,1464,960,600
6056,7364,7892,1464,960,600
6056,7356,7888,1464,960,600
6056,7348,7884,1464,960,600
6056,7344,7880,1464,960,600
6052,7336,7872,1464,960,596
6052,7328,7868,1464,960,600
6052,7324,7864,1464,960,600
6052,7324,7864,1464,960,600
6048,7320,7860,1464,960,596
6048,7316,7860,1460,960,596
6048,7312,7856,1464,960,596
6044,7308,7856,1464,960,596
6040,7304,7848,1460,960,596
6040,7304,7848,1464,960,596
6040,7300,7840,1464,960,596
6040,7300,7844,1464,960,596
6040,7304,7844,1464,960,596
6040,7300,7840,1464,960,596
6040,7300,7840,1464,960,596
6044,7304,7848,1460,960,596
6044,7308,7852,1460,960,596
6040,7304,7848,1464,960,596
6044,7312,7852,1460,960,596
6044,7312,7856,1464,960,596
6048,7320,7860,1464,960,596
6048,7320,7860,1464,960,596
6048,7320,7860,1464,960,596
6048,7324,7864,1464,960,596
6048,7320,7860,1464,960,596
6044,7316,7856,1464,960,596
6044,7308,7852,1464,960,596
6040,7300,7844,1464,960,596
6036,7288,7832,1464,960,596
6032,7280,7828,1460,960,596
6036,7280,7828,1464,960,596
6032,7272,7820,1460,960,596
6032,7272,7820,1460,960,596
6032,7268,7820,1460,960,596
6032,7272,7820,1464,960,596
6032,7268,7816,1460,960,596
6028,7268,7816,1460,960,596
6032,7272,7820,1464,960,596
6032,7268,7820,1460,960,596
6032,7268,7816,1460,960,596
6032,7268,7816,1464,960,596
6036,7272,7820,1460,960,596
6036,7276,7824,1464,960,596
6032,7272,7820,1464,960,596
6032,7272,7820,1460,960,596
6036,7276,7824,1464,960,596
6040,7284,7832,1464,960,596
6032,7276,7824,1460,960,596
6036,7284,7828,1464,960,596
6036,7288,7828,1464,960,596
6036,7288,7828,1464,960,596
6036,7288,7832,1460,960,596
6036,7284,7828,1464,960,596
6036,7284,7828,1460,960,596
6032,7272,7820,1464,960,596
6028,7264,7812,1460,960,596
6028,7260,7808,1460,960,596
6028,7252,7800,1460,960,596
6024,7244,7796,1460,960,596
6024,7244,7796,1460,956,596
6024,7240,7796,1460,956,596
6028,7240,7796,1460,956,596
6024,7236,7792,1460,960,596
6024,7236,7788,1460,960,596
6024,7236,7792,1460,960,596
6028,7240,7796,1464,960,596
6024,7232,7788,1460,960,596
6024,7236,7792,1464,960,596
6028,7236,7792,1460,960,596
6024,7236,7792,1460,960,596
6024,7236,7792,1460,960,596
6024,7236,7792,1460,960,596
6032,7244,7800,1460,960,596
6028,7244,7796,1460,960,596
6032,7248,7800,1464,960,596
6028,7248,7800,1464,960,596
6032,7252,7804,1464,960,596
6032,7256,7804,1460,960,596
6036,7260,7812,1464,960,596
6036,7260,7812,1464,960,596
6032,7260,7812,1464,960,596
6032,7256,7808,1460,960,596
6028,7248,7800,1464,960,596
6032,7240,7796,1460,960,596
6024,7228,7784,1460,960,596
6020,7220,7780,1460,960,596
6020,7216,7772,1460,960,596
6020,7212,7772,1464,960,596
6020,7212,7772,1460,956,596
6024,7212,7772,1464,960,596
6028,7216,7780,1460,956,596
6028,7216,7776,1464,960,596
6028,7220,7780,1464,960,596
6024,7212,7776,1460,960,596
6024,7212,7772,1460,956,596
6024,7212,7772,1460,956,596
6028,7216,7776,1464,960,596
6028,7220,7780,1460,956,596
6028,7216,7776,1464,960,596
6028,7220,7776,1464,960,596
6032,7224,7784,1464,960,596
6032,7224,7784,1464,960,596
6032,7232,7788,1464,960,596
6032,7236,7792,1464,960,596
6036,7240,7792,1464,960,596
6032,7236,7788,1464,960,596
6036,7244,7796,1464,960,596
6036,7244,7796,1464,960,596
6036,7244,7796,1464,960,596
6036,7244,7796,1464,960,596
6036,7240,7796,1464,960,596
6036,7232,7792,1464,960,596
6036,7228,7788,1464,960,596
6032,7224,7780,1464,960,596
6028,7216,7772,1464,960,596
6032,7216,7776,1460,956,596
6032,7212,7772,1460,956,596
6032,7216,7776,1464,960,596
6032,7216,7776,1464,960,596
6028,7208,7768,1464,960,596
6032,7212,7772,1464,960,596
6032,7212,7772,1464,960,596
6032,7216,7776,1464,960,596
6036,7220,7780,1464,960,596
6032,7212,7772,1460,956,596
6032,7216,7776,1464,960,596
6036,7220,7780,1464,960,596
6036,7224,7784,1464,960,596
6040,7228,7788,1464,960,596
6040,7232,7792,1464,960,596
6040,7232,7792,1464,960,596
6040,7236,7792,1464,960,596
6044,7240,7796,1464,960,596
6044,7240,7796,1464,960,596
6044,7244,7796,1464,960,596
6044,7248,7800,1464,960,596
6044,7248,7800,1464,960,596
6040,7248,7796,1464,960,596
6044,7248,7800,1464,960,596
6040,7236,7792,1464,960,596
6040,7232,7788,1464,960,596
6040,7228,7788,1464,960,596
6040,7224,7784,1464,960,596
6044,7228,7788,1464,960,596
6036,7216,7776,1464,960,596
6040,7212,7772,1464,960,596
6040,7216,7776,1464,960,596
6040,7216,7776,1464,960,596
6040,7212,7776,1464,960,596
6036,7212,7772,1464,960,596
6040,7212,7772,1464,960,596
6040,7216,7776,1464,960,596
6040,7216,7776,1464,960,596
6040,7216,7776,1464,960,596
6040,7216,7776,1464,960,596
6040,7216,7776,1464,960,596
6040,7220,7780,1464,960,596
6040,7220,7780,1464,960,596
6044,7224,7784,1464,960,596
6040,7224,7780,1464,960,596
6044,7232,7788,1464,960,596
6044,7232,7792,1464,960,596
6044,7236,7788,1464,960,596
6048,7240,7796,1464,960,596
6048,7240,7796,1464,960,596
6048,7248,7800,1464,960,596
6048,7244,7796,1464,960,596
6048,7244,7796,1464,960,596
6048,7236,7792,1464,960,596
6048,7232,7788,1464,960,596
6044,7224,7780,1464,960,596
6044,7220,7776,1464,960,596
6044,7216,7776,1464,960,596
6044,7216,7772,1464,960,596
6044,7216,7776,1464,960,596
6040,7212,7768,1464,960,596
6044,7216,7772,1464,960,596
6044,7216,7772,1464,960,596
6044,7220,7776,1464,960,596
6044,7216,7772,1464,960,596
6044,7216,7772,1464,960,596
6044,7224,7776,1464,960,596
6048,7224,7780,1464,960,596
6048,7228,7780,1464,960,596
6052,7236,7792,1464,960,596
6048,7236,7788,1464,960,596
6052,7236,7788,1464,960,596
6056,7244,7796,1464,960,596
6052,7244,7792,1464,960,596
6052,7248,7796,1464,960,596
6052,7248,7796,1464,960,596
6056,7256,7800,1464,960,596
6060,7264,7808,1464,960,596
6056,7264,7808,1464,960,596
6056,7264,7808,1464,960,596
6056,7264,7812,1464,960,596
6056,7264,7808,1468,960,596
6060,7260,7808,1464,960,596
6060,7260,7808,1464,960,596
6056,7248,7796,1464,960,596
6056,7248,7796,1464,960,596
6056,7244,7792,1464,960,596
6056,7244,7796,1464,960,596
6056,7240,7792,1464,960,596
6056,7240,7792,1464,960,596
6052,7240,7788,1464,960,596
6052,7236,7788,1464,960,596
6052,7240,7792,1464,960,596
6052,7240,7792,1464,960,596
6056,7244,7792,1464,960,596
6052,7240,7788,1468,960,596
6056,7248,7796,1464,960,596
6060,7252,7800,1468,964,596
6060,7256,7800,1464,960,596
6064,7260,7808,1468,964,596
6060,7260,7808,1464,960,596
6060,7260,7808,1468,964,600
6060,7268,7808,1464,960,596
6064,7268,7812,1464,964,596
6064,7272,7816,1464,964,596
6068,7284,7824,1468,964,600
6068,7288,7828,1468,964,596
6068,7288,7828,1468,964,596
6068,7292,7828,1464,964,596
6068,7292,7828,1464,964,596
6068,7288,7828,1468,964,600
6068,7284,7824,1464,964,600
6064,7276,7820,1468,964,596
6064,7272,7812,1468,964,600
6064,7272,7812,1468,964,600
6068,7272,7816,1464,964,596
6068,7272,7820,1468,964,596
6064,7264,7812,1468,964,600
6064,7264,7808,1468,964,596
6068,7268,7812,1464,964,596
6068,7268,7812,1464,964,596
6068,7272,7816,1468,964,600
6068,7272,7816,1468,964,596
6068,7272,7816,1468,964,600
6068,7272,7816,1468,964,600
6068,7272,7816,1464,964,596
6068,7276,7816,1468,964,600
6072,7280,7820,1468,964,600
6072,7280,7824,1468,964,600
6076,7288,7828,1468,964,600
6076,7292,7832,1468,964,600
6072,7288,7828,1468,964,600
6076,7296,7832,1468,964,600
6072,7292,7832,1468,964,600
6076,7300,7836,1468,964,600
6080,7304,7844,1468,964,600
6080,7308,7844,1468,964,600
6084,7320,7852,1468,964,600
6084,7320,7856,1468,964,600
6084,7320,7852,1468,964,600
6080,7320,7852,1468,964,600
6080,7316,7848,1468,964,600
6080,7312,7844,1468,964,600
6076,7304,7840,1468,964,600
6080,7304,7840,1468,964,600
6076,7296,7832,1468,964,600
6084,7304,7844,1468,964,600
6084,7304,7844,1468,964,600
6080,7300,7840,1468,964,600
6080,7300,7836,1468,964,600
6084,7304,7840,1468,964,600
6080,7300,7836,1468,964,600
6084,7304,7840,1468,964,600
6084,7304,7840,1468,964,600
6080,7300,7836,1468,964,600
6084,7308,7840,1468,964,600
6080,7304,7840,1468,964,600
6084,7308,7844,1468,964,600
6084,7312,7844,1468,964,600
6088,7316,7852,1468,964,600
6088,7320,7852,1468,964,600
6088,7320,7856,1468,964,600
6088,7324,7856,1468,964,600
6088,7324,7860,1468,964,600
6092,7328,7860,1468,964,600
6096,7336,7868,1468,964,600
6092,7336,7864,1468,964,600
6092,7336,7868,1468,964,600
6092,7340,7868,1468,964,600
6096,7344,7872,1468,964,600
6096,7344,7876,1468,964,600
6092,7336,7868,1468,964,600
6092,7332,7864,1468,964,600
6092,7328,7860,1468,964,600
6088,7324,7856,1468,964,600
6088,7316,7852,1468,964,600
6088,7316,7848,1468,964,600
6092,7316,7856,1468,964,600
6088,7316,7852,1468,964,600
6088,7312,7848,1468,964,600
6088,7312,7848,1468,964,600
6088,7308,7848,1468,964,600
6088,7312,7848,1468,964,600
6088,7312,7848,1468,964,600
6084,7308,7844,1464,964,600
6084,7308,7848,1468,964,600
6088,7312,7848,1468,964,600
6084,7308,7848,1464,964,600
6092,7316,7852,1468,964,600
6092,7320,7856,1468,964,600
6088,7316,7852,1464,964,600
6092,7320,7856,1464,964,600
6088,7320,7856,1464,964,600
6092,7328,7860,1468,964,600
6092,7332,7864,1468,964,600
6092,7332,7860,1464,964,600
6092,7336,7868,1468,964,600
6092,7340,7872,1464,964,600
6092,7340,7868,1468,964,600
6092,7340,7868,1468,964,600
6092,7336,7868,1464,964,600
6092,7332,7864,1468,964,600
6088,7328,7860,1468,964,600
6088,7324,7856,1468,964,600
6088,7320,7852,1468,964,600
6084,7312,7848,1468,964,600
6084,7312,7848,1468,964,600
6084,7312,7848,1468,964,600
6084,7312,7848,1468,964,600
6088,7316,7852,1468,964,600
6084,7312,7844,1464,964,600
6088,7316,7848,1468,964,600
6088,7316,7848,1468,964,600
6088,7316,7852,1468,964,600
6084,7316,7848,1468,964,600
6084,7316,7844,1468,964,600
6092,7324,7856,1468,964,600
6092,7324,7856,1468,964,600
6092,7328,7864,1468,964,600
6092,7332,7864,1468,964,600
6092,7336,7868,1468,964,600
6092,7332,7864,1468,968,600
6092,7336,7864,1468,964,600
6096,7344,7872,1464,964,600
6092,7344,7868,1468,964,600
6092,7348,7876,1468,964,600
6092,7348,7872,1468,964,600
6096,7356,7880,1468,964,600
6092,7352,7876,1468,964,600
6096,7352,7876,1468,964,600
6096,7352,7876,1468,964,600
6096,7344,7872,1464,964,600
6092,7340,7872,1468,964,600
6092,7336,7864,1464,964,600
6088,7328,7860,1464,964,600
6088,7324,7856,1468,964,600
6088,7324,7856,1468,964,600
6088,7324,7856,1464,964,600
6092,7332,7864,1468,964,600
6088,7324,7856,1468,964,600
6092,7332,7860,1468,964,600
6092,7328,7860,1464,964,600
6088,7328,7860,1464,964,600
6088,7328,7860,1464,964,600
6088,7328,7860,1468,964,600
6088,7332,7860,1468,964,600
6096,7340,7868,1468,964,600
6096,7340,7868,1468,964,600
6096,7344,7872,1468,964,600
6096,7348,7876,1468,964,600
6096,7352,7880,1468,964,600
6096,7352,7880,1468,964,600
6096,7352,7880,1468,964,600
6100,7360,7888,1468,968,600
6100,7368,7888,1468,964,600
6100,7368,7892,1468,964,600
6100,7368,7888,1468,964,600
6100,7368,7892,1468,964,600
6100,7368,7892,1468,964,600
6096,7360,7884,1468,964,600
6096,7360,7880,1468,964,600
6092,7352,7876,1468,964,600
6092,7348,7872,1468,964,600
6088,7344,7868,1464,964,600
6092,7344,7872,1468,964,600
6092,7340,7868,1468,964,600
6088,7336,7864,1464,964,600
6092,7340,7864,1464,964,600
6092,7340,7868,1464,964,600
6092,7340,7868,1464,964,600
6092,7344,7868,1464,964,600
6092,7344,7868,1468,964,600
6088,7340,7868,1468,964,600
6092,7344,7868,1468,964,600
6088,7344,7868,1468,964,600
6088,7344,7868,1468,964,600
6092,7348,7872,1468,964,600
6092,7352,7872,1468,964,600
6096,7360,7884,1468,964,600
6096,7364,7884,1468,964,600
6096,7360,7884,1468,964,600
6096,7368,7888,1468,964,600
6096,7372,7888,1468,964,600
6100,7376,7892,1468,968,600
6096,7376,7892,1468,964,600
6100,7380,7896,1468,964,600
6100,7384,7900,1468,964,600
6100,7388,7904,1468,964,600
6104,7392,7904,1468,964,600
6100,7388,7900,1468,964,600
6096,7380,7896,1468,964,600
6096,7376,7892,1468,964,600
6092,7368,7884,1468,964,600
6096,7372,7888,1468,964,600
6096,7368,7884,1468,964,600
6096,7372,7888,1468,964,600
6096,7368,7884,1468,964,600
6100,7372,7892,1468,964,600
6100,7372,7892,1464,964,600
6096,7372,7888,1464,964,600
6096,7368,7884,1468,964,600
6096,7372,7888,1468,964,600
6096,7372,7892,1468,964,600
6096,7372,7892,1468,964,600
6096,7376,7892,1468,964,600
6096,7372,7892,1468,964,600
6096,7372,7892,1468,964,600
6100,7380,7896,1468,964,600
6096,7380,7892,1468,964,600
6096,7380,7896,1468,964,600
6100,7388,7904,1464,964,600
6096,7384,7896,1464,964,600
6096,7388,7900,1468,964,600
6100,7392,7908,1464,964,600
6100,7392,7908,1464,964,600
6100,7396,7908,1468,964,600
6100,7400,7912,1468,964,600
6100,7404,7912,1468,964,600
6100,7396,7908,1464,964,600
6100,7396,7908,1468,964,600
6100,7396,7908,1468,964,600
6096,7384,7900,1468,964,600
6096,7384,7900,1468,964,600
6096,7376,7892,1464,964,600
6092,7372,7892,1468,964,600
6092,7372,7892,1464,964,600
6092,7364,7884,1468,964,600
6092,7368,7888,1464,964,600
6092,7364,7884,1464,964,600
6088,7360,7880,1464,964,600
6092,7368,7888,1464,964,600
6088,7360,7880,1464,964,600
6088,7364,7884,1464,964,600
6088,7364,7884,1464,964,600
6092,7368,7888,1464,964,600
6088,7368,7888,1464,964,600
6088,7368,7888,1464,964,600
6092,7372,7892,1464,964,600
6096,7376,7896,1464,964,600
6092,7376,7892,1464,964,600
6092,7380,7892,1464,964,600
6092,7380,7896,1468,964,600
6096,7384,7900,1464,964,600
6096,7392,7904,1464,964,600
6092,7388,7904,1464,964,600
6092,7392,7904,1464,964,600
6092,7392,7904,1464,964,600
6092,7392,7904,1464,964,600
6092,7388,7904,1464,964,600
6096,7392,7904,1464,964,600
6088,7380,7896,1464,964,600
6092,7384,7900,1464,964,600
6092,7380,7896,1464,964,600
6088,7372,7888,1464,964,600
6088,7372,7888,1464,964,600
6088,7368,7884,1464,964,600
6084,7364,7880,1464,964,600
6084,7364,7884,1464,964,600
6084,7368,7884,1464,964,600
6088,7368,7884,1464,964,600
6084,7368,7884,1464,964,600
6084,7368,7884,1464,964,600
6088,7372,7888,1464,964,600
6084,7372,7884,1468,964,600
6088,7376,7888,1468,964,600
6088,7372,7888,1468,964,600
6084,7376,7888,1468,964,600
6088,7380,7892,1468,964,600
6088,7380,7896,1468,964,600
6088,7384,7900,1468,964,600
6088,7388,7900,1468,964,600
6092,7392,7904,1468,964,600
6088,7392,7904,1468,964,600
6096,7400,7912,1468,964,600
6092,7400,7908,1468,964,600
6092,7404,7912,1468,964,600
6088,7396,7904,1468,968,600
6084,7392,7900,1468,964,600
6088,7388,7900,1468,964,600
6088,7388,7896,1468,964,600
6084,7380,7892,1468,964,600
6088,7380,7892,1468,964,600
6084,7376,7888,1468,964,600
6084,7372,7888,1468,964,600
6084,7372,7888,1468,964,600
6084,7372,7884,1468,964,600
6080,7368,7884,1468,964,600
6084,7372,7888,1468,964,600
6084,7376,7888,1468,964,600
6084,7372,7888,1468,964,600
6080,7372,7884,1468,964,600
6080,7372,7884,1468,964,600
6080,7372,7884,1468,964,600
6084,7376,7888,1468,964,600
6084,7376,7888,1468,964,600
6084,7380,7892,1468,964,600
6084,7380,7892,1468,964,600
6084,7384,7896,1468,964,600
6084,7388,7896,1468,964,600
6088,7388,7900,1468,964,600
6084,7388,7896,1468,964,600
6084,7392,7904,1468,964,600
6088,7396,7904,1468,964,600
6084,7396,7904,1468,964,600
6084,7392,7900,1468,964,600
6088,7400,7904,1468,964,600
6084,7392,7900,1468,964,600
6084,7392,7900,1468,968,600
6084,7388,7896,1468,964,600
6084,7384,7896,1464,964,600
6080,7380,7892,1468,964,600
6076,7376,7884,1464,964,600
6080,7376,7888,1468,964,600
6080,7376,7888,1464,964,600
6080,7376,7892,1464,964,600
6084,7376,7892,1464,964,600
6080,7372,7888,1464,964,600
6084,7380,7892,1468,964,600
6080,7376,7888,1464,964,600
6080,7376,7888,1464,964,600
6080,7380,7892,1464,964,600
6084,7384,7896,1468,964,600
6080,7380,7888,1468,964,600
6084,7384,7896,1464,964,600
6084,7388,7896,1464,964,600
6084,7392,7900,1464,964,600
6088,7396,7904,1464,964,600
6088,7400,7904,1464,964,600
6084,7396,7900,1468,964,600
6088,7404,7912,1468,964,600
6088,7408,7916,1468,964,600
6092,7412,7916,1464,964,600
6092,7416,7920,1468,964,600
6096,7424,7928,1468,964,600
6092,7420,7924,1464,964,600
6092,7424,7928,1468,964,600
6092,7420,7924,1468,964,600
6092,7416,7924,1468,964,600
6096,7416,7924,1468,964,600
6092,7412,7920,1464,964,600
6092,7408,7916,1464,964,600
6088,7404,7912,1464,964,600
6092,7408,7916,1464,964,600
6092,7404,7912,1464,964,600
6088,7404,7912,1464,964,600
6088,7400,7908,1464,964,600
6088,7400,7908,1464,964,600
6088,7400,7908,1464,964,600
6088,7400,7908,1464,964,600
6088,7404,7912,1464,964,600
6088,7404,7912,1468,964,600
6088,7404,7912,1464,964,600
6092,7408,7916,1468,964,600
6092,7408,7916,1464,964,600
6092,7408,7916,1468,964,600
6088,7408,7912,1468,964,600
6092,7416,7920,1464,964,600
6096,7420,7924,1464,964,600
6100,7428,7936,1464,964,600
6096,7424,7928,1468,964,600
6100,7428,7936,1464,964,600
6100,7436,7940,1468,964,600
6100,7436,7940,1468,964,600
6100,7436,7940,1464,964,600
6096,7432,7932,1464,964,600
6096,7432,7936,1464,964,600
6096,7432,7932,1468,968,600
6096,7424,7928,1468,968,600
6096,7424,7928,1464,964,600
6092,7416,7924,1468,964,600
6100,7424,7932,1464,964,600
6092,7412,7920,1464,964,600
6088,7408,7916,1464,964,600
6092,7408,7920,1464,964,600
6096,7412,7924,1464,964,600
6092,7412,7920,1464,964,600
6092,7412,7920,1464,964,600
6092,7412,7916,1468,968,600
6092,7412,7920,1464,964,600
6092,7412,7920,1464,964,600
6088,7412,7916,1468,964,600
6088,7412,7916,1464,964,600
6092,7420,7924,1468,968,600
6092,7416,7920,1468,964,600
6092,7420,7924,1464,964,600
6096,7424,7928,1468,968,600
6092,7428,7928,1468,968,600
6092,7428,7928,1468,968,600
6096,7432,7932,1468,968,600
6096,7432,7932,1468,968,600
6096,7440,7936,1468,968,600
6100,7444,7944,1468,968,600
6100,7448,7944,1468,968,600
6100,7448,7948,1468,968,600
6100,7452,7948,1468,968,600
6100,7448,7948,1468,968,600
6104,7448,7952,1468,968,600
6100,7440,7940,1468,968,600
6096,7436,7940,1468,968,600
6096,7436,7936,1468,968,600
6092,7428,7928,1468,968,600
6096,7428,7932,1468,968,600
6096,7428,7932,1464,968,600
6096,7428,7932,1468,968,600
6096,7428,7932,1468,968,600
6092,7424,7928,1464,968,600
6096,7432,7932,1468,968,600
6092,7420,7924,1468,968,600
6096,7428,7932,1468,968,600
6092,7424,7924,1468,968,600
6096,7428,7932,1468,968,600
6092,7428,7928,1468,968,600
6092,7432,7932,1468,968,600
6092,7428,7932,1468,968,600
6096,7436,7936,1468,968,600
6096,7436,7936,1468,968,600
6100,7444,7944,1468,968,600
6096,7444,7944,1468,968,600
6100,7452,7948,1468,968,600
6096,7448,7944,1468,968,600
6100,7452,7952,1468,968,600
6100,7456,7952,1468,968,600
6100,7456,7956,1468,968,600
6100,7460,7956,1468,968,600
6100,7460,7956,1468,968,600
6100,7456,7952,1468,968,600
6104,7456,7956,1468,968,600
6100,7452,7948,1468,968,600
6100,7448,7948,1468,968,600
6096,7440,7944,1468,968,600
6092,7432,7932,1468,968,600
6092,7432,7932,1468,968,600
6092,7432,7932,1468,968,600
6092,7428,7928,1468,968,600
6092,7428,7928,1468,968,600
6092,7424,7928,1468,968,600
6088,7420,7924,1468,968,600
6092,7424,7928,1468,968,600
6092,7428,7932,1468,968,600
6092,7428,7928,1468,968,600
6092,7428,7928,1468,968,600
6092,7428,7932,1468,968,600
6096,7432,7936,1468,968,600
6092,7432,7932,1468,968,600
6096,7436,7936,1468,968,600
6096,7440,7940,1468,968,600
6096,7444,7940,1468,968,600
6096,7444,7944,1468,968,600
6096,7444,7940,1468,968,600
6104,7456,7956,1468,968,600
6100,7456,7952,1468,968,600
6096,7452,7948,1468,968,600
6100,7456,7952,1468,968,600
6100,7460,7956,1468,968,600
6100,7456,7952,1468,968,600
6100,7456,7956,1468,968,600
6096,7452,7952,1468,968,600
6096,7448,7948,1468,968,600
6096,7440,7940,1468,968,600
6096,7440,7940,1468,968,600
6092,7432,7936,1468,968,600
6096,7432,7936,1468,968,600
6096,7436,7940,1468,968,600
6096,7432,7936,1468,968,600
6092,7428,7932,1468,968,600
6096,7432,7936,1468,968,600
6096,7432,7936,1468,968,600
6092,7424,7928,1468,968,600
6092,7428,7932,1468,968,600
6096,7436,7940,1468,968,600
6096,7436,7940,1468,968,600
6096,7436,7936,1468,968,600
6096,7436,7940,1468,968,600
6096,7436,7940,1468,968,600
6096,7436,7936,1468,968,600
6096,7440,7940,1468,968,600
6100,7448,7948,1468,968,600
6100,7448,7948,1468,968,600
6096,7448,7948,1468,968,600
6100,7456,7956,1468,968,600
6104,7460,7956,1468,968,600
6100,7460,7956,1468,968,600
6104,7464,7960,1468,968,600
6104,7468,7964,1468,968,600
6104,7468,7964,1468,968,600
6100,7464,7960,1468,968,600
6100,7456,7956,1468,968,600
6104,7460,7956,1468,968,600
6104,7456,7952,1468,968,600
6100,7444,7948,1468,968,600
6096,7440,7944,1468,968,600
6100,7444,7948,1468,968,600
6100,7440,7944,1468,968,600
6100,7440,7944,1468,968,600
6100,7440,7948,1468,968,600
6100,7440,7944,1468,968,600
6100,7440,7944,1468,968,600
6096,7436,7940,1468,968,600
6092,7428,7936,1468,968,600
6100,7436,7944,1468,968,600
6100,7440,7944,1468,968,600
6096,7436,7940,1468,968,600
6096,7436,7940,1468,968,600
6100,7440,7948,1468,968,600
6100,7444,7948,1468,968,600
6100,7440,7944,1468,968,600
6100,7444,7948,1468,968,600
6096,7440,7944,1468,968,600
6096,7440,7948,1468,968,600
6100,7444,7948,1468,968,600
6100,7448,7956,1468,968,600
6100,7448,7952,1468,968,600
6100,7448,7952,1468,968,600
6100,7452,7956,1468,968,600
6096,7444,7948,1468,968,600
6096,7444,7948,1468,968,600
6096,7440,7944,1468,968,600
6100,7440,7948,1468,968,600
6092,7424,7936,1468,968,600
6088,7420,7928,1468,968,600
6092,7420,7932,1468,968,600
6092,7420,7932,1468,968,600
6088,7412,7924,1468,968,600
6088,7408,7920,1468,968,600
6088,7408,7920,1468,968,600
6088,7408,7920,1468,968,600
6092,7416,7928,1468,968,600
6088,7412,7924,1468,968,600
6088,7412,7924,1468,968,600
6088,7412,7924,1468,968,600
6092,7412,7924,1468,968,600
6092,7416,7928,1468,968,600
6092,7420,7932,1468,968,600
6092,7420,7928,1468,968,600
6092,7420,7928,1468,968,600
6092,7420,7932,1468,968,600
6088,7416,7924,1468,968,600
6088,7420,7928,1468,968,600
6088,7420,7928,1468,968,600
6092,7428,7936,1468,968,600
6096,7432,7940,1468,968,600
6092,7432,7940,1468,968,600
6092,7432,7936,1468,968,600
6092,7428,7936,1468,968,600
6088,7420,7928,1468,968,600
6084,7416,7924,1468,968,600
6088,7416,7928,1468,968,600
6092,7416,7928,1468,968,600
6088,7408,7920,1468,968,600
6088,7404,7916,1468,968,600
6084,7400,7916,1468,968,600
6084,7396,7908,1468,968,600
6088,7400,7916,1468,968,600
6088,7404,7916,1468,968,600
6084,7396,7912,1468,968,600
6080,7388,7904,1468,968,600
6084,7396,7908,1468,968,600
6084,7400,7912,1468,968,600
6084,7396,7908,1468,968,600
6084,7396,7912,1468,968,600
6084,7396,7912,1468,968,600
6084,7404,7912,1468,968,600
6088,7404,7916,1468,968,600
6084,7404,7912,1468,968,600
6088,7408,7916,1468,968,600
6092,7416,7924,1468,968,600
6088,7412,7920,1468,968,600
6092,7420,7928,1468,968,600
6092,7424,7932,1468,968,600
6092,7424,7932,1468,968,600
6092,7420,7928,1468,968,600
6092,7420,7932,1468,968,600
6088,7416,7924,1468,968,600
6088,7412,7920,1468,968,600
6088,7408,7920,1468,968,600
6084,7400,7912,1468,968,600
6084,7396,7908,1468,968,600
6084,7396,7908,1468,968,600
6084,7396,7908,1468,968,600
6088,7396,7908,1468,968,600
6088,7396,7912,1468,968,600
6088,7396,7912,1468,968,600
6088,7396,7912,1468,968,600
6088,7396,7908,1468,968,600
6088,7396,7908,1468,968,600
6088,7392,7908,1468,968,600
6084,7392,7904,1468,968,600
6084,7392,7908,1468,968,600
6084,7388,7900,1468,968,600
6088,7396,7908,1468,968,600
6084,7396,7908,1468,968,600
6088,7404,7916,1468,968,600
6088,7400,7916,1468,968,600
6088,7404,7916,1468,968,600
6088,7404,7916,1468,968,600
6088,7408,7916,1468,968,600
6088,7412,7920,1468,968,600
6088,7412,7920,1468,968,600
6092,7416,7924,1468,968,600
6088,7412,7920,1468,968,600
6088,7412,7920,1468,968,600
6088,7412,7920,1468,968,600
6088,7404,7916,1468,968,600
6088,7404,7916,1468,968,600
6088,7400,7912,1468,968,600
6096,7404,7920,1468,968,600
6092,7400,7916,1468,968,600
6092,7396,7912,1468,968,600
6092,7396,7912,1468,968,600
6088,7396,7908,1468,968,600
6088,7396,7908,1468,968,600
6088,7392,7908,1468,968,600
6088,7392,7908,1468,968,600
6084,7392,7904,1468,968,600
6088,7392,7904,1468,968,600
6088,7392,7904,1468,968,600
6088,7396,7904,1468,968,600
6088,7392,7904,1468,968,600
6092,7400,7912,1468,968,600
6092,7404,7912,1468,968,600
6092,7404,7916,1468,968,600
6096,7412,7924,1468,968,600
6096,7412,7920,1468,968,600
6100,7420,7928,1468,968,600
6100,7420,7928,1468,968,600
6100,7424,7932,1468,968,600
6100,7428,7936,1468,968,600
6104,7432,7940,1468,968,600
6104,7432,7940,1468,968,600
6104,7432,7940,1472,968,600
6100,7428,7936,1468,968,600
6100,7424,7932,1468,968,600
6100,7420,7928,1468,968,600
6100,7420,7928,1468,968,600
6100,7416,7924,1468,968,600
6100,7416,7928,1468,968,600
6100,7416,7924,1468,968,600
6100,7416,7928,1468,968,600
6104,7416,7928,1468,968,600
6100,7416,7928,1468,968,600
6100,7416,7928,1468,968,600
6096,7412,7924,1468,968,600
6100,7416,7924,1468,968,600
6096,7412,7924,1468,968,600
6100,7416,7928,1468,968,600
6096,7412,7920,1468,968,600
6100,7412,7924,1468,968,600
6100,7416,7924,1468,968,600
6100,7420,7928,1468,968,600
6100,7424,7928,1468,968,600
6104,7428,7936,1468,968,600
6104,7428,7936,1468,968,600
6100,7424,7928,1468,968,600
6104,7432,7940,1468,968,600
6104,7432,7940,1468,968,600
6100,7432,7936,1468,968,600
6100,7436,7936,1468,968,600
6104,7436,7940,1468,968,600
6104,7440,7940,1468,968,600
6104,7440,7944,1468,968,600
6104,7440,7944,1468,968,600
6104,7440,7944,1468,968,600
6104,7432,7940,1468,968,600
6104,7432,7936,1468,968,600
6100,7424,7932,1468,968,600
6096,7420,7928,1468,968,600
6100,7420,7928,1468,968,600
6100,7420,7924,1468,968,600
6100,7424,7932,1468,968,600
6100,7420,7928,1468,968,600
6100,7420,7924,1468,968,600
6096,7416,7924,1468,968,600
6100,7420,7924,1468,968,600
6096,7416,7924,1468,968,600
6100,7420,7928,1468,968,600
6096,7416,7920,1468,968,600
6100,7420,7924,1468,968,600
6104,7424,7932,1468,968,600
6104,7428,7936,1468,968,600
6100,7428,7932,1468,968,600
6100,7428,7932,1468,968,600
6100,7428,7932,1468,968,600
6100,7432,7932,1468,968,600
6100,7432,7936,1468,968,600
6100,7436,7936,1468,968,600
6100,7436,7940,1468,968,600
6104,7444,7944,1468,968,600
6108,7452,7952,1468,968,600
6104,7448,7948,1468,968,600
6104,7448,7952,1468,968,600
6108,7448,7952,1468,968,600
6104,7448,7944,1468,968,600
6104,7440,7940,1468,968,600
6104,7436,7940,1468,968,600
6100,7432,7936,1468,968,600
6100,7428,7936,1468,968,600
6104,7436,7936,1468,968,600
6100,7428,7932,1468,968,600
6100,7428,7936,1468,968,600
6100,7424,7928,1468,968,600
6100,7428,7932,1468,968,600
6100,7424,7928,1468,968,600
6096,7424,7928,1468,968,600
6100,7428,7932,1468,968,600
6100,7428,7932,1468,968,600
6100,7428,7932,1468,968,600
6100,7428,7932,1468,968,600
6104,7432,7936,1468,968,600
6100,7432,7936,1468,968,600
6100,7432,7932,1468,968,600
6100,7436,7940,1468,968,600
6100,7436,7936,1468,968,600
6108,7448,7948,1468,968,600
6108,7448,7948,1468,968,600
6104,7448,7948,1468,972,600
6108,7452,7952,1468,968,600
6108,7456,7956,1468,968,600
6108,7456,7952,1468,968,600
6104,7452,7948,1468,968,600
6112,7464,7960,1468,968,600
6104,7456,7956,1468,968,600
6100,7452,7948,1468,972,600
6108,7456,7956,1468,972,600
6104,7448,7948,1468,972,600
6104,7448,7948,1468,972,600
6104,7444,7944,1468,972,600
6100,7440,7940,1468,972,600
6104,7440,7940,1468,968,600
6104,7436,7940,1468,968,600
6104,7436,7940,1468,968,600
6104,7436,7940,1468,968,600
6104,7432,7936,1468,968,600
6104,7432,7936,1468,968,600
6104,7432,7936,1468,968,600
6104,7436,7940,1468,968,600
6104,7436,7940,1468,968,600
6104,7432,7940,1468,972,600
6104,7436,7940,1468,968,600
6104,7432,7936,1468,972,600
6104,7436,7940,1468,968,600
6104,7436,7936,1468,968,600
6104,7440,7940,1468,968,600
6104,7444,7948,1468,968,600
6104,7444,7944,1468,968,600
6104,7444,7948,1468,968,600
6108,7448,7952,1468,968,600
6104,7448,7952,1468,968,600
6104,7448,7948,1468,968,600
6104,7452,7952,1468,972,600
6108,7456,7956,1468,972,600
6104,7456,7952,1468,972,600
6104,7456,7956,1468,972,600
6108,7460,7956,1472,972,604
6108,7460,7956,1468,972,604
6108,7460,7956,1468,972,600
6104,7448,7948,1468,968,600
6108,7456,7956,1468,968,600
6104,7448,7952,1468,968,600
6104,7440,7944,1468,968,600
6104,7444,7944,1468,968,600
6104,7440,7944,1468,972,604
6104,7436,7940,1468,972,600
6100,7432,7940,1468,972,604
6100,7432,7936,1468,968,600
6096,7424,7928,1472,972,604
6096,7428,7932,1468,968,600
6100,7428,7932,1468,968,600
6100,7428,7932,1468,968,600
6100,7428,7932,1468,968,600
6100,7428,7932,1468,972,604
6096,7428,7932,1468,968,600
6100,7432,7936,1468,968,600
6100,7432,7936,1468,968,600
6100,7432,7936,1468,972,604
6100,7432,7936,1468,972,600
6104,7444,7948,1468,972,600
6104,7444,7944,1468,972,600
6108,7448,7952,1468,968,600
6108,7452,7952,1472,972,604
6104,7448,7952,1468,972,604
6108,7452,7956,1468,972,604
6108,7456,7956,1468,972,600
6108,7460,7960,1468,972,604
6104,7456,7956,1472,972,604
6108,7460,7956,1472,972,604
6104,7460,7956,1468,972,600
6104,7456,7956,1468,968,600
6104,7460,7956,1468,972,600
6108,7460,7964,1468,972,604
6108,7456,7956,1468,972,600
6108,7452,7956,1468,972,600
6108,7452,7956,1468,972,604
6100,7440,7944,1468,968,600
6104,7444,7948,1468,968,600
6104,7440,7944,1468,968,600
6100,7436,7940,1468,968,600
6100,7436,7940,1468,968,600
6100,7436,7940,1468,968,600
6104,7436,7944,1468,968,600
6100,7436,7944,1468,968,600
6104,7440,7948,1468,968,600
6100,7436,7940,1468,968,600
6100,7436,7944,1468,968,600
6104,7440,7944,1468,968,600
6104,7440,7948,1468,968,600
6104,7440,7944,1468,968,600
6104,7440,7944,1468,968,600
6108,7448,7952,1468,968,600
6104,7440,7948,1468,968,600
6100,7440,7944,1468,968,600
6104,7444,7948,1468,968,600
6104,7448,7952,1468,968,600
6104,7448,7952,1468,968,600
6104,7452,7956,1468,968,600
6108,7456,7960,1468,968,600
6104,7456,7956,1468,968,600
6108,7460,7960,1468,968,604
6104,7456,7956,1468,968,600
6104,7456,7956,1468,968,600
6104,7452,7956,1468,968,600
6104,7444,7952,1468,968,600
6100,7440,7948,1468,968,600
6100,7436,7948,1468,968,600
6100,7432,7944,1468,968,600
6100,7428,7940,1468,968,600
6100,7428,7936,1468,968,600
6100,7428,7940,1468,968,600
6096,7424,7936,1468,968,600
6096,7420,7932,1468,968,600
6096,7424,7932,1468,968,600
6096,7424,7932,1468,968,600
6096,7424,7936,1468,968,600
6092,7420,7928,1468,968,600
6092,7416,7928,1468,968,600
6092,7420,7932,1468,968,600
6092,7416,7928,1468,968,600
6096,7420,7932,1468,968,600
6092,7420,7932,1468,968,600
6092,7424,7932,1468,968,600
6096,7424,7936,1468,968,600
6092,7424,7932,1468,968,600
6092,7428,7936,1468,968,600
6092,7428,7936,1468,968,600
6096,7432,7940,1468,968,600
6096,7436,7944,1468,968,600
6096,7440,7948,1468,968,600
6100,7440,7952,1468,968,600
6104,7452,7956,1468,968,600
6100,7444,7952,1468,968,600
6096,7436,7948,1468,968,600
6096,7428,7940,1468,968,600
6096,7428,7940,1468,968,600
6092,7420,7936,1468,968,600
6096,7424,7940,1468,968,600
6096,7416,7932,1468,968,600
6088,7408,7924,1468,968,600
6088,7404,7920,1468,968,600
6092,7408,7924,1468,968,600
6088,7400,7920,1468,968,600
6088,7396,7916,1468,968,600
6084,7396,7912,1468,968,600
6084,7396,7912,1468,968,600
6084,7396,7912,1468,968,600
6080,7392,7908,1468,968,600
6084,7392,7912,1468,968,600
6084,7392,7912,1468,968,600
6088,7400,7916,1468,968,600
6084,7392,7912,1468,968,600
6088,7404,7920,1468,968,600
6088,7404,7920,1468,968,600
6088,7404,7924,1468,968,600
6088,7404,7924,1468,968,600
6088,7404,7920,1468,968,600
6088,7408,7924,1468,968,600
6092,7412,7928,1468,968,600
6092,7416,7932,1468,968,600
6092,7412,7928,1468,968,600
6092,7416,7932,1468,968,600
6088,7412,7924,1468,968,600
6084,7404,7920,1468,968,600
6088,7404,7920,1468,964,600
6084,7396,7912,1468,968,600
6084,7392,7912,1468,964,600
6080,7384,7908,1468,968,600
6084,7380,7908,1468,968,600
6080,7376,7904,1468,964,600
6076,7368,7892,1468,964,600
6076,7364,7892,1468,964,600
6080,7368,7896,1468,964,600
6076,7360,7892,1468,964,600
6076,7360,7888,1468,964,600
6072,7356,7884,1468,964,600
6072,7356,7884,1468,964,600
6072,7352,7880,1468,964,600
6072,7356,7884,1468,964,600
6076,7360,7888,1468,964,600
6080,7360,7892,1468,964,600
6076,7360,7888,1468,964,600
6076,7360,7888,1468,964,600
6076,7360,7888,1468,964,600
6080,7360,7892,1468,964,600
6076,7360,7892,1468,964,600
6080,7364,7892,1468,964,600
6076,7360,7884,1468,964,600
6076,7360,7888,1468,964,600
6076,7360,7888,1468,964,600
6076,7364,7892,1464,964,600
6076,7368,7892,1468,964,600
6080,7368,7896,1468,964,600
6080,7368,7896,1468,964,600
6076,7360,7892,1468,964,600
6076,7356,7884,1468,964,600
6072,7348,7880,1468,964,600
6072,7340,7876,1468,964,600
6072,7336,7868,1468,964,600
6072,7332,7868,1468,964,600
6072,7332,7868,1464,964,600
6072,7328,7864,1468,964,600
6068,7324,7860,1464,964,600
6072,7328,7864,1464,964,600
6076,7328,7868,1464,964,600
6072,7324,7864,1468,964,600
6072,7320,7860,1464,964,600
6072,7320,7856,1464,964,600
6068,7316,7856,1468,964,600
6072,7324,7864,1468,964,600
6072,7324,7860,1464,964,600
6072,7320,7860,1464,964,600
6068,7316,7856,1468,964,600
6068,7316,7856,1468,964,600
6068,7316,7856,1464,964,600
6072,7320,7856,1464,964,600
6072,7324,7860,1468,964,600
6076,7328,7864,1468,964,600
6076,7332,7868,1468,964,600
6072,7328,7864,1468,964,600
6076,7336,7872,1468,964,600
6076,7336,7872,1468,964,600
6076,7336,7868,1468,964,600
6080,7340,7876,1468,964,600
6076,7336,7872,1468,964,600
6080,7336,7868,1468,964,600
6076,7328,7860,1468,964,600
6076,7324,7860,1468,964,600
6076,7320,7860,1464,964,600
6076,7316,7856,1468,964,600
6072,7308,7848,1464,964,600
6072,7304,7848,1464,964,600
6072,7304,7844,1468,964,600
6072,7300,7844,1468,964,600
6068,7300,7840,1464,964,600
6072,7300,7844,1468,964,600
6072,7300,7844,1468,964,600
6072,7304,7844,1468,964,600
6072,7300,7844,1468,964,600
6072,7300,7840,1468,964,600
6072,7300,7840,1464,964,600
6072,7300,7844,1468,964,600
6072,7300,7840,1468,964,600
6072,7304,7844,1468,964,600
6072,7304,7844,1468,964,600
6072,7300,7844,1468,964,600
6068,7300,7840,1468,964,600
6072,7308,7848,1468,964,600
6076,7308,7848,1468,964,600
6076,7312,7852,1468,964,600
6076,7316,7856,1464,964,600
6080,7320,7860,1464,964,600
6080,7320,7860,1468,964,600
6076,7316,7856,1468,964,600
6076,7312,7852,1468,964,600
6076,7312,7848,1468,964,600
6072,7300,7840,1468,964,600
6072,7300,7840,1468,964,600
6068,7292,7836,1468,964,600
6068,7288,7832,1464,964,600
6072,7288,7832,1464,964,600
6068,7284,7832,1464,964,600
6072,7284,7832,1468,964,600
6068,7280,7832,1464,964,600
6072,7284,7828,1464,960,596
6072,7280,7828,1464,964,600
6068,7280,7824,1468,964,600
6072,7284,7828,1464,960,600
6072,7284,7828,1468,964,600
6068,7280,7824,1464,964,600
6068,7280,7824,1464,960,596
6068,7276,7824,1468,964,600
6064,7276,7820,1468,964,600
6060,7272,7816,1464,964,600
6064,7276,7820,1464,964,600
6064,7280,7824,1464,964,600
6068,7284,7824,1464,964,600
6068,7288,7828,1464,964,600
6068,7292,7828,1464,964,600
6068,7296,7832,1468,964,600
6072,7300,7840,1468,964,600
6072,7304,7840,1468,964,600
6076,7308,7844,1468,964,600
6068,7300,7836,1468,964,600
6072,7304,7840,1464,964,600
6072,7296,7836,1464,964,600
6068,7288,7828,1468,964,600
6068,7284,7824,1464,964,596
6064,7280,7820,1464,964,596
6064,7276,7816,1464,964,596
6064,7272,7816,1464,964,600
6064,7276,7820,1464,960,596
6064,7276,7816,1464,960,596
6064,7276,7816,1464,960,596
6064,7272,7816,1464,960,596
6068,7276,7820,1464,960,596
6068,7276,7820,1468,964,600
6068,7276,7820,1464,960,596
6064,7276,7816,1468,964,600
6060,7272,7812,1468,964,600
6068,7280,7820,1464,960,596
6064,7276,7812,1468,964,600
6068,7280,7820,1468,964,600
6068,7284,7824,1468,964,600
6068,7284,7824,1464,960,596
6068,7288,7824,1464,964,596
6068,7292,7828,1464,964,596
6068,7292,7828,1464,964,600
6068,7296,7828,1468,964,600
6068,7300,7832,1468,964,600
6072,7304,7840,1468,964,600
6072,7304,7840,1468,964,600
6072,7308,7840,1468,964,600
6072,7308,7840,1468,964,600
6072,7308,7840,1468,964,600
6076,7308,7840,1468,964,600
6068,7296,7832,1468,964,600
6072,7292,7832,1468,964,600
6072,7288,7824,1468,964,600
6072,7288,7828,1464,964,596
6068,7284,7824,1464,964,600
6068,7280,7820,1468,964,600
6072,7284,7824,1468,964,600
6072,7284,7824,1464,964,596
6068,7280,7820,1464,960,596
6068,7280,7820,1464,964,596
6068,7280,7820,1468,964,600
6068,7280,7816,1468,964,596
6064,7276,7816,1468,964,600
6068,7280,7820,1464,964,596
6068,7280,7820,1464,964,596
6068,7280,7820,1468,964,600
6072,7292,7828,1468,964,596
6072,7288,7824,1468,964,600
6068,7288,7824,1468,964,600
6068,7292,7824,1468,964,600
6072,7296,7828,1468,964,596
6068,7296,7828,1468,964,600
6072,7300,7832,1468,964,600
6072,7304,7836,1464,964,596
6076,7308,7840,1464,964,596
6072,7308,7840,1468,964,600
6072,7312,7840,1464,964,596
6072,7304,7836,1468,964,600
6072,7304,7836,1464,964,596
6072,7300,7832,1468,964,600
6068,7296,7828,1468,964,600
6068,7292,7828,1464,964,600
6068,7292,7828,1468,964,600
6068,7288,7824,1464,964,596
6064,7280,7816,1464,964,596
6064,7280,7816,1468,964,600
6064,7280,7816,1468,964,600
6068,7284,7820,1468,964,600
6072,7284,7824,1468,964,596
6068,7284,7820,1464,964,596
6064,7280,7816,1468,964,600
6072,7288,7824,1468,964,596
6068,7284,7820,1468,964,600
6072,7288,7824,1468,964,596
6068,7284,7820,1468,964,600
6068,7284,7820,1468,964,600
6068,7288,7824,1468,964,596
6068,7292,7824,1468,964,596
6068,7292,7824,1468,964,600
6068,7296,7824,1468,964,600
6072,7300,7828,1468,964,600
6072,7300,7828,1468,964,600
6072,7304,7832,1468,964,600
6072,7308,7836,1468,964,600
6072,7312,7836,1468,964,600
6076,7316,7844,1468,964,600
6076,7316,7844,1468,964,600
6076,7320,7844,1468,964,600
6076,7316,7840,1468,964,600
6072,7312,7840,1464,964,600
6076,7312,7840,1468,964,600
6072,7304,7832,1468,964,600
6072,7304,7832,1464,964,596
6072,7300,7828,1468,964,600
6072,7296,7828,1464,964,596
6072,7296,7824,1464,964,596
6068,7292,7824,1464,964,596
6072,7296,7828,1464,960,596
6072,7292,7828,1468,964,600
6072,7292,7824,1464,964,596
6072,7296,7824,1468,964,600
6068,7292,7824,1468,964,600
6068,7292,7824,1468,964,600
6068,7292,7824,1468,964,600
6068,7292,7820,1468,964,600
6072,7296,7824,1468,964,600
6072,7296,7828,1468,964,600
6072,7300,7828,1468,964,600
6072,7300,7828,1468,964,600
6072,7300,7828,1468,964,600
6072,7304,7832,1468,964,600
6076,7312,7840,1464,964,596
6076,7312,7840,1468,964,600
6076,7316,7840,1468,964,600
6076,7316,7844,1468,964,600
6076,7320,7844,1468,964,600
6076,7316,7844,1468,964,600
6076,7312,7840,1468,964,600
6076,7312,7840,1468,964,600
6076,7308,7836,1468,964,600
6072,7300,7832,1468,964,600
6076,7304,7836,1464,960,596
6072,7296,7828,1464,964,600
6072,7292,7824,1464,960,596
6072,7288,7824,1464,960,596
6068,7284,7816,1464,960,596
6072,7288,7824,1464,960,596
6068,7284,7820,1464,960,596
6068,7284,7820,1464,960,596
6068,7280,7816,1464,960,596
6072,7284,7820,1464,960,596
6068,7284,7820,1464,960,596
6068,7284,7816,1464,960,596
6068,7284,7820,1464,960,596
6068,7284,7816,1464,960,596
6068,7284,7816,1464,960,596
6068,7284,7816,1464,960,596
6068,7288,7820,1464,960,596
6068,7292,7824,1464,960,596
6068,7292,7824,1464,960,596
6068,7296,7824,1464,960,596
6072,7300,7824,1464,960,596
6076,7304,7832,1464,960,596
6076,7308,7836,1464,960,596
6076,7308,7836,1464,960,596
6072,7304,7828,1464,964,596
6068,7296,7824,1464,964,596
6068,7292,7820,1464,964,596
6060,7284,7812,1468,964,600
6064,7280,7812,1464,960,596
6060,7276,7808,1464,960,596
6064,7276,7804,1464,964,596
6064,7276,7808,1464,960,596
6060,7272,7804,1464,960,596
6068,7280,7812,1464,960,596
6064,7276,7808,1464,960,596
6064,7276,7808,1464,960,596
6064,7276,7808,1464,960,596
6060,7272,7804,1464,960,596
6060,7272,7800,1464,960,596
6060,7272,7804,1464,960,596
6064,7276,7808,1464,960,596
6060,7276,7804,1468,964,600
6064,7276,7804,1464,960,596
6064,7284,7812,1464,960,596
6060,7280,7808,1468,964,596
6064,7284,7812,1464,960,596
6064,7288,7816,1464,960,596
6064,7284,7812,1464,964,596
6064,7288,7816,1464,964,596
6068,7296,7820,1464,960,596
6068,7296,7824,1468,964,600
6068,7300,7824,1468,964,600
6068,7296,7820,1468,964,600
6064,7292,7820,1468,964,600
6064,7288,7816,1468,964,600
6064,7280,7812,1468,964,600
6064,7280,7808,1468,964,600
6064,7276,7808,1468,964,600
6064,7276,7808,1468,964,600
6064,7272,7804,1468,964,600
6064,7276,7804,1464,960,596
6064,7276,7808,1468,964,596
6068,7276,7808,1468,964,600
6064,7272,7804,1468,964,600
6064,7272,7800,1468,964,600
6064,7272,7804,1468,964,600
6064,7272,7800,1468,964,600
6064,7276,7804,1468,964,600
6064,7276,7804,1468,964,600
6068,7280,7808,1468,964,600
6068,7284,7812,1468,964,600
6068,7284,7812,1468,964,600
6072,7288,7816,1468,964,600
6068,7284,7812,1468,964,600
6068,7292,7816,1468,964,600
6068,7288,7812,1468,964,600
6068,7292,7816,1468,964,600
6072,7296,7820,1468,964,600
6068,7300,7824,1468,964,600
6068,7300,7820,1468,964,600
6072,7304,7828,1468,964,600
6072,7304,7828,1468,964,600
6072,7296,7824,1468,964,600
6072,7296,7824,1464,964,596
6072,7296,7820,1468,964,600
6072,7292,7820,1468,964,596
6076,7292,7820,1464,964,596
6068,7284,7812,1468,964,596
6068,7280,7808,1464,960,596
6068,7284,7812,1464,964,596
6068,7280,7808,1464,964,596
6068,7280,7808,1464,960,596
6068,7280,7804,1464,960,596
6068,7280,7808,1464,960,596
6068,7280,7808,1464,964,596
6072,7284,7812,1468,964,596
6068,7284,7812,1464,964,596
6072,7288,7812,1468,964,596
6072,7288,7816,1468,964,600
6068,7288,7812,1468,964,600
6072,7292,7820,1468,964,596
6072,7292,7820,1464,964,596
6076,7296,7824,1464,964,596
6072,7296,7820,1468,964,596
6076,7304,7824,1468,964,600
6076,7308,7832,1468,964,600
6080,7312,7836,1468,964,600
6080,7316,7836,1468,964,600
6080,7316,7840,1468,964,600
6076,7316,7836,1468,964,600
6076,7312,7832,1468,964,600
6076,7312,7832,1468,964,600
6076,7304,7828,1468,964,600
6076,7304,7828,1468,964,600
6076,7304,7828,1468,964,600
6076,7304,7824,1468,964,600
6076,7300,7824,1468,964,600
6076,7304,7828,1468,964,600
6076,7300,7824,1468,964,600
6080,7304,7828,1468,964,600
6072,7300,7824,1468,964,600
6076,7300,7824,1468,964,600
6076,7304,7824,1464,964,600
6076,7304,7824,1464,964,600
6076,7304,7828,1468,964,600
6076,7308,7824,1468,964,600
6076,7308,7828,1468,964,600
6080,7312,7832,1468,964,600
6080,7316,7836,1468,964,600
6080,7316,7836,1468,964,600
6080,7320,7840,1468,964,600
6084,7324,7844,1468,964,600
6084,7328,7848,1468,964,600
6084,7328,7844,1468,964,600
6088,7332,7852,1468,964,600
6084,7332,7852,1468,964,600
6088,7340,7856,1468,964,600
6088,7340,7860,1468,964,600
6088,7344,7860,1468,964,600
6088,7340,7860,1468,964,600
6088,7340,7856,1468,964,600
6088,7336,7856,1468,964,600
6088,7336,7852,1468,964,600
6088,7336,7852,1468,964,600
6088,7332,7856,1468,964,600
6088,7332,7852,1468,964,600
6088,7332,7852,1468,964,600
6088,7328,7848,1468,964,600
6088,7324,7848,1468,964,600
6088,7328,7852,1468,964,600
6088,7328,7848,1468,964,600
6088,7328,7848,1468,964,600
6084,7324,7844,1468,964,600
6084,7324,7848,1468,964,600
6088,7328,7848,1468,964,600
6088,7332,7852,1468,964,600
6088,7332,7852,1468,964,600
6084,7328,7848,1468,964,600
6084,7328,7848,1468,964,600
6084,7328,7848,1468,964,600
6088,7336,7852,1468,964,600
6088,7336,7856,1468,964,600
6088,7340,7860,1468,964,600
6088,7340,7860,1468,964,600
6092,7348,7864,1468,964,600
6088,7348,7864,1468,964,600
6096,7356,7872,1468,964,600
6088,7348,7868,1468,964,600
6092,7352,7868,1468,964,600
6088,7348,7864,1468,964,600
6088,7348,7864,1468,964,600
6084,7340,7856,1468,964,600
6084,7340,7856,1468,964,600
6084,7336,7856,1468,964,600
6084,7332,7852,1468,964,600
6084,7332,7852,1468,964,600
6080,7328,7848,1468,964,600
6084,7332,7852,1468,964,600
6084,7332,7848,1468,964,600
6084,7332,7852,1464,964,600
6084,7332,7852,1468,964,600
6080,7332,7848,1468,964,600
6080,7332,7848,1468,964,600
6084,7336,7852,1468,964,600
6084,7336,7852,1468,964,600
6084,7336,7852,1468,964,600
6084,7340,7856,1464,964,600
6084,7344,7860,1468,964,600
6084,7344,7860,1468,964,600
6088,7352,7868,1468,964,600
6088,7352,7868,1468,964,600
6088,7356,7872,1468,964,600
6088,7360,7872,1468,964,600
6092,7364,7876,1468,964,600
6088,7364,7876,1468,964,600
6088,7364,7876,1468,964,600
6092,7368,7876,1468,964,600
6092,7368,7880,1468,964,600
6092,7372,7884,1468,964,600
6092,7368,7880,1468,964,600
6088,7360,7872,1468,964,600
6088,7356,7872,1468,964,600
6088,7356,7872,1468,964,600
6080,7348,7864,1468,964,600
6084,7352,7864,1468,964,600
6080,7348,7860,1468,964,600
6084,7348,7864,1468,964,600
6080,7344,7860,1468,964,600
6080,7348,7860,1468,964,600
6080,7344,7860,1468,964,600
6080,7348,7860,1468,964,600
6084,7352,7864,1468,964,600
6080,7348,7860,1468,964,600
6076,7348,7860,1468,964,600
6080,7352,7864,1468,964,600
6080,7352,7864,1468,964,600
6080,7352,7860,1468,964,600
6084,7360,7872,1468,964,600
6088,7368,7876,1468,964,600
6084,7364,7872,1468,964,600
6084,7368,7876,1468,964,600
6080,7368,7872,1468,964,600
6084,7372,7880,1468,964,600
6084,7376,7880,1468,964,600
6088,7380,7888,1468,964,600
6084,7380,7884,1468,964,600
6088,7380,7888,1468,964,600
6084,7376,7880,1468,964,600
6084,7372,7880,1468,964,600
6080,7372,7876,1468,964,600
6084,7372,7880,1468,964,600
6084,7372,7880,1468,964,600
6084,7368,7876,1468,964,600
6084,7368,7876,1468,964,600
6084,7368,7876,1468,964,600
6084,7364,7876,1468,964,600
6084,7368,7876,1468,964,600
6084,7364,7876,1468,964,600
6084,7364,7876,1468,964,600
6084,7368,7876,1468,964,600
6080,7364,7872,1468,964,600
6084,7368,7876,1468,964,600
6080,7368,7872,1468,964,600
6084,7372,7880,1468,964,600
6084,7376,7880,1468,964,600
6084,7376,7880,1468,964,600
6084,7384,7888,1468,964,600
6088,7388,7896,1468,964,600
6088,7392,7896,1468,964,600
6092,7400,7900,1468,964,600
6092,7400,7904,1468,964,600
6092,7400,7900,1468,964,600
6096,7412,7912,1468,964,600
6096,7416,7916,1468,964,600
6100,7420,7920,1468,964,600
6100,7420,7920,1468,964,600
6096,7416,7916,1468,964,600
6100,7420,7920,1468,968,600
6096,7416,7916,1468,964,600
6096,7416,7916,1468,964,600
6096,7412,7912,1468,964,600
6096,7412,7912,1468,964,600
6092,7408,7912,1468,964,600
6092,7412,7908,1468,964,600
6096,7416,7916,1468,964,600
6096,7412,7912,1468,964,600
6096,7416,7916,1468,964,600
6096,7416,7916,1468,968,600
6096,7420,7916,1468,964,600
6096,7420,7920,1468,964,600
6096,7424,7920,1468,964,600
6096,7424,7920,1468,964,600
6096,7424,7920,1468,964,600
6096,7428,7924,1468,964,600
6100,7432,7928,1468,964,600
6096,7432,7928,1468,964,600
6100,7440,7936,1468,964,600
6104,7444,7940,1468,968,600
6104,7448,7944,1468,964,600
6108,7456,7948,1468,964,600
6104,7452,7944,1468,964,600
6104,7452,7948,1468,964,600
6104,7456,7944,1468,968,600
6108,7464,7956,1468,964,600
6108,7460,7952,1468,964,600
6104,7460,7952,1468,964,600
6108,7460,7952,1468,964,600
6108,7460,7952,1468,964,600
6104,7452,7944,1468,964,600
6104,7452,7948,1468,964,600
6100,7448,7944,1468,964,600
6104,7452,7948,1468,964,600
6104,7452,7948,1468,964,600
6108,7456,7952,1468,964,600
6104,7452,7948,1468,964,600
6104,7452,7948,1468,964,600
6104,7456,7948,1468,964,600
6108,7456,7948,1468,964,600
6108,7460,7952,1468,964,600
6104,7456,7948,1468,964,600
6108,7464,7956,1468,964,600
6104,7456,7948,1468,964,600
6104,7464,7952,1468,964,600
6104,7464,7952,1468,964,600
6108,7472,7960,1468,964,600
6108,7472,7960,1468,964,600
6108,7472,7960,1468,964,600
6108,7476,7964,1468,964,600
6104,7476,7960,1468,964,600
6108,7480,7964,1468,964,600
6108,7484,7968,1468,964,600
6108,7484,7968,1468,964,600
6108,7484,7968,1468,964,600
6108,7484,7968,1468,968,600
6108,7484,7968,1468,968,600
6112,7488,7976,1468,964,600
6108,7488,7972,1468,964,600
6112,7488,7976,1468,964,600
6112,7488,7976,1468,964,600
6112,7484,7972,1468,964,600
6112,7488,7972,1468,964,600
6108,7484,7968,1468,964,600
6108,7484,7972,1468,964,600
6108,7484,7972,1468,964,600
6108,7480,7968,1468,968,600
6108,7480,7968,1468,968,600
6108,7480,7968,1468,968,600
6108,7480,7964,1468,964,600
6108,7484,7968,1468,964,600
6108,7484,7968,1468,964,600
6108,7488,7972,1468,968,600
6112,7492,7976,1468,964,600
6108,7492,7976,1468,964,600
6112,7496,7976,1468,968,600
6116,7500,7984,1468,964,600
6112,7496,7980,1468,968,600
6108,7500,7980,1468,964,600
6108,7496,7976,1468,964,600
6108,7500,7980,1468,968,600
6108,7504,7984,1468,964,600
6108,7504,7984,1468,968,600
6108,7508,7988,1468,968,600
6112,7508,7992,1468,964,600
6112,7508,7988,1468,968,600
6112,7504,7988,1468,968,600
6108,7500,7980,1468,968,600
6108,7496,7976,1468,968,600
6108,7496,7980,1468,968,600
6108,7496,7980,1468,968,600
6112,7500,7984,1468,964,600
6108,7496,7980,1468,968,600
6108,7492,7976,1468,964,600
6112,7496,7980,1468,968,600
6108,7496,7980,1468,968,600
6104,7492,7976,1468,968,600
6108,7492,7976,1468,964,600
6108,7492,7976,1468,964,600
6112,7500,7980,1468,968,600
6108,7496,7976,1468,964,600
6108,7496,7980,1468,968,600
6112,7504,7988,1468,964,600
6112,7504,7984,1468,968,600
6116,7508,7992,1468,964,600
6112,7504,7984,1468,968,600
6108,7504,7984,1468,964,600
6112,7504,7984,1468,968,600
6112,7508,7988,1468,968,600
6116,7512,7996,1468,964,600
6112,7512,7992,1468,964,600
6112,7512,7992,1468,968,600
6112,7516,7996,1468,968,600
6112,7512,7992,1468,968,600
6112,7512,7992,1468,968,600
6108,7504,7984,1468,968,600
6112,7508,7992,1468,968,600
6112,7504,7988,1468,968,600
6108,7504,7984,1468,968,600
6112,7504,7988,1468,968,600
6112,7504,7988,1468,968,600
6112,7504,7988,1468,968,600
6112,7504,7984,1468,968,600
6116,7508,7992,1468,968,600
6116,7508,7992,1468,968,600
6116,7504,7988,1468,968,600
6112,7500,7984,1468,968,600
6112,7504,7984,1468,968,600
6116,7508,7988,1468,968,600
6116,7508,7992,1468,968,600
6120,7512,7996,1468,968,600
6116,7512,7996,1468,968,600
6116,7516,7996,1468,968,600
6120,7516,7996,1468,968,600
6116,7516,7996,1468,968,600
6116,7516,8000,1468,968,600
6112,7512,7992,1468,968,600
6112,7516,7996,1468,968,600
6116,7524,8000,1468,968,600
6120,7524,8004,1468,968,600
6120,7528,8004,1468,968,600
6116,7528,8000,1468,968,600
6120,7528,8008,1468,968,600
6124,7532,8012,1468,968,600
6120,7528,8008,1468,968,600
6124,7532,8012,1468,968,600
6124,7532,8012,1468,968,600
6120,7524,8004,1468,968,600
6120,7520,8004,1468,968,600
6116,7516,7996,1468,968,600
6116,7512,7996,1468,968,600
6116,7516,7996,1468,968,600
6116,7512,7996,1468,968,600
6116,7508,7992,1468,968,600
6120,7516,8000,1468,968,600
6120,7512,7996,1468,968,600
6120,7512,8000,1468,968,600
6120,7508,7996,1468,968,600
6116,7504,7988,1472,968,600
6116,7504,7992,1472,968,600
6116,7508,7992,1468,968,600
6120,7508,7996,1468,968,600
6120,7508,7996,1468,968,600
6120,7508,7996,1468,968,600
6120,7512,7996,1468,968,600
6120,7512,7996,1468,968,600
6124,7516,8004,1468,968,600
6120,7516,8004,1468,968,600
6124,7520,8008,1468,968,600
6124,7520,8008,1468,968,600
6124,7520,8008,1468,968,600
6124,7520,8004,1468,968,600
6124,7516,8008,1468,968,600
6124,7512,8004,1468,968,600
6124,7512,8004,1468,968,600
6120,7504,7996,1468,968,600
6120,7500,7996,1468,968,600
6120,7500,7992,1468,968,600
6120,7492,7988,1468,964,600
6120,7496,7988,1468,964,600
6120,7492,7988,1468,964,600
6116,7484,7980,1468,964,600
6116,7484,7980,1468,964,600
6112,7480,7976,1468,968,600
6112,7480,7976,1468,968,600
6112,7476,7972,1468,964,600
6112,7480,7976,1468,968,600
6112,7476,7976,1468,968,600
6112,7476,7976,1468,968,600
6108,7472,7972,1468,968,600
6112,7476,7976,1468,968,600
6112,7476,7972,1468,964,600
6108,7476,7972,1468,964,600
6112,7480,7976,1464,964,600
6112,7484,7980,1468,964,600
6112,7484,7980,1464,964,600
6116,7484,7980,1468,964,600
6116,7484,7984,1468,964,600
6116,7484,7984,1468,964,600
6112,7484,7984,1468,964,600
6116,7484,7984,1468,964,600
6116,7484,7984,1468,964,600
6108,7472,7972,1468,964,600
6112,7472,7972,1468,964,600
6108,7464,7968,1468,964,600
6108,7460,7964,1468,964,600
6104,7452,7960,1468,964,600
6104,7452,7956,1468,964,600
6104,7448,7956,1468,964,600
6104,7448,7952,1464,964,600
6104,7444,7952,1464,964,600
6100,7440,7948,1464,964,600
6100,7440,7948,1464,964,600
6100,7440,7948,1468,964,600
6100,7440,7948,1464,964,600
6104,7440,7948,1464,964,600
6104,7440,7952,1468,964,600
6100,7436,7948,1468,964,600
6104,7440,7948,1464,964,600
6104,7440,7948,1468,964,600
6100,7436,7944,1468,964,600
6100,7436,7948,1468,964,600
6104,7444,7952,1468,964,600
6104,7444,7956,1464,964,600
6104,7448,7956,1464,964,600
6104,7448,7956,1468,964,600
6104,7448,7956,1468,964,600
6104,7444,7956,1464,964,600
6100,7440,7948,1464,964,600
6104,7444,7956,1464,964,600
6100,7432,7944,1464,964,600
6100,7428,7940,1468,964,600
6096,7420,7932,1464,964,600
6096,7412,7932,1464,964,600
6092,7408,7928,1464,964,600
6092,7408,7924,1464,964,600
6092,7404,7924,1464,964,600
6092,7404,7920,1464,964,600
6092,7400,7920,1464,964,600
6088,7396,7920,1464,964,600
6088,7396,7916,1464,964,600
6092,7400,7920,1464,964,600
6088,7392,7912,1464,964,600
6088,7392,7912,1464,964,600
6088,7388,7912,1464,964,600
6092,7392,7916,1464,964,600
6088,7392,7912,1464,964,600
6088,7392,7912,1464,964,600
6088,7392,7912,1464,964,600
6088,7396,7916,1464,964,600
6088,7396,7916,1464,964,600
6092,7400,7920,1464,964,600
6092,7400,7920,1468,964,600
6092,7400,7920,1464,964,600
6092,7400,7924,1468,964,600
6092,7400,7920,1464,964,600
6092,7396,7920,1464,964,600
6088,7388,7912,1464,964,600
6084,7380,7908,1464,964,600
6088,7384,7908,1464,964,600
6088,7376,7908,1464,964,600
6084,7372,7900,1464,964,600
6084,7368,7896,1464,964,600
6084,7364,7892,1464,964,600
6084,7360,7892,1464,964,600
6080,7356,7888,1464,964,600
6080,7356,7888,1464,964,600
6080,7356,7888,1464,964,600
6084,7356,7888,1464,964,600
6084,7356,7888,1464,964,600
6084,7356,7888,1464,964,600
6084,7356,7884,1464,964,600
6084,7360,7888,1464,964,600
6084,7360,7888,1464,964,600
6084,7360,7892,1464,964,600
6088,7368,7896,1464,964,600
6088,7368,7896,1464,964,600
6088,7372,7900,1464,964,600
6092,7376,7904,1464,964,600
6092,7380,7908,1464,964,600
6092,7380,7908,1464,964,600
6096,7384,7912,1464,964,600
6092,7384,7912,1464,964,600
6092,7380,7912,1464,964,600
6092,7380,7912,1464,964,600
6092,7376,7908,1468,964,600
6088,7368,7900,1464,964,600
6092,7364,7900,1464,964,600
6088,7356,7892,1464,964,600
6084,7348,7884,1468,964,600
6084,7344,7880,1464,964,600
6084,7340,7880,1464,964,600
6088,7344,7888,1464,964,600
6084,7336,7876,1464,964,600
6084,7332,7876,1464,964,600
6084,7332,7876,1464,964,600
6080,7328,7872,1464,964,600
6080,7324,7868,1464,964,600
6080,7320,7864,1464,964,600
6076,7316,7860,1464,964,600
6080,7324,7868,1464,964,600
6080,7320,7864,1464,964,600
6076,7316,7864,1464,964,600
6076,7316,7860,1464,964,600
6076,7316,7864,1464,960,600
6080,7320,7868,1464,960,600
6084,7320,7868,1464,964,600
6080,7316,7864,1464,964,600
6080,7320,7868,1464,964,600
6080,7316,7864,1464,964,600
6080,7320,7868,1464,964,600
6080,7324,7868,1464,964,600
6080,7320,7864,1464,964,600
6080,7320,7868,1464,964,600
6080,7316,7864,1464,964,600
6076,7308,7856,1464,964,600
6076,7304,7856,1464,964,600
6072,7296,7848,1464,964,600
6076,7296,7844,1464,960,600
6072,7288,7840,1464,964,600
6068,7284,7836,1464,960,600
6068,7280,7832,1464,960,600
6068,7280,7832,1464,960,600
6068,7276,7832,1464,960,600
6064,7272,7828,1464,960,600
6064,7272,7828,1464,960,600
6064,7272,7828,1464,960,600
6068,7272,7832,1464,960,600
6064,7272,7828,1464,960,596
6064,7268,7824,1464,960,600
6064,7268,7824,1464,960,596
6068,7272,7824,1464,960,600
6068,7272,7828,1464,960,600
6068,7272,7828,1464,960,600
6064,7272,7824,1464,960,600
6068,7276,7828,1464,960,600
6068,7276,7832,1464,960,596
6064,7272,7828,1464,960,596
6068,7276,7832,1464,960,600
6064,7276,7828,1464,960,596
6064,7276,7832,1464,960,596
6068,7280,7832,1464,960,600
6068,7276,7832,1464,960,600
