699003,992356,1237984,697947.13,990986.06,1236699.75
699773,992423,1237819,697961.38,990998.88,1236709.50
699939,992423,1237741,697987.69,991020.50,1236726.50
700097,993060,1238215,698025.13,991050.13,1236749.00
700318,993026,1238221,698073.44,991088.13,1236777.25
700378,992883,1238115,698132.19,991134.81,1236811.75
700274,993065,1238302,698200.13,991189.38,1236852.25
700780,993476,1238626,698276.25,991251.75,1236899.00
701085,993809,1238716,698361.13,991322.88,1236952.50
701099,993716,1238737,698455.19,991403.00,1237012.50
701427,994522,1239375,698558.13,991491.13,1237078.25
701532,994160,1238994,698669.63,991586.38,1237149.25
701579,994126,1239089,698788.88,991688.56,1237225.25
701940,994297,1239255,698915.13,991797.00,1237306.00
702029,994477,1239259,699047.38,991911.00,1237391.37
702222,994697,1239339,699184.25,992030.56,1237480.50
702519,994783,1239680,699326.69,992155.38,1237573.25
702585,995478,1239723,699475.00,992285.50,1237669.75
702745,995097,1239660,699628.13,992421.13,1237769.50
702737,995289,1239690,699785.38,992561.25,1237871.37
702946,995335,1240096,699946.25,992704.50,1237975.00
702533,995492,1240049,700109.06,992850.56,1238080.62
703303,995587,1240069,700272.63,992998.63,1238188.25
703037,995498,1240015,700437.38,993148.00,1238296.75
702636,995910,1240251,700602.50,993297.88,1238405.50
703000,995889,1240166,700766.50,993448.44,1238514.50
703501,995939,1240190,700928.88,993599.25,1238623.00
703390,996307,1240532,701090.00,993749.75,1238730.25
703938,996198,1240443,701250.19,993899.50,1238836.12
703743,996191,1240258,701409.94,994048.31,1238940.50
703501,996190,1240267,701567.94,994195.31,1239042.62
703570,995713,1240000,701722.19,994338.88,1239141.25
703523,995326,1239472,701871.81,994475.75,1239234.25
703177,994462,1238967,702015.50,994601.88,1239318.00
702702,993007,1237939,702150.63,994712.00,1239389.25
700880,991898,1237068,702271.50,994799.13,1239443.12
699366,991138,1236409,702368.56,994856.25,1239474.50
698199,990441,1235886,702432.94,994879.69,1239479.87
696688,989801,1235472,702458.88,994867.94,1239458.50
696386,989682,1235448,702443.38,994821.50,1239411.25
696244,989770,1235678,702386.38,994743.25,1239341.00
696088,990919,1236400,702291.13,994638.38,1239252.25
696256,990830,1236729,702162.00,994513.88,1239150.62
696570,990880,1236693,702005.06,994375.94,1239041.62
696846,991226,1237236,701826.75,994229.13,1238929.00
696657,991651,1237394,701632.00,994077.75,1238816.12
697028,991562,1237431,701424.69,993925.50,1238705.50
697610,991998,1237606,701210.00,993774.63,1238598.75
697646,992493,1238140,700993.00,993628.31,1238498.00
698081,992508,1238000,700777.69,993489.31,1238405.00
698753,992872,1238312,700568.25,993359.75,1238321.00
699109,993448,1239038,700369.50,993241.25,1238246.50
699699,993498,1238972,700185.25,993135.50,1238183.25
699725,993590,1238862,700018.00,993043.94,1238132.00
699728,993645,1239203,699868.25,992967.06,1238093.00
700646,993850,1239426,699735.50,992904.44,1238066.50
700810,993899,1239235,699621.31,992855.81,1238052.25
700604,993931,1239171,699527.38,992820.50,1238048.62
700735,994351,1239624,699453.00,992797.56,1238054.25
700690,994137,1239268,699396.38,992786.38,1238068.25
701069,993989,1239212,699356.56,992785.88,1238089.50
700868,994088,1239302,699332.88,992794.75,1238116.75
701009,994307,1239477,699322.88,992812.25,1238149.75
701047,994146,1239473,699324.25,992837.94,1238188.25
701423,994276,1239517,699337.56,992870.75,1238231.75
701454,994960,1239829,699363.38,992910.00,1238279.50
701693,994732,1239787,699400.56,992955.94,1238331.62
701886,994832,1239874,699449.50,993009.13,1238388.00
701866,995000,1240253,699510.13,993069.50,1238448.87
701964,995281,1240250,699581.00,993137.19,1238514.37
702508,995481,1240341,699661.88,993212.50,1238584.62
702578,995535,1240372,699753.25,993295.31,1238659.50
702629,996031,1240786,699854.63,993385.50,1238738.75
703011,996147,1240939,699964.88,993483.50,1238823.12
703134,996030,1240863,700084.06,993589.00,1238912.75
703338,996521,1241144,700211.75,993700.50,1239006.50
703680,996446,1241083,700347.56,993817.25,1239103.50
703694,996504,1241158,700491.25,993939.13,1239203.50
703791,996554,1241102,700641.75,994065.50,1239306.00
703836,996772,1241245,700797.19,994195.50,1239409.75
704047,996779,1241277,700956.31,994328.81,1239514.75
703613,996831,1241267,701117.94,994464.50,1239620.25
704094,997382,1241939,701280.50,994601.69,1239725.75
704150,997092,1241540,701443.88,994740.06,1239831.00
704495,997236,1241588,701608.38,994879.50,1239936.25
704635,997222,1241558,701774.25,995019.50,1240041.25
704564,997591,1241605,701941.19,995159.88,1240145.00
704787,997409,1241724,702108.00,995300.63,1240247.50
705066,997458,1241564,702274.75,995440.75,1240348.12
704792,997871,1242027,702441.25,995579.38,1240446.37
705150,997674,1242091,702606.50,995716.38,1240542.50
704874,997773,1241905,702769.75,995851.69,1240637.62
705000,997834,1242092,702930.00,995985.13,1240731.50
704904,997785,1242039,703086.25,996116.19,1240823.75
705148,997886,1242288,703238.06,996244.44,1240914.62
705351,997818,1241955,703386.00,996369.38,1241003.75
704966,997566,1241735,703530.13,996491.06,1241089.50
704887,996515,1241010,703669.25,996607.19,1241169.12
704651,995405,1240065,703801.00,996710.13,1241237.75
703852,993840,1239140,703922.50,996792.00,1241290.25
701395,992850,1238166,704026.13,996846.69,1241321.25
700173,992162,1237494,704100.69,996867.75,1241326.50
699023,991758,1237283,704137.94,996852.44,1241303.75
697748,991396,1237356,704133.00,996802.38,1241255.00
697681,991465,1237170,704083.81,996720.75,1241182.75
697348,991327,1237079,703992.88,996610.56,1241089.87
697564,991821,1237541,703865.00,996474.88,1240978.75
697251,991624,1237548,703705.13,996318.13,1240853.25
697767,991880,1237535,703518.25,996145.31,1240717.25
697954,992050,1237642,703310.56,995961.38,1240574.37
698190,992363,1237809,703087.50,995770.75,1240426.75
698743,992467,1237939,702853.75,995577.06,1240277.37
698620,992619,1237969,702615.44,995383.50,1240128.25
698824,993254,1238443,702376.38,995192.25,1239980.87
699444,993208,1238243,702139.94,995006.00,1239837.25
699823,993432,1238611,701911.00,994828.00,1239699.12
700083,993743,1239259,701693.38,994660.81,1239568.62
700319,994215,1239224,701489.50,994506.88,1239447.50
700639,994499,1239221,701301.06,994368.44,1239338.00
700764,994510,1239315,701129.56,994246.75,1239240.62
701141,994789,1239513,700975.38,994141.63,1239155.37
701400,994637,1239434,700839.06,994052.69,1239082.25
701634,994747,1239276,700722.13,993978.81,1239020.25
701607,994761,1240077,700625.25,993918.75,1238967.75
701907,994712,1239536,700547.38,993871.13,1238925.00
701760,994704,1239567,700487.88,993835.00,1238891.50
701887,994835,1239451,700445.13,993809.63,1238866.75
701893,995057,1239666,700415.06,993795.25,1238849.75
702074,994993,1239677,700394.25,993791.75,1238840.25
702152,995055,1239525,700385.38,993798.00,1238837.75
702657,995738,1240120,700391.19,993812.94,1238841.25
702569,995649,1239905,700411.81,993836.88,1238850.87
702842,995741,1239962,700446.50,993870.56,1238867.00
702982,995815,1240091,700494.38,993914.00,1238889.25
703526,996207,1240396,700555.38,993966.88,1238918.00
703738,996344,1240397,700629.94,994029.50,1238953.75
703933,996355,1240505,700718.25,994101.38,1238996.00
702921,996838,1240875,700819.25,994181.50,1239044.12
703782,996660,1240828,700930.88,994269.19,1239097.75
704251,996786,1240591,701051.25,994364.00,1239156.62
704600,996999,1240873,701180.75,994465.50,1239220.12
704618,997171,1240891,701319.50,994573.63,1239288.00
704667,997211,1241021,701466.19,994687.88,1239359.75
704895,997183,1241118,701619.38,994807.00,1239435.37
704809,997787,1241301,701778.50,994930.00,1239514.50
705404,997578,1241069,701943.25,995056.88,1239596.75
705464,997605,1241225,702113.50,995187.00,1239680.75
705540,997499,1241766,702288.31,995319.25,1239765.87
705422,997862,1241514,702466.06,995452.88,1239852.25
705230,998010,1241447,702644.38,995588.00,1239940.00
705517,997928,1241448,702821.63,995724.63,1240028.75
705231,998066,1241700,702994.44,995862.13,1240118.00
705241,998187,1241626,703159.06,996000.38,1240207.50
705711,998248,1241630,703318.00,996138.69,1240297.25
705996,998580,1241905,703475.56,996276.19,1240386.25
706151,998346,1242049,703632.81,996412.38,1240474.75
706368,998396,1241815,703790.13,996546.81,1240563.00
706287,998362,1241740,703947.38,996678.81,1240650.50
706353,998591,1241901,704103.06,996808.13,1240736.12
706647,998586,1241862,704256.25,996935.00,1240819.75
706715,998535,1241932,704408.13,997058.94,1240901.50
704753,998674,1241970,704558.50,997179.38,1240980.75
706228,998297,1241457,704705.63,997295.25,1241056.00
706353,997758,1241041,704847.50,997404.50,1241125.25
706083,996859,1239636,704983.00,997502.75,1241184.87
704880,995067,1238834,705108.88,997583.19,1241229.50
703317,993917,1238294,705217.69,997636.94,1241253.12
701885,993156,1237651,705300.13,997657.88,1241252.00
699334,992335,1236991,705347.63,997643.94,1241224.75
699206,992014,1236816,705353.88,997594.94,1241170.37
698932,991977,1236673,705315.94,997512.00,1241090.75
698439,991940,1237294,705235.38,997398.31,1240988.50
698357,992206,1236935,705115.25,997258.63,1240867.37
698531,992248,1236950,704960.25,997097.88,1240731.50
698565,992495,1237165,704776.13,996920.88,1240584.25
698967,992804,1237499,704565.13,996732.75,1240429.50
699148,992898,1237488,704330.13,996538.44,1240270.75
699552,992964,1237479,704081.50,996340.63,1240110.37
699705,993659,1238144,703828.38,996141.38,1239949.87
700170,993588,1237959,703575.38,995944.13,1239791.50
700530,993857,1238185,703327.00,995752.31,1239638.25
700866,994098,1238185,703087.25,995569.06,1239491.75
701285,994596,1238543,702857.31,995397.00,1239353.62
701612,994603,1238611,702638.25,995238.38,1239225.12
702067,994956,1238714,702435.44,995094.38,1239107.37
700770,995110,1239270,702252.25,994965.50,1239000.62
701935,995114,1239020,702087.88,994852.00,1238905.25
702235,995072,1238887,701941.81,994753.38,1238821.25
702352,995023,1238936,701814.75,994668.56,1238747.87
703082,995291,1239029,701707.56,994596.88,1238684.25
703024,995386,1238879,701621.56,994538.38,1238630.00
702897,995214,1238997,701555.81,994492.50,1238584.50
703112,995550,1239267,701508.00,994457.88,1238547.50
703341,995364,1239263,701477.13,994433.88,1238519.75
703218,995403,1238883,701462.69,994419.63,1238499.87
703528,995624,1239557,701463.63,994414.63,1238486.50
703645,995818,1239551,701479.13,994419.00,1238479.87
703917,996011,1239410,701509.00,994433.13,1238481.00
704260,995912,1239438,701553.06,994456.63,1238489.12
704093,996223,1239695,701608.31,994489.19,1238503.62
704664,996356,1239866,701671.63,994531.25,1238525.00
704971,996390,1239778,701746.50,994582.06,1238553.12
705012,997044,1240353,701835.63,994640.63,1238587.25
705478,997023,1240190,701938.38,994707.31,1238627.25
705393,996987,1240148,702053.94,994782.44,1238673.25
705537,997196,1240185,702180.88,994865.38,1238724.75
705466,997305,1240339,702315.25,994955.38,1238781.25
705700,997431,1240345,702453.81,995052.13,1238842.00
705941,997528,1240351,702598.13,995154.88,1238906.87
704750,997664,1240662,702749.75,995262.63,1238974.75
705966,997698,1240588,702907.81,995374.50,1239045.00
706491,997867,1240718,703070.94,995490.06,1239118.25
706474,997836,1240949,703239.00,995609.13,1239194.50
706748,998010,1240890,703411.56,995730.88,1239273.00
706567,998097,1240782,703587.50,995854.88,1239353.75
706996,998057,1240775,703765.63,995980.50,1239435.75
706689,998427,1241323,703945.19,996106.75,1239518.75
707196,998170,1240953,704125.13,996232.50,1239603.50
707170,998179,1240948,704305.38,996357.63,1239689.00
707088,998166,1241400,704485.38,996481.25,1239773.75
706818,998362,1241132,704662.88,996603.13,1239857.37
707049,998476,1240907,704836.38,996723.50,1239939.87
707179,998454,1241052,705005.50,996842.25,1240020.50
706977,998643,1241199,705167.88,996959.88,1240099.00
707419,998677,1241182,705321.56,997076.75,1240176.25
707433,998754,1241079,705469.63,997192.38,1240251.75
707558,998994,1240978,705614.94,997305.75,1240324.25
707642,998545,1240935,705757.38,997416.25,1240393.50
707481,998128,1240625,705896.38,997521.75,1240458.25
707570,997446,1240231,706031.13,997618.94,1240516.37
706554,995872,1238982,706158.81,997701.75,1240564.00
705983,994910,1238061,706273.94,997762.63,1240595.00
704733,994022,1237574,706371.63,997795.63,1240604.62
700929,992691,1236668,706445.38,997797.63,1240590.50
701095,992284,1236147,706485.88,997766.25,1240550.75
700876,991992,1236105,706485.63,997699.88,1240484.50
699780,992068,1236397,706442.75,997600.13,1240394.25
700062,992288,1236338,706358.75,997471.94,1240283.75
700444,992311,1236339,706238.63,997320.50,1240156.87
700302,992618,1236538,706089.31,997150.63,1240017.37
700881,993276,1237131,705915.75,996967.25,1239869.50
700951,993118,1236874,705723.38,996775.00,1239717.37
701292,993115,1236916,705518.44,996577.81,1239562.75
701534,993277,1237580,705306.38,996378.75,1239407.25
701444,993762,1237318,705091.00,996180.88,1239253.25
702129,993839,1237569,704875.63,995987.81,1239103.25
702259,994147,1237716,704664.44,995802.06,1238959.50
702736,994584,1237977,704458.75,995626.00,1238823.75
703003,994696,1238111,704259.75,995462.13,1238697.37
703407,994892,1238158,704072.88,995311.75,1238581.37
703720,995548,1238615,703902.81,995175.63,1238475.87
704053,995179,1238511,703751.38,995053.88,1238381.50
704392,995207,1238532,703620.00,994946.75,1238298.50
704563,995354,1238274,703509.31,994854.38,1238226.50
704645,995191,1238251,703416.94,994775.88,1238163.62
704682,995227,1238388,703339.88,994709.94,1238109.12
704818,995068,1238229,703279.69,994655.13,1238062.50
703535,995293,1238578,703237.38,994610.25,1238022.75
704404,995124,1238424,703210.56,994574.38,1237988.75
704848,995335,1238427,703197.00,994547.13,1237961.50
704934,995319,1238524,703196.44,994528.38,1237940.62
705283,995614,1238437,703209.13,994518.25,1237925.25
705500,995671,1238612,703235.25,994516.88,1237915.50
705553,995690,1238721,703274.63,994524.00,1237912.00
705656,996254,1239118,703325.63,994539.44,1237915.25
705893,996301,1238939,703387.31,994564.00,1237926.00
706292,996223,1239179,703459.94,994597.75,1237943.50
706556,996510,1239865,703544.50,994640.06,1237968.00
706539,996891,1239548,703640.75,994691.25,1237999.75
706980,996771,1239705,703747.69,994751.63,1238039.12
706794,996953,1239614,703864.63,994820.25,1238085.62
706792,997271,1239729,703987.56,994897.00,1238138.25
707176,997360,1239907,704113.31,994982.25,1238196.50
707332,997445,1239920,704244.31,995075.13,1238260.00
707467,997964,1240854,704382.50,995174.38,1238328.50
707527,997850,1240226,704527.00,995279.13,1238401.25
707838,997777,1240057,704677.00,995389.44,1238478.37
707712,997775,1239981,704831.63,995504.50,1238558.12
707658,997742,1240092,704987.00,995622.50,1238639.25
708103,997859,1240200,705139.56,995742.50,1238721.50
708162,997951,1240266,705292.75,995863.94,1238804.75
706992,997987,1240411,705448.94,995986.25,1238888.75
708128,997926,1240336,705606.75,996108.75,1238973.00
708113,997977,1240193,705764.50,996230.31,1239056.62
708196,998004,1240202,705921.19,996350.38,1239139.00
708495,998161,1240335,706076.50,996468.69,1239219.25
708661,998351,1240376,706231.06,996585.56,1239298.00
708728,998115,1240274,706385.13,996700.88,1239375.12
708435,998007,1240277,706538.13,996813.63,1239450.00
708533,997380,1239700,706689.00,996921.75,1239521.00
708334,996718,1239116,706835.75,997020.94,1239585.00
707738,995893,1238335,706975.50,997105.94,1239637.75
706025,994089,1237368,707102.44,997170.31,1239675.00
705152,993518,1236752,707208.13,997206.88,1239691.75
704165,992845,1236311,707286.19,997211.88,1239685.25
702135,992324,1236092,707330.44,997185.75,1239655.25
702145,992184,1235843,707335.44,997130.06,1239602.62
702007,992120,1235802,707301.69,997045.88,1239529.12
701874,992553,1236234,707233.13,996935.88,1239437.25
702170,992591,1236101,707134.25,996804.81,1239330.37
701982,992702,1236267,707009.75,996657.75,1239212.50
702381,992937,1236402,706864.13,996499.25,1239086.75
702347,993474,1236949,706699.63,996333.88,1238957.00
703049,993440,1236894,706519.25,996165.81,1238826.50
703336,993758,1237008,706331.56,995998.25,1238697.50
703305,994225,1237601,706144.06,995833.75,1238571.75
704029,994571,1237485,705960.63,995675.63,1238451.00
704632,994714,1237732,705785.06,995527.25,1238337.25
704785,994905,1238404,705620.88,995390.38,1238232.37
705297,995378,1238203,705470.44,995266.50,1238137.62
705504,995344,1238357,705335.88,995157.13,1238054.25
705719,995452,1238397,705218.25,995062.13,1237982.62
706085,995341,1238835,705118.19,994981.00,1237923.00
706134,995535,1238495,705035.94,994913.31,1237875.75
706068,995394,1238324,704970.88,994857.75,1237838.75
706511,995345,1238661,704922.50,994812.88,1237810.00
706255,995531,1238195,704890.06,994777.50,1237788.00
706295,995233,1238027,704871.94,994750.88,1237771.25
706490,995341,1238164,704866.63,994731.69,1237759.00
705931,995714,1238264,704872.63,994719.88,1237751.00
706393,995683,1238293,704888.06,994716.38,1237747.50
706863,995780,1238483,704912.88,994720.88,1237748.75
706997,996574,1238648,704948.50,994732.50,1237755.12
707106,996177,1238748,704994.88,994751.38,1237767.25
707420,996150,1238694,705051.63,994777.75,1237785.00
707366,996298,1238880,705118.38,994811.50,1237807.75
707458,996623,1239280,705191.38,994852.44,1237836.00
707942,996794,1239066,705267.94,994901.25,1237870.37
707497,996869,1239170,705350.81,994957.94,1237910.12
707644,997239,1239795,705441.06,995022.19,1237954.75
708320,997163,1239518,705538.38,995093.63,1238004.25
708921,997373,1239442,705644.75,995172.00,1238058.75
708811,997431,1239703,705761.38,995257.00,1238117.50
708798,997497,1239620,705886.75,995348.00,1238180.00
709009,997642,1239736,706019.13,995444.13,1238245.75
708776,997673,1239671,706157.00,995544.94,1238314.50
708861,997914,1240396,706298.06,995649.63,1238386.50
708993,997908,1240116,706440.50,995757.88,1238462.87
709210,997930,1239954,706584.56,995868.88,1238542.50
709245,997824,1240364,706730.63,995981.81,1238623.75
709343,998075,1240126,706878.06,996095.63,1238705.75
709717,998067,1240303,707026.75,996210.13,1238788.62
709661,998145,1240308,707176.94,996324.88,1238872.50
708941,998410,1240503,707327.50,996440.00,1238957.50
709708,998433,1240339,707477.13,996555.56,1239043.12
709904,998312,1240281,707625.56,996671.13,1239128.37
709672,998796,1240400,707772.50,996785.75,1239212.50
709678,998024,1239955,707916.44,996898.38,1239295.12
709325,997432,1239575,708055.75,997005.88,1239373.25
709282,996656,1238943,708188.63,997103.50,1239443.12
707805,994807,1237663,708310.50,997184.50,1239500.00
707177,993870,1236875,708414.75,997240.25,1239537.75
705773,993332,1236426,708495.56,997265.50,1239552.25
703985,992552,1235913,708547.69,997258.81,1239542.00
703715,992224,1235793,708565.81,997219.81,1239507.00
702548,992065,1235635,708546.00,997149.38,1239448.75
702640,992159,1236135,708486.94,997050.50,1239370.00
702966,992477,1236217,708392.50,996927.88,1239274.62
703176,992588,1236195,708269.13,996786.63,1239167.00
703360,992800,1236188,708123.00,996631.38,1239050.50
703751,993520,1236722,707959.06,996467.13,1238927.75
703935,993408,1236690,707782.38,996298.88,1238802.50
704298,993516,1236795,707598.13,996129.56,1238677.12
704350,993649,1237469,707410.88,995961.00,1238552.62
704694,994091,1237410,707223.63,995795.94,1238431.50
705221,994410,1237442,707040.25,995637.50,1238316.25
705811,994600,1237452,706865.13,995488.38,1238208.00
705717,995050,1237919,706702.06,995350.88,1238107.62
706401,995121,1237864,706553.25,995226.94,1238016.75
706686,995216,1238026,706420.63,995116.88,1237935.75
706848,995511,1238374,706305.13,995020.38,1237865.00
707139,995485,1238203,706207.44,994937.19,1237804.25
707149,995542,1238223,706127.50,994867.50,1237753.50
707293,995422,1238175,706064.63,994810.50,1237712.00
707476,995454,1238157,706017.00,994765.00,1237678.75
707310,995393,1238136,705982.69,994729.75,1237652.87
707590,995465,1238098,705961.75,994703.63,1237633.50
707647,995671,1238154,705954.88,994685.75,1237620.25
707881,995608,1238234,705961.63,994675.25,1237613.00
707757,995602,1238134,705981.13,994672.25,1237611.00
708050,995646,1238825,706012.00,994676.50,1237613.25
708425,995879,1238542,706054.38,994687.63,1237619.75
708498,995881,1238495,706108.50,994705.75,1237631.25
708447,996217,1238663,706173.63,994731.00,1237648.12
708379,996828,1239519,706247.00,994764.63,1237671.12
708967,996537,1239038,706327.13,994807.56,1237701.25
709024,996647,1238959,706415.63,994858.88,1237737.75
709227,996725,1239718,706513.00,994917.13,1237779.25
709180,996982,1239318,706618.44,994982.13,1237825.87
709426,996897,1239291,706730.75,995053.50,1237877.50
709534,997364,1239376,706849.38,995130.94,1237933.50
709107,997470,1239722,706972.25,995215.13,1237994.00
709579,997496,1239575,707096.94,995305.88,1238059.25
709914,997469,1239833,707224.38,995402.00,1238128.62
710236,997920,1239892,707356.50,995502.13,1238201.75
710248,997815,1239943,707493.69,995605.75,1238278.25
710517,997935,1239871,707635.38,995713.00,1238357.50
710243,997757,1239866,707780.50,995823.38,1238438.50
710497,997996,1239779,707927.19,995935.75,1238520.50
710142,997957,1239979,708073.38,996049.63,1238602.50
710260,997901,1239960,708218.06,996163.94,1238684.50
710510,998263,1240193,708361.13,996277.88,1238766.50
710605,998149,1239995,708503.44,996391.38,1238848.25
710750,998241,1240184,708644.69,996504.25,1238929.50
710778,998254,1240295,708784.63,996616.44,1239010.25
710913,998006,1240107,708922.88,996727.00,1239090.50
710802,997704,1239831,709059.13,996833.88,1239168.87
710519,997343,1239517,709191.88,996934.50,1239242.75
709610,995965,1238743,709316.94,997026.38,1239310.00
709268,994767,1237538,709429.38,997104.06,1239366.00
708107,993934,1236784,709525.25,997158.13,1239403.75
706839,993040,1236060,709599.38,997182.25,1239418.25
704182,991951,1235653,709642.13,997172.81,1239408.37
703705,991709,1235275,709643.88,997127.81,1239372.75
703453,991523,1235150,709602.38,997048.50,1239311.75
702357,991707,1235200,709519.94,996939.00,1239227.87
702791,991765,1235325,709398.88,996804.13,1239124.50
702737,991809,1235307,709243.56,996648.38,1239005.12
702968,992337,1235901,709059.31,996475.75,1238873.25
703174,992241,1235795,708852.00,996290.75,1238732.75
703500,992298,1235875,708627.75,996097.50,1238587.00
703940,992363,1235867,708392.44,995899.13,1238438.37
704003,992838,1235966,708150.50,995698.88,1238288.50
703906,992854,1236162,707904.63,995500.25,1238139.50
704409,992817,1236383,707658.50,995305.56,1237993.37
704688,993502,1236743,707417.13,995116.31,1237852.50
705083,993663,1236798,707184.44,994935.56,1237718.62
705443,993825,1236976,706963.63,994766.25,1237593.50
705954,993997,1237657,706757.88,994609.88,1237478.50
706294,994297,1237304,706570.13,994467.63,1237374.25
706573,994490,1237510,706402.13,994340.63,1237281.50
706892,994554,1237416,706255.13,994229.25,1237200.87
706277,994712,1237783,706127.13,994134.06,1237132.00
706877,994576,1237496,706014.81,994054.63,1237074.50
706988,994592,1237321,705919.75,993989.00,1237026.75
707270,994554,1237986,705844.00,993935.38,1236987.25
707045,994634,1237565,705786.63,993892.88,1236955.00
707406,994580,1237684,705746.25,993860.50,1236930.62
707367,994739,1237574,705722.06,993837.63,1236914.25
706835,994992,1237846,705712.00,993824.50,1236905.25
707540,995214,1237871,705713.94,993821.94,1236903.75
707854,995247,1237996,705728.50,993829.75,1236909.75
708269,995582,1238291,705757.00,993847.13,1236922.87
708051,995622,1238282,705799.38,993873.50,1236942.87
708712,995673,1238157,705854.94,993909.06,1236969.62
708624,995725,1238364,705923.50,993953.38,1237002.50
709002,995981,1238630,706003.88,994005.81,1237041.75
708418,996224,1238689,706093.50,994066.56,1237087.50
709046,996315,1238772,706191.13,994135.63,1237139.75
709384,996825,1239023,706297.88,994212.81,1237197.50
709601,996700,1238857,706415.13,994297.88,1237260.37
709599,996694,1238997,706541.75,994390.19,1237327.62
710059,996757,1239676,706676.75,994488.69,1237399.25
710356,996919,1239344,706820.38,994592.38,1237475.25
710255,997056,1239321,706972.38,994700.94,1237555.75
710519,997263,1239398,707131.19,994814.13,1237639.87
709964,997490,1239788,707293.00,994932.25,1237727.50
710699,997289,1239245,707454.44,995055.13,1237817.75
710963,997379,1239531,707618.13,995180.75,1237909.25
710808,997204,1239903,707786.38,995307.25,1238001.00
710776,997629,1239840,707957.25,995433.88,1238093.75
710782,997520,1239689,708128.81,995560.75,1238187.37
710958,997600,1239685,708300.00,995687.38,1238281.25
710954,997850,1239627,708470.44,995814.00,1238374.50
711301,997695,1239738,708640.38,995941.25,1238466.12
711093,997885,1239724,708809.00,996067.63,1238556.12
711314,998161,1240195,708975.50,996192.00,1238644.50
711273,998009,1240030,709139.00,996314.13,1238731.75
711544,997788,1239608,709299.63,996433.63,1238817.37
711444,997510,1239473,709457.06,996548.88,1238899.25
710971,996378,1238428,709610.19,996656.13,1238974.00
710285,995260,1237721,709755.50,996748.81,1239036.50
709052,994191,1236959,709886.88,996819.81,1239082.12
706066,992613,1235680,709996.38,996863.50,1239106.75
704813,991851,1235130,710073.25,996874.88,1239106.25
703882,991289,1234713,710106.13,996849.63,1239078.00
703271,991118,1234946,710090.13,996787.38,1239022.00
702541,990915,1234687,710026.00,996691.00,1238941.25
702612,990970,1234670,709916.00,996564.00,1238839.00
702459,991045,1234642,709765.06,996411.06,1238718.25
701919,991448,1235466,709575.81,996237.75,1238582.75
702436,991481,1235047,709350.94,996049.75,1238436.75
702776,991631,1235205,709099.63,995850.88,1238283.50
702449,991547,1235726,708830.38,995644.06,1238125.50
702741,991765,1235560,708547.13,995432.13,1237965.75
703232,991901,1235535,708254.94,995218.00,1237806.75
703512,992151,1235514,707959.88,995004.94,1237649.50
703382,992531,1235769,707665.50,994796.13,1237495.87
703987,992720,1236078,707374.63,994594.63,1237347.75
704272,992849,1236058,707092.00,994402.88,1237207.00
704737,993426,1236749,706822.13,994222.56,1237074.75
705050,993435,1236572,706568.38,994055.63,1236952.50
705360,993487,1236793,706333.25,993903.25,1236841.75
705458,993661,1236614,706118.25,993766.00,1236742.87
705661,993711,1236748,705923.25,993643.75,1236655.25
705657,993581,1236641,705747.88,993536.00,1236578.12
706050,993759,1236511,705592.63,993441.88,1236510.50
705824,993754,1236741,705458.13,993360.50,1236451.37
705878,993817,1236633,705343.38,993291.44,1236400.62
705892,993831,1236719,705246.25,993234.13,1236357.87
706283,993888,1236735,705166.00,993187.88,1236322.75
706439,994016,1236913,705102.88,993152.38,1236294.75
706623,994163,1236975,705057.00,993127.38,1236274.62
706928,994131,1237025,705028.13,993112.56,1236262.00
706489,994857,1237539,705012.63,993108.25,1236257.50
707217,994660,1237579,705006.50,993115.50,1236263.00
707450,994840,1237600,705013.81,993133.75,1236278.00
707624,995036,1237943,705038.00,993162.50,1236300.87
707910,995423,1237858,705078.38,993201.88,1236331.25
708202,995477,1237882,705134.75,993252.25,1236369.00
708371,995596,1238020,705206.81,993313.25,1236413.62
708813,995849,1238218,705293.38,993384.25,1236464.75
708942,995875,1238301,705393.69,993465.25,1236522.75
709036,996052,1238457,705507.50,993554.88,1236587.00
709450,996478,1238730,705634.38,993652.13,1236656.87
709148,996511,1238579,705772.88,993756.50,1236732.00
709565,996443,1238619,705921.19,993867.94,1236811.50
709864,996594,1238815,706078.56,993985.50,1236895.25
709967,996732,1238945,706244.38,994108.38,1236983.00
709922,996808,1238912,706416.88,994235.94,1237074.50
710266,996786,1238854,706595.13,994367.19,1237168.75
710298,997101,1239177,706778.56,994500.94,1237264.25
709829,997086,1239070,706965.00,994636.69,1237361.00
710459,997002,1238964,707152.31,994773.94,1237458.25
711068,997230,1239083,707341.88,994911.94,1237555.50
710975,997374,1239347,707535.13,995050.63,1237652.87
710870,997431,1239275,707730.88,995189.88,1237750.50
711032,997405,1239246,707927.13,995329.06,1237848.00
710759,997982,1240029,708119.88,995468.25,1237945.12
711223,997847,1239633,708305.75,995608.25,1238043.00
711329,997879,1239590,708488.25,995748.63,1238141.25
710681,997714,1239447,708668.63,995887.69,1238238.62
711285,997022,1239088,708844.94,996022.88,1238333.50
710906,996285,1238253,709016.63,996149.44,1238422.00
710372,995179,1237504,709181.75,996261.50,1238499.12
707479,993273,1236099,709334.50,996353.00,1238558.75
706057,992329,1235513,709463.69,996417.00,1238594.75
704708,991684,1235034,709555.63,996446.13,1238604.25
703787,991010,1234774,709602.13,996437.38,1238586.87
702115,990833,1234371,709599.19,996391.69,1238542.87
702298,991022,1234627,709545.25,996311.75,1238474.62
702348,990933,1234468,709444.44,996202.00,1238385.50
702042,991110,1234612,709302.88,996067.13,1238278.75
701941,991217,1234526,709125.31,995911.63,1238157.25
702263,991385,1234911,708916.88,995740.13,1238024.25
702317,991522,1235143,708683.75,995556.44,1237883.25
702266,991515,1235101,708431.25,995363.50,1237736.75
702768,991713,1235087,708164.25,995165.00,1237587.50
702882,991824,1235120,707888.38,994964.25,1237437.62
703165,992137,1235456,707608.50,994764.50,1237289.00
703655,992440,1235542,707329.38,994568.88,1237143.75
703677,992514,1235626,707055.19,994380.25,1237003.87
703788,993541,1236529,706786.19,994201.31,1236871.00
704662,993371,1236265,706523.38,994035.38,1236747.75
704966,993600,1236354,706274.31,993884.38,1236635.25
705154,993619,1236753,706044.63,993748.56,1236533.75
705458,993771,1236550,705835.63,993628.00,1236443.50
705500,993726,1236682,705647.88,993522.25,1236364.37
705528,993700,1236676,705481.00,993430.38,1236296.75
705458,993764,1236288,705333.88,993351.69,1236239.00
705798,993619,1236478,705205.75,993285.25,1236189.50
705730,993760,1236485,705096.25,993229.88,1236147.62
705596,993885,1236727,705004.13,993184.44,1236113.12
705665,993903,1236582,704927.38,993148.63,1236085.75
706038,993826,1236656,704865.63,993122.06,1236065.25
706144,994010,1236583,704819.25,993104.25,1236051.12
706634,994322,1236857,704787.50,993095.38,1236043.25
706638,994373,1236991,704769.88,993096.06,1236042.00
707057,994645,1237387,704767.75,993106.38,1236048.25
707651,995187,1237656,704782.25,993126.63,1236062.62
707784,995224,1237639,704814.25,993157.38,1236085.25
707894,995302,1237667,704863.50,993199.00,1236116.25
708193,995395,1237735,704929.63,993251.25,1236154.87
708769,995824,1237989,705012.25,993313.63,1236201.00
709011,995986,1238090,705112.13,993386.50,1236254.50
709283,996011,1237992,705228.88,993469.69,1236314.75
708566,996622,1238759,705357.88,993562.38,1236381.12
709119,996373,1238503,705493.75,993664.13,1236454.12
709856,996344,1238290,705638.63,993773.75,1236533.00
709609,996504,1238870,705795.63,993889.63,1236616.12
709873,996571,1238545,705963.00,994010.94,1236702.75
710162,996830,1238568,706139.44,994137.13,1236792.62
710176,996698,1238592,706324.13,994267.50,1236884.87
710080,996901,1238772,706514.88,994401.00,1236979.25
710542,996923,1238840,706709.81,994536.88,1237075.25
710433,996958,1238739,706908.63,994674.38,1237172.75
710421,997186,1239253,707110.00,994812.19,1237270.75
710284,997052,1238910,707311.81,994949.50,1237368.50
710728,997208,1238889,707512.75,995086.13,1237466.12
710707,997276,1239061,707712.75,995222.13,1237563.00
710982,997358,1239175,707911.69,995357.13,1237659.50
710792,997531,1239378,708108.63,995491.19,1237755.75
711053,997351,1239062,708302.75,995623.75,1237851.75
710809,997064,1238655,708494.38,995753.88,1237945.87
710668,996276,1238192,708682.63,995878.63,1238035.50
710320,995472,1237471,708863.94,995992.31,1238115.87
709228,994470,1236769,709033.31,996088.50,1238182.25
706391,992554,1235451,709181.13,996159.88,1238229.25
704875,991851,1234620,709293.56,996198.75,1238251.25
703717,991288,1234281,709361.13,996201.50,1238245.25
701138,991268,1234635,709377.13,996168.88,1238212.00
701949,990889,1234256,709337.75,996103.63,1238155.50
701866,990795,1234169,709247.56,996008.38,1238077.37
701777,990893,1234668,709113.88,995886.38,1237980.50
702067,991320,1234647,708942.88,995742.88,1237868.75
701992,991375,1234598,708741.00,995583.06,1237746.00
702381,991604,1234663,708514.25,995411.50,1237614.75
702295,991743,1234870,708267.00,995232.19,1237477.50
702628,991850,1235038,708003.00,995048.50,1237337.25
702506,991987,1235013,707728.50,994863.06,1237196.37
702848,992290,1235437,707448.75,994678.00,1237056.12
703237,992400,1235449,707168.31,994495.56,1236918.25
703748,992638,1235480,706892.25,994318.75,1236785.00
703841,992913,1235858,706624.75,994150.44,1236658.50
704064,993375,1235840,706368.13,993993.13,1236540.25
704742,993469,1236189,706125.13,993849.13,1236431.50
705523,993595,1236176,705900.31,993719.25,1236333.12
705227,993946,1236453,705698.00,993603.88,1236245.25
705329,993737,1236459,705518.25,993503.00,1236168.00
705543,993676,1236199,705359.25,993415.75,1236101.25
705501,993603,1236155,705219.75,993340.56,1236043.37
705671,993440,1236221,705099.13,993275.94,1235993.37
705653,993499,1236136,704996.38,993220.50,1235950.62
705621,993580,1236190,704910.50,993173.69,1235914.50
704819,994598,1236741,704837.13,993136.19,1235885.00
705786,993983,1236413,704772.88,993109.00,1235862.75
705936,994173,1236533,704720.75,993092.00,1235847.50
706099,994296,1236644,704683.63,993084.88,1235839.00
706777,994599,1236835,704662.13,993087.69,1235836.75
707167,994679,1236891,704658.13,993100.81,1235841.75
707008,994791,1237014,704672.00,993124.00,1235853.75
707373,995117,1237357,704700.38,993156.88,1235873.37
707629,995189,1237272,704741.13,993199.38,1235900.75
708174,995340,1237474,704796.88,993251.31,1235935.50
708269,995814,1237809,704870.00,993312.56,1235977.50
708639,995794,1237857,704959.88,993383.13,1236026.50
708738,995882,1238040,705065.75,993462.81,1236083.25
708742,995952,1237919,705185.88,993550.81,1236147.00
709163,996365,1238259,705318.31,993646.69,1236217.00
709164,996323,1238271,705462.00,993750.38,1236293.25
709727,996452,1238342,705616.63,993861.00,1236375.00
709808,996690,1238726,705782.63,993977.50,1236461.75
710032,996717,1238440,705959.38,994099.25,1236552.50
710186,996703,1238490,706145.38,994225.38,1236646.62
710097,996754,1238402,706338.69,994355.00,1236743.00
710482,996948,1238789,706536.88,994487.25,1236841.00
710477,997025,1238681,706738.19,994621.75,1236940.87
710546,996984,1238488,706942.63,994757.88,1237041.75
708511,997667,1239110,707146.38,994895.31,1237142.62
710382,997419,1238981,707345.06,995034.50,1237244.50
710455,997243,1238841,707540.25,995174.63,1237346.75
710517,997020,1238387,707733.88,995313.25,1237448.25
710404,996196,1237948,707924.81,995447.13,1237545.75
709653,995224,1237198,708110.31,995570.38,1237634.75
708788,994185,1236538,708285.13,995676.50,1237710.37
705191,992263,1234952,708439.00,995759.81,1237766.75
704347,991666,1234438,708557.50,995814.25,1237798.00
703477,991199,1234365,708632.13,995834.38,1237801.75
703119,991047,1234458,708661.25,995818.88,1237779.75
701837,990842,1234090,708644.63,995770.38,1237734.25
701703,990931,1234346,708582.38,995692.25,1237667.87
701675,991021,1234021,708477.25,995588.38,1237584.00
701491,991283,1234405,708334.06,995463.69,1237485.25
701517,991452,1234355,708157.19,995322.81,1237374.75
701714,991559,1234528,707952.44,995170.13,1237255.50
702092,991862,1235220,707726.38,995008.81,1237129.75
702365,991970,1234900,707485.25,994842.38,1237000.50
702775,991948,1234933,707235.25,994673.75,1236870.50
702738,992266,1234916,706981.13,994505.63,1236741.50
702902,992806,1235378,706724.56,994341.31,1236615.00
703483,992930,1235534,706467.75,994184.19,1236493.75
703967,993048,1235652,706217.50,994036.38,1236379.50
702931,994147,1236430,705977.19,993899.19,1236274.25
704470,993814,1236230,705747.38,993774.88,1236180.00
704512,993746,1236179,705532.31,993664.81,1236097.00
705145,993810,1236322,705336.06,993568.50,1236024.25
705537,993961,1236210,705161.00,993485.31,1235961.25
705665,993846,1236090,705008.69,993414.88,1235906.87
705075,993771,1235941,704877.75,993356.00,1235860.25
704930,993695,1236256,704762.13,993307.25,1235820.50
705470,993622,1236107,704658.00,993267.63,1235787.75
705553,993706,1236164,704569.00,993235.75,1235761.37
705709,994158,1236305,704497.69,993211.13,1235741.25
705681,994054,1236339,704443.25,993194.25,1235727.25
706222,994132,1236449,704405.38,993185.38,1235719.50
706159,994225,1236412,704384.13,993184.56,1235717.75
706484,994673,1236813,704378.75,993192.13,1235722.12
707074,994952,1236749,704389.50,993209.25,1235733.00
707237,994963,1236956,704417.56,993236.63,1235750.50
707226,995396,1237707,704463.13,993273.63,1235774.50
707817,995364,1237506,704525.56,993319.88,1235805.12
707954,995661,1237511,704604.44,993375.56,1235843.62
708215,995689,1237392,704698.81,993441.00,1235889.62
708386,996059,1237851,704805.38,993515.88,1235942.25
708493,996134,1237751,704921.00,993600.00,1236001.50
708846,996111,1237816,705047.31,993692.56,1236067.00
707711,996767,1238772,705184.13,993793.19,1236138.62
708900,996526,1238219,705328.13,993902.00,1236217.12
708974,996514,1238096,705479.63,994017.56,1236301.25
709516,996391,1238247,705639.75,994137.63,1236389.12
710040,996930,1238267,705809.38,994261.38,1236480.12
710079,996905,1238293,705989.25,994389.00,1236573.50
710149,996955,1238404,706178.00,994520.25,1236668.75
709815,997202,1238697,706370.69,994653.94,1236765.75
710253,997281,1238657,706563.06,994789.50,1236865.00
710529,997344,1238705,706757.38,994927.13,1236965.75
710610,997332,1239035,706956.13,995066.06,1237067.50
710968,997243,1238690,707158.88,995205.25,1237169.25
710767,996956,1238188,707364.63,995342.75,1237269.25
710610,996471,1238059,707571.25,995475.50,1237365.00
708647,994436,1236439,707774.44,995597.06,1237451.87
707387,993421,1235813,707965.25,995697.75,1237522.87
705561,992412,1234924,708130.38,995770.00,1237572.50
702652,991236,1234471,708258.13,995809.88,1237597.62
702175,990896,1233892,708340.13,995815.19,1237596.25
701700,990832,1233863,708370.19,995785.38,1237568.75
701440,990845,1233834,708348.38,995723.00,1237517.50
700747,990909,1234036,708276.38,995632.31,1237445.50
701113,991073,1234070,708156.88,995517.88,1237356.87
701169,991098,1234122,707998.00,995384.13,1237254.50
699392,991746,1234790,707805.56,995235.63,1237141.75
701067,991582,1234501,707582.56,995077.31,1237021.75
701190,991579,1234551,707336.31,994912.13,1236897.25
701440,991681,1234490,707074.19,994742.13,1236769.87
701720,992085,1234547,706801.63,994570.25,1236640.75
702119,991976,1234708,706524.06,994399.44,1236511.37
702516,992270,1234866,706246.88,994231.63,1236384.00
702612,992868,1235506,705971.88,994069.13,1236261.25
703252,993071,1235470,705700.88,993915.00,1236146.12
703703,993262,1235692,705441.00,993772.00,1236040.00
703880,993569,1236097,705198.38,993642.00,1235943.25
704335,993567,1235983,704975.13,993525.44,1235856.25
704545,993663,1236066,704772.88,993422.69,1235779.75
704723,993741,1235961,704592.63,993333.75,1235714.12
704778,993721,1235902,704433.75,993258.00,1235658.12
704916,993604,1235998,704295.44,993194.38,1235610.75
705115,993560,1235941,704177.56,993141.31,1235571.50
705045,993673,1236379,704079.75,993097.56,1235539.37
705460,993724,1236088,704001.25,993062.44,1235514.00
705687,993911,1236013,703942.31,993036.25,1235495.12
705577,993968,1236038,703902.38,993019.25,1235482.50
705354,994343,1236476,703876.75,993011.88,1235476.25
705986,994344,1236397,703861.69,993014.38,1235476.87
706229,994542,1236566,703860.88,993026.69,1235484.75
704858,995259,1237410,703875.00,993049.13,1235499.62
706635,995085,1237123,703901.63,993082.63,1235522.25
707012,995218,1237029,703943.00,993126.88,1235553.25
707380,995465,1237457,704002.00,993181.50,1235591.50
707826,995882,1237390,704078.88,993246.75,1235636.75
708247,996118,1237551,704174.19,993323.25,1235689.37
708164,996059,1237622,704287.13,993410.75,1235749.25
707843,996468,1238015,704413.31,993507.88,1235816.50
708680,996599,1237982,704548.94,993614.13,1235891.00
709197,996706,1238103,704696.75,993729.50,1235972.37
709227,996908,1238375,704859.31,993852.81,1236059.75
709633,997077,1238484,705035.44,993983.00,1236152.50
709814,997028,1238569,705224.13,994119.81,1236251.25
709848,997162,1238591,705424.00,994262.13,1236355.25
709944,997388,1238687,705632.63,994409.13,1236463.37
710277,997333,1238805,705848.38,994560.19,1236575.25
710138,997544,1238751,706070.19,994714.25,1236690.00
710545,997562,1239247,706296.75,994870.63,1236806.75
710517,997616,1239110,706527.00,995028.50,1236925.25
710882,997753,1239173,706760.13,995186.88,1237045.37
710860,997932,1238944,706995.38,995345.50,1237166.50
710653,998233,1239345,707228.63,995504.69,1237287.75
710920,998282,1239306,707455.75,995664.75,1237408.87
711162,998332,1239465,707679.19,995825.13,1237530.12
709661,998744,1239664,707899.13,995985.25,1237651.25
710784,998060,1239218,708111.81,996143.81,1237771.25
710900,997415,1238694,708317.69,996297.44,1237887.50
711121,996761,1237499,708518.50,996441.19,1237995.75
709081,994797,1236643,708710.69,996568.06,1238090.50
707681,993752,1235804,708884.19,996668.75,1238164.75
705917,992839,1235162,709027.88,996736.63,1238213.25
701905,991648,1234733,709129.25,996768.19,1238234.25
702329,991372,1234455,709176.75,996761.75,1238227.50
702123,991253,1234272,709168.75,996717.69,1238194.00
701752,991462,1234669,709110.00,996638.88,1238136.12
701670,991515,1234588,709004.69,996529.94,1238057.37
701681,991416,1234639,708858.25,996396.25,1237962.00
701624,991656,1234601,708676.31,996242.50,1237853.25
701898,992015,1234967,708464.50,996073.38,1237734.25
701954,992135,1235074,708228.63,995894.00,1237608.50
702089,992359,1234998,707974.38,995708.38,1237478.50
702490,992539,1235690,707707.31,995519.69,1237346.00
702740,992659,1235398,707433.13,995330.63,1237213.12
703143,992777,1235482,707157.13,995143.88,1237082.00
703402,993040,1235624,706883.81,994962.00,1236954.75
703773,993733,1236157,706614.06,994788.25,1236833.50
704364,993904,1236315,706349.13,994626.13,1236720.75
705005,994037,1236372,706097.69,994477.69,1236618.00
703478,994859,1237176,705864.38,994344.13,1236526.25
704962,994700,1236722,705647.69,994226.94,1236446.50
705602,994490,1236837,705450.50,994126.25,1236378.62
705952,994713,1236933,705277.00,994040.88,1236322.00
706279,994924,1236717,705128.75,993970.38,1236276.00
706494,994777,1236852,705006.06,993914.44,1236239.25
706367,994677,1236850,704908.13,993871.50,1236211.00
705219,994791,1237154,704829.81,993840.00,1236191.37
706575,995006,1236990,704766.94,993819.75,1236180.25
706968,995173,1236926,704722.31,993810.75,1236176.25
706822,995676,1237532,704698.38,993812.38,1236179.00
707389,995677,1237511,704694.06,993824.94,1236188.75
707513,995816,1237657,704709.19,993848.88,1236206.75
707783,995981,1237842,704743.31,993884.50,1236233.25
708395,996489,1238170,704795.69,993931.88,1236268.75
708767,996581,1238012,704866.63,993991.63,1236313.00
708887,996734,1238337,704956.75,994063.50,1236365.25
708899,997052,1239055,705064.81,994146.50,1236425.25
709563,997270,1238794,705189.50,994240.38,1236493.25
710032,997452,1238940,705331.19,994345.00,1236569.50
710326,997647,1238942,705490.38,994460.06,1236653.75
709823,998122,1239211,705662.88,994585.50,1236745.50
710599,998009,1239309,705844.00,994721.00,1236844.25
710698,998163,1239261,706035.50,994865.19,1236949.12
708975,998713,1240157,706236.19,995017.00,1237059.37
710531,998498,1239638,706440.88,995176.38,1237174.75
710923,998396,1239523,706650.06,995341.25,1237294.25
711321,998621,1240021,706866.00,995509.75,1237416.75
711736,998955,1239810,707089.25,995681.50,1237541.37
711768,999027,1239906,707319.69,995856.50,1237668.00
711716,999063,1240028,707555.50,996034.19,1237796.25
710803,999295,1240456,707791.13,996213.38,1237926.25
711845,999219,1240173,708022.00,996393.25,1238058.25
712156,999388,1240280,708251.06,996572.88,1238191.00
712236,999719,1240384,708481.38,996751.88,1238323.25
712188,999737,1240380,708712.00,996930.13,1238454.87
712598,999780,1240435,708941.88,997107.56,1238585.25
712882,999803,1240707,709171.25,997283.69,1238714.12
712602,999897,1240811,709399.94,997457.75,1238842.25
712984,999954,1240789,709626.56,997629.13,1238969.50
713020,999969,1240775,709850.63,997797.38,1239095.12
712751,1000201,1241365,710071.69,997962.25,1239218.50
713371,1000254,1241045,710289.50,998123.88,1239339.37
713277,1000294,1241071,710503.75,998282.25,1239458.25
713389,1000274,1240831,710713.50,998436.56,1239574.50
712721,999523,1240548,710914.88,998584.94,1239686.25
712652,998488,1239604,711103.06,998722.25,1239790.00
712147,997485,1238752,711277.81,998841.75,1239880.50
708006,995858,1237996,711435.25,998937.88,1239952.50
707581,994522,1236758,711562.88,999003.88,1240001.50
706327,993856,1236196,711648.25,999032.25,1240022.62
705415,993297,1235862,711685.38,999019.63,1240013.50
704290,993109,1235696,711671.75,998967.31,1239975.25
704170,993015,1235583,711607.69,998878.50,1239910.25
703846,993154,1235564,711496.25,998757.50,1239821.37
703112,993354,1235909,711339.50,998609.69,1239712.50
703672,993621,1236005,711139.75,998440.50,1239588.00
704126,993652,1236094,710906.88,998255.25,1239452.00
704262,994171,1236453,710651.13,998058.38,1239307.50
704644,994135,1236478,710379.00,997853.63,1239157.50
704744,994101,1236366,710096.38,997645.13,1239004.87
705384,994414,1236579,709808.75,997435.75,1238851.50
705399,994739,1236708,709520.88,997228.88,1238699.37
705680,994955,1237073,709236.63,997027.81,1238551.00
706047,995309,1237291,708959.50,996835.44,1238408.87
706735,995679,1238048,708694.25,996654.13,1238275.25
707279,995913,1237794,708445.69,996485.88,1238151.75
707686,996196,1237821,708217.50,996332.94,1238039.62
707752,996216,1237875,708011.63,996196.38,1237939.12
708055,996542,1238259,707825.88,996076.56,1237850.50
708191,996649,1238195,707658.38,995973.75,1237774.50
708226,996401,1237926,707511.75,995887.25,1237710.12
706910,997087,1238837,707385.63,995815.63,1237656.25
708310,997019,1238547,707276.75,995758.75,1237613.75
708575,997109,1238761,707186.63,995717.38,1237583.25
708718,997047,1238848,707117.00,995690.75,1237564.37
709320,997481,1238937,707068.00,995678.06,1237556.62
709295,997546,1239130,707040.13,995679.38,1237559.75
709589,997604,1239123,707032.63,995694.19,1237573.62
709444,997898,1239571,707041.69,995721.50,1237598.00
710060,998144,1239421,707064.38,995761.13,1237632.75
710357,998353,1239740,707103.50,995813.31,1237677.50
710456,998878,1240110,707161.50,995877.81,1237731.37
710844,998737,1239936,707237.38,995954.00,1237794.25
711179,998746,1240009,707330.56,996041.25,1237865.12
711450,998958,1240150,707440.88,996138.38,1237943.50
711409,999243,1240285,707566.75,996244.88,1238028.87
712031,999340,1240329,707706.63,996360.50,1238120.62
712042,999488,1240592,707860.38,996484.50,1238218.12
711455,999768,1241259,708026.38,996616.06,1238321.25
712179,999649,1240779,708202.00,996754.25,1238429.25
712471,999941,1240941,708386.13,996898.13,1238541.87
712579,999992,1240780,708578.25,997047.00,1238658.25
712549,1000220,1241151,708775.19,997200.25,1238777.37
712582,1000080,1240948,708973.56,997357.00,1238898.87
713049,1000316,1241140,709174.25,997516.00,1239022.00
710973,1000924,1241955,709376.00,997677.19,1239146.25
712696,1000565,1241419,709574.44,997840.88,1239272.00
713335,1000522,1241434,709771.38,998005.50,1239399.00
713485,1000671,1241310,709970.25,998169.63,1239526.25
713529,1000954,1241403,710171.38,998333.13,1239653.25
713429,1000759,1241406,710373.25,998495.63,1239778.50
713530,1000708,1241575,710574.25,998656.06,1239901.25
713489,1000939,1241689,710770.56,998813.38,1240022.00
713993,1001155,1241725,710960.00,998968.13,1240140.37
713942,1001119,1241767,711146.13,999120.44,1240256.62
714108,1001131,1242280,711331.13,999269.63,1240370.00
714204,1001237,1241918,711514.75,999414.94,1240480.12
714473,1001429,1241820,711696.75,999556.75,1240587.37
714737,1001495,1241985,711877.75,999695.38,1240691.50
714356,1001497,1241982,712057.13,999830.75,1240792.50
714775,1001493,1241909,712233.50,999962.50,1240890.25
714444,1001068,1241491,712406.38,1000089.25,1240983.37
714321,1000089,1241051,712574.69,1000208.50,1241069.75
713899,998960,1240126,712736.50,1000315.13,1241146.25
713560,997987,1239266,712888.56,1000400.88,1241206.75
712197,996907,1238525,713025.81,1000458.63,1241246.25
709115,995363,1237323,713137.75,1000482.75,1241260.25
707944,994748,1236951,713210.63,1000468.38,1241245.50
706802,994275,1236529,713236.50,1000414.00,1241200.75
704165,994665,1237004,713210.75,1000322.50,1241128.62
705357,994336,1236735,713131.44,1000198.38,1241033.25
705571,994180,1236600,713004.00,1000045.94,1240917.62
705995,994406,1237008,712837.56,999869.13,1240784.37
706237,994814,1236972,712640.25,999673.50,1240637.12
706317,995016,1237379,712418.88,999464.75,1240480.50
706529,995092,1237297,712179.13,999247.75,1240318.75
706219,995233,1237572,711924.00,999025.88,1240154.37
707020,995571,1237548,711656.50,998802.38,1239989.87
707413,995645,1237522,711384.38,998580.88,1239826.75
707878,996281,1238133,711115.25,998363.88,1239666.62
708249,996402,1238234,710853.88,998154.13,1239511.75
708717,996640,1238293,710604.25,997955.50,1239365.25
709040,996853,1238476,710369.88,997770.50,1239228.12
709532,997220,1238673,710153.25,997600.69,1239101.75
710098,997433,1238764,709956.88,997447.75,1238986.75
710061,997451,1238782,709783.13,997312.25,1238883.50
710369,997580,1238961,709631.88,997193.63,1238791.75
710551,997617,1239019,709502.63,997091.25,1238711.25
710702,997533,1238921,709395.75,997004.25,1238642.25
710953,997433,1238921,709311.13,996931.38,1238583.37
710806,997561,1238845,709247.75,996871.13,1238533.75
711119,997668,1238931,709204.00,996822.88,1238492.62
710932,997599,1238953,709178.44,996786.25,1238459.37
709277,998267,1239505,709166.63,996760.88,1238434.00
711114,998158,1239229,709164.38,996747.38,1238416.62
711637,998195,1239281,709174.88,996745.81,1238407.25
711663,998220,1239472,709201.25,996755.00,1238405.25
712126,998552,1239614,709243.38,996774.31,1238410.50
712353,998524,1239570,709301.25,996803.75,1238423.25
712474,998583,1239505,709374.38,996842.56,1238443.00
712417,998927,1239861,709459.25,996889.94,1238468.75
712929,998930,1239928,709552.75,996945.88,1238501.25
713020,999198,1239945,709657.13,997010.13,1238540.25
713432,999501,1240213,709774.50,997082.63,1238585.12
713488,999714,1240079,709904.13,997163.69,1238635.25
713612,999772,1240140,710045.00,997253.25,1238690.25
713604,999858,1240434,710195.13,997350.88,1238749.62
713403,999982,1240636,710353.00,997455.38,1238814.25
713848,999968,1240534,710517.13,997565.88,1238884.00
714223,1000177,1240662,710687.00,997681.44,1238958.00
714329,1000453,1240927,710862.25,997801.50,1239035.87
714587,1000434,1240847,711042.50,997925.81,1239117.00
714672,1000547,1240723,711227.19,998053.81,1239201.00
714721,1000540,1240786,711415.38,998184.81,1239286.50
714679,1000719,1240839,711605.38,998318.00,1239372.87
714714,1000747,1240975,711795.81,998452.88,1239460.00
714846,1000867,1241100,711985.44,998588.94,1239548.12
713930,1001365,1241845,712170.50,998725.88,1239637.75
714733,1000944,1241199,712347.25,998863.50,1239729.50
715182,1000938,1241225,712518.63,999000.50,1239821.87
715040,1000956,1241371,712688.44,999135.63,1239913.50
715288,1001197,1241300,712856.25,999268.75,1240004.25
715587,1001372,1241379,713022.19,999400.13,1240094.00
715047,1001289,1241454,713185.94,999530.13,1240182.50
715023,1001343,1241313,713343.81,999657.88,1240269.50
715490,1001485,1241514,713493.88,999783.00,1240354.50
715908,1001590,1241593,713639.63,999905.88,1240437.75
715768,1001714,1241781,713783.88,1000026.50,1240519.37
715453,1001507,1241327,713925.44,1000144.38,1240598.12
715760,1001313,1241107,714062.75,1000258.31,1240672.75
715988,1001029,1241156,714196.19,1000366.50,1240742.25
715369,999557,1239851,714326.38,1000464.56,1240804.12
715023,998566,1239162,714451.13,1000545.38,1240853.00
714086,997620,1238445,714565.25,1000602.31,1240883.62
711601,996030,1237314,714662.50,1000630.69,1240893.00
710288,995195,1236721,714733.88,1000625.75,1240878.00
709193,994860,1236610,714767.75,1000583.63,1240836.00
708821,994421,1236249,714758.19,1000504.31,1240767.62
707890,994430,1236515,714705.25,1000390.63,1240675.37
707903,994576,1236401,714610.38,1000246.94,1240562.75
707862,994710,1236543,714477.50,1000078.63,1240433.50
707297,995642,1237474,714309.63,999891.25,1240291.00
708527,995332,1237139,714111.13,999690.81,1240140.00
708886,995580,1237111,713892.25,999482.13,1239984.00
709098,995635,1237309,713662.13,999269.00,1239825.75
709723,995982,1237479,713426.31,999054.88,1239667.12
710076,996243,1237605,713190.56,998843.13,1239511.00
710177,996307,1237626,712959.19,998636.88,1239359.00
710595,996944,1237976,712734.06,998438.44,1239212.50
711237,997022,1238184,712517.88,998250.75,1239074.00
711547,997219,1238325,712316.00,998075.94,1238945.12
711748,997659,1238897,712131.88,997915.63,1238826.87
711906,997746,1238747,711966.50,997771.00,1238720.25
712464,997837,1238660,711820.75,997642.88,1238625.62
712832,997896,1238500,711696.50,997531.19,1238542.25
713034,998091,1238778,711594.38,997435.50,1238469.00
713070,998081,1238866,711513.38,997355.38,1238406.50
712986,997904,1238647,711452.50,997289.63,1238354.00
713106,998037,1238884,711410.50,997236.75,1238310.75
713364,998081,1238735,711386.25,997195.88,1238276.25
713570,998033,1238687,711379.38,997166.13,1238249.50
713283,998151,1238827,711388.38,997146.56,1238229.50
713612,998296,1239049,711411.25,997136.69,1238216.25
713948,998465,1239033,711447.63,997136.50,1238210.25
713985,998641,1239012,711497.44,997146.06,1238211.00
713214,999499,1239626,711556.88,997166.25,1238218.75
714429,999205,1239694,711622.69,997198.00,1238234.50
714398,999288,1239669,711697.75,997241.00,1238258.87
714338,999204,1239666,711783.75,997293.69,1238290.50
714949,999659,1239683,711879.56,997355.13,1238328.50
715222,999753,1239886,711986.00,997425.56,1238372.12
715095,999654,1239931,712102.88,997504.38,1238421.50
715059,999917,1240159,712227.75,997590.63,1238476.25
715399,1000045,1240123,712358.75,997683.75,1238536.62
715693,1000094,1240105,712496.19,997783.31,1238601.50
715351,1000162,1240741,712639.75,997888.13,1238670.00
715291,1000383,1240380,712786.88,997997.63,1238741.75
715845,1000567,1240363,712936.13,998111.75,1238816.87
715829,1000570,1240402,713088.19,998230.13,1238894.50
716110,1000681,1240515,713242.25,998351.88,1238974.25
715954,1000789,1240496,713397.13,998476.38,1239055.75
716542,1000829,1240597,713553.13,998603.13,1239138.37
716386,1001113,1240855,713711.63,998731.38,1239221.87
716315,1000914,1240745,713871.75,998860.56,1239306.12
716437,1001104,1240808,714031.63,998990.06,1239391.00
716420,1001204,1240814,714190.06,999119.75,1239476.00
716481,1001232,1240742,714346.38,999249.25,1239560.75
716744,1001286,1240893,714500.38,999378.19,1239644.62
716762,1001354,1240862,714652.25,999506.00,1239727.37
715260,1001939,1241440,714798.38,999632.88,1239809.75
716454,1001655,1241178,714934.56,999759.44,1239892.62
716930,1001501,1241120,715064.00,999884.88,1239975.37
716843,1001728,1241250,715190.94,1000008.19,1240057.25
717083,1001918,1241369,715315.63,1000129.50,1240138.50
717229,1001794,1241144,715438.50,1000249.19,1240218.75
717031,1001731,1241198,715559.38,1000366.25,1240296.75
716988,1001359,1240806,715676.63,1000479.75,1240371.50
717172,1000820,1240358,715789.13,1000587.56,1240440.50
717138,1000059,1239803,715897.63,1000684.75,1240500.75
716604,998218,1238779,716001.63,1000765.75,1240548.50
715133,997247,1238077,716096.00,1000823.50,1240579.75
714178,996522,1237314,716173.25,1000850.50,1240589.75
713049,995950,1237027,716226.56,1000842.88,1240575.25
711277,995167,1236368,716250.13,1000800.00,1240536.00
710577,995100,1236162,716238.50,1000722.25,1240471.62
710564,994988,1236273,716189.06,1000612.31,1240383.75
710700,995399,1236672,716104.00,1000474.69,1240276.00
710725,995531,1236638,715988.06,1000314.50,1240152.00
710855,995744,1236761,715846.88,1000137.88,1240016.50
711005,995952,1236878,715685.69,999949.75,1239872.87
711793,996452,1237150,715510.38,999754.94,1239724.50
712028,996406,1237210,715327.38,999557.88,1239574.37
712242,996774,1237492,715141.63,999361.50,1239424.87
711451,997837,1238319,714953.63,999169.75,1239279.25
713000,997655,1238129,714764.25,998987.00,1239140.75
713351,997764,1238080,714581.00,998815.63,1239011.00
713522,997649,1238529,714409.88,998656.31,1238890.00
714205,998420,1238726,714253.25,998509.94,1238779.50
714461,998396,1238500,714113.88,998378.56,1238680.50
714642,998577,1238780,713993.25,998263.13,1238592.50
714607,998443,1238629,713890.75,998163.44,1238515.50
714914,998596,1238618,713805.31,998079.13,1238448.75
715066,998536,1238808,713737.38,998008.75,1238391.50
715179,998586,1239008,713687.00,997950.50,1238343.25
715097,998517,1238675,713653.13,997903.25,1238303.37
715410,998550,1238633,713634.50,997866.13,1238270.75
715426,998528,1238573,713630.50,997838.19,1238244.62
715437,998745,1238726,713639.88,997819.13,1238224.50
715677,998736,1238835,713661.31,997808.56,1238210.25
715821,998800,1238839,713694.63,997806.25,1238202.00
715745,999173,1239172,713739.63,997811.56,1238199.75
715751,999215,1239185,713795.06,997824.81,1238203.50
716237,999192,1239224,713859.63,997846.13,1238213.50
716237,999394,1239393,713933.19,997875.25,1238230.12
716526,999736,1239562,714015.44,997912.38,1238253.25
716522,999858,1239679,714105.88,997958.00,1238283.25
716593,999884,1239616,714203.56,998012.06,1238319.75
716088,1000482,1240085,714304.88,998074.50,1238362.37
716812,1000189,1239781,714407.00,998145.56,1238411.75
716863,1000229,1239950,714512.25,998223.81,1238466.50
717138,1000400,1240299,714622.75,998307.75,1238525.50
717321,1000785,1240287,714738.50,998397.63,1238588.87
717498,1000756,1240206,714859.63,998493.63,1238656.62
717572,1000742,1240236,714985.63,998594.94,1238727.87
717626,1001036,1240515,715115.63,998700.56,1238802.25
717901,1000973,1240438,715249.13,998809.94,1238880.00
717978,1001103,1240435,715386.00,998922.56,1238960.00
717982,1001211,1240745,715525.63,999037.75,1239041.50
717520,1001368,1240573,715665.88,999155.00,1239124.00
718031,1001309,1240713,715805.13,999274.13,1239207.75
718221,1001392,1240475,715943.75,999394.50,1239291.75
718387,1001457,1240658,716082.31,999515.31,1239375.50
718182,1001291,1240666,716220.06,999635.75,1239458.50
718289,1001416,1240639,716356.19,999754.69,1239540.62
718455,1001940,1240911,716490.50,999871.63,1239621.12
718350,1001690,1240912,716622.88,999986.75,1239700.12
718828,1001661,1241008,716753.38,1000100.38,1239778.50
718385,1001579,1240829,716882.00,1000211.88,1239856.12
718198,1000986,1240039,717007.06,1000319.50,1239930.75
718152,1000326,1239687,717126.44,1000419.13,1239998.25
718039,999631,1239341,717239.25,1000506.44,1240055.50
716127,998420,1238404,717341.69,1000577.56,1240101.37
716126,997349,1237574,717427.50,1000627.88,1240133.00
715255,996503,1236956,717492.44,1000650.13,1240144.00
714084,995913,1236615,717532.88,1000640.00,1240131.12
712858,995499,1236241,717543.25,1000596.69,1240094.00
712569,995548,1236352,717519.88,1000522.00,1240034.00
712445,995471,1236358,717463.25,1000419.50,1239954.00
712405,995894,1236642,717375.94,1000293.38,1239857.25
712734,995923,1236754,717261.69,1000148.25,1239748.25
713197,996219,1236897,717127.19,999989.38,1239630.00
713460,996832,1237581,716979.31,999821.50,1239506.00
713650,996954,1237540,716822.88,999649.25,1239379.62
714090,997103,1237625,716662.06,999477.00,1239254.00
714321,997520,1237574,716500.88,999308.00,1239131.12
714860,997806,1237958,716342.38,999145.56,1239012.00
715125,997989,1238195,716189.13,998992.19,1238898.75
715292,998250,1238169,716045.00,998849.50,1238793.25
715858,998722,1238558,715912.88,998719.00,1238696.00
716143,998771,1238589,715795.00,998601.63,1238607.50
716631,998844,1238524,715693.63,998498.75,1238528.50
716257,998630,1238426,715609.50,998409.88,1238458.75
716363,998885,1238669,715540.88,998333.94,1238397.75
716464,998708,1238624,715486.25,998270.13,1238345.25
716457,998773,1238450,715444.94,998217.50,1238300.50
715516,999221,1238967,715412.88,998175.63,1238263.50
716254,998793,1238621,715385.63,998144.38,1238234.50
716327,998697,1238503,715365.38,998122.00,1238212.00
716616,998609,1238675,715355.00,998106.50,1238194.25
716791,999089,1238721,715354.88,998097.50,1238180.50
717046,999056,1238609,715365.38,998095.88,1238171.50
717384,999054,1238868,715387.13,998101.50,1238167.50
717283,999242,1239031,715418.63,998113.88,1238169.00
717515,999496,1239053,715457.75,998133.13,1238176.12
717539,999538,1239136,715505.44,998159.75,1238189.00
717670,999864,1239474,715562.63,998193.50,1238207.00
717591,999913,1239262,715628.13,998234.50,1238230.00
718131,1000003,1239512,715701.38,998282.75,1238258.00
718297,1000177,1239644,715783.13,998338.06,1238291.62
718230,1000359,1239746,715873.25,998400.38,1238331.25
718390,1000420,1239842,715970.25,998469.50,1238376.50
718618,1000565,1239715,716073.69,998545.00,1238426.75
718604,1000838,1240164,716183.25,998626.13,1238480.75
718648,1000850,1240025,716298.13,998712.63,1238537.75
718587,1000758,1240054,716416.63,998804.00,1238598.50
718937,1000792,1240106,716537.88,998899.13,1238662.75
719050,1000957,1240257,716662.00,998997.25,1238730.25
719060,1001001,1240104,716788.88,999098.00,1238800.25
719069,1000939,1240192,716917.50,999200.63,1238872.25
717815,1001741,1240752,717044.13,999305.13,1238946.50
718850,1001490,1240338,717165.13,999412.38,1239024.00
719122,1001359,1240669,717282.56,999522.13,1239103.75
719292,1001531,1240563,717399.50,999633.00,1239184.37
719617,1001703,1240683,717516.88,999744.69,1239265.50
719668,1001485,1240588,717635.38,999856.94,1239347.00
719204,1001446,1240437,717753.88,999968.25,1239427.75
719113,1000976,1240194,717868.38,1000077.38,1239506.50
719445,1000426,1239612,717976.88,1000181.88,1239580.25
719169,999545,1239099,718081.00,1000276.13,1239645.75
718699,998255,1238328,718180.50,1000354.38,1239699.75
716963,997325,1237448,718269.88,1000410.88,1239738.50
716321,996597,1236834,718341.13,1000439.63,1239757.00
715407,995979,1236502,718388.75,1000437.13,1239752.50
713146,995460,1236169,718408.38,1000402.50,1239724.75
713295,995438,1236153,718395.00,1000336.75,1239674.75
713110,995585,1236071,718347.00,1000243.13,1239604.87
712725,995755,1236458,718266.75,1000125.81,1239517.25
713354,995975,1236419,718158.88,999989.13,1239415.50
713632,996301,1236491,718028.75,999838.75,1239302.87
713818,996505,1236843,717881.50,999679.81,1239183.50
714443,996836,1237184,717722.63,999516.50,1239061.00
714912,996915,1237272,717558.13,999352.31,1238938.50
714965,997112,1237263,717392.69,999189.75,1238818.25
713542,997940,1238144,717226.00,999031.63,1238701.37
715238,997805,1237841,717057.25,998881.06,1238590.37
715599,997873,1237964,716892.44,998740.13,1238487.00
716049,998199,1238269,716737.63,998609.75,1238391.75
716438,998451,1238300,716595.88,998491.63,1238305.75
716805,998520,1238323,716469.50,998386.63,1238229.12
716396,998455,1238465,716359.00,998294.75,1238162.50
716628,998450,1238437,716261.25,998215.13,1238105.50
716895,998542,1238357,716174.63,998147.13,1238057.50
717453,998447,1238289,716102.31,998089.94,1238017.37
717292,998625,1238420,716047.06,998042.31,1237983.87
716949,998443,1238244,716007.06,998003.31,1237956.00
717244,998453,1238252,715979.81,997972.19,1237933.37
717389,998553,1238421,715964.75,997948.38,1237916.00
716874,998708,1238460,715961.63,997931.88,1237904.25
717462,998692,1238460,715969.50,997922.75,1237897.75
717907,998952,1238699,715988.13,997920.75,1237896.75
717942,999229,1238957,716018.25,997926.13,1237901.25
717929,999262,1238851,716059.81,997938.88,1237911.25
718421,999436,1238678,716111.50,997959.63,1237926.50
718507,999492,1239031,716173.25,997988.50,1237946.37
718763,999746,1239445,716245.19,998025.31,1237972.00
718997,999982,1239372,716327.00,998070.44,1238004.50
718909,1000014,1239364,716418.25,998123.88,1238043.25
717384,1000556,1240041,716514.38,998185.50,1238088.00
719023,1000472,1239710,716611.25,998255.38,1238139.75
719409,1000445,1239609,716712.00,998333.00,1238197.00
719435,1000428,1239755,716820.13,998417.00,1238258.25
719580,1000657,1239788,716934.88,998506.31,1238322.75
719457,1000616,1239883,717055.00,998600.44,1238390.12
719557,1000743,1239871,717179.00,998698.50,1238460.37
719417,1000855,1240066,717304.00,998800.13,1238533.00
719755,1000845,1239872,717427.94,998904.75,1238607.75
720099,1000883,1240020,717552.94,999011.38,1238683.50
720080,1001061,1240367,717681.25,999119.50,1238760.00
720171,1001161,1240160,717812.25,999229.25,1238837.12
720386,1001257,1240350,717945.31,999340.31,1238915.25
720588,1001281,1240206,718080.63,999452.25,1238994.00
720024,1001407,1240356,718217.31,999564.63,1239073.00
720245,1001458,1240400,718353.25,999677.19,1239152.00
720417,1001421,1240257,718487.25,999789.44,1239230.50
720362,1001030,1240277,718619.31,999899.63,1239307.50
720467,1000593,1239635,718749.06,1000004.75,1239381.25
720209,999782,1239097,718875.56,1000100.94,1239448.25
719583,998828,1238544,718996.31,1000183.25,1239505.00
717919,997227,1237317,719105.31,1000244.88,1239546.75
717194,996559,1236872,719194.56,1000278.88,1239568.75
715972,996098,1236314,719257.81,1000282.00,1239568.25
712594,995901,1236391,719287.44,1000254.63,1239545.25
713505,995301,1236048,719275.94,1000197.69,1239501.25
713707,995333,1235895,719224.00,1000112.75,1239437.75
713505,995255,1235947,719137.00,1000002.50,1239356.00
713951,995761,1236145,719020.19,999871.50,1239259.00
714119,995975,1236479,718879.50,999725.31,1239150.75
713864,996115,1236561,718719.69,999568.69,1239035.25
713871,996367,1236882,718542.19,999405.00,1238915.50
714680,996285,1236798,718350.00,999237.06,1238794.25
714948,996455,1236778,718151.19,999067.38,1238672.75
715328,996896,1237381,717952.44,998898.63,1238551.87
715281,997132,1237257,717757.00,998733.94,1238433.87
715752,997470,1237510,717567.38,998576.63,1238321.00
715970,997630,1237596,717386.13,998429.38,1238215.00
716261,998059,1237760,717216.19,998294.06,1238117.25
716839,997985,1237865,717060.00,998171.88,1238028.00
717294,998212,1238033,716920.50,998063.25,1237948.25
717225,998430,1238308,716799.13,997968.13,1237878.25
717423,998379,1238269,716695.75,997886.31,1237818.12
717601,998385,1238261,716609.88,997817.50,1237768.00
717430,998221,1238192,716540.75,997760.56,1237727.25
717987,998511,1238185,716487.44,997714.50,1237694.87
717763,998452,1238114,716450.00,997679.06,1237669.75
717734,998401,1238226,716426.88,997653.50,1237651.00
716155,998984,1238492,716414.06,997637.00,1237639.25
717895,998798,1238527,716408.69,997629.75,1237635.12
718451,998783,1238341,716413.50,997631.75,1237638.00
718518,998897,1238650,716431.88,997642.13,1237646.00
718616,999130,1238672,716463.38,997660.75,1237659.25
718664,999270,1238795,716506.81,997687.75,1237678.00
719047,999348,1238944,716561.56,997723.06,1237702.75
718864,999803,1239153,716625.00,997766.56,1237734.00
719345,999809,1239150,716694.50,997818.50,1237771.37
719650,999884,1239271,716772.88,997878.75,1237814.75
719611,1000200,1239503,716862.38,997946.88,1237863.50
719467,1000223,1239445,716961.38,998022.56,1237917.00
719837,1000400,1239534,717067.94,998105.63,1237975.12
720236,1000325,1239543,717182.38,998195.19,1238037.75
720062,1000783,1239821,717304.63,998290.88,1238104.50
720230,1000752,1239670,717433.13,998392.56,1238175.25
720289,1000550,1239722,717566.81,998499.38,1238249.00
720379,1000958,1240012,717705.00,998609.38,1238324.87
720482,1001007,1239933,717847.13,998722.44,1238402.75
720536,1001036,1240059,717992.00,998838.63,1238482.50
720621,1001024,1239901,718138.63,998957.19,1238564.00
720811,1001322,1240100,718286.38,999077.50,1238646.25
721087,1001217,1240090,718435.38,999199.50,1238729.25
721136,1001142,1239980,718585.88,999321.88,1238812.25
719208,1001754,1240652,718735.06,999444.50,1238895.25
721063,1001590,1240516,718879.75,999567.81,1238979.62
721437,1001412,1240429,719022.00,999691.38,1239065.25
721082,1001518,1240378,719163.94,999813.50,1239150.50
721382,1001674,1240328,719304.44,999933.88,1239234.50
721385,1001731,1240409,719443.13,1000052.63,1239316.37
721343,1001626,1240318,719579.63,1000169.50,1239396.37
720981,1001168,1240215,719710.56,1000283.06,1239473.75
721298,1000531,1239551,719832.81,1000390.38,1239546.50
720864,999716,1238903,719948.13,1000486.25,1239610.75
720605,998187,1237918,720056.88,1000565.13,1239662.50
718470,997118,1236997,720153.50,1000620.63,1239696.75
717473,996451,1236428,720228.50,1000645.94,1239708.62
716569,995858,1236128,720274.75,1000637.75,1239695.62
714522,995323,1235823,720287.88,1000595.63,1239658.00
714801,995318,1235664,720264.50,1000520.88,1239597.00
714074,995224,1235669,720203.56,1000416.63,1239514.62
713964,995397,1236199,720106.25,1000286.88,1239414.00
714128,995505,1236071,719976.50,1000135.75,1239298.62
714536,995668,1236019,719819.88,999968.38,1239172.50
714520,995813,1236179,719642.13,999789.06,1239038.25
714682,996117,1236530,719447.00,999602.00,1238899.50
715067,996105,1236372,719238.19,999410.69,1238758.50
715080,996229,1236533,719021.63,999217.94,1238617.25
713334,997042,1237055,718799.25,999026.63,1238477.25
715147,996758,1236950,718571.25,998839.94,1238340.50
715670,996899,1236888,718343.38,998660.06,1238209.00
715996,997205,1237564,718122.38,998488.69,1238084.12
716842,997688,1237512,717912.69,998328.38,1237967.37
717093,997707,1237622,717718.69,998181.31,1237860.50
717173,997972,1237700,717542.56,998048.50,1237764.50
717208,998053,1238045,717381.63,997930.19,1237679.75
717875,998051,1237995,717234.13,997826.13,1237606.87
718011,998201,1237875,717104.94,997735.94,1237545.25
718030,998185,1238186,716997.38,997659.31,1237493.50
717968,998160,1238061,716909.81,997595.25,1237451.12
718151,998364,1237847,716840.75,997543.06,1237417.37
718436,998275,1237885,716789.50,997502.50,1237391.25
718382,998419,1237894,716755.50,997472.75,1237371.75
718787,998442,1238027,716737.69,997453.19,1237358.50
718951,998655,1238220,716736.25,997443.50,1237352.00
719131,998979,1238661,716751.00,997443.25,1237352.00
719047,999014,1238447,716780.50,997452.19,1237358.75
719348,999148,1238612,716823.63,997470.88,1237372.62
719474,999236,1238619,716879.88,997499.56,1237393.62
719707,999526,1238883,716946.94,997538.00,1237421.62
720306,999642,1239025,717023.38,997586.00,1237456.87
720261,999852,1239002,717112.00,997643.63,1237499.12
718526,1000548,1239795,717210.38,997711.06,1237548.00
719854,1000312,1239268,717313.13,997788.50,1237603.50
719834,1000374,1239416,717420.25,997875.25,1237665.00
720522,1000301,1239687,717533.81,997969.88,1237732.00
720829,1000505,1239395,717655.19,998071.00,1237803.50
721130,1000620,1239602,717785.56,998177.81,1237878.75
721311,1000773,1239518,717924.88,998290.06,1237957.25
721021,1000732,1240136,718068.94,998406.81,1238039.00
721569,1000924,1239842,718213.63,998527.00,1238125.12
721447,1000875,1239878,718361.88,998650.06,1238214.25
721490,1001181,1239973,718515.69,998775.25,1238305.12
721653,1001171,1240036,718673.38,998901.75,1238397.50
721783,1001172,1240019,718834.38,999029.63,1238491.00
721665,1001227,1239855,718997.56,999158.38,1238584.25
721643,1001435,1240125,719161.25,999287.38,1238676.75
721843,1001526,1240345,719324.13,999416.75,1238769.00
721929,1001546,1240275,719486.00,999546.25,1238861.25
721784,1001541,1240711,719646.56,999674.94,1238953.00
722276,1001588,1240205,719805.63,999801.69,1239043.25
721977,1001680,1240236,719962.94,999926.44,1239131.50
722183,1001649,1240329,720117.44,1000049.13,1239217.62
721848,1002004,1240607,720265.50,1000169.88,1239302.00
722111,1001918,1240532,720404.00,1000289.13,1239385.50
722173,1002009,1240508,720536.00,1000406.50,1239467.75
720535,1002628,1241235,720662.75,1000522.63,1239549.00
721801,1002292,1240933,720781.88,1000638.06,1239630.25
722139,1001872,1240633,720894.25,1000751.63,1239711.25
722403,1001663,1239915,721002.38,1000860.50,1239789.25
722259,1000599,1239440,721107.38,1000960.81,1239860.75
721851,999679,1238969,721208.00,1001047.06,1239921.50
720876,998704,1238008,721300.50,1001113.00,1239967.25
718574,997105,1237127,721377.13,1001153.88,1239993.25
717665,996404,1236564,721427.75,1001164.75,1239996.00
716882,996010,1236025,721445.63,1001141.38,1239973.25
716083,995718,1235775,721428.00,1001083.31,1239925.00
715215,995458,1235674,721373.25,1000992.75,1239852.12
715240,995365,1235786,721281.50,1000872.50,1239757.75
715118,995430,1235919,721156.00,1000726.44,1239645.25
715061,995746,1236221,721001.38,1000559.25,1239519.00
715295,995816,1236115,720822.00,1000375.94,1239382.75
715459,995848,1236156,720623.25,1000180.69,1239238.87
715558,996230,1236847,720409.88,999976.88,1239089.25
715973,996238,1236437,720186.56,999767.94,1238936.50
716041,996324,1236436,719958.00,999557.38,1238783.00
716071,996353,1236401,719727.50,999347.81,1238630.37
715944,996903,1236793,719494.63,999141.75,1238480.12
716543,997035,1236921,719259.50,998942.75,1238334.50
717124,997245,1237103,719029.63,998753.31,1238195.87
715556,998142,1237919,718809.63,998575.75,1238065.75
717462,998100,1237640,718599.75,998413.25,1237946.25
717991,998005,1237735,718404.44,998266.94,1237838.50
718312,998070,1237758,718228.63,998136.13,1237742.25
718765,998336,1237843,718074.31,998020.63,1237657.25
718567,998177,1237948,717942.00,997920.13,1237583.50
718745,998239,1237954,717830.38,997833.75,1237520.87
717573,998307,1237990,717735.69,997760.38,1237468.75
718712,998279,1237872,717654.25,997699.13,1237426.50
719248,998388,1237967,717588.63,997649.50,1237392.75
719272,998711,1238091,717541.88,997611.13,1237366.62
719759,998707,1238123,717514.06,997584.00,1237347.75
719771,998741,1238227,717505.13,997568.13,1237336.50
719699,998775,1238334,717513.63,997562.63,1237333.25
719608,999128,1238657,717535.81,997567.25,1237338.00
720159,999290,1238631,717569.25,997582.38,1237351.00
720462,999350,1238689,717616.00,997608.06,1237372.25
720505,999792,1239341,717677.63,997643.63,1237400.37
721034,999908,1238974,717753.69,997688.81,1237435.50
721270,1000022,1239110,717844.25,997744.38,1237477.62
721341,1000235,1239179,717948.94,997810.25,1237526.62
721152,1000366,1239368,718062.88,997885.94,1237582.12
721522,1000435,1239512,718181.50,997970.88,1237644.25
721592,1000461,1239415,718307.38,998063.75,1237712.25
720820,1001060,1240170,718440.25,998164.13,1237785.50
721924,1000908,1239715,718577.19,998272.25,1237863.75
722242,1001024,1239939,718720.44,998387.19,1237946.75
722096,1001116,1239995,718871.81,998508.00,1238034.25
722014,1001305,1239949,719029.13,998633.81,1238125.25
722162,1001256,1239957,719190.25,998764.00,1238218.75
722260,1001210,1239762,719354.13,998897.25,1238313.75
720659,1001229,1240305,719518.25,999032.19,1238409.50
721891,1001359,1240207,719679.38,999168.25,1238506.62
722405,1001379,1240107,719837.75,999304.44,1238604.87
722567,1001763,1240123,719995.75,999440.25,1238702.87
722601,1001712,1240347,720153.81,999575.94,1238800.50
722570,1001734,1240187,720311.13,999711.13,1238897.37
722831,1001775,1240305,720467.13,999845.38,1238992.87
722901,1001870,1240385,720620.75,999978.13,1239086.62
723235,1001792,1240319,720771.81,1000108.75,1239178.62
722984,1002022,1240465,720921.19,1000237.00,1239268.50
723264,1002122,1240789,721069.13,1000363.00,1239356.50
723251,1002188,1240841,721215.25,1000486.88,1239443.25
723281,1002135,1240743,721359.25,1000608.50,1239529.00
723226,1002289,1240721,721500.25,1000727.44,1239614.00
723024,1002400,1240795,721634.50,1000843.75,1239697.00
723471,1002302,1240593,721759.50,1000957.38,1239778.00
723150,1001940,1240399,721878.44,1001067.13,1239855.25
721880,1001030,1239749,721990.75,1001170.63,1239927.00
722516,999914,1238824,722092.25,1001263.13,1239988.87
721857,998739,1237944,722182.25,1001336.06,1240035.25
720801,997939,1237041,722258.63,1001382.13,1240062.00
718899,996677,1236626,722313.88,1001396.75,1240066.50
717940,996264,1236265,722339.31,1001376.63,1240046.25
717429,996049,1236042,722330.38,1001321.88,1240001.12
714814,995825,1236316,722285.50,1001235.38,1239933.12
716055,995978,1236196,722203.44,1001120.75,1239846.00
716298,996042,1236095,722086.81,1000982.25,1239742.37
716498,996565,1236217,721941.50,1000824.13,1239624.50
716846,996548,1236458,721773.63,1000651.50,1239495.75
717093,996643,1236448,721589.25,1000468.75,1239359.25
717086,996714,1236440,721393.25,1000279.44,1239217.62
717378,996917,1236806,721188.44,1000086.50,1239072.87
717486,997044,1236727,720977.94,999892.75,1238927.75
717478,997166,1237006,720765.63,999701.00,1238784.00
717686,997666,1237431,720554.63,999513.25,1238643.75
718454,997800,1237513,720348.38,999332.00,1238508.87
718889,998146,1237663,720151.75,999160.56,1238381.87
719179,998339,1237879,719968.81,999001.50,1238264.62
719471,998784,1238083,719798.19,998856.75,1238158.25
719935,998962,1238016,719638.88,998728.00,1238063.25
720022,998840,1238170,719496.38,998615.44,1237979.50
719246,999094,1238549,719372.13,998518.50,1237906.75
719948,998910,1238240,719263.00,998436.25,1237844.25
720051,998880,1238140,719169.88,998367.44,1237791.50
720449,998985,1238319,719094.63,998310.75,1237748.25
720566,999081,1238245,719037.63,998265.56,1237714.00
720641,999138,1238193,718998.50,998231.63,1237687.75
720899,999116,1238210,718976.25,998208.13,1237668.25
719367,999399,1238935,718969.13,998194.25,1237656.50
720801,999584,1238598,718974.56,998190.19,1237653.50
721252,999582,1238557,718992.69,998196.13,1237658.12
721337,1000058,1238930,719024.56,998212.13,1237669.00
721713,1000169,1238917,719070.13,998238.38,1237686.12
722158,1000203,1239102,719129.88,998275.13,1237710.00
722193,1000238,1239177,719204.00,998321.75,1237741.00
722559,1000657,1239491,719290.75,998377.56,1237779.25
722491,1000721,1239368,719388.25,998442.88,1237824.75
722601,1000869,1239499,719496.31,998517.38,1237876.75
722803,1001279,1240025,719614.50,998600.19,1237934.25
722600,1001229,1239769,719741.50,998690.69,1237996.87
723130,1001275,1239940,719875.75,998788.69,1238065.00
723173,1001393,1239840,720017.25,998893.50,1238138.25
722947,1001699,1240045,720162.44,999004.69,1238215.75
723091,1001627,1239992,720307.19,999121.88,1238297.25
723298,1001719,1240313,720453.19,999243.88,1238382.25
722712,1002400,1240606,720600.50,999370.13,1238470.50
723316,1001970,1240338,720746.25,999500.25,1238561.37
723572,1002042,1240307,720892.13,999633.44,1238654.25
723563,1001983,1240692,721040.00,999768.38,1238748.50
723499,1002175,1240571,721188.88,999904.19,1238844.25
723559,1002239,1240534,721337.44,1000040.38,1238941.00
723805,1002279,1240438,721485.19,1000176.75,1239038.00
722314,1002402,1240910,721631.13,1000312.56,1239135.00
723549,1002513,1240535,721773.44,1000447.69,1239232.12
724149,1002485,1240639,721912.63,1000581.81,1239328.25
724274,1002936,1241104,722051.00,1000714.13,1239422.62
724564,1002738,1240834,722189.75,1000844.25,1239515.50
724494,1002755,1240792,722328.88,1000972.56,1239607.00
724316,1002829,1240863,722467.38,1001098.94,1239696.50
724335,1003053,1241104,722603.06,1001223.44,1239784.37
724398,1003099,1241017,722734.75,1001346.38,1239871.00
724498,1003124,1241132,722862.75,1001467.75,1239956.12
724386,1002560,1240972,722987.38,1001586.50,1240039.25
724006,1002061,1240563,723107.13,1001700.00,1240118.75
723947,1001442,1239953,723220.00,1001803.25,1240191.50
723779,1000788,1239517,723324.69,1001891.63,1240254.50
722399,999088,1238284,723417.38,1001959.75,1240303.00
721894,998383,1237575,723491.63,1002000.75,1240332.25
721042,997685,1237088,723543.88,1002010.38,1240338.12
718368,997480,1236913,723569.00,1001988.75,1240320.00
718881,997054,1236544,723560.13,1001937.38,1240278.62
718650,997054,1236479,723517.25,1001857.56,1240215.25
718614,996987,1236885,723444.13,1001751.88,1240132.25
718484,997463,1236969,723344.13,1001624.75,1240034.00
718669,997460,1236920,723220.81,1001481.13,1239924.00
718904,997503,1236987,723078.75,1001325.00,1239805.37
717747,997709,1237572,722921.13,1001159.63,1239680.87
719510,997953,1237430,722751.25,1000988.38,1239554.25
719808,998149,1237540,722575.63,1000814.88,1239427.25
720024,998576,1237723,722400.31,1000642.13,1239301.12
720406,998566,1237745,722228.38,1000472.63,1239177.25
720642,998856,1237923,722063.13,1000308.88,1239057.00
720876,999104,1238012,721906.75,1000153.75,1238942.62
721109,999488,1238547,721759.88,1000009.31,1238835.62
721599,999744,1238505,721623.38,999877.81,1238738.00
721891,999854,1238708,721501.00,999760.50,1238650.75
721834,1000154,1239262,721395.25,999657.50,1238573.50
721944,1000024,1238816,721305.38,999568.44,1238506.75
722609,1000045,1238851,721231.75,999493.00,1238449.62
722502,1000073,1238742,721175.50,999430.50,1238402.00
722062,1000057,1238856,721132.88,999379.88,1238362.75
722911,1000076,1238844,721100.19,999340.25,1238331.62
722515,1000059,1238744,721080.25,999310.50,1238307.62
721719,1000847,1239230,721071.69,999290.88,1238290.25
722518,1000197,1238945,721070.38,999281.38,1238279.75
722760,1000454,1239133,721078.13,999280.94,1238275.50
723045,1000437,1239474,721097.38,999288.63,1238278.00
723365,1000715,1239374,721128.63,999304.38,1238287.25
723388,1000783,1239432,721172.13,999328.19,1238303.37
723456,1000966,1239375,721226.75,999360.13,1238325.50
722044,1001162,1239854,721289.63,999400.13,1238353.75
723561,1001295,1239680,721358.31,999448.50,1238388.37
723941,1001421,1239871,721434.06,999504.88,1238429.00
723952,1001730,1239960,721518.63,999568.25,1238474.87
724024,1001657,1239979,721611.13,999637.88,1238525.00
724278,1001867,1240001,721710.88,999714.00,1238579.37
724393,1002029,1240228,721817.38,999796.75,1238638.25
724622,1002048,1240460,721929.56,999885.94,1238701.75
724871,1002226,1240245,722046.50,999980.75,1238770.00
724772,1002258,1240479,722168.75,1000080.63,1238841.75
724771,1002725,1241071,722296.00,1000184.88,1238916.75
724887,1002721,1240856,722426.63,1000293.63,1238995.12
725015,1002640,1240711,722559.94,1000406.63,1239077.00
725085,1002687,1240923,722695.50,1000522.94,1239161.75
724915,1002816,1240909,722830.00,1000641.63,1239249.00
725398,1002691,1240675,722960.50,1000761.88,1239338.00
725095,1002824,1240840,723089.88,1000882.63,1239426.75
724235,1003391,1241080,723217.50,1001004.00,1239515.37
725249,1003147,1240934,723340.38,1001127.00,1239603.62
725273,1003037,1241126,723460.75,1001250.50,1239691.50
725212,1003043,1241274,723580.13,1001372.88,1239779.12
725388,1003451,1241217,723697.88,1001493.81,1239866.50
725301,1003282,1241230,723813.69,1001613.88,1239953.50
725614,1003433,1241177,723927.50,1001732.56,1240039.25
723850,1003445,1241647,724038.63,1001849.75,1240124.50
725509,1003230,1241053,724145.81,1001964.88,1240208.75
725551,1003084,1240858,724249.50,1002076.13,1240290.12
725732,1002111,1240301,724350.88,1002181.13,1240365.75
724917,1001312,1239561,724448.63,1002275.63,1240432.50
724789,1000430,1238928,724539.63,1002352.69,1240485.75
724305,999675,1238460,724621.06,1002406.88,1240521.50
723093,998454,1237660,724689.63,1002433.88,1240537.50
722283,997951,1237191,724739.75,1002429.88,1240531.00
721672,998017,1237020,724766.63,1002394.69,1240501.50
721559,997959,1237385,724768.69,1002331.25,1240450.25
721044,998028,1237193,724746.31,1002243.38,1240380.00
721014,998269,1237329,724700.38,1002135.25,1240294.62
721052,998312,1237345,724632.94,1002011.13,1240197.25
721124,998744,1237759,724544.44,1001875.25,1240091.25
721599,998694,1237855,724436.38,1001731.50,1239980.00
721936,998899,1237793,724317.25,1001582.88,1239866.00
721544,999405,1238423,724191.56,1001432.63,1239750.75
722018,999527,1238421,724059.38,1001284.63,1239637.37
722276,999613,1238439,723925.75,1001141.06,1239527.75
722829,999695,1238669,723796.19,1001003.13,1239423.25
723026,1000287,1238666,723674.13,1000872.75,1239324.00
723014,1000419,1238964,723561.19,1000752.56,1239231.75
723536,1000662,1239038,723458.50,1000644.13,1239147.87
721874,1000841,1239519,723366.56,1000548.31,1239073.75
723455,1000863,1239264,723284.63,1000465.25,1239010.25
723831,1000800,1239207,723213.38,1000394.50,1238956.25
724028,1001143,1239038,723154.75,1000335.25,1238910.62
724417,1000813,1239220,723109.75,1000286.50,1238872.62
724326,1000861,1239243,723078.69,1000247.50,1238841.62
724286,1000711,1239326,723060.50,1000217.25,1238817.37
724476,1000901,1239357,723052.88,1000194.69,1238799.75
724527,1000768,1239261,723054.38,1000179.38,1238787.75
724645,1000854,1239489,723065.63,1000170.63,1238781.50
724790,1001378,1239951,723087.13,1000168.00,1238780.50
724770,1001319,1239629,723118.38,1000172.13,1238785.00
724748,1001398,1239680,723157.88,1000183.75,1238794.87
724955,1001436,1239749,723204.88,1000202.81,1238810.00
724895,1001842,1240108,723255.75,1000229.31,1238830.87
725347,1001879,1239978,723307.81,1000263.81,1238857.75
725280,1001922,1240017,723364.81,1000306.13,1238890.00
724824,1002684,1240543,723427.25,1000356.13,1238927.00
725107,1002433,1240507,723491.63,1000414.75,1238969.00
725345,1002510,1240213,723559.00,1000481.38,1239016.25
725812,1002389,1240519,723631.94,1000554.69,1239067.25
725675,1002687,1240492,723711.19,1000633.56,1239121.25
725956,1002627,1240646,723796.25,1000717.63,1239179.00
725893,1002867,1240718,723886.63,1000806.25,1239240.50
724430,1003163,1241115,723980.31,1000899.63,1239306.25
725711,1003004,1240945,724075.13,1000997.63,1239376.50
726341,1003136,1240872,724171.56,1001099.25,1239450.25
726350,1003465,1241053,724271.38,1001203.75,1239525.75
726415,1003483,1241073,724374.81,1001311.13,1239602.75
726308,1003409,1240941,724480.75,1001421.13,1239680.75
726555,1003323,1241191,724588.19,1001532.75,1239759.50
726377,1003481,1241152,724696.38,1001644.88,1239839.00
726566,1003513,1241263,724804.38,1001757.06,1239919.12
726475,1003661,1241195,724911.81,1001869.13,1239999.25
726321,1003903,1241555,725018.00,1001981.13,1240079.00
726618,1003775,1241416,725122.06,1002093.00,1240158.12
726750,1003841,1241536,725224.63,1002204.13,1240237.00
726924,1003864,1241314,725326.31,1002314.25,1240315.62
726406,1003864,1241408,725424.63,1002422.69,1240392.87
726800,1003335,1240935,725516.50,1002528.00,1240467.37
726756,1002871,1240677,725604.25,1002627.13,1240537.00
725976,1002059,1239770,725687.38,1002716.63,1240598.75
725740,1000915,1239150,725760.88,1002792.25,1240649.00
725669,1000139,1238722,725824.50,1002846.88,1240683.50
725307,999601,1238162,725878.88,1002875.75,1240699.25
723813,998824,1237713,725920.75,1002876.88,1240694.50
723464,998511,1237556,725944.38,1002849.00,1240669.00
723051,998499,1237647,725946.88,1002793.25,1240624.25
720772,998799,1237947,725927.75,1002712.88,1240563.25
722327,998862,1237693,725886.38,1002612.25,1240489.25
723020,998932,1237970,725825.38,1002495.81,1240404.50
723003,999642,1238136,725749.69,1002367.31,1240311.50
723618,999704,1238377,725663.94,1002231.38,1240213.25
723620,999709,1238452,725572.13,1002092.00,1240112.75
723831,999857,1238356,725477.19,1001951.81,1240011.50
724163,1000024,1238797,725380.75,1001812.75,1239911.00
724673,1000294,1238963,725285.38,1001677.13,1239813.50
724511,1000479,1238935,725194.63,1001547.19,1239721.00
724785,1001290,1239715,725110.38,1001424.75,1239634.00
725159,1001200,1239573,725033.81,1001311.88,1239553.75
725276,1001219,1239525,724966.69,1001210.63,1239482.25
725414,1001264,1239506,724909.75,1001121.31,1239419.37
725528,1001453,1239795,724861.81,1001043.75,1239365.12
725795,1001478,1239702,724822.06,1000978.00,1239319.75
725883,1001357,1239833,724792.50,1000923.38,1239283.00
725382,1001801,1239371,724771.88,1000879.25,1239254.00
725671,1001336,1239486,724756.81,1000845.06,1239231.50
725955,1001374,1239455,724748.75,1000819.25,1239213.75
726123,1001479,1239882,724750.25,1000800.69,1239200.50
725722,1001417,1239854,724760.63,1000788.88,1239191.75
725919,1001404,1239779,724777.88,1000783.25,1239188.50
725952,1001484,1239635,724801.13,1000782.94,1239189.75
724635,1001978,1240097,724830.25,1000788.44,1239195.25
726050,1002030,1240188,724864.75,1000801.00,1239206.00
726222,1001885,1240028,724904.25,1000820.63,1239222.12
726450,1002532,1240460,724948.81,1000846.63,1239243.00
726923,1002621,1240397,724999.69,1000880.00,1239268.50
726945,1002606,1240556,725057.75,1000921.38,1239299.12
726621,1002678,1240724,725122.25,1000970.50,1239335.50
726845,1002798,1240848,725190.88,1001026.38,1239377.50
727073,1002886,1240655,725262.88,1001088.69,1239425.00
727122,1002995,1240667,725339.13,1001156.88,1239476.25
727215,1003586,1241299,725419.56,1001230.63,1239530.50
727120,1003391,1240953,725503.25,1001309.88,1239588.00
727367,1003452,1241128,725589.63,1001394.88,1239649.00
727484,1003608,1241291,725678.69,1001485.13,1239713.75
727324,1003851,1241368,725769.13,1001580.38,1239782.25
727774,1003828,1241324,725859.88,1001680.63,1239854.00
727752,1003852,1241242,725952.19,1001785.00,1239928.00
727660,1004173,1241471,726045.63,1001892.63,1240003.25
727585,1004114,1241453,726137.75,1002003.63,1240079.25
727829,1004047,1241334,726229.00,1002117.00,1240155.62
727832,1004119,1241695,726320.88,1002231.50,1240232.37
726975,1004188,1241448,726411.44,1002346.31,1240309.25
727516,1004285,1241614,726498.13,1002461.25,1240385.75
727830,1004352,1241758,726581.63,1002575.94,1240462.25
727073,1004593,1241849,726663.88,1002690.38,1240539.12
728062,1004183,1241593,726745.38,1002803.75,1240616.00
727986,1003697,1241280,726826.50,1002913.63,1240690.87
728061,1002812,1240659,726906.81,1003016.56,1240761.00
727849,1001969,1240019,726985.63,1003107.88,1240822.75
727426,1001221,1239630,727061.13,1003181.38,1240872.25
726464,1000610,1239015,727129.38,1003232.06,1240906.37
725734,999772,1238220,727185.50,1003257.25,1240922.25
725295,999106,1237967,727225.25,1003254.25,1240917.62
724842,999053,1237945,727246.50,1003222.31,1240892.37
724561,999495,1238360,727248.00,1003163.88,1240848.37
724400,999206,1238142,727229.75,1003082.81,1240788.50
724135,999453,1238158,727192.88,1002983.13,1240715.75
724513,999514,1238263,727139.06,1002869.00,1240633.00
724664,999926,1238517,727071.38,1002744.38,1240542.75
724978,1000104,1238723,726993.00,1002613.25,1240448.37
725353,1000294,1238705,726908.63,1002479.13,1240352.00
725111,1000780,1238767,726820.75,1002345.00,1240255.00
725511,1000649,1239113,726729.88,1002213.44,1240159.50
725635,1000785,1239241,726639.31,1002086.00,1240067.25
725989,1001027,1239625,726552.50,1001964.19,1239979.75
725950,1001517,1239611,726470.94,1001850.25,1239898.12
726473,1001592,1239767,726396.13,1001746.50,1239823.75
726475,1001719,1239739,726329.75,1001653.88,1239757.25
726203,1002087,1240266,726272.88,1001572.75,1239699.50
727027,1002020,1239997,726226.25,1001503.50,1239651.25
727042,1002105,1239874,726190.50,1001446.25,1239611.25
727041,1002207,1240114,726165.25,1001400.19,1239578.50
727449,1001983,1239851,726150.00,1001364.38,1239552.00
727224,1001798,1240031,726145.00,1001337.06,1239531.50
726994,1001870,1239885,726148.44,1001316.75,1239516.50
727336,1001970,1239874,726158.19,1001303.00,1239506.00
727574,1001939,1239943,726174.25,1001295.50,1239499.75
727324,1001971,1239975,726197.25,1001293.63,1239497.25
727517,1002662,1240624,726226.56,1001296.94,1239498.62
727574,1002444,1240287,726261.63,1001305.75,1239504.00
727426,1002432,1240265,726301.75,1001321.06,1239513.75
727743,1002496,1240397,726346.38,1001342.88,1239528.12
727956,1002939,1240683,726394.94,1001371.19,1239547.50
728060,1003034,1240538,726447.56,1001407.06,1239572.25
728231,1003206,1240636,726505.25,1001450.75,1239601.50
728161,1003914,1241060,726567.75,1001502.19,1239634.75
728042,1003585,1241023,726633.50,1001561.38,1239672.62
728330,1003496,1240948,726702.00,1001627.81,1239715.25
728383,1003720,1241569,726773.94,1001700.75,1239762.37
727867,1003882,1241533,726848.25,1001779.75,1239814.50
728420,1004029,1241371,726923.19,1001864.88,1239872.00
728420,1004096,1241627,726999.25,1001955.75,1239934.50
728292,1004459,1241582,727077.00,1002052.00,1240001.50
728545,1004369,1241608,727155.75,1002153.50,1240072.25
728617,1004391,1241647,727235.44,1002259.38,1240146.12
728839,1004664,1241784,727316.19,1002368.63,1240222.00
728856,1004556,1241703,727398.19,1002480.63,1240299.50
728931,1004499,1241738,727481.38,1002594.50,1240378.00
728974,1004571,1241776,727565.25,1002709.25,1240457.25
729144,1004798,1241852,727650.00,1002824.38,1240537.00
729291,1004816,1241894,727735.69,1002940.13,1240616.87
728913,1004839,1242030,727821.81,1003056.00,1240697.00
729038,1005215,1242461,727906.69,1003171.25,1240777.12
728727,1004866,1242156,727989.13,1003285.06,1240857.25
729029,1004820,1241977,728068.31,1003396.81,1240937.00
729239,1004398,1241803,728145.13,1003505.19,1241014.87
729044,1003597,1241083,728220.00,1003606.63,1241088.50
728946,1002836,1240485,728291.63,1003696.25,1241153.75
728501,1002091,1239906,728358.88,1003769.00,1241206.50
726815,1001230,1239066,728419.50,1003820.88,1241243.25
726937,1000319,1238678,728469.75,1003848.00,1241261.50
726697,999938,1238379,728504.88,1003847.25,1241259.50
726204,999348,1238008,728522.25,1003817.56,1241236.37
725427,999330,1237667,728520.06,1003759.63,1241192.50
725241,999330,1238046,728496.63,1003676.25,1241129.50
725333,999584,1238113,728452.63,1003571.19,1241050.75
725295,1000342,1238406,728390.75,1003449.50,1240960.00
725491,1000342,1238515,728314.00,1003316.38,1240860.87
725933,1000316,1238633,728226.19,1003176.38,1240756.25
725972,1000713,1239329,728131.13,1003032.13,1240648.12
726024,1000651,1238978,728031.38,1002886.19,1240538.75
726455,1000727,1238877,727929.38,1002740.88,1240430.12
726443,1000830,1238967,727827.75,1002597.88,1240323.12
726754,1001235,1239440,727727.81,1002459.25,1240219.50
726898,1001438,1239471,727630.75,1002327.50,1240121.50
727084,1001588,1239610,727539.13,1002204.63,1240030.50
727368,1002293,1240177,727455.06,1002091.75,1239946.87
727230,1002317,1239967,727379.50,1001990.75,1239871.25
727853,1002276,1239905,727313.13,1001902.94,1239804.50
727800,1002341,1240047,727257.19,1001828.38,1239746.62
727982,1002364,1240189,727211.75,1001766.25,1239697.75
728046,1002204,1240072,727176.00,1001715.44,1239657.75
728165,1002217,1240071,727150.50,1001674.50,1239625.62
728012,1002351,1240488,727134.88,1001642.25,1239600.50
728245,1002380,1240048,727128.13,1001618.25,1239581.50
728144,1002385,1240183,727129.75,1001602.25,1239568.37
728413,1002275,1240353,727139.25,1001593.63,1239560.87
728253,1002487,1240310,727156.19,1001591.63,1239558.75
728549,1002542,1240384,727180.00,1001596.13,1239562.25
728870,1002735,1240443,727211.13,1001607.19,1239571.37
728800,1003015,1240564,727249.75,1001625.38,1239585.87
728719,1003060,1240598,727294.88,1001651.00,1239605.75
728986,1003109,1240813,727345.50,1001684.00,1239630.75
729058,1003439,1241200,727401.94,1001723.50,1239661.00
729063,1003521,1240993,727463.75,1001769.56,1239696.00
728788,1003701,1241146,727529.50,1001822.75,1239736.12
729093,1003770,1241243,727597.81,1001883.25,1239781.87
729150,1004133,1241399,727666.94,1001951.31,1239833.00
729141,1004040,1241223,727735.25,1002027.25,1239889.00
729345,1004296,1241311,727804.56,1002110.00,1239948.75
729379,1004585,1241759,727876.69,1002198.69,1240011.50
729421,1004475,1241667,727951.38,1002292.88,1240077.25
729566,1004449,1241631,728028.25,1002391.63,1240146.50
729712,1004565,1241873,728107.38,1002494.25,1240218.87
729872,1004757,1241785,728188.75,1002600.00,1240294.37
730180,1004870,1241804,728272.63,1002709.06,1240372.12
730051,1004881,1241697,728359.50,1002820.88,1240451.00
729577,1005267,1242081,728449.19,1002934.75,1240530.50
729814,1005043,1241904,728540.25,1003049.75,1240610.62
730113,1004967,1241989,728631.25,1003165.50,1240691.12
730371,1005076,1242067,728722.38,1003281.25,1240771.50
729995,1005182,1242066,728813.69,1003396.50,1240851.87
730262,1005309,1242087,728904.13,1003511.31,1240931.75
730168,1005153,1242208,728993.25,1003625.31,1241010.75
730193,1005706,1242519,729080.63,1003738.00,1241089.75
730573,1005593,1242376,729166.25,1003849.75,1241169.00
730485,1005518,1242363,729251.13,1003960.75,1241248.00
730884,1005198,1242671,729335.88,1004070.06,1241325.87
730232,1004606,1241808,729420.25,1004175.00,1241400.75
729866,1004154,1241467,729501.13,1004271.44,1241469.75
729773,1003268,1240844,729575.69,1004354.88,1241530.25
728987,1001952,1239718,729640.38,1004421.75,1241577.75
729050,1001155,1239159,729691.63,1004467.56,1241607.12
728025,1000674,1238711,729728.88,1004486.25,1241615.25
727555,1000246,1238684,729750.25,1004474.81,1241601.62
726314,999853,1238232,729751.75,1004433.38,1241566.50
726022,999578,1238045,729729.63,1004363.38,1241511.25
726162,999492,1237828,729683.75,1004266.88,1241437.00
725885,999854,1238219,729616.75,1004147.56,1241346.25
725936,999915,1238117,729531.00,1004010.31,1241242.25
725779,1000139,1238325,729428.69,1003859.50,1241128.12
724995,1000551,1238667,729312.44,1003698.94,1241006.75
725965,1000487,1238697,729185.13,1003532.38,1240881.00
726578,1000651,1238794,729050.50,1003363.00,1240753.87
726765,1000701,1239006,728912.69,1003193.50,1240627.12
726965,1001020,1238937,728775.38,1003026.13,1240502.25
727302,1001133,1239208,728641.13,1002863.25,1240380.75
727394,1001452,1239310,728512.38,1002707.25,1240264.50
727394,1001912,1239799,728390.25,1002560.38,1240155.75
727882,1002020,1239932,728275.50,1002424.94,1240056.25
728234,1001953,1239755,728170.88,1002301.88,1239967.00
728424,1002127,1240370,728078.75,1002191.25,1239887.00
728500,1002305,1240001,727999.63,1002093.00,1239815.50
728262,1002269,1239901,727933.00,1002007.50,1239753.12
728519,1002347,1239840,727877.44,1001934.25,1239699.12
728506,1002434,1240062,727828.88,1001873.13,1239653.00
728183,1002351,1240085,727782.94,1001824.00,1239615.00
728561,1002396,1240077,727742.88,1001785.31,1239584.75
728899,1002841,1240489,727713.44,1001755.56,1239562.00
728673,1002688,1240224,727695.06,1001734.56,1239546.00
729131,1002615,1240142,727687.25,1001722.38,1239536.87
729423,1002734,1240197,727690.63,1001718.50,1239533.50
729331,1002969,1240284,727705.81,1001722.69,1239535.25
729529,1003105,1240474,727732.13,1001735.38,1239542.62
729547,1003307,1240466,727768.31,1001756.63,1239555.50
727729,1003481,1241087,727812.00,1001786.25,1239574.00
729009,1003623,1240842,727859.69,1001823.75,1239598.50
729795,1003657,1240946,727911.38,1001869.25,1239629.25
729553,1003796,1241171,727968.81,1001922.75,1239665.75
729744,1004039,1241135,728031.88,1001983.88,1239707.37
729922,1004056,1241120,728100.13,1002052.38,1239754.25
730141,1004187,1241285,728173.69,1002127.81,1239806.00
730187,1004545,1241571,728252.25,1002209.63,1239862.50
730486,1004510,1241533,728335.13,1002297.75,1239924.50
730357,1004515,1241586,728422.63,1002391.50,1239991.00
730262,1004585,1242229,728514.13,1002489.94,1240061.50
730307,1004729,1241747,728607.88,1002592.25,1240135.25
730229,1004755,1241591,728702.94,1002698.00,1240211.75
730445,1004868,1241931,728798.50,1002806.63,1240290.00
730320,1004903,1241818,728892.00,1002918.00,1240370.50
730501,1004953,1241859,728981.00,1003032.13,1240452.37
730560,1005078,1241886,729068.13,1003147.63,1240535.00
730663,1005655,1242282,729156.00,1003263.38,1240617.25
730881,1005415,1242055,729244.88,1003379.25,1240698.87
731056,1005376,1242118,729335.13,1003495.75,1240780.25
730720,1005482,1242098,729426.50,1003612.63,1240861.62
730709,1005630,1242158,729516.69,1003729.56,1240942.75
730949,1005496,1242318,729604.63,1003846.13,1241023.37
731101,1005634,1242231,729691.50,1003961.63,1241103.50
729358,1005961,1242549,729778.00,1004075.50,1241182.50
730399,1005860,1242328,729862.13,1004188.00,1241260.00
730712,1005993,1242191,729941.88,1004299.25,1241335.50
730916,1005793,1242245,730017.75,1004409.38,1241408.75
731176,1005586,1242209,730091.38,1004516.63,1241479.50
731103,1005104,1241819,730163.63,1004618.63,1241546.62
730775,1004450,1241293,730233.88,1004711.88,1241607.62
730127,1002888,1240360,730299.50,1004791.94,1241658.37
729882,1002026,1239596,730357.19,1004852.63,1241694.00
729580,1001349,1239047,730404.69,1004887.25,1241710.50
728916,1000668,1238615,730440.00,1004891.88,1241705.75
727374,1000068,1237947,730458.25,1004865.13,1241678.50
726464,999702,1237686,730453.06,1004806.94,1241627.75
726432,999393,1237631,730420.88,1004718.25,1241554.25
725705,999883,1237895,730360.00,1004603.00,1241461.50
725861,999849,1237872,730270.13,1004466.69,1241352.87
725589,999896,1237856,730155.75,1004313.13,1241231.50
725847,1000756,1238631,730022.38,1004145.50,1241100.00
726365,1000474,1238455,729874.50,1003968.13,1240961.87
726629,1000589,1238387,729717.88,1003785.38,1240820.50
726654,1000738,1238676,729556.50,1003600.81,1240678.75
726910,1001074,1238839,729391.19,1003417.25,1240538.50
726964,1001025,1238980,729222.63,1003237.38,1240402.25
727147,1001466,1239049,729055.50,1003063.25,1240271.50
726029,1001701,1239595,728893.75,1002897.25,1240147.25
727361,1001959,1239670,728738.88,1002741.50,1240031.25
728148,1002098,1239727,728593.19,1002597.69,1239925.62
728242,1002209,1239830,728460.13,1002467.00,1239830.87
728779,1002528,1239827,728341.81,1002350.25,1239746.87
728843,1002639,1239843,728239.75,1002248.00,1239673.25
728862,1002601,1240012,728153.94,1002160.31,1239609.75
728749,1002685,1240307,728082.88,1002086.25,1239556.75
728907,1002713,1240277,728025.06,1002025.00,1239515.00
728852,1002653,1240011,727979.88,1001975.69,1239483.25
729074,1002743,1240432,727946.81,1001937.38,1239459.75
728957,1002872,1240229,727925.25,1001909.44,1239443.75
729160,1002912,1240136,727914.38,1001891.75,1239435.00
729112,1002819,1240162,727913.38,1001883.25,1239432.62
729217,1003178,1240556,727919.19,1001884.00,1239436.50
729597,1003249,1240492,727929.38,1001894.50,1239447.37
729734,1003440,1240586,727947.63,1001914.38,1239464.75
729766,1003877,1240887,727976.63,1001942.63,1239488.25
730070,1003844,1240934,728015.81,1001979.25,1239517.50
730227,1003862,1240980,728065.19,1002024.50,1239553.25
730178,1003947,1241072,728124.25,1002078.00,1239595.25
730305,1004319,1241280,728189.88,1002139.44,1239643.37
730514,1004316,1241324,728259.94,1002208.94,1239697.50
730610,1004526,1241318,728336.31,1002286.13,1239757.12
729012,1004801,1241719,728420.31,1002370.44,1239821.37
730215,1004854,1241625,728510.06,1002461.75,1239890.12
730895,1004830,1241746,728603.88,1002559.50,1239963.50
730930,1005019,1241896,728702.31,1002662.75,1240041.25
731300,1005178,1241926,728806.13,1002771.00,1240122.87
731206,1005340,1242027,728915.13,1002884.31,1240208.25
731339,1005322,1241950,729028.50,1003001.88,1240296.50
731142,1005699,1242513,729144.69,1003123.13,1240387.62
731298,1005567,1242226,729261.94,1003247.50,1240482.12
731074,1005593,1242185,729379.38,1003374.31,1240578.87
731403,1005629,1242600,729496.38,1003502.50,1240676.00
731371,1005656,1242216,729613.00,1003631.19,1240773.25
731124,1005708,1242286,729728.38,1003759.63,1240869.50
731360,1005669,1242247,729841.38,1003887.13,1240964.75
731410,1005946,1242512,729949.19,1004013.75,1241058.62
731706,1006007,1242607,730050.00,1004140.44,1241152.00
732046,1006232,1242627,730148.38,1004266.75,1241244.75
731836,1006663,1243136,730248.13,1004391.88,1241336.75
731878,1006474,1242948,730348.25,1004515.25,1241427.62
732041,1006329,1242844,730448.13,1004637.50,1241518.00
732164,1006467,1242798,730547.75,1004758.25,1241607.50
731692,1006561,1242869,730645.44,1004877.38,1241695.50
731864,1006354,1242813,730738.38,1004994.25,1241781.37
731764,1006290,1242799,730827.13,1005107.63,1241864.87
730287,1005382,1242087,730912.06,1005215.81,1241944.62
731529,1004686,1241747,730992.00,1005314.75,1242017.62
731207,1003828,1240964,731065.94,1005398.13,1242079.75
730920,1002997,1239955,731132.38,1005460.31,1242126.75
729808,1001623,1239202,731187.88,1005496.19,1242154.00
729158,1001143,1238710,731227.75,1005501.13,1242157.75
728377,1000848,1238653,731247.50,1005473.94,1242136.50
727060,1000480,1238731,731244.44,1005416.13,1242092.50
727009,1000325,1238349,731216.56,1005329.63,1242028.25
726814,1000385,1238169,731162.50,1005217.13,1241945.00
726816,1000585,1238768,731083.25,1005082.75,1241845.00
726713,1000965,1238739,730981.88,1004931.50,1241732.25
726858,1001013,1238819,730861.63,1004768.44,1241610.50
727174,1001029,1238764,730726.44,1004596.88,1241482.50
727452,1001522,1239444,730578.38,1004420.63,1241350.87
727712,1001614,1239345,730419.50,1004243.69,1241219.25
727958,1001716,1239240,730256.75,1004068.63,1241089.50
728084,1002425,1239920,730096.00,1003897.13,1240962.00
728667,1002460,1239783,729940.25,1003731.69,1240838.75
728608,1002535,1239761,729792.25,1003575.50,1240721.75
729157,1002752,1239981,729654.06,1003430.25,1240611.87
729207,1002980,1240444,729525.63,1003297.13,1240510.75
729587,1003203,1240420,729406.63,1003177.31,1240420.12
729647,1003285,1240491,729300.50,1003071.50,1240340.37
727877,1003415,1240780,729209.13,1002979.50,1240271.25
729515,1003449,1240654,729131.13,1002900.81,1240212.50
729907,1003425,1240492,729065.88,1002835.00,1240163.75
729843,1003401,1240861,729013.69,1002781.19,1240123.75
730175,1003370,1240644,728974.38,1002738.25,1240092.25
730237,1003454,1240602,728947.94,1002705.13,1240068.50
730235,1003397,1240680,728933.88,1002681.06,1240051.75
730089,1003914,1241071,728930.75,1002665.63,1240042.25
730367,1003667,1240855,728937.31,1002658.69,1240040.25
730459,1003765,1240785,728953.25,1002660.00,1240044.50
730657,1003982,1241479,728978.50,1002669.56,1240054.50
730868,1004167,1241153,729013.13,1002687.50,1240070.50
730887,1004479,1241348,729056.88,1002714.38,1240092.50
730932,1004489,1241299,729109.00,1002750.50,1240120.75
730948,1004681,1241759,729165.88,1002795.88,1240155.25
731192,1004942,1241713,729224.81,1002850.81,1240196.50
731326,1005047,1241624,729288.63,1002914.88,1240244.00
731513,1005532,1242143,729360.00,1002986.75,1240296.62
731783,1005398,1242091,729438.88,1003066.13,1240354.75
731554,1005200,1242099,729524.81,1003152.31,1240418.25
731763,1005365,1242050,729616.25,1003244.06,1240486.75
731613,1005571,1242276,729710.56,1003340.63,1240559.00
731885,1005659,1242172,729805.50,1003441.94,1240634.75
731992,1005687,1242272,729902.75,1003547.50,1240713.25
730749,1005897,1242715,730003.75,1003656.56,1240794.00
731717,1005936,1242571,730107.13,1003768.81,1240877.00
732251,1005880,1242540,730211.56,1003883.50,1240962.12
732454,1005946,1242538,730318.13,1003999.50,1241049.12
732096,1006090,1242591,730426.75,1004116.38,1241137.25
732532,1006162,1242709,730536.25,1004233.81,1241225.87
732316,1006268,1242577,730646.38,1004351.69,1241314.50
732148,1006500,1242911,730756.25,1004469.75,1241403.00
732564,1006608,1242905,730865.06,1004588.13,1241491.37
732309,1006547,1242560,730972.63,1004707.00,1241579.25
732598,1006694,1243216,731078.38,1004825.75,1241665.00
732627,1006729,1243052,731182.38,1004944.06,1241749.37
732643,1006814,1242907,731284.63,1005061.63,1241832.75
732787,1006643,1242870,731385.19,1005177.75,1241914.37
732511,1006938,1243228,731481.19,1005292.13,1241994.00
732626,1006695,1243210,731569.75,1005404.88,1242072.75
732732,1006931,1243127,731653.38,1005514.94,1242150.50
732849,1006957,1243200,731735.13,1005622.25,1242226.25
733011,1006578,1242789,731815.44,1005726.25,1242299.00
732802,1005822,1242223,731894.44,1005823.88,1242366.25
732923,1005320,1241716,731971.38,1005910.38,1242424.50
732047,1003824,1240831,732043.69,1005980.75,1242470.25
731435,1002887,1240059,732106.38,1006028.00,1242498.75
731074,1002299,1239668,732156.38,1006047.44,1242506.75
728085,1001194,1238893,732191.38,1006036.69,1242493.00
728459,1000785,1238676,732205.38,1005994.13,1242456.75
728200,1000823,1238471,732192.63,1005919.81,1242397.75
727891,1000791,1238754,732152.13,1005816.75,1242317.00
727640,1000922,1238578,732085.19,1005689.38,1242217.25
727611,1001051,1238740,731994.06,1005542.00,1242102.50
727905,1001154,1238938,731882.13,1005379.00,1241976.62
727847,1001778,1239263,731753.63,1005204.56,1241843.50
728278,1001716,1239185,731612.56,1005023.00,1241706.50
728750,1001812,1239096,731463.81,1004838.13,1241567.00
728667,1001919,1239857,731311.63,1004652.88,1241426.50
728838,1002289,1239737,731158.38,1004469.88,1241287.75
729235,1002323,1239848,731006.50,1004291.69,1241153.50
729419,1002570,1239856,730859.13,1004120.38,1241025.12
729556,1003062,1240388,730715.69,1003958.63,1240904.25
730138,1003292,1240392,730575.94,1003809.38,1240792.75
730283,1003341,1240382,730445.88,1003673.88,1240691.37
730476,1003967,1240804,730329.94,1003552.13,1240600.12
730729,1003800,1240661,730228.75,1003444.69,1240519.37
730998,1003609,1240586,730143.13,1003351.63,1240449.00
731166,1003567,1240604,730073.69,1003271.63,1240388.00
730974,1003715,1240466,730017.13,1003203.50,1240335.50
731087,1003550,1240568,729969.75,1003146.50,1240290.50
730744,1003621,1240524,729932.75,1003099.56,1240252.62
729833,1003704,1240946,729906.75,1003061.75,1240221.50
730938,1003750,1240838,729890.50,1003032.56,1240197.37
731217,1003699,1240780,729884.13,1003011.63,1240180.37
731119,1003829,1241030,729887.63,1002998.50,1240169.75
731355,1003996,1241042,729900.25,1002993.00,1240165.37
731626,1004109,1241046,729922.13,1002995.38,1240167.50
731631,1004142,1241140,729953.38,1003005.50,1240175.75
731533,1004739,1241573,729992.75,1003023.00,1240190.87
731955,1004611,1241470,730039.25,1003047.88,1240213.25
731845,1004721,1241296,730093.00,1003080.88,1240242.00
731818,1004740,1241821,730153.38,1003121.88,1240275.75
731835,1005013,1241693,730219.00,1003170.31,1240314.00
732071,1005000,1241578,730289.13,1003226.00,1240357.25
732096,1005108,1241673,730363.63,1003288.44,1240404.75
732057,1005518,1241938,730439.38,1003357.50,1240456.25
732620,1005445,1241761,730513.63,1003433.69,1240511.75
732722,1005607,1242037,730591.00,1003516.25,1240570.75
732695,1005946,1242249,730674.63,1003604.13,1240633.25
732772,1005742,1242135,730763.50,1003696.75,1240698.75
732869,1005738,1242037,730856.63,1003793.38,1240767.00
733018,1005887,1242159,730953.69,1003893.13,1240836.75
732664,1006051,1242317,731051.88,1003995.75,1240908.12
732895,1006103,1242211,731148.19,1004101.19,1240981.00
733028,1006085,1242503,731244.13,1004208.75,1241055.00
731295,1006148,1242625,731341.06,1004317.50,1241130.50
732610,1006307,1242520,731437.00,1004426.88,1241207.37
733135,1006324,1242600,731531.44,1004536.88,1241285.00
732540,1006299,1242731,731624.50,1004647.00,1241363.00
733205,1006314,1242565,731715.63,1004756.25,1241440.75
733202,1006520,1242590,731805.75,1004864.50,1241517.75
733505,1006697,1242630,731896.06,1004972.06,1241593.62
733027,1006582,1242732,731986.38,1005079.13,1241668.25
733224,1006095,1242376,732075.38,1005184.13,1241741.00
733193,1005791,1241964,732162.13,1005283.75,1241809.75
733030,1005224,1241367,732246.00,1005375.00,1241871.75
731914,1003690,1240468,732324.13,1005452.63,1241923.50
731713,1002818,1239852,732391.63,1005509.50,1241959.50
731452,1002074,1239441,732446.19,1005540.25,1241976.37
729818,1001365,1238763,732483.13,1005543.13,1241972.00
729430,1001017,1238316,732495.56,1005517.75,1241945.25
729119,1000710,1238236,732482.75,1005463.50,1241895.75
728859,1001143,1238488,732447.00,1005381.25,1241825.12
728714,1001029,1238422,732389.38,1005274.88,1241736.75
728715,1001092,1238562,732311.81,1005149.38,1241634.12
729269,1001372,1238869,732218.13,1005009.38,1241521.50
729042,1001793,1239141,732110.81,1004859.38,1241402.50
729263,1002067,1239233,731991.44,1004704.31,1241280.62
729737,1002024,1239383,731865.00,1004547.50,1241158.12
728419,1002378,1239740,731737.25,1004391.25,1241036.87
729819,1002552,1239741,731610.56,1004237.81,1240918.75
730491,1002706,1239803,731487.00,1004089.81,1240805.37
729892,1002791,1240445,731368.25,1003949.00,1240698.12
730899,1003352,1240269,731255.63,1003817.00,1240598.25
731379,1003430,1240373,731152.63,1003696.19,1240507.25
731500,1003524,1240256,731062.69,1003587.63,1240425.50
731292,1003841,1240706,730986.19,1003491.44,1240353.25
731696,1003749,1240283,730922.63,1003407.63,1240290.25
731573,1003528,1240554,730871.50,1003335.56,1240236.00
731611,1003497,1240736,730831.75,1003273.75,1240189.75
731765,1003489,1240548,730802.56,1003220.81,1240150.75
731855,1003509,1240467,730783.75,1003176.13,1240118.75
731905,1003585,1240256,730774.94,1003139.25,1240093.00
731893,1003728,1240515,730772.63,1003110.38,1240072.00
731705,1003554,1240423,730772.88,1003089.31,1240056.25
732317,1003758,1240642,730778.63,1003075.13,1240045.50
732012,1004228,1240560,730793.25,1003067.13,1240039.87
732414,1003983,1240686,730816.50,1003065.31,1240039.00
732424,1003988,1240837,730847.88,1003070.00,1240043.25
732753,1004138,1240884,730887.75,1003081.00,1240052.50
732364,1004327,1241020,730932.50,1003098.63,1240067.00
732383,1004454,1241178,730977.50,1003123.00,1240086.75
732627,1004568,1241260,731025.25,1003154.19,1240112.00
731923,1004928,1241518,731078.88,1003192.38,1240142.75
732507,1005066,1241348,731137.75,1003238.31,1240178.75
732958,1005101,1241489,731201.06,1003291.88,1240219.25
733163,1005126,1241881,731269.38,1003352.50,1240264.00
733057,1005325,1241663,731342.88,1003419.25,1240312.75
733503,1005374,1241727,731421.38,1003491.81,1240365.50
733810,1005540,1241689,731505.69,1003569.88,1240421.62
733382,1005862,1242283,731595.50,1003653.13,1240481.75
733341,1005819,1241969,731688.44,1003741.38,1240546.25
733682,1005624,1242010,731783.13,1003833.94,1240614.25
733466,1005778,1242331,731879.63,1003929.38,1240684.00
732976,1006102,1242105,731975.88,1004027.44,1240754.50
733375,1005996,1242099,732069.75,1004128.44,1240826.00
733898,1005972,1242223,732162.38,1004231.38,1240898.75
733363,1006221,1242295,732255.00,1004335.81,1240972.50
733606,1006243,1242294,732346.56,1004441.94,1241047.12
734091,1006216,1242328,732437.13,1004549.00,1241122.12
733753,1006340,1242101,732527.69,1004655.56,1241196.87
733969,1005743,1241846,732617.63,1004759.94,1241269.87
733920,1005301,1241577,732706.38,1004859.19,1241338.62
733746,1004808,1241334,732793.38,1004949.94,1241401.25
732641,1003365,1240141,732873.81,1005027.25,1241454.00
732744,1002673,1239641,732942.13,1005084.69,1241492.50
731424,1001916,1239035,732996.75,1005117.63,1241512.62
729814,1001114,1238749,733035.81,1005123.69,1241512.75
729673,1000754,1238205,733055.00,1005101.44,1241492.25
729394,1000618,1238176,733049.88,1005050.88,1241450.75
729060,1000655,1238127,733018.44,1004974.13,1241390.00
728906,1000562,1238297,732962.00,1004874.56,1241312.50
729193,1000776,1238256,732883.38,1004755.63,1241221.12
729131,1001091,1238400,732786.38,1004621.81,1241119.25
729332,1001596,1239443,732674.44,1004477.63,1241010.87
729752,1001710,1238906,732551.63,1004327.50,1240901.00
730003,1001768,1239013,732422.50,1004175.13,1240790.50
730160,1001821,1239881,732290.50,1004023.06,1240680.00
729944,1002144,1239315,732157.88,1003873.19,1240571.00
730402,1002330,1239497,732025.75,1003728.00,1240465.62
730720,1002445,1239543,731897.00,1003589.38,1240365.25
730419,1002924,1240029,731774.31,1003459.63,1240271.37
731151,1003002,1240062,731659.38,1003340.75,1240186.00
731504,1003186,1240019,731554.13,1003233.81,1240109.50
731849,1003617,1240311,731460.88,1003138.75,1240041.50
731853,1003367,1240290,731380.81,1003055.75,1239982.50
731966,1003312,1240291,731313.75,1002984.31,1239932.50
732001,1003201,1239995,731259.19,1002923.63,1239890.37
731564,1003189,1239960,731213.38,1002872.19,1239854.50
731876,1003146,1240207,731172.56,1002829.13,1239824.12
731847,1003150,1240025,731138.88,1002793.44,1239799.25
731655,1003386,1240310,731114.81,1002764.50,1239779.50
732376,1003329,1240184,731100.75,1002742.00,1239764.50
732364,1003146,1239952,731097.00,1002725.63,1239753.75
732115,1003390,1240854,731102.56,1002715.13,1239746.50
732466,1003774,1240456,731116.00,1002711.00,1239743.37
732755,1003882,1240582,731137.63,1002714.63,1239745.50
732544,1003954,1240578,731167.63,1002726.38,1239753.25
732800,1004695,1241452,731204.81,1002745.94,1239767.50
733071,1004328,1241101,731248.81,1002773.63,1239790.50
733247,1004370,1240887,731300.56,1002809.19,1239820.50
733452,1004437,1241684,731360.50,1002852.13,1239855.50
732698,1004787,1241095,731427.00,1002902.06,1239895.50
733177,1004693,1241191,731497.25,1002959.13,1239939.62
733512,1004702,1241431,731571.38,1003022.44,1239988.00
732827,1005019,1241418,731650.00,1003091.69,1240041.00
733776,1005118,1241493,731732.94,1003167.56,1240097.87
733733,1005052,1241266,731820.31,1003249.13,1240157.75
734016,1005839,1241701,731912.00,1003334.75,1240219.12
734097,1005410,1241765,732007.94,1003424.63,1240282.00
734005,1005300,1241695,732107.63,1003518.06,1240347.50
734067,1005217,1241547,732209.75,1003613.63,1240414.87
733838,1005427,1241826,732310.38,1003710.25,1240483.50
734156,1005519,1241862,732406.50,1003807.88,1240553.50
734170,1005392,1241732,732501.00,1003906.19,1240624.50
733846,1005949,1242033,732597.13,1004004.63,1240696.00
734237,1005690,1241809,732694.31,1004103.31,1240767.75
734533,1005429,1241571,732792.25,1004201.50,1240838.25
734366,1005192,1241274,732890.63,1004297.25,1240906.00
733922,1004080,1240707,732987.69,1004386.69,1240968.62
733538,1003186,1240170,733080.38,1004463.75,1241022.37
733181,1002270,1239374,733165.50,1004522.50,1241063.00
731285,1001299,1238684,733240.13,1004558.63,1241086.87
730794,1000412,1238062,733298.44,1004568.75,1241090.50
729660,1000221,1237573,733332.50,1004549.50,1241071.75
729298,999850,1237740,733337.25,1004500.56,1241030.50
728119,999671,1237448,733310.25,1004423.63,1240968.37
728276,999838,1237611,733251.00,1004321.56,1240888.25
728236,999720,1237602,733161.88,1004198.13,1240793.25
727502,1000277,1237679,733046.63,1004057.88,1240686.12
728575,1000240,1237847,732909.00,1003905.75,1240569.75
728682,1000280,1237946,732754.75,1003745.00,1240447.00
728737,1001155,1238132,732588.63,1003578.00,1240320.25
729158,1000694,1238176,732414.56,1003408.00,1240191.75
729469,1000877,1238350,732236.88,1003237.94,1240063.50
729650,1001034,1238496,732059.50,1003070.50,1239937.75
729296,1001536,1238647,731881.69,1002908.50,1239816.25
730029,1001662,1239059,731702.50,1002754.75,1239701.00
730323,1001699,1239166,731528.63,1002610.81,1239593.87
730421,1002378,1239644,731366.75,1002477.75,1239496.25
731207,1002474,1239462,731219.88,1002357.25,1239408.87
731258,1002498,1239381,731089.50,1002251.06,1239331.75
731251,1002438,1239805,730975.50,1002158.94,1239264.25
731488,1002430,1239513,730877.38,1002079.75,1239206.25
731394,1002340,1239492,730794.63,1002012.25,1239157.25
731520,1002458,1239399,730726.25,1001955.50,1239116.25
731644,1002838,1239883,730671.50,1001908.75,1239083.25
731430,1002384,1239425,730629.00,1001871.38,1239058.25
731544,1002326,1239281,730597.75,1001842.13,1239039.50
731880,1002470,1239962,730577.44,1001820.25,1239025.25
731557,1002632,1239647,730567.88,1001805.75,1239016.00
731909,1002687,1239865,730567.88,1001798.75,1239012.50
732096,1002730,1239904,730577.44,1001799.06,1239015.25
731802,1003260,1239986,730596.25,1001807.13,1239024.37
732607,1003307,1240026,730624.00,1001824.13,1239039.37
732660,1003565,1240229,730661.75,1001850.50,1239060.25
732742,1004175,1240486,730709.75,1001886.13,1239087.00
732920,1003794,1240551,730767.19,1001930.88,1239119.87
733313,1004026,1240477,730834.00,1001984.38,1239159.00
733368,1004119,1240661,730910.56,1002046.25,1239203.62
732930,1004227,1240873,730993.00,1002116.00,1239253.75
733474,1004220,1240809,731077.50,1002192.81,1239309.37
733496,1004506,1240955,731166.50,1002276.00,1239369.75
733217,1004687,1241067,731262.25,1002365.13,1239434.50
733848,1004633,1241130,731364.56,1002459.38,1239503.50
733940,1004841,1241190,731472.81,1002558.50,1239576.25
733914,1004774,1241560,731586.25,1002662.19,1239652.25
734160,1004961,1241321,731703.88,1002769.63,1239730.62
734104,1004899,1241328,731825.13,1002880.00,1239811.25
734173,1004987,1241315,731949.06,1002992.50,1239893.50
734323,1005259,1242011,732074.50,1003106.69,1239978.00
734548,1005140,1241529,732201.00,1003222.25,1240065.12
734763,1005189,1241444,732329.50,1003338.63,1240153.50
734686,1005418,1242010,732460.13,1003455.13,1240241.50
734179,1005564,1241766,732591.00,1003572.25,1240329.25
734629,1005448,1241655,732719.88,1003689.75,1240416.75
734806,1005215,1241611,732847.13,1003806.13,1240503.12
733915,1004717,1240947,732972.94,1003919.63,1240586.50
734256,1003883,1240328,733095.13,1004027.00,1240662.75
734031,1003020,1239926,733211.50,1004121.63,1240728.12
733361,1001622,1238449,733319.44,1004197.38,1240779.25
731380,1000686,1238047,733412.63,1004248.75,1240812.00
730588,1000053,1237409,733482.19,1004269.75,1240821.50
729683,999575,1237136,733522.25,1004257.75,1240805.62
727930,999225,1237213,733526.19,1004213.13,1240765.50
