4997,6387,5573,61,79,63,10240,-1.00,-1.00,0.00,0.00,4937,6309,5510,0,0,0,63,0,0
4996,6384,5572,60,77,62,10240,-1.00,-1.00,0.00,0.00,4939,6311,5512,0,0,0,63,0,0
4997,6386,5571,58,75,60,10240,-1.00,-1.00,0.00,0.00,4941,6314,5514,0,0,0,63,0,0
4997,6386,5572,56,73,59,10240,-1.00,-1.00,0.00,0.00,4943,6316,5516,0,0,0,63,0,0
4999,6387,5573,55,71,57,10240,-1.00,-1.00,0.00,0.00,4945,6318,5518,0,0,0,63,0,0
4999,6388,5574,54,69,55,10240,-1.00,-1.00,0.00,0.00,4947,6321,5520,0,0,0,63,0,0
4999,6388,5573,52,67,54,10240,-1.00,-1.00,0.00,0.00,4948,6323,5521,0,0,0,63,0,0
5001,6389,5573,52,66,52,10240,-1.00,-1.00,0.00,0.00,4950,6325,5523,0,0,0,63,0,0
5000,6389,5572,50,64,50,10240,-1.00,-1.00,0.00,0.00,4952,6327,5525,0,0,0,63,0,0
4999,6388,5572,49,62,48,10240,-1.00,-1.00,0.00,0.00,4953,6329,5526,0,0,0,63,0,0
5002,6390,5575,48,61,47,10240,-1.00,-1.00,0.00,0.00,4955,6331,5528,0,0,0,63,0,0
5001,6390,5575,46,59,46,10240,-1.00,-1.00,0.00,0.00,4956,6333,5529,0,0,0,63,0,0
5001,6391,5575,45,57,45,10240,-1.00,-1.00,0.00,0.00,4958,6335,5531,0,0,0,63,0,0
5002,6391,5575,44,56,45,10240,-1.00,-1.00,0.00,0.00,4959,6337,5532,0,0,0,63,0,0
5002,6390,5575,43,54,43,10240,-1.00,-1.00,0.00,0.00,4961,6339,5534,0,0,0,63,0,0
5003,6393,5577,42,53,42,10240,-1.00,-1.00,0.00,0.00,4962,6341,5535,0,0,0,63,0,0
5003,6390,5576,41,51,41,10240,-1.00,-1.00,0.00,0.00,4964,6342,5537,0,0,0,63,0,0
5002,6390,5576,39,49,40,10240,-1.00,-1.00,0.00,0.00,4965,6344,5538,0,0,0,63,0,0
5002,6391,5574,38,48,38,10240,-1.00,-1.00,0.00,0.00,4966,6345,5539,0,0,0,63,0,0
5001,6389,5574,36,45,36,10240,-1.00,-1.00,0.00,0.00,4967,6347,5540,0,0,0,63,0,0
5000,6388,5574,34,43,34,10240,-1.00,-1.00,0.00,0.00,4968,6348,5542,0,0,0,63,0,0
5002,6387,5574,33,41,33,10240,-1.00,-1.00,0.00,0.00,4969,6350,5543,0,0,0,63,0,0
5001,6387,5573,32,38,31,10240,-1.00,-1.00,0.00,0.00,4971,6351,5544,0,0,0,63,0,0
5000,6387,5572,30,37,29,10240,-1.00,-1.00,0.00,0.00,4972,6352,5545,0,0,0,63,0,0
5001,6386,5572,30,35,28,10240,-1.00,-1.00,0.00,0.00,4972,6353,5545,0,0,0,63,0,0
4999,6386,5571,28,34,27,10240,-1.00,-1.00,0.00,0.00,4973,6354,5546,0,0,0,63,0,0
4999,6382,5570,27,31,25,10240,-1.00,-1.00,0.00,0.00,4974,6355,5547,0,0,0,63,0,0
5000,6382,5570,26,29,24,10240,-1.00,-1.00,0.00,0.00,4975,6356,5548,0,0,0,63,0,0
4997,6380,5567,24,27,22,10240,-1.00,-1.00,0.00,0.00,4976,6357,5548,0,0,0,63,0,0
4997,6381,5569,22,24,21,10240,-1.00,-1.00,0.00,0.00,4977,6358,5549,0,0,0,63,0,0
4997,6379,5567,21,23,19,10240,-1.00,-1.00,0.00,0.00,4977,6358,5550,0,0,0,63,0,0
4998,6378,5568,20,21,18,10240,-1.00,-1.00,0.00,0.00,4978,6359,5550,0,0,0,63,0,0
4997,6379,5566,19,20,17,10240,-1.00,-1.00,0.00,0.00,4979,6360,5551,0,0,0,63,0,0
4997,6378,5567,19,19,16,10240,-1.00,-1.00,0.00,0.00,4979,6360,5551,0,0,0,63,0,0
4997,6379,5566,18,18,15,10240,-1.00,-1.00,0.00,0.00,4980,6361,5552,0,0,0,63,0,0
4996,6376,5565,17,17,14,10240,-1.00,-1.00,0.00,0.00,4980,6361,5552,0,0,0,63,0,0
4999,6380,5568,17,17,14,10240,-1.00,-1.00,0.00,0.00,4981,6362,5553,0,0,0,63,0,0
4999,6382,5569,17,17,14,10240,-1.00,-1.00,0.00,0.00,4982,6363,5553,0,0,0,63,0,0
4998,6383,5569,16,18,14,10240,-1.00,-1.00,0.00,0.00,4982,6363,5554,0,0,0,63,0,0
4998,6382,5569,16,18,15,10240,-1.00,-1.00,0.00,0.00,4983,6364,5554,0,0,0,63,100,0
4999,6383,5569,16,18,15,10240,-1.00,-1.00,0.00,0.00,4983,6365,5555,0,0,0,63,100,0
4998,6381,5569,15,18,14,10240,-1.00,-1.00,0.00,0.00,4984,6365,5555,0,0,0,63,100,0
4998,6383,5569,14,17,14,10240,-1.00,-1.00,0.00,0.00,4984,6366,5556,0,0,0,63,100,0
4998,6382,5569,14,16,13,10240,-1.00,-1.00,0.00,0.00,4985,6366,5556,0,0,0,63,100,0
4999,6383,5569,13,16,13,10240,-1.00,-1.00,0.00,0.00,4985,6367,5557,0,0,0,63,100,0
4998,6382,5568,13,16,12,10240,-1.00,-1.00,0.00,0.00,4985,6367,5557,0,0,0,63,100,0
4999,6382,5569,13,15,11,10240,-1.00,-1.00,0.00,0.00,4986,6368,5558,0,0,0,63,100,0
5000,6384,5570,13,15,11,10240,-1.00,-1.00,0.00,0.00,4986,6368,5558,0,0,0,63,100,0
4998,6384,5569,12,15,11,10240,-1.00,-1.00,0.00,0.00,4987,6369,5558,0,0,0,63,100,0
5000,6386,5570,12,15,11,10240,-1.00,-1.00,0.00,0.00,4987,6370,5559,0,0,0,63,100,0
5001,6386,5570,12,15,11,10240,-1.00,-1.00,0.00,0.00,4988,6370,5559,0,0,0,63,100,0
5001,6387,5570,12,15,11,10240,-1.00,-1.00,0.00,0.00,4988,6371,5559,0,0,0,63,100,0
5002,6388,5570,13,16,10,10240,-1.00,-1.00,0.00,0.00,4989,6371,5560,0,0,0,63,100,0
5001,6389,5569,12,16,10,10240,-1.00,-1.00,0.00,0.00,4989,6372,5560,0,0,0,63,100,0
5002,6388,5571,12,16,10,10240,-1.00,-1.00,0.00,0.00,4989,6372,5560,0,0,0,63,100,0
5003,6387,5571,12,16,10,10240,-1.00,-1.00,0.00,0.00,4990,6373,5561,0,0,0,63,100,0
5001,6389,5569,12,15,9,10240,-1.00,-1.00,0.00,0.00,4990,6373,5561,0,0,0,63,100,0
5002,6388,5569,12,15,9,10240,-1.00,-1.00,0.00,0.00,4991,6374,5561,0,0,0,63,100,0
5000,6386,5568,11,14,8,10240,-1.00,-1.00,0.00,0.00,4991,6374,5562,0,0,0,63,100,0
4998,6385,5567,9,13,6,10240,-1.00,-1.00,0.00,0.00,4991,6375,5562,0,0,0,63,100,0
5001,6388,5570,9,12,6,10240,-1.00,-1.00,0.00,0.00,4992,6375,5562,0,0,0,63,100,0
5002,6389,5570,8,12,6,10240,-1.00,-1.00,0.00,0.00,4992,6376,5562,0,0,0,63,100,0
5002,6388,5570,9,12,7,10240,-1.00,-1.00,0.00,0.00,4992,6376,5563,0,0,0,63,100,0
5002,6387,5570,9,12,7,10240,-1.00,-1.00,0.00,0.00,4993,6376,5563,0,0,0,63,100,0
5001,6388,5570,9,11,7,10240,-1.00,-1.00,0.00,0.00,4993,6377,5563,0,0,0,63,100,0
5001,6387,5570,8,11,7,10240,-1.00,-1.00,0.00,0.00,4993,6377,5563,0,0,0,63,100,0
5002,6387,5570,8,10,6,10240,-1.00,-1.00,0.00,0.00,4993,6377,5564,0,0,0,63,100,0
4999,6385,5567,7,9,5,10240,-1.00,-1.00,0.00,0.00,4994,6378,5564,0,0,0,63,100,0
5001,6386,5568,7,8,5,10240,-1.00,-1.00,0.00,0.00,4994,6378,5564,0,0,0,63,100,0
5000,6385,5568,6,8,4,10240,-1.00,-1.00,0.00,0.00,4994,6378,5564,0,0,0,63,100,0
5000,6383,5568,6,6,3,10240,-1.00,-1.00,0.00,0.00,4994,6378,5564,0,0,0,63,100,0
4997,6381,5566,5,5,3,10240,-1.00,-1.00,0.00,0.00,4994,6378,5564,0,0,0,63,100,0
4998,6380,5566,4,4,3,10240,-1.00,-1.00,0.00,0.00,4994,6379,5564,0,0,0,63,100,0
5001,6383,5568,4,3,3,10240,-1.00,-1.00,0.00,0.00,4995,6379,5564,0,0,0,63,100,0
5002,6384,5568,5,3,3,10240,-1.00,-1.00,0.00,0.00,4995,6379,5564,0,0,0,63,100,0
5000,6383,5568,5,3,3,10240,-1.00,-1.00,0.00,0.00,4995,6379,5565,0,0,0,63,100,0
5002,6386,5569,6,5,3,10240,-1.00,-1.00,0.00,0.00,4995,6379,5565,0,0,0,63,100,0
5001,6385,5568,6,5,3,10240,-1.00,-1.00,0.00,0.00,4995,6379,5565,0,0,0,63,100,0
5000,6382,5565,5,5,2,10240,-1.00,-1.00,0.00,0.00,4996,6379,5565,0,0,0,63,100,0
4998,6379,5564,4,4,1,10240,-1.00,-1.00,0.00,0.00,4996,6379,5565,0,0,0,63,100,0
4999,6380,5565,3,2,0,10240,-1.00,-1.00,0.00,0.00,4996,6380,5565,0,0,0,63,100,0
4999,6381,5565,3,1,0,10240,-1.00,-1.00,0.00,0.00,4996,6380,5565,0,0,0,63,100,0
4999,6382,5564,2,0,0,10240,-1.00,-1.00,0.00,0.00,4996,6380,5565,0,0,0,63,100,0
5000,6381,5564,3,1,0,10240,-1.00,-1.00,0.00,0.00,4996,6380,5565,0,0,0,63,100,0
5001,6383,5566,3,1,0,10240,-1.00,-1.00,0.00,0.00,4996,6380,5565,0,0,0,63,100,0
5002,6384,5565,4,2,0,10240,-1.00,-1.00,0.00,0.00,4997,6380,5565,0,0,0,63,100,0
5001,6385,5565,4,3,0,10240,-1.00,-1.00,0.00,0.00,4997,6380,5565,0,0,0,63,100,0
5003,6388,5568,5,5,1,10240,-1.00,-1.00,0.00,0.00,4997,6380,5565,0,0,0,63,100,0
5005,6390,5569,5,6,1,10240,-1.00,-1.00,0.00,0.00,4997,6381,5565,0,0,0,63,100,0
5010,6398,5574,7,9,4,10240,-1.00,-1.00,0.00,0.00,4998,6381,5565,0,0,0,63,100,0
5010,6399,5574,9,12,6,10240,-1.00,-1.00,0.00,0.00,4998,6382,5566,0,0,0,63,100,0
5010,6399,5574,11,15,7,10240,-1.00,-1.00,0.00,0.00,4998,6382,5566,0,0,0,63,100,0
5010,6399,5574,11,16,8,10240,-1.00,-1.00,0.00,0.00,4999,6383,5566,0,0,0,63,100,0
5010,6399,5574,11,16,8,10240,-1.00,-1.00,0.00,0.00,4999,6383,5566,0,0,0,63,100,0
5012,6399,5574,11,16,7,10240,-1.00,-1.00,0.00,0.00,5000,6384,5567,0,0,0,63,100,0
5010,6401,5576,11,15,8,10240,-1.00,-1.00,0.00,0.00,5000,6385,5567,0,0,0,59,100,0
5009,6399,5575,10,15,8,10240,-1.00,-1.00,0.00,0.00,5000,6385,5567,0,0,0,59,100,0
5011,6400,5575,10,14,8,10240,-1.00,-1.00,0.00,0.00,5001,6386,5567,0,0,0,59,100,0
5010,6402,5575,9,15,8,10240,-1.00,-1.00,0.00,0.00,5001,6386,5568,0,0,0,59,100,0
5012,6402,5577,9,14,8,10240,-1.00,-1.00,0.00,0.00,5001,6387,5568,0,0,0,59,100,0
5011,6402,5577,9,15,8,10240,-1.00,-1.00,0.00,0.00,5002,6387,5568,0,0,0,59,100,0
5012,6402,5577,9,15,8,10240,-1.00,-1.00,0.00,0.00,5002,6388,5569,0,0,0,59,100,0
5012,6402,5577,10,14,8,10240,-1.00,-1.00,0.00,0.00,5002,6388,5569,0,0,0,59,100,0
5011,6401,5575,9,13,7,10240,-1.00,-1.00,0.00,0.00,5003,6389,5569,0,0,0,59,100,0
5011,6398,5573,9,12,6,10240,-1.00,-1.00,0.00,0.00,5003,6389,5569,0,0,0,59,100,0
5012,6401,5576,8,11,6,10240,-1.00,-1.00,0.00,0.00,5003,6389,5569,0,0,0,59,100,0
5013,6401,5575,8,11,5,10240,-1.00,-1.00,0.00,0.00,5003,6390,5570,0,0,0,59,100,0
5014,6404,5577,9,11,5,10240,-1.00,-1.00,0.00,0.00,5004,6390,5570,0,0,0,59,100,0
5018,6409,5582,10,13,7,10240,-1.00,-1.00,0.00,0.00,5004,6391,5570,0,0,0,59,100,0
5017,6406,5580,11,14,8,10240,-1.00,-1.00,0.00,0.00,5005,6391,5571,0,0,0,59,100,0
5015,6404,5577,11,14,8,10240,-1.00,-1.00,0.00,0.00,5005,6392,5571,0,0,0,59,100,0
5015,6406,5579,11,14,8,10240,-1.00,-1.00,0.00,0.00,5005,6392,5571,0,0,0,59,100,0
5017,6420,5587,10,17,9,10240,-1.00,-1.00,0.00,0.00,5006,6393,5572,0,0,0,59,100,0
5017,6420,5587,10,19,11,10240,-1.00,-1.00,0.00,0.00,5006,6394,5572,0,0,0,59,100,0
5016,6417,5586,10,22,12,10240,-1.00,-1.00,0.00,0.00,5006,6395,5573,0,0,0,59,100,0
5014,6415,5584,9,23,13,10240,-1.00,-1.00,0.00,0.00,5007,6395,5573,0,0,0,59,100,0
5016,6413,5584,9,21,12,10240,-1.00,-1.00,0.00,0.00,5007,6396,5573,0,0,0,59,100,0
5022,6413,5586,10,18,11,10240,-1.00,-1.00,0.00,0.00,5008,6397,5574,0,0,0,59,100,0
5026,6405,5585,12,15,11,10240,-1.00,-1.00,0.00,0.00,5008,6397,5574,0,0,0,59,100,0
5024,6391,5576,14,8,9,10240,-1.00,-1.00,0.00,0.00,5009,6397,5574,0,0,0,59,100,0
5016,6376,5566,13,0,4,10240,-1.00,-1.00,0.00,0.00,5009,6396,5574,0,0,0,59,100,0
5020,6345,5536,12,-16,-8,10240,-1.00,-1.00,0.00,0.00,5009,6394,5573,0,0,0,59,100,0
5005,6329,5523,7,-34,-22,10240,-1.00,-1.00,0.00,0.00,5009,6392,5571,0,0,0,59,100,0
5000,6325,5520,1,-49,-35,10240,-1.00,-1.00,0.00,0.00,5009,6390,5569,0,0,0,59,100,0
4997,6327,5520,-3,-59,-45,10240,-1.00,-1.00,0.00,0.00,5008,6388,5568,0,0,0,59,100,0
4995,6330,5521,-9,-61,-47,10240,-1.00,-1.00,0.00,0.00,5008,6386,5566,0,0,0,59,100,0
4998,6336,5523,-10,-57,-46,10240,-1.00,-1.00,0.00,0.00,5008,6384,5565,0,0,0,59,100,0
4997,6340,5524,-11,-52,-43,10240,-1.00,-1.00,0.00,0.00,5007,6383,5563,0,0,0,59,100,0
5000,6344,5526,-10,-46,-40,10240,-1.00,-1.00,0.00,0.00,5007,6381,5562,0,0,0,59,100,0
5002,6346,5529,-8,-40,-37,10240,-1.00,-1.00,0.00,0.00,5007,6380,5561,0,0,0,59,100,0
5005,6349,5530,-6,-36,-34,10240,-1.00,-1.00,0.00,0.00,5007,6379,5560,0,0,0,59,100,0
5004,6356,5533,-4,-30,-31,10240,-1.00,-1.00,0.00,0.00,5007,6378,5559,0,0,0,59,100,0
5004,6357,5532,-3,-26,-28,10240,-1.00,-1.00,0.00,0.00,5007,6378,5558,0,0,0,59,100,0
5001,6354,5529,-3,-24,-27,10240,-1.00,-1.00,0.00,0.00,5006,6377,5557,0,0,0,59,100,0
4994,6350,5527,-5,-23,-27,10240,-1.00,-1.00,0.00,0.00,5006,6376,5556,0,0,0,59,100,0
4993,6346,5527,-8,-24,-27,10240,-1.00,-1.00,0.00,0.00,5006,6375,5555,0,9,0,59,100,0
4991,6345,5527,-11,-26,-28,10240,-1.00,-1.00,0.00,0.00,5005,6374,5554,0,9,0,59,100,0
4992,6347,5526,-13,-27,-27,10240,-1.00,-1.00,0.00,0.00,5005,6373,5553,0,9,0,59,100,0
4992,6346,5526,-13,-27,-27,10240,-1.00,-1.00,0.00,0.00,5004,6372,5552,0,9,0,59,100,0
4992,6348,5525,-12,-26,-26,10240,-1.00,-1.00,0.00,0.00,5004,6371,5552,0,9,0,59,100,0
4992,6347,5526,-12,-24,-26,10240,-1.00,-1.00,0.00,0.00,5003,6371,5551,0,9,0,59,100,0
4995,6350,5528,-10,-23,-25,10240,-1.00,-1.00,0.00,0.00,5003,6370,5550,0,9,0,59,100,0
4992,6350,5526,-10,-21,-24,10240,-1.00,-1.00,0.00,0.00,5003,6369,5549,0,9,0,59,100,0
4994,6348,5527,-9,-21,-22,10240,-1.00,-1.00,0.00,0.00,5002,6369,5548,0,9,0,59,100,0
4993,6349,5527,-9,-19,-21,10240,-1.00,-1.00,0.00,0.00,5002,6368,5548,0,9,0,59,100,0
4994,6352,5528,-9,-18,-21,10240,-1.00,-1.00,0.00,0.00,5002,6367,5547,0,9,0,59,100,0
4994,6350,5528,-8,-18,-19,10240,-1.00,-1.00,0.00,0.00,5002,6367,5546,0,9,0,59,100,0
4995,6354,5528,-7,-15,-19,10240,-1.00,-1.00,0.00,0.00,5001,6366,5546,0,9,0,59,100,0
4995,6352,5528,-7,-14,-18,10240,-1.00,-1.00,0.00,0.00,5001,6366,5545,0,9,0,59,100,0
4995,6353,5529,-6,-13,-17,10240,-1.00,-1.00,0.00,0.00,5001,6365,5545,0,9,0,59,100,0
4996,6351,5529,-5,-13,-16,10240,-1.00,-1.00,0.00,0.00,5001,6365,5544,0,9,0,59,100,0
4995,6352,5529,-5,-13,-15,10240,-1.00,-1.00,0.00,0.00,5001,6365,5544,0,9,0,59,100,0
4995,6354,5529,-5,-12,-15,10240,-1.00,-1.00,0.00,0.00,5000,6364,5543,0,9,0,59,100,0
4996,6353,5530,-5,-12,-14,10240,-1.00,-1.00,0.00,0.00,5000,6364,5543,0,9,0,59,100,0
4994,6353,5529,-5,-11,-13,10240,-1.00,-1.00,0.00,0.00,5000,6363,5542,0,9,0,59,100,0
4997,6353,5531,-4,-10,-12,10240,-1.00,-1.00,0.00,0.00,5000,6363,5542,0,9,0,59,100,0
4996,6352,5528,-4,-10,-12,10240,-1.00,-1.00,0.00,0.00,5000,6363,5541,0,9,0,59,100,0
4996,6355,5527,-4,-9,-12,10240,-1.00,-1.00,0.00,0.00,5000,6362,5541,0,9,0,59,100,0
4996,6356,5529,-3,-8,-12,10240,-1.00,-1.00,0.00,0.00,5000,6362,5540,0,9,0,59,100,0
4996,6354,5529,-3,-8,-12,10240,-1.00,-1.00,0.00,0.00,4999,6362,5540,0,9,0,59,100,0
4996,6353,5529,-3,-7,-11,10240,-1.00,-1.00,0.00,0.00,4999,6362,5540,0,9,0,59,100,0
4995,6350,5528,-3,-8,-11,10240,-1.00,-1.00,0.00,0.00,4999,6361,5539,0,9,0,59,100,0
4995,6350,5528,-3,-9,-11,10240,-1.00,-1.00,0.00,0.00,4999,6361,5539,0,9,0,59,100,0
4994,6349,5526,-4,-10,-11,10240,-1.00,-1.00,0.00,0.00,4999,6361,5539,0,9,0,59,100,0
4993,6347,5526,-4,-11,-11,10240,-1.00,-1.00,0.00,0.00,4999,6360,5538,0,9,0,59,100,0
4991,6345,5525,-5,-12,-12,10240,-1.00,-1.00,0.00,0.00,4998,6360,5538,0,9,0,59,100,0
4993,6348,5527,-5,-12,-12,10240,-1.00,-1.00,0.00,0.00,4998,6359,5537,0,9,0,59,100,0
4995,6349,5527,-5,-12,-11,10240,-1.00,-1.00,0.00,0.00,4998,6359,5537,0,9,0,59,100,0
4995,6350,5529,-4,-11,-10,10240,-1.00,-1.00,0.00,0.00,4998,6359,5537,0,9,0,59,100,0
4996,6351,5528,-3,-9,-9,10240,-1.00,-1.00,0.00,0.00,4998,6358,5536,0,9,0,59,100,0
4997,6352,5528,-2,-8,-8,10240,-1.00,-1.00,0.00,0.00,4998,6358,5536,0,9,0,59,100,0
4995,6351,5528,-2,-7,-8,10240,-1.00,-1.00,0.00,0.00,4998,6358,5536,0,9,0,59,100,0
4996,6351,5527,-2,-6,-8,10240,-1.00,-1.00,0.00,0.00,4998,6358,5536,0,9,0,59,100,0
4995,6349,5526,-2,-7,-8,10240,-1.00,-1.00,0.00,0.00,4998,6357,5535,0,9,0,59,100,0
4997,6350,5528,-2,-7,-8,10240,-1.00,-1.00,0.00,0.00,4998,6357,5535,0,9,0,59,100,0
4994,6349,5525,-2,-7,-8,10240,-1.00,-1.00,0.00,0.00,4998,6357,5535,0,9,0,59,100,0
4997,6351,5527,-2,-7,-8,10240,-1.00,-1.00,0.00,0.00,4998,6357,5534,0,9,0,59,100,0
4998,6353,5529,-1,-6,-7,10240,-1.00,-1.00,0.00,0.00,4998,6356,5534,0,9,0,59,100,0
4998,6355,5528,-1,-4,-7,10240,-1.00,-1.00,0.00,0.00,4998,6356,5534,0,9,0,59,100,0
5002,6357,5531,0,-2,-5,10240,-1.00,-1.00,0.00,0.00,4998,6356,5534,0,9,0,59,100,0
5002,6359,5531,2,0,-4,10240,-1.00,-1.00,0.00,0.00,4998,6357,5534,0,9,0,59,100,0
5000,6359,5530,2,1,-4,10240,-1.00,-1.00,0.00,0.00,4998,6357,5534,0,9,0,59,100,0
5002,6361,5532,3,2,-3,10240,-1.00,-1.00,0.00,0.00,4998,6357,5534,0,9,0,59,100,0
5002,6361,5532,3,3,-2,10240,-1.00,-1.00,0.00,0.00,4998,6357,5534,0,9,0,59,100,0
5001,6359,5530,3,3,-2,10240,-1.00,-1.00,0.00,0.00,4998,6357,5533,0,9,0,59,100,0
5001,6359,5531,3,3,-2,10240,-1.00,-1.00,0.00,0.00,4998,6357,5533,0,9,0,66,100,0
5002,6360,5532,3,2,-2,10240,-1.00,-1.00,0.00,0.00,4998,6357,5533,0,9,0,66,100,0
5003,6359,5533,3,2,-1,10240,-1.00,-1.00,0.00,0.00,4999,6357,5533,0,9,0,66,100,0
5006,6360,5534,4,2,0,10240,-1.00,-1.00,0.00,0.00,4999,6357,5533,0,9,0,66,100,0
5006,6362,5535,5,3,0,10240,-1.00,-1.00,0.00,0.00,4999,6357,5533,0,9,0,66,100,0
5005,6359,5533,6,2,0,10240,-1.00,-1.00,0.00,0.00,4999,6358,5533,0,9,0,66,100,0
5005,6361,5534,6,3,1,10240,-1.00,-1.00,0.00,0.00,5000,6358,5533,0,9,0,66,100,0
5005,6362,5534,5,3,0,10240,-1.00,-1.00,0.00,0.00,5000,6358,5534,0,9,0,66,100,0
5004,6363,5535,5,3,0,10240,-1.00,-1.00,0.00,0.00,5000,6358,5534,0,9,0,66,100,0
5007,6363,5536,5,4,1,10240,-1.00,-1.00,0.00,0.00,5000,6358,5534,0,9,0,66,100,0
5006,6362,5535,5,4,1,10240,-1.00,-1.00,0.00,0.00,5000,6358,5534,0,9,0,66,100,0
5007,6364,5536,6,5,1,10240,-1.00,-1.00,0.00,0.00,5000,6358,5534,0,9,0,66,100,0
5006,6365,5536,6,5,1,10240,-1.00,-1.00,0.00,0.00,5001,6359,5534,0,9,0,66,100,0
5007,6364,5535,6,5,1,10240,-1.00,-1.00,0.00,0.00,5001,6359,5534,0,9,0,66,100,0
5008,6365,5535,6,5,1,10240,-1.00,-1.00,0.00,0.00,5001,6359,5534,0,9,0,66,100,0
5007,6364,5535,6,5,1,10240,-1.00,-1.00,0.00,0.00,5001,6359,5534,0,9,0,66,100,0
5009,6366,5537,6,5,1,10240,-1.00,-1.00,0.00,0.00,5002,6359,5534,0,9,0,66,100,0
5008,6366,5535,6,6,1,10240,-1.00,-1.00,0.00,0.00,5002,6360,5534,0,9,0,66,100,0
5006,6367,5535,5,6,1,10240,-1.00,-1.00,0.00,0.00,5002,6360,5534,0,9,0,66,100,0
5011,6369,5538,6,7,2,10240,-1.00,-1.00,0.00,0.00,5002,6360,5534,0,9,0,66,100,0
5009,6366,5536,6,7,2,10240,-1.00,-1.00,0.00,0.00,5002,6360,5534,0,9,0,66,100,0
5008,6367,5536,6,7,2,10240,-1.00,-1.00,0.00,0.00,5003,6361,5534,0,9,0,66,100,0
5009,6368,5535,6,7,2,10240,-1.00,-1.00,0.00,0.00,5003,6361,5534,0,9,0,66,100,0
5008,6367,5536,5,6,1,10240,-1.00,-1.00,0.00,0.00,5003,6361,5534,0,9,0,66,100,0
5010,6367,5536,5,6,1,10240,-1.00,-1.00,0.00,0.00,5003,6361,5534,0,9,0,66,100,0
5009,6368,5537,6,6,1,10240,-1.00,-1.00,0.00,0.00,5003,6361,5535,0,9,0,66,100,0
5009,6368,5537,5,6,2,10240,-1.00,-1.00,0.00,0.00,5004,6362,5535,0,9,0,66,100,0
5010,6366,5536,6,5,1,10240,-1.00,-1.00,0.00,0.00,5004,6362,5535,0,9,0,66,100,0
5010,6367,5537,5,5,1,10240,-1.00,-1.00,0.00,0.00,5004,6362,5535,0,9,0,66,100,0
5010,6367,5537,5,5,1,10240,-1.00,-1.00,0.00,0.00,5004,6362,5535,0,9,0,66,100,0
5012,6371,5538,6,5,2,10240,-1.00,-1.00,0.00,0.00,5005,6362,5535,0,9,0,66,100,0
5014,6371,5539,7,6,2,10240,-1.00,-1.00,0.00,0.00,5005,6363,5535,0,9,0,66,100,0
5014,6372,5538,7,7,3,10240,-1.00,-1.00,0.00,0.00,5005,6363,5535,0,9,0,66,100,0
5010,6369,5538,7,8,3,10240,-1.00,-1.00,0.00,0.00,5005,6363,5535,0,9,0,66,100,0
5011,6370,5538,7,7,3,10240,-1.00,-1.00,0.00,0.00,5005,6364,5535,0,9,0,66,100,0
5012,6369,5538,6,6,3,10240,-1.00,-1.00,0.00,0.00,5006,6364,5535,0,9,0,66,100,0
5012,6373,5539,5,6,3,10240,-1.00,-1.00,0.00,0.00,5006,6364,5536,0,9,0,66,100,0
5015,6373,5540,6,7,3,10240,-1.00,-1.00,0.00,0.00,5006,6364,5536,0,9,0,66,100,0
5014,6375,5541,7,8,3,10240,-1.00,-1.00,0.00,0.00,5006,6365,5536,0,9,0,66,100,0
5014,6374,5540,7,9,4,10240,-1.00,-1.00,0.00,0.00,5007,6365,5536,0,9,0,66,100,0
5016,6376,5541,8,9,4,10240,-1.00,-1.00,0.00,0.00,5007,6365,5536,0,9,0,66,100,0
5016,6375,5541,8,9,4,10240,-1.00,-1.00,0.00,0.00,5007,6366,5536,0,9,0,66,100,0
5016,6377,5542,8,10,4,10240,-1.00,-1.00,0.00,0.00,5008,6366,5537,0,9,0,66,99,0
5016,6378,5543,8,10,5,10240,-1.00,-1.00,0.00,0.00,5008,6366,5537,0,9,0,66,99,0
5014,6378,5542,7,10,5,10240,-1.00,-1.00,0.00,0.00,5008,6367,5537,0,9,0,66,99,0
5015,6378,5543,7,11,5,10240,-1.00,-1.00,0.00,0.00,5008,6367,5537,0,9,0,66,99,0
5016,6378,5543,7,11,5,10240,-1.00,-1.00,0.00,0.00,5009,6368,5537,0,9,0,66,99,0
5016,6378,5542,6,10,5,10240,-1.00,-1.00,0.00,0.00,5009,6368,5537,0,9,0,66,99,0
5018,6376,5542,7,9,5,10240,-1.00,-1.00,0.00,0.00,5009,6368,5538,0,9,0,66,99,0
5016,6377,5541,7,9,4,10240,-1.00,-1.00,0.00,0.00,5009,6368,5538,0,9,0,66,99,0
5017,6378,5542,7,9,4,10240,-1.00,-1.00,0.00,0.00,5010,6369,5538,0,9,0,66,99,0
5017,6379,5542,7,9,3,10240,-1.00,-1.00,0.00,0.00,5010,6369,5538,0,9,0,66,99,0
5017,6376,5541,7,8,3,10240,-1.00,-1.00,0.00,0.00,5010,6369,5538,0,9,0,66,99,0
5016,6377,5542,6,8,3,10240,-1.00,-1.00,0.00,0.00,5010,6370,5538,0,9,0,66,99,0
5017,6378,5542,6,8,3,10240,-1.00,-1.00,0.00,0.00,5011,6370,5538,0,9,0,66,99,0
5017,6377,5542,6,7,3,10240,-1.00,-1.00,0.00,0.00,5011,6370,5539,0,9,0,66,99,0
5017,6378,5542,6,7,3,10240,-1.00,-1.00,0.00,0.00,5011,6370,5539,0,9,0,66,99,0
5017,6378,5543,6,7,3,10240,-1.00,-1.00,0.00,0.00,5011,6371,5539,0,9,0,66,99,0
5018,6378,5542,6,7,3,10240,-1.00,-1.00,0.00,0.00,5011,6371,5539,0,9,0,66,99,0
5015,6376,5542,5,6,3,10240,-1.00,-1.00,0.00,0.00,5012,6371,5539,0,9,0,66,99,0
5016,6375,5540,5,5,2,10240,-1.00,-1.00,0.00,0.00,5012,6371,5539,0,9,0,66,99,0
5017,6375,5540,4,5,2,10240,-1.00,-1.00,0.00,0.00,5012,6371,5539,0,9,0,66,99,0
5017,6374,5540,4,4,1,10240,-1.00,-1.00,0.00,0.00,5012,6371,5539,0,9,0,66,99,0
5018,6375,5540,5,3,1,10240,-1.00,-1.00,0.00,0.00,5012,6372,5539,0,9,0,66,99,0
5016,6376,5540,5,3,1,10240,-1.00,-1.00,0.00,0.00,5012,6372,5539,0,9,0,66,99,0
5016,6376,5541,4,3,1,10240,-1.00,-1.00,0.00,0.00,5012,6372,5539,0,9,0,66,99,0
5016,6376,5539,4,3,1,10240,-1.00,-1.00,0.00,0.00,5013,6372,5539,0,9,0,66,99,0
5016,6375,5540,3,3,1,10240,-1.00,-1.00,0.00,0.00,5013,6372,5539,0,9,0,66,99,0
5017,6377,5542,3,4,1,10240,-1.00,-1.00,0.00,0.00,5013,6372,5539,0,9,0,66,99,0
5018,6377,5542,3,4,1,10240,-1.00,-1.00,0.00,0.00,5013,6372,5539,0,9,0,66,99,0
5018,6376,5541,4,4,2,10240,-1.00,-1.00,0.00,0.00,5013,6373,5539,0,9,0,66,99,0
5016,6376,5541,4,4,2,10240,-1.00,-1.00,0.00,0.00,5013,6373,5540,0,9,0,66,99,0
5016,6374,5540,4,3,1,10240,-1.00,-1.00,0.00,0.00,5013,6373,5540,0,9,0,66,99,0
5015,6376,5541,3,2,1,10240,-1.00,-1.00,0.00,0.00,5013,6373,5540,0,9,0,66,99,0
5017,6376,5540,2,2,0,10240,-1.00,-1.00,0.00,0.00,5014,6373,5540,0,9,0,66,99,0
5017,6375,5540,2,2,0,10240,-1.00,-1.00,0.00,0.00,5014,6373,5540,0,9,0,66,99,0
5015,6376,5540,2,2,0,10240,-1.00,-1.00,0.00,0.00,5014,6373,5540,0,9,0,66,99,0
5016,6376,5540,2,2,0,10240,-1.00,-1.00,0.00,0.00,5014,6373,5540,0,9,0,66,99,0
5015,6374,5540,1,2,0,10240,-1.00,-1.00,0.00,0.00,5014,6373,5540,0,9,0,66,99,0
5015,6374,5539,1,2,0,10240,-1.00,-1.00,0.00,0.00,5014,6373,5540,0,9,0,66,99,0
5017,6374,5539,1,1,0,10240,-1.00,-1.00,0.00,0.00,5014,6373,5540,0,9,0,66,99,0
5017,6373,5539,2,0,0,10240,-1.00,-1.00,0.00,0.00,5014,6373,5539,0,9,0,66,99,0
5015,6371,5538,2,0,0,10240,-1.00,-1.00,0.00,0.00,5014,6373,5539,0,9,0,66,99,0
5017,6374,5540,2,0,0,10240,-1.00,-1.00,0.00,0.00,5014,6373,5539,0,9,0,66,99,0
5017,6375,5539,2,0,0,10240,-1.00,-1.00,0.00,0.00,5014,6373,5539,0,9,0,66,99,0
5016,6373,5538,2,0,0,10240,-1.00,-1.00,0.00,0.00,5014,6373,5539,0,9,0,66,99,0
5014,6372,5538,2,0,0,10240,-1.00,-1.00,0.00,0.00,5014,6373,5539,0,9,0,66,99,0
5014,6373,5538,1,0,0,10240,-1.00,-1.00,0.00,0.00,5014,6373,5539,0,9,0,66,99,0
5016,6375,5540,1,0,0,10240,-1.00,-1.00,0.00,0.00,5014,6373,5539,0,9,0,66,99,0
5018,6376,5540,1,1,0,10240,-1.00,-1.00,0.00,0.00,5015,6373,5539,0,9,0,66,99,0
5016,6376,5540,1,2,0,10240,-1.00,-1.00,0.00,0.00,5015,6373,5539,0,9,0,66,99,0
5017,6376,5539,2,2,0,10240,-1.00,-1.00,0.00,0.00,5015,6374,5539,0,9,0,66,99,0
5017,6375,5539,2,2,0,10240,-1.00,-1.00,0.00,0.00,5015,6374,5539,0,9,0,66,99,0
5014,6375,5538,1,1,0,10240,-1.00,-1.00,0.00,0.00,5015,6374,5539,0,9,0,66,99,0
5013,6374,5537,0,1,0,10240,-1.00,-1.00,0.00,0.00,5015,6374,5539,0,9,0,66,99,0
5016,6375,5538,0,0,-1,10240,-1.00,-1.00,0.00,0.00,5015,6374,5539,0,9,0,66,99,0
5016,6375,5536,0,0,-1,10240,-1.00,-1.00,0.00,0.00,5015,6374,5539,0,9,0,66,99,0
5015,6373,5537,0,0,-2,10240,-1.00,-1.00,0.00,0.00,5015,6374,5539,0,9,0,66,99,0
5014,6373,5536,0,0,-2,10240,-1.00,-1.00,0.00,0.00,5015,6374,5539,0,9,0,66,99,0
5015,6372,5537,0,0,-2,10240,-1.00,-1.00,0.00,0.00,5015,6374,5539,0,9,0,66,99,0
5015,6374,5538,0,-1,-2,10240,-1.00,-1.00,0.00,0.00,5015,6374,5539,0,9,0,66,99,0
5016,6376,5539,0,0,-1,10240,-1.00,-1.00,0.00,0.00,5015,6374,5539,0,9,0,66,99,0
5015,6376,5538,0,0,-1,10240,-1.00,-1.00,0.00,0.00,5015,6374,5539,0,9,0,66,99,0
5016,6376,5538,0,1,0,10240,-1.00,-1.00,0.00,0.00,5015,6374,5539,0,9,0,66,99,0
5016,6377,5539,0,2,0,10240,-1.00,-1.00,0.00,0.00,5015,6374,5539,0,9,0,66,99,0
5016,6377,5538,0,2,0,10240,-1.00,-1.00,0.00,0.00,5015,6374,5539,0,9,0,66,99,0
5018,6380,5541,1,3,0,10240,-1.00,-1.00,0.00,0.00,5015,6374,5539,0,9,0,66,99,0
5017,6380,5541,1,4,0,10240,-1.00,-1.00,0.00,0.00,5015,6374,5539,0,9,0,66,99,0
5017,6378,5540,2,4,1,10240,-1.00,-1.00,0.00,0.00,5015,6375,5539,0,9,0,66,99,0
5018,6379,5541,2,4,1,10240,-1.00,-1.00,0.00,0.00,5015,6375,5539,0,9,0,66,99,0
5018,6381,5542,2,4,2,10240,-1.00,-1.00,0.00,0.00,5015,6375,5539,0,9,0,66,99,0
5017,6381,5540,2,4,1,10240,-1.00,-1.00,0.00,0.00,5015,6375,5539,0,9,0,66,99,0
5019,6381,5541,3,5,2,10240,-1.00,-1.00,0.00,0.00,5015,6375,5539,0,9,0,66,99,0
5019,6383,5541,3,6,2,10240,-1.00,-1.00,0.00,0.00,5016,6376,5539,0,9,0,66,99,0
5018,6381,5540,2,6,1,10240,-1.00,-1.00,0.00,0.00,5016,6376,5539,0,9,0,66,99,0
5018,6381,5542,2,5,1,10240,-1.00,-1.00,0.00,0.00,5016,6376,5540,0,9,0,66,99,0
5018,6384,5541,2,6,1,10240,-1.00,-1.00,0.00,0.00,5016,6376,5540,0,9,0,66,99,0
5020,6385,5543,2,6,1,10240,-1.00,-1.00,0.00,0.00,5016,6376,5540,0,9,0,66,99,0
5021,6386,5543,3,7,2,10240,-1.00,-1.00,0.00,0.00,5016,6377,5540,0,9,0,66,99,0
5020,6386,5542,3,8,2,10240,-1.00,-1.00,0.00,0.00,5016,6377,5540,0,9,0,66,99,0
5023,6387,5543,5,9,2,10240,-1.00,-1.00,0.00,0.00,5016,6377,5540,0,9,0,66,99,0
5021,6387,5543,5,9,2,10240,-1.00,-1.00,0.00,0.00,5017,6378,5540,0,9,0,66,99,0
5019,6383,5541,4,8,2,10240,-1.00,-1.00,0.00,0.00,5017,6378,5540,0,9,0,66,99,0
5020,6386,5542,4,8,2,10240,-1.00,-1.00,0.00,0.00,5017,6378,5540,0,9,0,66,99,0
5019,6386,5542,2,7,2,10240,-1.00,-1.00,0.00,0.00,5017,6378,5540,0,9,0,66,99,0
5019,6383,5542,2,6,1,10240,-1.00,-1.00,0.00,0.00,5017,6379,5540,0,9,0,66,99,0
5019,6384,5541,2,6,1,10240,-1.00,-1.00,0.00,0.00,5017,6379,5540,0,9,0,66,99,0
5020,6383,5542,2,5,1,10240,-1.00,-1.00,0.00,0.00,5017,6379,5540,0,9,0,66,99,0
5019,6383,5541,2,4,1,10240,-1.00,-1.00,0.00,0.00,5017,6379,5540,0,9,0,66,99,0
5021,6384,5542,2,4,1,10240,-1.00,-1.00,0.00,0.00,5017,6379,5540,0,9,0,66,99,0
5019,6382,5541,2,4,1,10240,-1.00,-1.00,0.00,0.00,5017,6379,5540,0,9,0,66,99,0
5019,6383,5541,2,4,1,10240,-1.00,-1.00,0.00,0.00,5017,6379,5541,0,9,0,66,99,0
5019,6384,5541,2,4,0,10240,-1.00,-1.00,0.00,0.00,5017,6380,5541,0,9,0,66,99,0
5018,6383,5541,1,3,0,10240,-1.00,-1.00,0.00,0.00,5017,6380,5541,0,9,0,66,99,0
5020,6381,5542,1,3,0,10240,-1.00,-1.00,0.00,0.00,5018,6380,5541,0,9,0,66,99,0
5019,6383,5542,1,2,0,10240,-1.00,-1.00,0.00,0.00,5018,6380,5541,0,9,0,66,99,0
5019,6382,5541,1,2,0,10240,-1.00,-1.00,0.00,0.00,5018,6380,5541,0,9,0,66,99,0
5019,6382,5541,1,2,0,10240,-1.00,-1.00,0.00,0.00,5018,6380,5541,0,9,0,66,99,0
5018,6382,5540,0,2,0,10240,-1.00,-1.00,0.00,0.00,5018,6380,5541,0,9,0,66,99,0
5020,6383,5541,1,2,0,10240,-1.00,-1.00,0.00,0.00,5018,6380,5541,0,9,0,66,99,0
5020,6385,5542,1,3,0,10240,-1.00,-1.00,0.00,0.00,5018,6380,5541,0,9,0,66,99,0
5020,6386,5541,1,4,0,10240,-1.00,-1.00,0.00,0.00,5018,6380,5541,0,9,0,66,99,0
5021,6386,5542,2,4,0,10240,-1.00,-1.00,0.00,0.00,5018,6381,5541,0,9,0,66,99,0
5021,6385,5542,2,5,0,10240,-1.00,-1.00,0.00,0.00,5018,6381,5541,0,9,0,66,99,0
5019,6384,5541,2,4,0,10240,-1.00,-1.00,0.00,0.00,5018,6381,5541,0,9,0,66,99,0
5020,6384,5542,2,3,0,10240,-1.00,-1.00,0.00,0.00,5018,6381,5541,0,9,0,66,99,0
5019,6384,5541,1,3,0,10240,-1.00,-1.00,0.00,0.00,5018,6381,5541,0,9,0,66,99,0
5019,6382,5540,1,2,0,10240,-1.00,-1.00,0.00,0.00,5018,6381,5541,0,9,0,66,99,0
5020,6382,5541,1,2,0,10240,-1.00,-1.00,0.00,0.00,5018,6381,5541,0,9,0,66,99,0
5020,6383,5541,1,1,0,10240,-1.00,-1.00,0.00,0.00,5018,6381,5541,0,9,0,66,99,0
5021,6385,5540,2,2,0,10240,-1.00,-1.00,0.00,0.00,5018,6381,5541,0,9,0,66,99,0
5020,6385,5541,2,2,0,10240,-1.00,-1.00,0.00,0.00,5019,6382,5541,0,9,0,66,99,0
5019,6385,5540,1,3,0,10240,-1.00,-1.00,0.00,0.00,5019,6382,5541,0,9,0,66,99,0
5019,6384,5540,1,3,0,10240,-1.00,-1.00,0.00,0.00,5019,6382,5541,0,9,0,66,99,0
5020,6383,5540,0,2,0,10240,-1.00,-1.00,0.00,0.00,5019,6382,5541,0,9,0,66,99,0
5023,6388,5541,1,3,0,10240,-1.00,-1.00,0.00,0.00,5019,6382,5541,0,9,0,66,99,0
5024,6389,5544,2,4,0,10240,-1.00,-1.00,0.00,0.00,5019,6382,5541,0,9,0,66,99,0
5022,6386,5542,3,4,0,10240,-1.00,-1.00,0.00,0.00,5019,6382,5541,0,9,0,66,99,0
5024,6386,5543,4,5,1,10240,-1.00,-1.00,0.00,0.00,5019,6382,5541,0,9,0,66,99,0
5023,6387,5542,4,4,1,10240,-1.00,-1.00,0.00,0.00,5019,6383,5541,0,9,0,66,99,0
5024,6388,5542,4,4,1,10240,-1.00,-1.00,0.00,0.00,5019,6383,5541,0,9,0,66,99,0
5024,6387,5543,4,4,1,10240,-1.00,-1.00,0.00,0.00,5020,6383,5541,0,9,0,60,99,0
5026,6389,5543,4,4,1,10240,-1.00,-1.00,0.00,0.00,5020,6383,5541,0,9,0,60,99,0
5027,6392,5545,5,6,2,10240,-1.00,-1.00,0.00,0.00,5020,6383,5541,0,9,0,60,99,0
5027,6391,5545,6,6,3,10240,-1.00,-1.00,0.00,0.00,5020,6384,5541,0,9,0,60,99,0
5029,6393,5545,7,7,3,10240,-1.00,-1.00,0.00,0.00,5021,6384,5541,0,9,0,60,99,0
5027,6391,5545,7,8,4,10240,-1.00,-1.00,0.00,0.00,5021,6384,5541,0,9,0,60,99,0
5028,6393,5544,7,8,3,10240,-1.00,-1.00,0.00,0.00,5021,6384,5542,0,9,0,60,99,0
5027,6394,5545,6,8,3,10240,-1.00,-1.00,0.00,0.00,5021,6385,5542,0,9,0,60,99,0
5028,6393,5545,6,8,3,10240,-1.00,-1.00,0.00,0.00,5021,6385,5542,0,9,0,60,99,0
5027,6391,5543,6,8,2,10240,-1.00,-1.00,0.00,0.00,5022,6385,5542,0,9,0,60,99,0
5028,6391,5544,6,7,2,10240,-1.00,-1.00,0.00,0.00,5022,6385,5542,0,9,0,60,99,0
5030,6395,5546,6,7,2,10240,-1.00,-1.00,0.00,0.00,5022,6386,5542,0,9,0,60,99,0
5029,6394,5545,6,7,2,10240,-1.00,-1.00,0.00,0.00,5022,6386,5542,0,9,0,60,99,0
5029,6395,5545,6,8,3,10240,-1.00,-1.00,0.00,0.00,5023,6386,5542,0,9,0,60,99,0
5028,6395,5545,6,8,3,10240,-1.00,-1.00,0.00,0.00,5023,6387,5542,0,9,0,60,99,0
5030,6394,5545,6,8,3,10240,-1.00,-1.00,0.00,0.00,5023,6387,5542,0,9,0,60,99,0
5029,6393,5544,6,7,2,10240,-1.00,-1.00,0.00,0.00,5023,6387,5542,0,9,0,60,99,0
5030,6394,5545,6,7,2,10240,-1.00,-1.00,0.00,0.00,5023,6387,5543,0,9,0,60,99,0
5028,6394,5544,6,6,2,10240,-1.00,-1.00,0.00,0.00,5024,6388,5543,0,9,0,60,99,0
5030,6394,5544,5,6,1,10240,-1.00,-1.00,0.00,0.00,5024,6388,5543,0,9,0,60,99,0
5030,6394,5545,5,6,1,10240,-1.00,-1.00,0.00,0.00,5024,6388,5543,0,9,0,60,99,0
5032,6397,5546,6,6,1,10240,-1.00,-1.00,0.00,0.00,5024,6388,5543,0,9,0,60,99,0
5030,6396,5546,6,7,2,10240,-1.00,-1.00,0.00,0.00,5024,6389,5543,0,9,0,60,99,0
5031,6394,5545,6,6,2,10240,-1.00,-1.00,0.00,0.00,5025,6389,5543,0,9,0,60,99,0
5031,6395,5546,6,6,2,10240,-1.00,-1.00,0.00,0.00,5025,6389,5543,0,9,0,60,99,0
5031,6396,5546,6,6,2,10240,-1.00,-1.00,0.00,0.00,5025,6389,5543,0,9,0,60,99,0
5031,6394,5546,6,5,2,10240,-1.00,-1.00,0.00,0.00,5025,6389,5543,0,9,0,60,99,0
5030,6397,5545,5,6,2,10240,-1.00,-1.00,0.00,0.00,5025,6390,5543,0,9,0,60,99,0
5031,6396,5545,5,6,2,10240,-1.00,-1.00,0.00,0.00,5026,6390,5543,0,9,0,60,99,0
5031,6396,5546,5,6,2,10240,-1.00,-1.00,0.00,0.00,5026,6390,5543,0,9,0,60,99,0
5030,6395,5544,4,6,1,10240,-1.00,-1.00,0.00,0.00,5026,6390,5544,0,9,0,60,99,0
5031,6396,5545,4,5,1,10240,-1.00,-1.00,0.00,0.00,5026,6390,5544,0,9,0,60,99,0
5030,6394,5545,4,5,1,10240,-1.00,-1.00,0.00,0.00,5026,6390,5544,0,9,0,60,99,0
5031,6394,5546,4,4,1,10240,-1.00,-1.00,0.00,0.00,5026,6391,5544,0,9,0,60,99,0
5027,6393,5542,3,3,0,10240,-1.00,-1.00,0.00,0.00,5026,6391,5544,0,9,0,60,99,0
5030,6395,5544,3,3,0,10240,-1.00,-1.00,0.00,0.00,5027,6391,5544,0,9,0,60,99,0
5030,6395,5545,3,3,0,10240,-1.00,-1.00,0.00,0.00,5027,6391,5544,0,9,0,60,99,0
5028,6394,5543,2,3,0,10240,-1.00,-1.00,0.00,0.00,5027,6391,5544,0,9,0,60,99,0
5029,6392,5542,2,3,0,10240,-1.00,-1.00,0.00,0.00,5027,6391,5544,0,9,0,60,99,0
5029,6392,5543,2,2,0,10240,-1.00,-1.00,0.00,0.00,5027,6391,5543,0,9,0,60,99,0
5027,6391,5541,1,1,-1,10240,-1.00,-1.00,0.00,0.00,5027,6391,5543,0,9,0,60,99,0
5026,6389,5541,0,0,-1,10240,-1.00,-1.00,0.00,0.00,5027,6391,5543,0,9,0,60,99,0
5026,6389,5541,0,0,-1,10240,-1.00,-1.00,0.00,0.00,5027,6391,5543,0,9,0,60,99,0
5027,6388,5541,0,-1,-2,10240,-1.00,-1.00,0.00,0.00,5027,6391,5543,0,9,0,60,99,0
5026,6387,5541,0,-2,-2,10240,-1.00,-1.00,0.00,0.00,5027,6391,5543,0,9,0,60,99,0
5026,6388,5540,0,-3,-2,10240,-1.00,-1.00,0.00,0.00,5027,6391,5543,0,9,0,60,99,0
5024,6386,5540,-1,-3,-2,10240,-1.00,-1.00,0.00,0.00,5027,6390,5543,0,9,0,60,99,0
5027,6391,5540,-1,-2,-2,10240,-1.00,-1.00,0.00,0.00,5027,6391,5543,0,9,0,60,99,0
5028,6390,5541,0,-1,-2,10240,-1.00,-1.00,0.00,0.00,5027,6390,5543,0,9,0,60,99,0
5026,6387,5541,0,-1,-2,10240,-1.00,-1.00,0.00,0.00,5027,6390,5543,0,9,0,60,99,0
5027,6389,5538,0,-1,-3,10240,-1.00,-1.00,0.00,0.00,5027,6390,5543,0,9,0,60,99,0
5027,6390,5541,0,-1,-2,10240,-1.00,-1.00,0.00,0.00,5027,6390,5542,0,9,0,60,99,0
5028,6390,5541,0,-1,-2,10240,-1.00,-1.00,0.00,0.00,5027,6390,5542,0,9,0,60,99,0
5028,6391,5542,0,0,-1,10240,-1.00,-1.00,0.00,0.00,5027,6390,5542,0,9,0,60,99,0
5032,6395,5545,1,1,0,10240,-1.00,-1.00,0.00,0.00,5027,6391,5543,0,9,0,60,99,0
5029,6392,5542,2,1,0,10240,-1.00,-1.00,0.00,0.00,5027,6391,5543,0,9,0,60,99,0
5030,6393,5543,2,2,0,10240,-1.00,-1.00,0.00,0.00,5027,6391,5543,0,9,0,60,99,0
5030,6393,5544,3,2,0,10240,-1.00,-1.00,0.00,0.00,5027,6391,5543,0,9,0,60,99,0
5030,6391,5542,2,1,0,10240,-1.00,-1.00,0.00,0.00,5027,6391,5543,0,9,0,60,99,0
5025,6387,5540,1,0,0,10240,-1.00,-1.00,0.00,0.00,5027,6391,5542,0,9,0,60,99,0
5025,6386,5537,0,-1,-1,10240,-1.00,-1.00,0.00,0.00,5027,6390,5542,0,9,0,60,99,0
5025,6385,5537,0,-3,-3,10240,-1.00,-1.00,0.00,0.00,5027,6390,5542,0,9,0,60,99,0
5024,6386,5536,-2,-4,-4,10240,-1.00,-1.00,0.00,0.00,5027,6390,5542,0,9,0,60,99,0
5024,6384,5535,-2,-4,-5,10240,-1.00,-1.00,0.00,0.00,5027,6390,5542,0,9,0,60,99,0
5023,6384,5536,-3,-5,-5,10240,-1.00,-1.00,0.00,0.00,5027,6390,5541,0,9,0,60,99,0
5025,6383,5535,-3,-5,-6,10240,-1.00,-1.00,0.00,0.00,5027,6389,5541,0,9,0,60,99,0
5025,6383,5536,-2,-6,-5,10240,-1.00,-1.00,0.00,0.00,5027,6389,5541,0,9,0,60,99,0
5024,6383,5535,-2,-6,-5,10240,-1.00,-1.00,0.00,0.00,5026,6389,5541,0,9,0,60,99,0
5024,6383,5534,-2,-6,-6,10240,-1.00,-1.00,0.00,0.00,5026,6389,5541,0,9,0,60,99,0
5023,6382,5534,-2,-6,-6,10240,-1.00,-1.00,0.00,0.00,5026,6389,5540,0,9,0,60,99,0
5024,6383,5535,-2,-6,-6,10240,-1.00,-1.00,0.00,0.00,5026,6388,5540,0,9,0,60,99,0
5023,6382,5535,-2,-6,-5,10240,-1.00,-1.00,0.00,0.00,5026,6388,5540,0,9,0,60,99,0
5025,6382,5536,-2,-6,-5,10240,-1.00,-1.00,0.00,0.00,5026,6388,5540,0,9,0,60,99,0
5025,6385,5536,-1,-5,-4,10240,-1.00,-1.00,0.00,0.00,5026,6388,5540,0,9,0,60,99,0
5025,6387,5536,-1,-4,-4,10240,-1.00,-1.00,0.00,0.00,5026,6388,5540,0,9,0,60,99,0
5026,6385,5537,0,-3,-3,10240,-1.00,-1.00,0.00,0.00,5026,6388,5540,0,9,0,60,99,0
5027,6388,5538,0,-1,-3,10240,-1.00,-1.00,0.00,0.00,5026,6388,5540,0,9,0,60,99,0
5025,6387,5537,0,-1,-2,10240,-1.00,-1.00,0.00,0.00,5026,6388,5539,0,9,0,60,99,0
5025,6386,5536,0,-1,-2,10240,-1.00,-1.00,0.00,0.00,5026,6388,5539,0,9,0,60,99,0
5025,6385,5536,0,-1,-2,10240,-1.00,-1.00,0.00,0.00,5026,6388,5539,0,9,0,60,99,0
5024,6386,5535,-1,-2,-3,10240,-1.00,-1.00,0.00,0.00,5026,6388,5539,0,9,0,60,99,0
5028,6388,5538,0,-1,-2,10240,-1.00,-1.00,0.00,0.00,5026,6388,5539,0,9,0,60,99,0
5028,6385,5537,0,-1,-2,10240,-1.00,-1.00,0.00,0.00,5026,6387,5539,0,9,0,60,99,0
5027,6385,5535,0,-1,-2,10240,-1.00,-1.00,0.00,0.00,5026,6387,5539,0,9,0,60,99,0
5027,6386,5537,1,-1,-2,10240,-1.00,-1.00,0.00,0.00,5026,6387,5539,0,9,0,60,99,0
5028,6386,5537,1,-1,-2,10240,-1.00,-1.00,0.00,0.00,5026,6387,5539,0,9,0,60,99,0
5027,6386,5537,1,-1,-2,10240,-1.00,-1.00,0.00,0.00,5026,6387,5539,0,9,0,60,99,0
5026,6386,5536,1,-1,-2,10240,-1.00,-1.00,0.00,0.00,5026,6387,5539,0,9,0,60,99,0
5027,6388,5537,1,0,-2,10240,-1.00,-1.00,0.00,0.00,5026,6387,5538,0,9,0,60,99,0
5028,6389,5537,1,0,-1,10240,-1.00,-1.00,0.00,0.00,5026,6387,5538,0,9,0,60,99,0
5028,6391,5538,1,1,-1,10240,-1.00,-1.00,0.00,0.00,5026,6387,5538,0,9,0,60,99,0
5030,6391,5539,2,2,0,10240,-1.00,-1.00,0.00,0.00,5026,6388,5538,0,9,0,60,99,0
5030,6389,5539,2,2,0,10240,-1.00,-1.00,0.00,0.00,5027,6388,5539,0,9,0,60,99,0
5030,6389,5538,3,2,0,10240,-1.00,-1.00,0.00,0.00,5027,6388,5538,0,9,0,60,99,0
5029,6390,5538,3,1,0,10240,-1.00,-1.00,0.00,0.00,5027,6388,5538,0,9,0,60,99,0
5030,6390,5537,2,1,0,10240,-1.00,-1.00,0.00,0.00,5027,6388,5538,0,9,0,60,99,0
5029,6390,5537,2,1,0,10240,-1.00,-1.00,0.00,0.00,5027,6388,5538,0,9,0,60,99,0
5028,6388,5537,2,1,0,10240,-1.00,-1.00,0.00,0.00,5027,6388,5538,0,9,0,60,99,0
5027,6387,5536,1,0,-1,10240,-1.00,-1.00,0.00,0.00,5027,6388,5538,0,9,0,60,99,0
5027,6389,5536,0,0,-1,10240,-1.00,-1.00,0.00,0.00,5027,6388,5538,0,9,0,60,99,0
5029,6391,5537,0,0,-1,10240,-1.00,-1.00,0.00,0.00,5027,6388,5538,0,9,0,60,99,0
5028,6390,5537,0,1,-1,10240,-1.00,-1.00,0.00,0.00,5027,6388,5538,0,9,0,60,99,0
5030,6390,5536,1,2,-1,10240,-1.00,-1.00,0.00,0.00,5027,6388,5538,0,9,0,60,99,0
5031,6391,5540,2,2,0,10240,-1.00,-1.00,0.00,0.00,5027,6388,5538,0,9,0,60,99,0
5031,6391,5540,3,2,0,10240,-1.00,-1.00,0.00,0.00,5027,6388,5538,0,9,0,60,99,0
5030,6393,5539,3,3,0,10240,-1.00,-1.00,0.00,0.00,5028,6388,5538,0,9,0,60,99,0
5031,6395,5539,3,4,1,10240,-1.00,-1.00,0.00,0.00,5028,6389,5538,0,9,0,60,99,0
5031,6392,5539,3,4,1,10240,-1.00,-1.00,0.00,0.00,5028,6389,5538,0,9,0,60,99,0
5034,6397,5541,3,5,1,10240,-1.00,-1.00,0.00,0.00,5028,6389,5538,0,9,0,60,99,0
5034,6397,5542,4,6,2,10240,-1.00,-1.00,0.00,0.00,5028,6389,5539,0,9,0,60,99,0
5034,6396,5540,5,6,2,10240,-1.00,-1.00,0.00,0.00,5028,6390,5539,0,9,0,60,99,0
5033,6396,5541,5,7,2,10240,-1.00,-1.00,0.00,0.00,5028,6390,5539,0,9,0,60,99,0
5033,6396,5540,5,6,1,10240,-1.00,-1.00,0.00,0.00,5029,6390,5539,0,9,0,60,99,0
5034,6395,5540,5,5,1,10240,-1.00,-1.00,0.00,0.00,5029,6390,5539,0,9,0,60,99,0
5033,6394,5540,4,5,1,10240,-1.00,-1.00,0.00,0.00,5029,6390,5539,0,9,0,60,99,0
5033,6393,5539,4,4,0,10240,-1.00,-1.00,0.00,0.00,5029,6390,5539,0,9,0,60,99,0
5033,6394,5538,4,3,0,10240,-1.00,-1.00,0.00,0.00,5029,6391,5539,0,9,0,60,99,0
5033,6395,5540,4,3,0,10240,-1.00,-1.00,0.00,0.00,5029,6391,5539,0,9,0,60,99,0
5034,6396,5540,4,3,0,10240,-1.00,-1.00,0.00,0.00,5030,6391,5539,0,9,0,60,99,0
5036,6397,5542,4,4,1,10240,-1.00,-1.00,0.00,0.00,5030,6391,5539,0,9,0,60,99,0
5035,6397,5541,4,5,1,10240,-1.00,-1.00,0.00,0.00,5030,6391,5539,0,9,0,60,99,0
5035,6398,5543,5,6,2,10240,-1.00,-1.00,0.00,0.00,5030,6391,5539,0,9,0,60,99,0
5034,6398,5541,5,6,2,10240,-1.00,-1.00,0.00,0.00,5030,6392,5539,0,9,0,60,99,0
5033,6396,5540,4,5,2,10240,-1.00,-1.00,0.00,0.00,5030,6392,5539,0,9,0,60,99,0
5034,6394,5540,4,4,2,10240,-1.00,-1.00,0.00,0.00,5030,6392,5539,0,9,0,60,99,0
5032,6393,5538,3,3,0,10240,-1.00,-1.00,0.00,0.00,5030,6392,5539,0,9,0,60,99,0
5035,6396,5540,3,2,0,10240,-1.00,-1.00,0.00,0.00,5031,6392,5539,0,9,0,60,99,0
5036,6400,5542,3,3,1,10240,-1.00,-1.00,0.00,0.00,5031,6392,5539,0,9,0,60,99,0
5036,6400,5542,4,5,1,10240,-1.00,-1.00,0.00,0.00,5031,6393,5539,0,9,0,60,99,0
5037,6400,5543,5,6,2,10240,-1.00,-1.00,0.00,0.00,5031,6393,5540,0,9,0,60,99,0
5036,6399,5542,5,7,2,10240,-1.00,-1.00,0.00,0.00,5031,6393,5540,0,9,0,60,99,0
5037,6397,5542,5,6,2,10240,-1.00,-1.00,0.00,0.00,5032,6393,5540,0,9,0,60,99,0
5036,6399,5543,5,5,2,10240,-1.00,-1.00,0.00,0.00,5032,6393,5540,0,9,0,60,99,0
5037,6400,5543,4,5,2,10240,-1.00,-1.00,0.00,0.00,5032,6394,5540,0,9,0,60,99,0
5038,6401,5544,5,5,3,10240,-1.00,-1.00,0.00,0.00,5032,6394,5540,0,9,0,60,99,0
5039,6402,5544,5,6,3,10240,-1.00,-1.00,0.00,0.00,5032,6394,5540,0,9,0,60,99,0
5039,6402,5543,6,7,3,10240,-1.00,-1.00,0.00,0.00,5033,6394,5540,0,9,0,60,99,0
5038,6403,5545,6,7,4,10240,-1.00,-1.00,0.00,0.00,5033,6395,5540,0,9,0,60,99,0
5038,6403,5544,5,8,3,10240,-1.00,-1.00,0.00,0.00,5033,6395,5541,0,9,0,60,99,0
5040,6403,5545,5,8,3,10240,-1.00,-1.00,0.00,0.00,5033,6395,5541,0,9,0,60,99,0
5039,6404,5544,5,8,3,10240,-1.00,-1.00,0.00,0.00,5033,6395,5541,0,9,0,60,99,0
5039,6404,5544,6,8,3,10240,-1.00,-1.00,0.00,0.00,5033,6396,5541,0,9,0,60,99,0
5039,6403,5544,6,8,3,10240,-1.00,-1.00,0.00,0.00,5034,6396,5541,0,9,0,60,99,0
5039,6405,5545,5,8,3,10240,-1.00,-1.00,0.00,0.00,5034,6396,5541,0,9,0,60,99,0
5040,6406,5545,5,8,3,10240,-1.00,-1.00,0.00,0.00,5034,6397,5541,0,9,0,60,99,0
5040,6406,5546,5,8,4,10240,-1.00,-1.00,0.00,0.00,5034,6397,5541,0,9,0,60,99,0
5041,6406,5546,6,9,4,10240,-1.00,-1.00,0.00,0.00,5034,6397,5542,0,9,0,60,99,0
5039,6406,5545,5,8,4,10240,-1.00,-1.00,0.00,0.00,5035,6398,5542,0,9,0,60,99,0
5039,6404,5543,5,8,3,10240,-1.00,-1.00,0.00,0.00,5035,6398,5542,0,9,0,60,99,0
5039,6405,5544,4,7,2,10240,-1.00,-1.00,0.00,0.00,5035,6398,5542,0,9,0,60,99,0
5040,6404,5545,4,6,2,10240,-1.00,-1.00,0.00,0.00,5035,6398,5542,0,9,0,60,99,0
5040,6406,5544,4,6,2,10240,-1.00,-1.00,0.00,0.00,5035,6398,5542,0,9,0,60,99,0
5039,6406,5545,4,7,2,10240,-1.00,-1.00,0.00,0.00,5035,6399,5542,0,9,0,60,99,0
5039,6404,5545,4,6,2,10240,-1.00,-1.00,0.00,0.00,5036,6399,5542,0,9,0,60,99,0
5040,6403,5544,4,6,2,10240,-1.00,-1.00,0.00,0.00,5036,6399,5542,0,9,0,60,99,0
5038,6402,5543,3,4,2,10240,-1.00,-1.00,0.00,0.00,5036,6399,5542,0,9,0,60,99,0
5039,6403,5543,3,4,1,10240,-1.00,-1.00,0.00,0.00,5036,6399,5542,0,9,0,60,99,0
5039,6403,5543,3,3,1,10240,-1.00,-1.00,0.00,0.00,5036,6399,5542,0,9,0,60,99,0
5040,6403,5543,3,3,1,10240,-1.00,-1.00,0.00,0.00,5036,6400,5542,0,9,0,60,99,0
5039,6403,5543,3,3,1,10240,-1.00,-1.00,0.00,0.00,5036,6400,5542,0,9,0,60,99,0
5039,6404,5544,3,3,1,10240,-1.00,-1.00,0.00,0.00,5036,6400,5542,0,9,0,60,99,0
5039,6405,5544,3,3,1,10240,-1.00,-1.00,0.00,0.00,5036,6400,5543,0,9,0,60,99,0
5039,6404,5544,3,4,1,10240,-1.00,-1.00,0.00,0.00,5036,6400,5543,0,9,0,60,99,0
5038,6404,5543,2,4,1,10240,-1.00,-1.00,0.00,0.00,5037,6400,5543,0,9,0,60,99,0
5039,6405,5543,2,4,0,10240,-1.00,-1.00,0.00,0.00,5037,6400,5543,0,9,0,60,99,0
5039,6403,5542,2,4,0,10240,-1.00,-1.00,0.00,0.00,5037,6400,5543,0,9,0,60,99,0
5040,6403,5543,2,3,0,10240,-1.00,-1.00,0.00,0.00,5037,6401,5543,0,9,0,60,99,0
5039,6403,5545,2,3,0,10240,-1.00,-1.00,0.00,0.00,5037,6401,5543,0,9,0,60,99,0
5039,6403,5544,2,2,0,10240,-1.00,-1.00,0.00,0.00,5037,6401,5543,0,9,0,60,99,0
5038,6402,5544,2,1,1,10240,-1.00,-1.00,0.00,0.00,5037,6401,5543,0,9,0,60,99,0
5039,6402,5543,1,1,1,10240,-1.00,-1.00,0.00,0.00,5037,6401,5543,0,9,0,60,99,0
5039,6402,5543,1,1,0,10240,-1.00,-1.00,0.00,0.00,5037,6401,5543,0,9,0,60,99,0
5040,6404,5543,2,1,0,10240,-1.00,-1.00,0.00,0.00,5037,6401,5543,0,9,0,60,99,0
5039,6404,5543,2,2,0,10240,-1.00,-1.00,0.00,0.00,5037,6401,5543,0,9,0,60,99,0
5038,6402,5542,2,2,0,10240,-1.00,-1.00,0.00,0.00,5037,6401,5543,0,9,0,60,99,0
5039,6403,5543,2,2,0,10240,-1.00,-1.00,0.00,0.00,5037,6401,5543,0,9,0,60,99,0
5038,6403,5543,1,2,0,10240,-1.00,-1.00,0.00,0.00,5037,6401,5543,0,9,0,60,99,0
5040,6403,5543,1,1,0,10240,-1.00,-1.00,0.00,0.00,5037,6401,5543,0,9,0,60,99,0
5039,6402,5543,1,1,0,10240,-1.00,-1.00,0.00,0.00,5038,6401,5543,0,9,0,60,99,0
5040,6402,5543,1,1,0,10240,-1.00,-1.00,0.00,0.00,5038,6401,5543,0,9,0,60,99,0
5039,6403,5542,1,1,0,10240,-1.00,-1.00,0.00,0.00,5038,6401,5543,0,9,0,60,99,0
5039,6402,5542,1,1,0,10240,-1.00,-1.00,0.00,0.00,5038,6401,5543,0,9,0,60,99,0
5038,6402,5543,1,1,0,10240,-1.00,-1.00,0.00,0.00,5038,6401,5543,0,9,0,60,99,0
5039,6404,5543,0,1,0,10240,-1.00,-1.00,0.00,0.00,5038,6402,5543,0,9,0,60,99,0
5040,6403,5543,1,1,0,10240,-1.00,-1.00,0.00,0.00,5038,6402,5543,0,9,0,60,99,0
5039,6403,5542,1,1,0,10240,-1.00,-1.00,0.00,0.00,5038,6402,5543,0,9,0,60,99,0
5039,6404,5543,1,1,0,10240,-1.00,-1.00,0.00,0.00,5038,6402,5543,0,9,0,60,99,0
5039,6404,5542,1,1,0,10240,-1.00,-1.00,0.00,0.00,5038,6402,5543,0,9,0,60,99,0
5040,6404,5543,1,1,0,10240,-1.00,-1.00,0.00,0.00,5038,6402,5543,0,9,0,60,99,0
5041,6406,5544,1,2,0,10240,-1.00,-1.00,0.00,0.00,5038,6402,5543,0,9,0,60,99,0
5040,6405,5544,2,2,0,10240,-1.00,-1.00,0.00,0.00,5038,6402,5543,0,9,0,60,99,0
5040,6405,5543,2,3,0,10240,-1.00,-1.00,0.00,0.00,5038,6402,5543,0,9,0,60,99,0
5040,6405,5544,2,3,0,10240,-1.00,-1.00,0.00,0.00,5038,6402,5543,0,9,0,60,99,0
5040,6404,5544,2,2,0,10240,-1.00,-1.00,0.00,0.00,5038,6402,5543,0,9,0,60,99,0
5040,6404,5543,2,2,0,10240,-1.00,-1.00,0.00,0.00,5038,6402,5543,0,9,0,60,99,0
5039,6405,5544,1,2,0,10240,-1.00,-1.00,0.00,0.00,5038,6402,5543,0,9,0,60,99,0
5040,6405,5543,1,2,0,10240,-1.00,-1.00,0.00,0.00,5038,6403,5543,0,9,0,60,99,0
5041,6405,5545,1,2,0,10240,-1.00,-1.00,0.00,0.00,5039,6403,5543,0,9,0,60,99,0
5042,6405,5544,2,2,1,10240,-1.00,-1.00,0.00,0.00,5039,6403,5543,0,9,0,60,99,0
5041,6408,5544,2,2,1,10240,-1.00,-1.00,0.00,0.00,5039,6403,5543,0,9,0,60,99,0
5041,6407,5544,2,3,1,10240,-1.00,-1.00,0.00,0.00,5039,6403,5543,0,9,0,60,99,0
5041,6408,5544,2,4,1,10240,-1.00,-1.00,0.00,0.00,5039,6403,5543,0,9,0,60,99,0
5040,6408,5544,1,4,1,10240,-1.00,-1.00,0.00,0.00,5039,6403,5543,0,9,0,60,99,0
5040,6408,5544,1,4,1,10240,-1.00,-1.00,0.00,0.00,5039,6403,5543,0,9,0,60,99,0
5041,6410,5544,1,5,1,10240,-1.00,-1.00,0.00,0.00,5039,6404,5543,0,9,0,60,99,0
5041,6410,5544,1,5,1,10240,-1.00,-1.00,0.00,0.00,5039,6404,5543,0,9,0,60,99,0
5043,6411,5546,2,6,1,10240,-1.00,-1.00,0.00,0.00,5039,6404,5543,0,9,0,60,99,0
5042,6409,5545,2,6,1,10240,-1.00,-1.00,0.00,0.00,5039,6404,5543,0,9,0,60,99,0
5042,6410,5545,3,5,2,10240,-1.00,-1.00,0.00,0.00,5039,6405,5543,0,9,0,60,99,0
5043,6412,5547,3,6,2,10240,-1.00,-1.00,0.00,0.00,5040,6405,5543,0,9,0,60,99,0
5041,6410,5546,2,5,2,10240,-1.00,-1.00,0.00,0.00,5040,6405,5543,0,9,0,60,99,0
5043,6413,5547,2,6,3,10240,-1.00,-1.00,0.00,0.00,5040,6405,5544,0,9,0,60,99,0
5045,6417,5549,3,7,3,10240,-1.00,-1.00,0.00,0.00,5040,6406,5544,0,9,0,60,99,0
5046,6417,5550,3,8,4,10240,-1.00,-1.00,0.00,0.00,5040,6406,5544,0,9,0,60,99,0
5044,6417,5549,4,10,4,10240,-1.00,-1.00,0.00,0.00,5040,6406,5544,0,9,0,60,99,0
5044,6415,5548,4,10,5,10240,-1.00,-1.00,0.00,0.00,5040,6407,5544,0,9,0,60,99,0
5044,6417,5547,4,10,4,10240,-1.00,-1.00,0.00,0.00,5040,6407,5544,0,9,0,60,99,0
5044,6418,5547,3,10,3,10240,-1.00,-1.00,0.00,0.00,5041,6407,5544,0,9,0,60,99,0
5044,6418,5549,3,9,3,10240,-1.00,-1.00,0.00,0.00,5041,6408,5545,0,9,0,60,99,0
5045,6416,5548,3,9,3,10240,-1.00,-1.00,0.00,0.00,5041,6408,5545,0,9,0,60,99,0
5043,6415,5547,3,9,3,10240,-1.00,-1.00,0.00,0.00,5041,6408,5545,0,9,0,60,99,0
5045,6415,5548,3,8,3,10240,-1.00,-1.00,0.00,0.00,5041,6408,5545,0,9,0,60,99,0
5045,6413,5546,3,6,2,10240,-1.00,-1.00,0.00,0.00,5041,6409,5545,0,9,0,60,99,0
5044,6414,5547,3,5,2,10240,-1.00,-1.00,0.00,0.00,5041,6409,5545,0,9,0,60,99,0
5044,6414,5546,3,5,1,10240,-1.00,-1.00,0.00,0.00,5041,6409,5545,0,9,0,60,99,0
5046,6416,5549,3,5,2,10240,-1.00,-1.00,0.00,0.00,5041,6409,5545,0,9,0,60,99,0
5044,6415,5548,3,5,2,10240,-1.00,-1.00,0.00,0.00,5042,6409,5545,0,9,0,60,99,0
5043,6413,5546,2,5,2,10240,-1.00,-1.00,0.00,0.00,5042,6409,5545,0,9,0,60,99,0
5042,6411,5545,2,4,2,10240,-1.00,-1.00,0.00,0.00,5042,6410,5545,0,9,0,60,99,0
5043,6413,5545,1,3,1,10240,-1.00,-1.00,0.00,0.00,5042,6410,5545,0,9,0,60,99,0
5043,6414,5547,0,3,0,10240,-1.00,-1.00,0.00,0.00,5042,6410,5545,0,9,0,60,99,0
5043,6413,5546,0,2,0,10240,-1.00,-1.00,0.00,0.00,5042,6410,5545,0,9,0,60,99,0
5044,6416,5547,1,4,1,10240,-1.00,-1.00,0.00,0.00,5042,6410,5545,0,9,0,60,99,0
5045,6416,5547,1,4,1,10240,-1.00,-1.00,0.00,0.00,5042,6410,5546,0,9,0,60,99,0
5044,6416,5546,2,5,1,10240,-1.00,-1.00,0.00,0.00,5042,6410,5546,0,9,0,60,99,0
5044,6415,5547,2,5,1,10240,-1.00,-1.00,0.00,0.00,5042,6411,5546,0,9,0,60,99,0
5045,6414,5546,2,4,0,10240,-1.00,-1.00,0.00,0.00,5042,6411,5546,0,9,0,60,99,0
5045,6415,5548,2,4,0,10240,-1.00,-1.00,0.00,0.00,5042,6411,5546,0,9,0,60,99,0
5046,6416,5548,3,4,1,10240,-1.00,-1.00,0.00,0.00,5042,6411,5546,0,9,0,60,99,0
5044,6413,5546,3,3,1,10240,-1.00,-1.00,0.00,0.00,5042,6411,5546,0,9,0,60,99,0
5044,6411,5544,2,2,0,10240,-1.00,-1.00,0.00,0.00,5042,6411,5546,0,9,0,60,99,0
5046,6412,5547,2,2,0,10240,-1.00,-1.00,0.00,0.00,5043,6411,5546,0,9,0,60,99,0
5047,6413,5547,2,1,0,10240,-1.00,-1.00,0.00,0.00,5043,6411,5546,0,9,0,60,99,0
5045,6413,5545,2,1,0,10240,-1.00,-1.00,0.00,0.00,5043,6411,5546,0,9,0,60,99,0
5047,6414,5547,3,2,0,10240,-1.00,-1.00,0.00,0.00,5043,6411,5546,0,9,0,60,99,0
5044,6413,5545,2,2,0,10240,-1.00,-1.00,0.00,0.00,5043,6411,5546,0,9,0,60,99,0
5045,6414,5546,2,2,0,10240,-1.00,-1.00,0.00,0.00,5043,6412,5546,0,9,0,60,99,0
5045,6416,5546,2,2,0,10240,-1.00,-1.00,0.00,0.00,5043,6412,5546,0,9,0,60,99,0
5046,6415,5547,2,2,0,10240,-1.00,-1.00,0.00,0.00,5043,6412,5546,0,9,0,60,99,0
5046,6415,5547,2,3,0,10240,-1.00,-1.00,0.00,0.00,5043,6412,5546,0,9,0,60,99,0
5044,6412,5545,2,2,0,10240,-1.00,-1.00,0.00,0.00,5043,6412,5546,0,9,0,60,99,0
5045,6413,5546,2,1,0,10240,-1.00,-1.00,0.00,0.00,5043,6412,5546,0,9,0,60,99,0
5044,6413,5543,1,1,0,10240,-1.00,-1.00,0.00,0.00,5043,6412,5546,0,9,0,60,99,0
5045,6414,5545,1,1,-1,10240,-1.00,-1.00,0.00,0.00,5044,6412,5546,0,9,0,60,99,0
5045,6414,5547,1,1,0,10240,-1.00,-1.00,0.00,0.00,5044,6412,5546,0,9,0,60,99,0
5045,6411,5544,1,1,-1,10240,-1.00,-1.00,0.00,0.00,5044,6412,5546,0,9,0,60,99,0
5044,6412,5544,0,0,0,10240,-1.00,-1.00,0.00,0.00,5044,6412,5545,0,9,0,60,99,0
5044,6412,5544,0,0,0,10240,-1.00,-1.00,0.00,0.00,5044,6412,5545,0,9,0,60,99,0
5044,6410,5543,0,0,-1,10240,-1.00,-1.00,0.00,0.00,5044,6412,5545,0,9,0,60,99,0
5044,6412,5544,0,0,-1,10240,-1.00,-1.00,0.00,0.00,5044,6412,5545,0,9,0,60,99,0
5044,6413,5544,0,0,-1,10240,-1.00,-1.00,0.00,0.00,5044,6412,5545,0,9,0,60,99,0
5046,6413,5546,0,0,0,10240,-1.00,-1.00,0.00,0.00,5044,6412,5545,0,9,0,60,99,0
5044,6411,5544,0,0,0,10240,-1.00,-1.00,0.00,0.00,5044,6412,5545,0,9,0,60,99,0
5043,6410,5544,0,0,0,10240,-1.00,-1.00,0.00,0.00,5044,6412,5545,0,9,0,60,99,0
5044,6412,5543,0,0,0,10240,-1.00,-1.00,0.00,0.00,5044,6412,5545,0,9,0,60,99,0
5045,6411,5544,0,-1,-1,10240,-1.00,-1.00,0.00,0.00,5044,6412,5545,0,9,0,60,99,0
5045,6410,5544,0,-1,-1,10240,-1.00,-1.00,0.00,0.00,5044,6412,5545,0,9,0,60,99,0
5044,6408,5543,0,-1,-1,10240,-1.00,-1.00,0.00,0.00,5044,6412,5545,0,9,0,60,99,0
5044,6409,5542,0,-2,-1,10240,-1.00,-1.00,0.00,0.00,5044,6412,5545,0,9,0,60,99,0
5042,6408,5541,0,-3,-2,10240,-1.00,-1.00,0.00,0.00,5044,6411,5545,0,9,0,60,99,0
5044,6409,5543,0,-3,-2,10240,-1.00,-1.00,0.00,0.00,5044,6411,5545,0,9,0,60,99,0
5043,6409,5541,0,-2,-3,10240,-1.00,-1.00,0.00,0.00,5044,6411,5545,0,9,0,60,99,0
5043,6407,5541,-1,-2,-3,10240,-1.00,-1.00,0.00,0.00,5044,6411,5545,0,9,0,60,99,0
5043,6407,5541,0,-3,-3,10240,-1.00,-1.00,0.00,0.00,5044,6411,5544,0,9,0,60,99,0
5044,6407,5542,0,-3,-3,10240,-1.00,-1.00,0.00,0.00,5044,6411,5544,0,9,0,60,99,0
5043,6406,5542,0,-4,-2,10240,-1.00,-1.00,0.00,0.00,5043,6411,5544,0,9,0,60,99,0
5044,6407,5542,0,-4,-2,10240,-1.00,-1.00,0.00,0.00,5044,6411,5544,0,9,0,60,99,0
5043,6408,5541,0,-4,-2,10240,-1.00,-1.00,0.00,0.00,5043,6411,5544,0,9,0,60,99,0
5042,6408,5541,0,-3,-2,10240,-1.00,-1.00,0.00,0.00,5043,6410,5544,0,9,0,60,99,0
5044,6406,5541,0,-3,-2,10240,-1.00,-1.00,0.00,0.00,5043,6410,5544,0,9,0,60,99,0
5044,6407,5541,0,-3,-3,10240,-1.00,-1.00,0.00,0.00,5044,6410,5544,0,9,0,60,99,0
5043,6405,5541,0,-3,-3,10240,-1.00,-1.00,0.00,0.00,5043,6410,5544,0,9,0,60,99,0
5043,6406,5541,0,-4,-3,10240,-1.00,-1.00,0.00,0.00,5043,6410,5544,0,9,0,60,99,0
5044,6406,5543,0,-4,-2,10240,-1.00,-1.00,0.00,0.00,5044,6410,5544,0,9,0,60,99,0
5044,6405,5541,0,-4,-2,10240,-1.00,-1.00,0.00,0.00,5044,6410,5543,0,9,0,60,99,0
5043,6404,5540,0,-4,-2,10240,-1.00,-1.00,0.00,0.00,5043,6409,5543,0,9,0,60,99,0
5042,6404,5539,0,-4,-2,10240,-1.00,-1.00,0.00,0.00,5043,6409,5543,0,9,0,60,99,0
5042,6403,5539,0,-5,-3,10240,-1.00,-1.00,0.00,0.00,5043,6409,5543,0,9,0,60,99,0
5041,6403,5538,-1,-5,-4,10240,-1.00,-1.00,0.00,0.00,5043,6409,5543,0,9,0,60,99,0
5041,6402,5537,-1,-6,-4,10240,-1.00,-1.00,0.00,0.00,5043,6409,5543,0,9,0,60,99,0
5043,6401,5538,-1,-6,-5,10240,-1.00,-1.00,0.00,0.00,5043,6408,5543,0,9,0,60,99,0
5041,6400,5536,-1,-7,-5,10240,-1.00,-1.00,0.00,0.00,5043,6408,5542,0,9,0,60,99,0
5042,6400,5535,-1,-7,-6,10240,-1.00,-1.00,0.00,0.00,5043,6408,5542,0,9,0,60,99,0
5042,6400,5536,-1,-7,-6,10240,-1.00,-1.00,0.00,0.00,5043,6408,5542,0,9,0,60,99,0
5041,6398,5534,-1,-8,-6,10240,-1.00,-1.00,0.00,0.00,5043,6407,5542,0,9,0,60,99,0
5041,6397,5533,-1,-8,-7,10240,-1.00,-1.00,0.00,0.00,5043,6407,5541,0,9,0,60,99,0
5040,6398,5533,-2,-9,-7,10240,-1.00,-1.00,0.00,0.00,5043,6407,5541,0,9,0,60,99,0
5041,6399,5535,-2,-8,-7,10240,-1.00,-1.00,0.00,0.00,5043,6406,5541,0,9,0,60,99,0
5041,6398,5534,-2,-8,-7,10240,-1.00,-1.00,0.00,0.00,5043,6406,5541,0,9,0,60,99,0
5041,6396,5534,-2,-8,-6,10240,-1.00,-1.00,0.00,0.00,5043,6406,5540,0,9,0,60,99,0
5042,6396,5534,-1,-8,-6,10240,-1.00,-1.00,0.00,0.00,5043,6405,5540,0,9,0,60,99,0
5039,6395,5532,-2,-9,-6,10240,-1.00,-1.00,0.00,0.00,5043,6405,5540,0,9,0,60,99,0
5040,6395,5532,-2,-9,-7,10240,-1.00,-1.00,0.00,0.00,5042,6405,5540,0,9,0,60,99,0
5041,6396,5533,-2,-9,-7,10240,-1.00,-1.00,0.00,0.00,5042,6404,5539,0,9,0,60,99,0
5039,6397,5531,-2,-8,-7,10240,-1.00,-1.00,0.00,0.00,5042,6404,5539,0,9,0,60,99,0
5039,6395,5532,-2,-8,-7,10240,-1.00,-1.00,0.00,0.00,5042,6404,5539,0,9,0,60,99,0
5041,6397,5533,-2,-7,-6,10240,-1.00,-1.00,0.00,0.00,5042,6404,5539,0,9,0,60,99,0
5041,6398,5534,-2,-7,-6,10240,-1.00,-1.00,0.00,0.00,5042,6403,5539,0,9,0,60,99,0
5041,6400,5534,-1,-6,-5,10240,-1.00,-1.00,0.00,0.00,5042,6403,5538,0,9,0,60,99,0
5041,6398,5534,-1,-5,-4,10240,-1.00,-1.00,0.00,0.00,5042,6403,5538,0,9,0,60,99,0
5042,6398,5534,0,-4,-4,10240,-1.00,-1.00,0.00,0.00,5042,6403,5538,0,9,0,60,99,0
5042,6399,5534,0,-4,-4,10240,-1.00,-1.00,0.00,0.00,5042,6403,5538,0,9,0,60,99,0
5042,6400,5534,0,-4,-4,10240,-1.00,-1.00,0.00,0.00,5042,6403,5538,0,9,0,60,99,0
5042,6400,5535,0,-3,-3,10240,-1.00,-1.00,0.00,0.00,5042,6403,5538,0,9,0,60,99,0
5042,6400,5534,0,-3,-3,10240,-1.00,-1.00,0.00,0.00,5042,6403,5538,0,9,0,60,99,0
5042,6401,5534,0,-2,-3,10240,-1.00,-1.00,0.00,0.00,5042,6403,5537,0,9,0,60,99,0
5042,6401,5535,0,-2,-3,10240,-1.00,-1.00,0.00,0.00,5042,6402,5537,0,9,0,60,99,0
5042,6402,5535,0,-1,-2,10240,-1.00,-1.00,0.00,0.00,5042,6402,5537,0,9,0,60,99,0
5044,6403,5536,0,0,-2,10240,-1.00,-1.00,0.00,0.00,5042,6402,5537,0,9,0,60,99,0
5043,6403,5536,0,0,-1,10240,-1.00,-1.00,0.00,0.00,5042,6403,5537,0,9,0,60,99,0
5042,6402,5534,0,0,-1,10240,-1.00,-1.00,0.00,0.00,5042,6402,5537,0,9,0,60,99,0
5042,6401,5534,0,0,-2,10240,-1.00,-1.00,0.00,0.00,5042,6402,5537,0,9,0,60,99,0
5041,6399,5534,0,-1,-2,10240,-1.00,-1.00,0.00,0.00,5042,6402,5537,0,9,0,60,99,0
5041,6400,5534,0,-1,-3,10240,-1.00,-1.00,0.00,0.00,5042,6402,5537,0,9,0,60,99,0
5042,6399,5535,0,-2,-2,10240,-1.00,-1.00,0.00,0.00,5042,6402,5537,0,9,0,60,99,0
5042,6401,5535,0,-2,-2,10240,-1.00,-1.00,0.00,0.00,5042,6402,5537,0,9,0,60,99,0
5041,6400,5533,0,-2,-2,10240,-1.00,-1.00,0.00,0.00,5042,6402,5537,0,9,0,60,99,0
5041,6399,5533,0,-2,-2,10240,-1.00,-1.00,0.00,0.00,5042,6402,5536,0,9,0,60,99,0
5042,6399,5533,0,-2,-3,10240,-1.00,-1.00,0.00,0.00,5042,6402,5536,0,9,0,60,99,0
5042,6399,5533,0,-2,-3,10240,-1.00,-1.00,0.00,0.00,5042,6402,5536,0,9,0,60,99,0
5041,6397,5532,0,-3,-3,10240,-1.00,-1.00,0.00,0.00,5042,6402,5536,0,9,0,60,99,0
5040,6397,5531,0,-3,-3,10240,-1.00,-1.00,0.00,0.00,5042,6401,5536,0,9,0,60,99,0
5042,6399,5533,0,-3,-3,10240,-1.00,-1.00,0.00,0.00,5042,6401,5536,0,9,0,60,99,0
5041,6398,5532,-1,-3,-4,10240,-1.00,-1.00,0.00,0.00,5042,6401,5536,0,9,0,60,99,0
5040,6398,5533,-1,-3,-3,10240,-1.00,-1.00,0.00,0.00,5042,6401,5536,0,9,0,60,99,0
5041,6399,5533,-1,-2,-3,10240,-1.00,-1.00,0.00,0.00,5042,6401,5536,0,9,0,60,99,0
5042,6401,5534,-1,-2,-2,10240,-1.00,-1.00,0.00,0.00,5042,6401,5535,0,9,0,60,99,0
5041,6400,5533,-1,-1,-2,10240,-1.00,-1.00,0.00,0.00,5042,6401,5535,0,9,0,60,99,0
5042,6401,5533,0,0,-2,10240,-1.00,-1.00,0.00,0.00,5042,6401,5535,0,9,0,60,99,0
5042,6400,5535,0,0,-1,10240,-1.00,-1.00,0.00,0.00,5042,6401,5535,0,9,0,60,99,0
5042,6401,5534,0,0,-1,10240,-1.00,-1.00,0.00,0.00,5042,6401,5535,0,9,0,60,99,0
5041,6401,5533,0,0,-1,10240,-1.00,-1.00,0.00,0.00,5042,6401,5535,0,9,0,60,99,0
5042,6399,5533,0,0,-1,10240,-1.00,-1.00,0.00,0.00,5042,6401,5535,0,9,0,60,99,0
5041,6399,5532,0,-1,-2,10240,-1.00,-1.00,0.00,0.00,5042,6401,5535,0,9,0,60,99,0
5041,6399,5532,0,-1,-2,10240,-1.00,-1.00,0.00,0.00,5042,6401,5535,0,9,0,60,99,0
5041,6398,5532,0,-2,-2,10240,-1.00,-1.00,0.00,0.00,5042,6401,5535,0,9,0,60,99,0
5040,6394,5530,-1,-3,-3,10240,-1.00,-1.00,0.00,0.00,5042,6401,5535,0,9,0,60,99,0
5038,6390,5529,-1,-5,-4,10240,-1.00,-1.00,0.00,0.00,5041,6400,5535,0,9,0,60,99,0
5039,6391,5528,-2,-7,-5,10240,-1.00,-1.00,0.00,0.00,5041,6400,5534,0,9,0,60,99,0
5040,6393,5529,-2,-8,-5,10240,-1.00,-1.00,0.00,0.00,5041,6400,5534,0,9,0,60,99,0
5041,6395,5530,-1,-7,-5,10240,-1.00,-1.00,0.00,0.00,5041,6399,5534,0,9,0,60,99,0
5041,6394,5530,0,-6,-4,10240,-1.00,-1.00,0.00,0.00,5041,6399,5534,0,9,0,60,99,0
5041,6395,5529,0,-5,-4,10240,-1.00,-1.00,0.00,0.00,5041,6399,5534,0,9,0,60,99,0
5040,6395,5529,0,-4,-4,10240,-1.00,-1.00,0.00,0.00,5041,6399,5534,0,9,0,60,99,0
5040,6393,5530,0,-4,-4,10240,-1.00,-1.00,0.00,0.00,5041,6399,5533,0,9,0,60,99,0
5039,6391,5529,-1,-5,-4,10240,-1.00,-1.00,0.00,0.00,5041,6399,5533,0,9,0,60,99,0
5039,6391,5529,-1,-6,-4,10240,-1.00,-1.00,0.00,0.00,5041,6398,5533,0,9,0,60,99,0
5039,6391,5528,-1,-7,-4,10240,-1.00,-1.00,0.00,0.00,5041,6398,5533,0,9,0,60,99,0
5038,6387,5528,-2,-8,-4,10240,-1.00,-1.00,0.00,0.00,5041,6398,5533,0,9,0,60,99,0
5037,6385,5525,-2,-9,-5,10240,-1.00,-1.00,0.00,0.00,5041,6397,5533,0,9,0,60,99,0
5037,6385,5526,-3,-10,-6,10240,-1.00,-1.00,0.00,0.00,5041,6397,5532,0,9,0,60,99,0
5038,6389,5528,-3,-10,-5,10240,-1.00,-1.00,0.00,0.00,5041,6397,5532,0,9,0,60,99,0
5037,6385,5525,-3,-10,-6,10240,-1.00,-1.00,0.00,0.00,5040,6396,5532,0,9,0,60,99,0
5036,6382,5524,-3,-11,-6,10240,-1.00,-1.00,0.00,0.00,5040,6396,5532,0,9,0,60,99,0
5035,6383,5523,-3,-11,-6,10240,-1.00,-1.00,0.00,0.00,5040,6395,5531,0,9,0,60,99,0
5037,6384,5526,-3,-12,-7,10240,-1.00,-1.00,0.00,0.00,5040,6395,5531,0,9,0,60,99,0
5036,6385,5525,-4,-11,-6,10240,-1.00,-1.00,0.00,0.00,5040,6395,5531,0,9,0,60,99,0
5036,6385,5523,-4,-10,-6,10240,-1.00,-1.00,0.00,0.00,5040,6394,5531,0,9,0,60,99,0
5037,6386,5525,-3,-9,-6,10240,-1.00,-1.00,0.00,0.00,5040,6394,5531,0,9,0,60,99,0
5036,6384,5523,-3,-9,-6,10240,-1.00,-1.00,0.00,0.00,5040,6394,5530,0,9,0,60,99,0
5037,6386,5524,-3,-8,-6,10240,-1.00,-1.00,0.00,0.00,5039,6393,5530,0,9,0,60,99,0
5035,6384,5523,-3,-8,-6,10240,-1.00,-1.00,0.00,0.00,5039,6393,5530,0,9,0,60,99,0
5037,6384,5524,-3,-8,-6,10240,-1.00,-1.00,0.00,0.00,5039,6393,5530,0,9,0,60,99,0
5038,6382,5522,-2,-8,-6,10240,-1.00,-1.00,0.00,0.00,5039,6392,5529,0,9,0,60,99,0
5036,6381,5521,-2,-9,-7,10240,-1.00,-1.00,0.00,0.00,5039,6392,5529,0,9,0,60,99,0
5034,6379,5518,-2,-10,-8,10240,-1.00,-1.00,0.00,0.00,5039,6392,5529,0,9,0,60,99,0
5036,6381,5519,-3,-11,-8,10240,-1.00,-1.00,0.00,0.00,5039,6391,5528,0,9,0,60,99,0
5035,6381,5519,-3,-11,-9,10240,-1.00,-1.00,0.00,0.00,5039,6391,5528,0,9,0,60,99,0
5034,6378,5519,-4,-11,-9,10240,-1.00,-1.00,0.00,0.00,5039,6390,5528,0,9,0,60,99,0
5036,6380,5520,-3,-10,-8,10240,-1.00,-1.00,0.00,0.00,5038,6390,5528,0,9,0,60,99,0
5037,6381,5519,-3,-10,-8,10240,-1.00,-1.00,0.00,0.00,5038,6390,5527,0,9,0,60,99,0
5035,6378,5520,-2,-10,-8,10240,-1.00,-1.00,0.00,0.00,5038,6389,5527,0,9,0,60,99,0
5033,6379,5518,-2,-10,-8,10240,-1.00,-1.00,0.00,0.00,5038,6389,5527,0,9,0,60,99,0
5035,6378,5518,-3,-10,-8,10240,-1.00,-1.00,0.00,0.00,5038,6389,5526,0,9,0,60,99,0
5034,6378,5517,-3,-10,-8,10240,-1.00,-1.00,0.00,0.00,5038,6388,5526,0,9,0,60,99,0
5033,6377,5517,-4,-10,-8,10240,-1.00,-1.00,0.00,0.00,5038,6388,5526,0,9,0,60,99,0
5033,6376,5517,-4,-11,-8,10240,-1.00,-1.00,0.00,0.00,5038,6388,5525,0,9,0,60,99,0
5032,6374,5516,-4,-11,-8,10240,-1.00,-1.00,0.00,0.00,5037,6387,5525,0,9,0,60,99,0
5030,6372,5515,-5,-12,-9,10240,-1.00,-1.00,0.00,0.00,5037,6387,5525,0,9,0,60,99,0
5030,6371,5513,-6,-13,-9,10240,-1.00,-1.00,0.00,0.00,5037,6386,5524,0,9,0,60,99,0
5032,6372,5514,-6,-14,-10,10240,-1.00,-1.00,0.00,0.00,5037,6386,5524,0,9,0,60,99,0
5029,6373,5514,-6,-14,-10,10240,-1.00,-1.00,0.00,0.00,5037,6385,5524,0,9,0,60,99,0
5032,6375,5516,-6,-12,-9,10240,-1.00,-1.00,0.00,0.00,5036,6385,5524,0,9,0,60,99,0
5032,6375,5515,-5,-11,-9,10240,-1.00,-1.00,0.00,0.00,5036,6385,5523,0,9,0,60,99,0
5029,6369,5513,-5,-11,-9,10240,-1.00,-1.00,0.00,0.00,5036,6384,5523,0,9,0,60,99,0
5031,6371,5511,-5,-12,-9,10240,-1.00,-1.00,0.00,0.00,5036,6384,5522,0,9,0,60,99,0
5030,6370,5510,-5,-12,-10,10240,-1.00,-1.00,0.00,0.00,5036,6383,5522,0,9,0,60,99,0
5030,6371,5511,-5,-13,-11,10240,-1.00,-1.00,0.00,0.00,5035,6383,5522,0,9,0,60,99,0
5030,6372,5511,-5,-12,-11,10240,-1.00,-1.00,0.00,0.00,5035,6382,5521,0,9,0,60,99,0
5030,6373,5511,-5,-11,-10,10240,-1.00,-1.00,0.00,0.00,5035,6382,5521,0,9,0,60,99,0
5028,6370,5511,-5,-10,-10,10240,-1.00,-1.00,0.00,0.00,5035,6382,5521,0,9,0,60,99,0
5029,6369,5510,-5,-10,-10,10240,-1.00,-1.00,0.00,0.00,5035,6381,5520,0,9,0,60,99,0
5029,6371,5511,-5,-10,-9,10240,-1.00,-1.00,0.00,0.00,5034,6381,5520,0,9,0,60,99,0
5029,6373,5510,-5,-10,-9,10240,-1.00,-1.00,0.00,0.00,5034,6381,5520,0,9,0,60,99,0
5030,6374,5513,-5,-9,-8,10240,-1.00,-1.00,0.00,0.00,5034,6380,5519,0,9,0,60,99,0
5027,6367,5510,-5,-9,-8,10240,-1.00,-1.00,0.00,0.00,5034,6380,5519,0,9,0,60,99,0
5028,6366,5511,-5,-10,-8,10240,-1.00,-1.00,0.00,0.00,5034,6379,5519,0,9,0,60,99,0
5029,6370,5510,-5,-10,-8,10240,-1.00,-1.00,0.00,0.00,5034,6379,5519,0,9,0,60,99,0
5029,6371,5511,-5,-10,-8,10240,-1.00,-1.00,0.00,0.00,5033,6379,5518,0,9,0,60,99,0
5030,6373,5512,-4,-9,-7,10240,-1.00,-1.00,0.00,0.00,5033,6379,5518,0,9,0,60,99,0
5028,6370,5511,-4,-7,-7,10240,-1.00,-1.00,0.00,0.00,5033,6378,5518,0,9,0,60,99,0
5029,6371,5512,-4,-7,-6,10240,-1.00,-1.00,0.00,0.00,5033,6378,5518,0,9,0,60,99,0
5031,6374,5513,-3,-6,-6,10240,-1.00,-1.00,0.00,0.00,5033,6378,5518,0,9,0,60,99,0
5030,6374,5513,-3,-5,-5,10240,-1.00,-1.00,0.00,0.00,5033,6378,5517,0,9,0,60,99,0
5031,6373,5513,-2,-5,-4,10240,-1.00,-1.00,0.00,0.00,5033,6378,5517,0,9,0,60,99,0
5031,6375,5513,-2,-4,-4,10240,-1.00,-1.00,0.00,0.00,5033,6378,5517,0,9,0,60,99,0
5035,6379,5516,-1,-2,-3,10240,-1.00,-1.00,0.00,0.00,5033,6378,5517,0,9,0,60,99,0
5033,6378,5515,0,-1,-2,10240,-1.00,-1.00,0.00,0.00,5033,6378,5517,0,9,0,60,99,0
5033,6380,5516,0,0,-2,10240,-1.00,-1.00,0.00,0.00,5033,6378,5517,0,9,0,60,99,0
5035,6380,5516,1,1,-1,10240,-1.00,-1.00,0.00,0.00,5033,6378,5517,0,9,0,60,99,0
5035,6381,5516,1,1,-1,10240,-1.00,-1.00,0.00,0.00,5033,6378,5517,0,9,0,60,99,0
5035,6380,5516,1,2,-1,10240,-1.00,-1.00,0.00,0.00,5033,6378,5517,0,9,0,60,99,0
5033,6376,5513,1,1,-1,10240,-1.00,-1.00,0.00,0.00,5033,6378,5517,0,9,0,60,99,0
5032,6374,5513,0,0,-2,10240,-1.00,-1.00,0.00,0.00,5033,6378,5517,0,9,0,60,99,0
5034,6378,5513,0,-1,-3,10240,-1.00,-1.00,0.00,0.00,5033,6378,5516,0,9,0,60,99,0
5034,6378,5513,0,-1,-3,10240,-1.00,-1.00,0.00,0.00,5033,6378,5516,0,9,0,60,99,0
5033,6377,5513,0,-1,-3,10240,-1.00,-1.00,0.00,0.00,5033,6378,5516,0,9,0,60,99,0
5031,6376,5512,0,0,-3,10240,-1.00,-1.00,0.00,0.00,5033,6378,5516,0,9,0,60,99,0
5033,6377,5512,0,-1,-3,10240,-1.00,-1.00,0.00,0.00,5033,6378,5516,0,9,0,60,99,0
5033,6378,5513,0,-1,-3,10240,-1.00,-1.00,0.00,0.00,5033,6378,5516,0,9,0,60,99,0
5032,6376,5512,0,-1,-3,10240,-1.00,-1.00,0.00,0.00,5033,6378,5516,0,9,0,60,99,0
5031,6375,5511,0,-1,-4,10240,-1.00,-1.00,0.00,0.00,5033,6377,5516,0,9,0,60,99,0
5032,6376,5512,-1,-1,-3,10240,-1.00,-1.00,0.00,0.00,5033,6377,5515,0,9,0,60,99,0
5033,6377,5512,-1,-1,-3,10240,-1.00,-1.00,0.00,0.00,5033,6377,5515,0,9,0,60,99,0
5032,6375,5512,-1,-1,-3,10240,-1.00,-1.00,0.00,0.00,5033,6377,5515,0,9,0,60,99,0
5035,6378,5514,0,0,-2,10240,-1.00,-1.00,0.00,0.00,5033,6377,5515,0,9,0,60,99,0
5032,6377,5514,0,0,-2,10240,-1.00,-1.00,0.00,0.00,5033,6377,5515,0,9,0,60,99,0
5032,6379,5515,0,0,-1,10240,-1.00,-1.00,0.00,0.00,5033,6377,5515,0,9,0,60,99,0
5033,6385,5519,0,2,0,10240,-1.00,-1.00,0.00,0.00,5033,6378,5515,0,9,0,60,99,0
5036,6390,5521,0,5,2,10240,-1.00,-1.00,0.00,0.00,5033,6378,5516,0,9,0,60,99,0
5039,6392,5522,2,8,3,10240,-1.00,-1.00,0.00,0.00,5033,6379,5516,0,9,0,60,99,0
5040,6394,5524,4,11,5,10240,-1.00,-1.00,0.00,0.00,5033,6379,5516,0,9,0,60,99,0
5040,6397,5525,5,14,7,10240,-1.00,-1.00,0.00,0.00,5034,6380,5516,0,9,0,60,99,0
5042,6404,5531,6,17,9,10240,-1.00,-1.00,0.00,0.00,5034,6381,5517,0,9,0,60,99,0
5042,6410,5533,7,21,11,10240,-1.00,-1.00,0.00,0.00,5034,6381,5517,0,9,0,60,99,0
5044,6416,5536,8,25,14,10240,-1.00,-1.00,0.00,0.00,5034,6383,5518,0,9,0,60,99,0
5043,6417,5538,8,29,16,10240,-1.00,-1.00,0.00,0.00,5035,6384,5519,0,9,0,60,99,0
5042,6416,5539,8,31,18,10240,-1.00,-1.00,0.00,0.00,5035,6385,5519,0,9,0,60,99,0
5012,6273,5477,0,-2,4,10240,-1.00,-1.00,0.00,0.00,5034,6381,5518,0,15,5,60,99,0
5000,6251,5413,-10,-42,-25,10240,-1.00,-1.00,2.59,0.00,5033,6377,5514,0,15,5,60,99,0
4982,6221,5395,-24,-88,-59,10240,-1.00,-1.00,2.59,0.00,5031,6372,5510,0,15,5,60,99,0
4972,6206,5385,-40,-136,-94,10240,-1.00,-1.00,2.59,0.00,5029,6366,5506,0,15,5,60,99,0
4971,6205,5383,-48,-148,-114,10240,-1.00,-1.00,2.59,0.00,5027,6361,5502,0,15,5,60,99,0
4952,6194,5377,-58,-157,-119,10240,-1.00,-1.00,2.59,0.00,5025,6355,5498,0,15,5,60,99,0
4943,6152,5356,-66,-168,-124,10240,-1.00,-1.00,2.59,0.00,5022,6348,5493,0,15,5,60,99,0
4937,6149,5352,-72,-176,-128,10240,-1.00,-1.00,2.59,0.00,5019,6342,5489,0,15,5,60,99,0
4930,6147,5341,-80,-184,-134,10240,-1.00,-1.00,2.59,0.00,5016,6335,5484,0,15,5,60,99,0
4927,6145,5335,-83,-190,-140,10240,-1.00,-1.00,2.59,0.00,5013,6329,5479,0,15,5,60,99,0
4936,6147,5350,-82,-185,-137,10240,-1.00,-1.00,2.59,0.00,5011,6323,5474,0,15,5,60,99,0
4944,6172,5369,-78,-173,-128,10240,-1.00,-1.00,2.59,0.00,5009,6318,5471,0,15,5,60,99,0
4961,6204,5384,-68,-154,-113,10240,-1.00,-1.00,2.59,0.00,5007,6314,5468,0,15,5,60,99,0
4969,6209,5382,-55,-133,-98,10240,-1.00,-1.00,2.59,0.00,5006,6310,5465,0,15,5,60,99,0
4968,6210,5384,-46,-113,-86,10240,-1.00,-1.00,2.59,0.00,5004,6307,5462,0,15,5,60,99,0
4968,6212,5384,-38,-100,-80,10240,-1.00,-1.00,2.59,0.00,5003,6304,5460,0,15,5,60,99,0
4954,6180,5368,-39,-102,-81,10240,-1.00,-1.00,2.59,0.00,5002,6300,5457,11,33,19,60,99,0
4924,6145,5331,-48,-114,-91,10240,-1.00,-1.00,1.50,0.63,4999,6295,5453,11,33,19,60,99,0
4920,6142,5328,-58,-127,-101,10240,-1.00,-1.00,1.50,0.63,4996,6290,5448,11,33,19,60,99,0
4925,6147,5340,-67,-139,-109,10240,-1.00,-1.00,1.50,0.63,4994,6285,5445,11,33,19,60,99,0
4930,6147,5347,-70,-142,-110,10240,-1.00,-1.00,1.50,0.63,4992,6280,5441,11,33,19,60,99,0
4974,6192,5379,-56,-126,-94,10240,-1.00,-1.00,1.50,0.63,4991,6277,5439,11,33,19,60,99,0
4997,6224,5399,-35,-102,-74,10240,-1.00,-1.00,1.50,0.63,4992,6276,5438,11,33,19,60,99,0
5017,6250,5415,-12,-73,-53,10240,-1.00,-1.00,1.50,0.63,4992,6275,5437,11,33,19,60,99,0
5023,6264,5422,10,-43,-34,10240,-1.00,-1.00,1.50,0.63,4993,6274,5437,11,33,19,60,99,0
5021,6266,5425,21,-23,-21,10240,-1.00,-1.00,1.50,0.63,4994,6274,5436,11,33,19,60,99,0
5019,6273,5433,26,-11,-12,10240,-1.00,-1.00,1.50,0.63,4995,6274,5436,11,33,19,60,99,0
5017,6283,5439,25,-2,-6,10240,-1.00,-1.00,1.50,0.63,4996,6274,5436,32,33,19,60,99,0
5015,6283,5440,22,2,-2,10240,-1.00,-1.00,1.50,0.63,4997,6275,5437,32,33,19,60,99,0
5013,6283,5442,19,6,2,10240,-1.00,-1.00,1.50,0.63,4997,6275,5437,32,33,19,60,99,0
5011,6283,5441,17,8,3,10240,-1.00,-1.00,1.50,0.63,4998,6275,5437,32,33,19,60,99,0
5010,6281,5439,14,7,3,10240,-1.00,-1.00,1.50,0.63,4998,6275,5437,32,63,19,60,99,0
5012,6286,5441,13,8,3,10240,-1.00,-1.00,1.50,0.63,4998,6276,5437,32,63,19,60,99,0
5012,6287,5441,13,8,3,10240,-1.00,-1.00,1.50,0.63,4999,6276,5437,32,63,19,60,99,0
5011,6288,5441,12,9,3,10240,-1.00,-1.00,1.50,0.63,4999,6276,5437,32,63,19,60,99,0
5013,6290,5440,13,11,3,10240,-1.00,-1.00,1.50,0.63,5000,6277,5437,32,63,19,60,99,0
4993,6261,5420,8,5,-1,10240,-1.00,-1.00,1.50,0.63,4999,6276,5437,32,63,42,60,99,0
4957,6201,5381,-5,-15,-16,10240,-1.00,-1.00,1.30,0.83,4998,6274,5435,32,63,42,60,99,0
4921,6148,5333,-27,-49,-41,10240,-1.00,-1.00,1.30,0.83,4996,6270,5432,32,63,42,60,99,0
4912,6125,5334,-50,-87,-66,10240,-1.00,-1.00,1.30,0.83,4993,6265,5428,32,63,42,60,99,0
4917,6131,5329,-67,-116,-85,10240,-1.00,-1.00,1.30,0.83,4990,6260,5425,32,63,42,60,99,0
4918,6144,5328,-74,-126,-95,10240,-1.00,-1.00,1.30,0.83,4988,6257,5422,32,63,42,60,99,0
4917,6146,5329,-73,-122,-93,10240,-1.00,-1.00,1.30,0.83,4985,6253,5419,32,63,42,60,99,0
4918,6146,5330,-69,-113,-91,10240,-1.00,-1.00,1.30,0.83,4983,6249,5416,32,63,42,60,99,0
4918,6146,5329,-66,-105,-88,10240,-1.00,-1.00,1.30,0.83,4981,6246,5413,32,63,42,60,99,0
4919,6146,5329,-64,-101,-85,10240,-1.00,-1.00,1.30,0.83,4979,6242,5410,32,63,42,60,99,0
4926,6147,5341,-59,-97,-79,10240,-1.00,-1.00,1.30,0.83,4977,6239,5408,32,63,42,60,99,0
4929,6147,5347,-55,-94,-72,10240,-1.00,-1.00,1.30,0.83,4976,6236,5406,32,63,42,60,99,0
4931,6149,5351,-50,-90,-65,10240,-1.00,-1.00,1.30,0.83,4974,6233,5404,32,63,42,60,99,0
4931,6147,5349,-45,-87,-58,10240,-1.00,-1.00,1.30,0.83,4973,6230,5402,32,63,42,60,99,0
4930,6148,5351,-43,-84,-53,10240,-1.00,-1.00,1.30,0.83,4971,6228,5400,32,63,42,60,99,0
4933,6152,5352,-40,-80,-50,10240,-1.00,-1.00,1.30,0.83,4970,6225,5399,32,63,42,60,99,0
4936,6155,5357,-38,-76,-47,10240,-1.00,-1.00,1.30,0.83,4969,6223,5397,32,63,42,60,99,0
4934,6154,5354,-36,-72,-44,10240,-1.00,-1.00,1.30,0.83,4968,6221,5396,32,63,42,60,99,0
4934,6154,5354,-34,-68,-42,10240,-1.00,-1.00,1.30,0.83,4967,6218,5394,32,63,42,60,99,0
4935,6155,5355,-32,-65,-40,10240,-1.00,-1.00,1.30,0.83,4965,6216,5393,32,63,42,60,99,0
4936,6157,5355,-31,-62,-39,10240,-1.00,-1.00,1.30,0.83,4964,6214,5392,32,63,42,60,99,0
4934,6157,5354,-30,-59,-38,10240,-1.00,-1.00,1.30,0.83,4963,6212,5391,32,63,42,60,99,0
4935,6156,5352,-28,-57,-37,10240,-1.00,-1.00,1.30,0.83,4963,6211,5389,32,63,42,60,99,0
4934,6155,5352,-28,-55,-36,10240,-1.00,-1.00,1.30,0.83,4962,6209,5388,32,63,42,60,99,0
4934,6153,5352,-28,-54,-36,10240,-1.00,-1.00,1.30,0.83,4961,6207,5387,32,63,42,60,99,0
4935,6150,5350,-27,-54,-36,10240,-1.00,-1.00,1.30,0.83,4960,6205,5386,32,63,42,60,99,0
4932,6150,5348,-26,-54,-35,10240,-1.00,-1.00,1.30,0.83,4959,6203,5384,32,63,42,60,99,0
4930,6148,5344,-26,-53,-36,10240,-1.00,-1.00,1.30,0.83,4958,6201,5383,32,63,47,60,99,0
4931,6147,5347,-26,-53,-36,10240,-1.00,-1.00,1.16,0.74,4957,6199,5382,32,63,47,60,99,0
4932,6150,5349,-26,-51,-35,10240,-1.00,-1.00,1.16,0.74,4956,6198,5381,32,63,47,60,99,0
4934,6153,5350,-24,-49,-34,10240,-1.00,-1.00,1.16,0.74,4955,6196,5380,32,63,47,60,99,0
4936,6153,5352,-22,-46,-31,10240,-1.00,-1.00,1.16,0.74,4955,6195,5379,32,63,47,60,99,0
4934,6152,5351,-21,-43,-29,10240,-1.00,-1.00,1.16,0.74,4954,6193,5378,32,63,47,60,99,0
4935,6153,5351,-19,-41,-27,10240,-1.00,-1.00,1.16,0.74,4953,6192,5377,32,63,47,60,99,0
4937,6156,5354,-18,-39,-25,10240,-1.00,-1.00,1.16,0.74,4953,6191,5376,32,63,47,60,99,0
4941,6159,5355,-16,-36,-24,10240,-1.00,-1.00,1.16,0.74,4953,6190,5376,32,63,47,60,99,0
4944,6170,5361,-13,-31,-20,10240,-1.00,-1.00,1.16,0.74,4952,6189,5375,32,63,47,60,99,0
4946,6175,5363,-10,-24,-17,10240,-1.00,-1.00,1.16,0.74,4952,6189,5375,32,63,47,60,99,0
4947,6178,5364,-7,-18,-14,10240,-1.00,-1.00,1.16,0.74,4952,6188,5374,32,63,47,58,99,0
4948,6180,5366,-5,-12,-11,10240,-1.00,-1.00,1.16,0.74,4952,6188,5374,32,63,47,58,99,0
4950,6183,5368,-4,-9,-9,10240,-1.00,-1.00,1.16,0.74,4952,6188,5374,32,63,47,58,99,0
4952,6186,5371,-2,-6,-6,10240,-1.00,-1.00,1.16,0.74,4952,6188,5374,32,63,47,58,99,0
4952,6187,5370,-1,-4,-5,10240,-1.00,-1.00,1.16,0.74,4952,6188,5374,32,63,47,58,99,0
4951,6185,5370,0,-2,-4,10240,-1.00,-1.00,1.16,0.74,4952,6188,5373,32,63,47,58,99,0
4952,6187,5371,0,-1,-3,10240,-1.00,-1.00,1.16,0.74,4952,6188,5373,32,63,47,58,99,0
4953,6191,5373,0,0,-2,10240,-1.00,-1.00,1.16,0.74,4952,6188,5373,32,63,47,58,99,0
4953,6191,5373,0,0,-1,10240,-1.00,-1.00,1.16,0.74,4952,6188,5373,32,63,47,58,99,0
4954,6192,5373,1,2,0,10240,-1.00,-1.00,1.16,0.74,4952,6188,5373,32,63,47,58,99,0
4951,6189,5371,0,2,0,10240,-1.00,-1.00,1.16,0.74,4952,6188,5373,43,63,47,58,99,0
4951,6187,5370,0,1,-1,10240,-1.00,-1.00,1.16,0.74,4952,6188,5373,43,79,47,58,99,0
4951,6187,5371,0,0,-1,10240,-1.00,-1.00,1.16,0.74,4952,6188,5373,43,79,47,58,99,0
4951,6187,5370,-1,0,-2,10240,-1.00,-1.00,1.16,0.74,4952,6188,5373,43,79,47,58,99,0
4951,6185,5368,-1,-1,-3,10240,-1.00,-1.00,1.16,0.74,4952,6188,5373,43,79,47,58,99,0
4949,6184,5368,-1,-2,-3,10240,-1.00,-1.00,1.16,0.74,4951,6188,5373,43,79,47,58,99,0
4948,6185,5368,-1,-2,-4,10240,-1.00,-1.00,1.16,0.74,4951,6188,5373,43,79,47,58,99,0
4951,6189,5371,-1,-2,-4,10240,-1.00,-1.00,1.16,0.74,4951,6188,5372,43,79,47,58,99,0
4949,6185,5369,-1,-2,-3,10240,-1.00,-1.00,1.16,0.74,4951,6188,5372,43,79,47,58,99,0
4952,6187,5370,-1,-1,-2,10240,-1.00,-1.00,1.16,0.74,4951,6187,5372,43,79,47,58,99,0
4952,6191,5372,0,0,-1,10240,-1.00,-1.00,1.16,0.74,4951,6188,5372,43,79,47,58,99,0
4953,6192,5372,0,1,-1,10240,-1.00,-1.00,1.16,0.74,4951,6188,5372,43,79,47,58,99,0
4951,6188,5369,1,1,-1,10240,-1.00,-1.00,1.16,0.74,4951,6188,5372,43,79,47,58,99,0
4952,6189,5369,1,2,-1,10240,-1.00,-1.00,1.16,0.74,4951,6188,5372,43,79,47,58,99,0
4955,6194,5373,1,2,-1,10240,-1.00,-1.00,1.16,0.74,4952,6188,5372,43,79,47,58,99,0
4957,6197,5376,2,4,0,10240,-1.00,-1.00,1.16,0.74,4952,6188,5372,43,79,47,58,99,0
4958,6197,5376,3,6,1,10240,-1.00,-1.00,1.16,0.74,4952,6189,5372,43,79,47,58,99,0
4957,6197,5375,4,7,3,10240,-1.00,-1.00,1.16,0.74,4952,6189,5372,43,79,47,58,99,0
4958,6195,5375,5,7,3,10240,-1.00,-1.00,1.16,0.74,4952,6189,5373,43,79,47,58,99,0
4955,6194,5372,5,6,2,10240,-1.00,-1.00,1.16,0.74,4952,6189,5373,43,79,47,58,99,0
4954,6189,5369,3,4,0,10240,-1.00,-1.00,1.16,0.74,4953,6189,5372,43,79,47,58,99,0
4952,6184,5368,2,1,-1,10240,-1.00,-1.00,1.16,0.74,4952,6189,5372,43,79,47,58,99,0
4950,6181,5365,0,-2,-3,10240,-1.00,-1.00,1.16,0.74,4952,6189,5372,43,79,47,58,99,0
4951,6179,5366,0,-5,-5,10240,-1.00,-1.00,1.16,0.74,4952,6188,5372,43,79,47,58,99,0
4953,6181,5364,0,-7,-6,10240,-1.00,-1.00,1.16,0.74,4952,6188,5372,43,79,47,58,99,0
4950,6178,5362,-1,-8,-7,10240,-1.00,-1.00,1.16,0.74,4952,6188,5371,43,79,47,58,99,0
4950,6175,5362,-1,-9,-8,10240,-1.00,-1.00,1.16,0.74,4952,6187,5371,43,79,47,58,99,0
4951,6174,5362,-1,-10,-8,10240,-1.00,-1.00,1.16,0.74,4952,6187,5371,43,79,47,58,99,0
4951,6174,5362,-1,-12,-8,10240,-1.00,-1.00,1.16,0.74,4952,6187,5370,43,79,47,58,99,0
4953,6176,5363,0,-12,-8,10240,-1.00,-1.00,1.16,0.74,4952,6186,5370,43,79,47,58,99,0
4952,6175,5360,0,-11,-8,10240,-1.00,-1.00,1.16,0.74,4952,6186,5370,43,79,47,58,99,0
4952,6177,5362,0,-10,-8,10240,-1.00,-1.00,1.16,0.74,4952,6186,5370,43,79,47,58,99,0
4953,6178,5363,0,-9,-7,10240,-1.00,-1.00,1.16,0.74,4952,6185,5369,43,79,47,58,99,0
4955,6179,5364,1,-8,-7,10240,-1.00,-1.00,1.16,0.74,4952,6185,5369,43,79,47,58,99,0
4955,6180,5364,1,-6,-6,10240,-1.00,-1.00,1.16,0.74,4952,6185,5369,43,79,47,58,99,0
4955,6181,5367,2,-5,-4,10240,-1.00,-1.00,1.16,0.74,4953,6185,5369,43,79,47,58,99,0
4957,6181,5366,3,-4,-3,10240,-1.00,-1.00,1.16,0.74,4953,6185,5369,43,79,47,58,99,0
4956,6182,5366,3,-4,-3,10240,-1.00,-1.00,1.16,0.74,4953,6185,5369,43,79,47,58,99,0
4956,6182,5367,3,-3,-2,10240,-1.00,-1.00,1.16,0.74,4953,6184,5369,43,79,47,58,99,0
4960,6184,5367,4,-2,-2,10240,-1.00,-1.00,1.16,0.74,4953,6184,5369,43,79,47,58,99,0
4962,6188,5370,5,0,-1,10240,-1.00,-1.00,1.16,0.74,4953,6185,5369,43,79,47,58,99,0
4963,6190,5372,7,1,0,10240,-1.00,-1.00,1.16,0.74,4954,6185,5369,43,79,47,58,99,0
4965,6195,5374,9,4,1,10240,-1.00,-1.00,1.16,0.74,4954,6185,5369,43,79,47,58,99,0
4967,6196,5376,10,7,4,10240,-1.00,-1.00,1.16,0.74,4955,6185,5369,43,79,47,58,99,0
4969,6194,5375,11,8,5,10240,-1.00,-1.00,1.16,0.74,4955,6186,5369,43,79,47,58,99,0
4969,6197,5377,12,10,6,10240,-1.00,-1.00,1.16,0.74,4956,6186,5370,43,79,47,58,99,0
4967,6197,5376,12,10,6,10240,-1.00,-1.00,1.16,0.74,4956,6186,5370,43,79,47,58,99,0
4967,6196,5375,12,9,6,10240,-1.00,-1.00,1.16,0.74,4956,6187,5370,43,65,47,58,99,0
4968,6195,5375,11,9,5,10240,-1.00,-1.00,1.16,0.74,4957,6187,5370,43,65,47,58,99,0
4968,6197,5377,11,9,5,10240,-1.00,-1.00,1.16,0.74,4957,6187,5370,43,65,47,58,99,0
4969,6199,5377,11,9,5,10240,-1.00,-1.00,1.16,0.74,4957,6188,5371,43,65,47,58,99,0
4968,6198,5376,11,9,5,10240,-1.00,-1.00,1.16,0.74,4958,6188,5371,43,65,47,58,99,0
4968,6199,5375,10,10,5,10240,-1.00,-1.00,1.16,0.74,4958,6189,5371,43,65,47,58,99,0
4969,6197,5376,10,9,5,10240,-1.00,-1.00,1.16,0.74,4958,6189,5371,43,65,47,58,99,0
4969,6198,5376,10,9,4,10240,-1.00,-1.00,1.16,0.74,4959,6189,5371,43,65,47,58,99,0
4969,6196,5376,10,8,4,10240,-1.00,-1.00,1.16,0.74,4959,6189,5371,43,65,47,58,99,0
4970,6196,5374,10,7,4,10240,-1.00,-1.00,1.16,0.74,4960,6190,5371,43,65,47,58,99,0
4971,6195,5374,10,6,3,10240,-1.00,-1.00,1.16,0.74,4960,6190,5372,43,65,47,58,99,0
4970,6196,5374,10,6,3,10240,-1.00,-1.00,1.16,0.74,4960,6190,5372,43,65,47,58,99,0
4969,6196,5375,9,5,2,10240,-1.00,-1.00,1.16,0.74,4961,6190,5372,43,65,47,58,99,0
4971,6195,5375,9,5,2,10240,-1.00,-1.00,1.16,0.74,4961,6190,5372,43,65,47,58,99,0
4970,6194,5374,9,5,2,10240,-1.00,-1.00,1.16,0.74,4961,6190,5372,43,65,47,58,99,0
4971,6196,5375,9,5,2,10240,-1.00,-1.00,1.16,0.74,4962,6191,5372,43,65,47,58,99,0
4970,6197,5376,9,5,3,10240,-1.00,-1.00,1.16,0.74,4962,6191,5372,43,65,47,58,99,0
4970,6199,5378,8,5,3,10240,-1.00,-1.00,1.16,0.74,4962,6191,5372,43,65,47,58,99,0
4971,6202,5379,8,7,4,10240,-1.00,-1.00,1.16,0.74,4962,6191,5373,43,65,47,58,99,0
4972,6205,5379,8,9,5,10240,-1.00,-1.00,1.16,0.74,4963,6192,5373,43,65,47,58,99,0
4971,6204,5381,8,11,6,10240,-1.00,-1.00,1.16,0.74,4963,6192,5373,43,65,47,58,99,0
4972,6207,5380,8,12,6,10240,-1.00,-1.00,1.16,0.74,4963,6193,5373,43,65,47,58,99,0
4972,6207,5380,8,13,7,10240,-1.00,-1.00,1.16,0.74,4964,6193,5373,43,65,47,58,99,0
4974,6207,5380,8,13,7,10240,-1.00,-1.00,1.16,0.74,4964,6194,5374,43,65,47,58,99,0
4974,6207,5382,9,13,7,10240,-1.00,-1.00,1.16,0.74,4964,6194,5374,43,65,47,58,99,0
4975,6207,5380,9,13,6,10240,-1.00,-1.00,1.16,0.74,4965,6195,5374,43,65,47,58,99,0
4976,6204,5379,10,11,6,10240,-1.00,-1.00,1.16,0.74,4965,6195,5374,43,65,47,58,99,0
4975,6204,5378,10,10,5,10240,-1.00,-1.00,1.16,0.74,4965,6195,5374,43,65,47,58,99,0
4975,6203,5377,10,9,4,10240,-1.00,-1.00,1.16,0.74,4966,6195,5375,43,65,47,58,99,0
4975,6203,5378,9,8,3,10240,-1.00,-1.00,1.16,0.74,4966,6196,5375,43,65,47,58,99,0
4976,6202,5376,9,7,2,10240,-1.00,-1.00,1.16,0.74,4966,6196,5375,43,65,47,58,99,0
4975,6200,5376,9,6,1,10240,-1.00,-1.00,1.16,0.74,4967,6196,5375,43,65,47,58,99,0
4975,6202,5376,8,5,1,10240,-1.00,-1.00,1.16,0.74,4967,6196,5375,43,65,47,58,99,0
4976,6202,5375,8,5,0,10240,-1.00,-1.00,1.16,0.74,4967,6196,5375,43,65,47,58,99,0
4976,6200,5374,8,4,0,10240,-1.00,-1.00,1.16,0.74,4967,6197,5375,43,65,47,58,99,0
4975,6200,5373,8,4,0,10240,-1.00,-1.00,1.16,0.74,4968,6197,5375,43,65,47,58,99,0
4975,6201,5376,8,4,0,10240,-1.00,-1.00,1.16,0.74,4968,6197,5375,43,65,47,58,99,0
4975,6203,5376,7,4,0,10240,-1.00,-1.00,1.16,0.74,4968,6197,5375,43,65,47,58,99,0
4976,6203,5377,7,4,0,10240,-1.00,-1.00,1.16,0.74,4968,6197,5375,43,65,47,58,99,0
4976,6203,5376,7,5,1,10240,-1.00,-1.00,1.16,0.74,4969,6197,5375,43,65,47,58,99,0
4974,6203,5377,6,5,1,10240,-1.00,-1.00,1.16,0.74,4969,6198,5375,43,65,47,58,99,0
4975,6204,5377,6,5,1,10240,-1.00,-1.00,1.16,0.74,4969,6198,5375,43,65,47,58,99,0
4976,6204,5376,6,5,1,10240,-1.00,-1.00,1.16,0.74,4969,6198,5375,43,65,47,58,99,0
4974,6206,5379,5,6,2,10240,-1.00,-1.00,1.16,0.74,4969,6198,5375,43,65,47,58,99,0
4975,6207,5379,5,7,2,10240,-1.00,-1.00,1.16,0.74,4970,6199,5375,43,65,47,58,99,0
4975,6206,5379,5,7,3,10240,-1.00,-1.00,1.16,0.74,4970,6199,5375,43,65,47,58,99,0
4975,6208,5380,5,8,4,10240,-1.00,-1.00,1.16,0.74,4970,6199,5376,43,65,47,58,99,0
4976,6210,5381,5,8,4,10240,-1.00,-1.00,1.16,0.74,4970,6200,5376,43,65,47,58,99,0
4976,6210,5381,5,9,4,10240,-1.00,-1.00,1.16,0.74,4970,6200,5376,43,65,47,58,99,0
4977,6210,5380,5,9,4,10240,-1.00,-1.00,1.16,0.74,4971,6200,5376,43,65,47,58,99,0
4976,6211,5382,5,10,5,10240,-1.00,-1.00,1.16,0.74,4971,6201,5376,43,65,47,58,99,0
4977,6212,5379,5,10,4,10240,-1.00,-1.00,1.16,0.74,4971,6201,5376,43,65,47,58,99,0
4975,6210,5379,5,10,4,10240,-1.00,-1.00,1.16,0.74,4971,6201,5376,43,65,47,58,99,0
4975,6208,5379,4,9,3,10240,-1.00,-1.00,1.16,0.74,4971,6201,5377,43,65,47,58,99,0
4976,6211,5380,4,9,2,10240,-1.00,-1.00,1.16,0.74,4971,6202,5377,43,65,47,58,99,0
4977,6212,5381,4,8,3,10240,-1.00,-1.00,1.16,0.74,4972,6202,5377,43,65,47,58,99,0
4977,6213,5380,4,9,3,10240,-1.00,-1.00,1.16,0.74,4972,6202,5377,43,65,47,58,99,0
4975,6212,5381,4,9,3,10240,-1.00,-1.00,1.16,0.74,4972,6203,5377,43,65,47,58,99,0
4977,6213,5381,4,10,3,10240,-1.00,-1.00,1.16,0.74,4972,6203,5377,43,65,47,58,99,0
4975,6212,5380,4,9,3,10240,-1.00,-1.00,1.16,0.74,4972,6203,5377,43,65,47,58,99,0
4976,6212,5380,3,9,3,10240,-1.00,-1.00,1.16,0.74,4972,6204,5377,43,65,47,58,99,0
4973,6209,5378,3,8,2,10240,-1.00,-1.00,1.16,0.74,4972,6204,5377,43,65,47,58,99,0
4973,6210,5378,2,7,2,10240,-1.00,-1.00,1.16,0.74,4972,6204,5377,43,65,47,58,99,0
4974,6207,5376,2,5,1,10240,-1.00,-1.00,1.16,0.74,4972,6204,5377,43,65,47,58,99,0
4973,6205,5375,1,3,0,10240,-1.00,-1.00,1.16,0.74,4972,6204,5377,43,65,47,58,99,0
4975,6204,5375,1,2,-1,10240,-1.00,-1.00,1.16,0.74,4973,6204,5377,43,65,47,58,99,0
4974,6203,5374,1,0,-2,10240,-1.00,-1.00,1.16,0.74,4973,6204,5377,43,65,47,58,99,0
4973,6201,5374,1,0,-2,10240,-1.00,-1.00,1.16,0.74,4973,6204,5377,43,65,47,58,99,0
4973,6201,5372,0,-1,-3,10240,-1.00,-1.00,1.16,0.74,4973,6204,5377,43,65,47,58,99,0
4974,6200,5372,0,-2,-4,10240,-1.00,-1.00,1.16,0.74,4973,6204,5377,43,65,47,58,99,0
4973,6199,5372,0,-3,-4,10240,-1.00,-1.00,1.16,0.74,4973,6204,5377,43,65,47,58,99,0
4975,6200,5372,0,-4,-4,10240,-1.00,-1.00,1.16,0.74,4973,6204,5376,43,65,47,58,99,0
4975,6200,5372,1,-4,-4,10240,-1.00,-1.00,1.16,0.74,4973,6203,5376,43,65,47,58,99,0
4976,6202,5372,1,-3,-4,10240,-1.00,-1.00,1.16,0.74,4973,6203,5376,43,65,47,58,99,0
4977,6204,5373,2,-1,-3,10240,-1.00,-1.00,1.16,0.74,4973,6203,5376,43,65,47,58,99,0
4978,6204,5374,3,0,-3,10240,-1.00,-1.00,1.16,0.74,4973,6203,5376,43,65,47,58,99,0
4978,6206,5375,4,0,-2,10240,-1.00,-1.00,1.16,0.74,4973,6204,5376,43,65,47,58,99,0
4979,6207,5376,4,1,-1,10240,-1.00,-1.00,1.16,0.74,4974,6204,5376,43,65,47,58,99,0
4980,6205,5375,5,1,-1,10240,-1.00,-1.00,1.16,0.74,4974,6204,5376,43,65,47,58,99,0
4981,6206,5376,5,2,0,10240,-1.00,-1.00,1.16,0.74,4974,6204,5376,43,65,47,58,99,0
4982,6208,5377,6,2,0,10240,-1.00,-1.00,1.16,0.74,4974,6204,5376,43,65,47,58,99,0
4983,6208,5376,7,2,0,10240,-1.00,-1.00,1.16,0.74,4975,6204,5376,43,65,47,58,99,0
4983,6209,5376,7,3,0,10240,-1.00,-1.00,1.16,0.74,4975,6204,5376,43,65,47,58,99,0
4983,6209,5377,8,4,0,10240,-1.00,-1.00,1.16,0.74,4975,6204,5376,43,65,47,58,99,0
4984,6212,5378,8,5,0,10240,-1.00,-1.00,1.16,0.74,4975,6205,5376,43,65,47,58,99,0
4983,6214,5380,8,6,1,10240,-1.00,-1.00,1.16,0.74,4976,6205,5376,43,65,47,58,99,0
4984,6216,5381,8,8,3,10240,-1.00,-1.00,1.16,0.74,4976,6205,5376,43,65,47,58,99,0
4986,6221,5384,8,10,4,10240,-1.00,-1.00,1.16,0.74,4976,6206,5377,43,65,47,58,99,0
4985,6221,5384,8,12,5,10240,-1.00,-1.00,1.16,0.74,4977,6206,5377,43,65,47,58,99,0
4986,6222,5385,8,14,6,10240,-1.00,-1.00,1.16,0.74,4977,6207,5377,43,65,47,58,99,0
4988,6222,5385,9,15,7,10240,-1.00,-1.00,1.16,0.74,4977,6207,5377,43,65,47,57,99,0
4991,6220,5384,10,14,7,10240,-1.00,-1.00,1.16,0.74,4978,6208,5378,43,65,47,57,99,0
4992,6220,5382,11,13,6,10240,-1.00,-1.00,1.16,0.74,4978,6208,5378,43,65,47,57,99,0
4993,6223,5383,13,13,5,10240,-1.00,-1.00,1.16,0.74,4979,6209,5378,43,65,47,57,99,0
4993,6226,5386,13,13,5,10240,-1.00,-1.00,1.16,0.74,4979,6209,5378,43,65,47,57,99,0
4996,6228,5388,14,15,6,10240,-1.00,-1.00,1.16,0.74,4980,6210,5378,43,65,47,57,99,0
4999,6233,5391,15,17,8,10240,-1.00,-1.00,1.16,0.74,4980,6211,5379,43,65,47,57,99,0
5000,6237,5393,17,20,11,10240,-1.00,-1.00,1.16,0.74,4981,6212,5379,43,65,47,57,99,0
5001,6239,5394,18,23,12,10240,-1.00,-1.00,1.16,0.74,4982,6212,5380,43,65,47,57,99,0
5003,6242,5396,19,25,14,10240,-1.00,-1.00,1.16,0.74,4982,6213,5380,43,65,47,57,99,0
5003,6244,5398,19,27,15,10240,-1.00,-1.00,1.16,0.74,4983,6214,5381,43,65,47,57,99,0
5006,6250,5401,20,30,16,10240,-1.00,-1.00,1.16,0.74,4984,6216,5382,43,65,47,57,99,0
5005,6252,5402,21,32,18,10240,-1.00,-1.00,1.16,0.74,4984,6217,5382,43,65,47,57,99,0
5006,6252,5403,21,33,19,10240,-1.00,-1.00,1.16,0.74,4985,6218,5383,43,65,47,57,99,0
5006,6252,5403,21,34,19,10240,-1.00,-1.00,1.16,0.74,4986,6219,5384,43,65,47,57,99,0
5005,6252,5404,20,33,19,10240,-1.00,-1.00,1.16,0.74,4987,6220,5384,37,54,47,57,99,0
5007,6256,5405,19,33,19,10240,-1.00,-1.00,1.16,0.74,4987,6221,5385,37,54,47,57,99,0
5008,6257,5407,19,33,20,10240,-1.00,-1.00,1.16,0.74,4988,6223,5386,37,54,47,57,99,0
5008,6256,5405,19,33,20,10240,-1.00,-1.00,1.16,0.74,4989,6224,5386,37,54,47,57,99,0
5008,6256,5405,19,33,19,10240,-1.00,-1.00,1.16,0.74,4989,6225,5387,37,54,47,57,99,0
5008,6256,5406,19,31,19,10240,-1.00,-1.00,1.16,0.74,4990,6226,5388,37,54,47,57,99,0
5010,6260,5406,18,31,18,10240,-1.00,-1.00,1.16,0.74,4991,6227,5388,37,54,47,57,99,0
5009,6259,5407,18,31,18,10240,-1.00,-1.00,1.16,0.74,4991,6228,5389,37,54,47,57,99,0
5011,6259,5409,18,31,18,10240,-1.00,-1.00,1.16,0.74,4992,6229,5390,37,54,47,57,99,0
5011,6258,5408,18,30,18,10240,-1.00,-1.00,1.16,0.74,4992,6230,5390,37,54,47,57,99,0
5010,6258,5406,18,29,17,10240,-1.00,-1.00,1.16,0.74,4993,6231,5391,37,54,47,57,99,0
5013,6259,5409,18,28,17,10240,-1.00,-1.00,1.16,0.74,4994,6232,5391,37,54,47,57,99,0
5014,6260,5409,18,27,17,10240,-1.00,-1.00,1.16,0.74,4994,6233,5392,37,54,47,57,99,0
5014,6260,5407,18,26,16,10240,-1.00,-1.00,1.16,0.74,4995,6234,5392,37,54,47,57,99,0
5015,6262,5409,19,26,16,10240,-1.00,-1.00,1.16,0.74,4996,6235,5393,37,54,47,57,99,0
5015,6262,5409,19,26,15,10240,-1.00,-1.00,1.16,0.74,4996,6236,5394,37,54,47,57,99,0
5020,6264,5410,20,26,15,10240,-1.00,-1.00,1.16,0.74,4997,6237,5394,37,54,47,57,99,0
5022,6267,5411,21,27,15,10240,-1.00,-1.00,1.16,0.74,4998,6238,5395,37,54,47,57,99,0
5023,6269,5414,22,28,16,10240,-1.00,-1.00,1.16,0.74,4999,6239,5395,37,54,47,57,99,0
5023,6269,5414,23,28,17,10240,-1.00,-1.00,1.16,0.74,5000,6240,5396,37,54,47,57,99,0
5024,6269,5413,23,29,17,10240,-1.00,-1.00,1.16,0.74,5000,6241,5396,37,54,47,57,99,0
5026,6271,5413,24,29,17,10240,-1.00,-1.00,1.16,0.74,5001,6242,5397,37,54,47,57,99,0
5025,6270,5411,23,28,16,10240,-1.00,-1.00,1.16,0.74,5002,6242,5398,37,54,47,57,99,0
5024,6269,5410,23,27,14,10240,-1.00,-1.00,1.16,0.74,5003,6243,5398,37,54,47,57,99,0
5026,6270,5412,22,27,13,10240,-1.00,-1.00,1.16,0.74,5004,6244,5398,37,54,47,57,99,0
5025,6267,5411,21,25,12,10240,-1.00,-1.00,1.16,0.74,5004,6245,5399,37,54,47,57,99,0
5027,6267,5410,21,23,12,10240,-1.00,-1.00,1.16,0.74,5005,6246,5399,37,54,47,57,99,0
5027,6269,5410,21,22,11,10240,-1.00,-1.00,1.16,0.74,5006,6247,5400,37,54,47,57,99,0
5026,6267,5409,21,21,10,10240,-1.00,-1.00,1.16,0.74,5006,6247,5400,37,54,47,57,99,0
5026,6267,5410,20,20,10,10240,-1.00,-1.00,1.16,0.74,5007,6248,5400,37,54,47,57,99,0
5026,6267,5410,19,19,9,10240,-1.00,-1.00,1.16,0.74,5008,6249,5401,37,54,47,57,99,0
5027,6266,5409,19,18,9,10240,-1.00,-1.00,1.16,0.74,5008,6249,5401,37,54,47,57,99,0
5026,6267,5410,18,17,9,10240,-1.00,-1.00,1.16,0.74,5009,6250,5401,37,54,47,57,99,0
5025,6268,5411,17,17,9,10240,-1.00,-1.00,1.16,0.74,5009,6250,5401,37,54,47,57,99,0
5025,6266,5409,16,16,8,10240,-1.00,-1.00,1.16,0.74,5010,6251,5402,37,54,47,57,99,0
5024,6266,5409,15,16,8,10240,-1.00,-1.00,1.16,0.74,5010,6251,5402,37,54,47,57,99,0
5025,6267,5410,14,15,8,10240,-1.00,-1.00,1.16,0.74,5011,6252,5402,37,54,47,57,99,0
5026,6265,5410,14,14,7,10240,-1.00,-1.00,1.16,0.74,5011,6252,5402,37,54,47,57,99,0
5025,6265,5408,14,13,7,10240,-1.00,-1.00,1.16,0.74,5012,6253,5403,37,54,47,57,99,0
5026,6266,5408,14,13,6,10240,-1.00,-1.00,1.16,0.74,5012,6253,5403,37,54,47,57,99,0
5027,6266,5409,14,12,6,10240,-1.00,-1.00,1.16,0.74,5013,6254,5403,37,54,47,57,99,0
5028,6269,5408,14,13,5,10240,-1.00,-1.00,1.16,0.74,5013,6254,5403,37,54,47,57,99,0
5029,6272,5409,14,14,5,10240,-1.00,-1.00,1.16,0.74,5014,6255,5403,37,54,47,57,99,0
5028,6273,5409,14,15,5,10240,-1.00,-1.00,1.16,0.74,5014,6255,5404,37,54,47,57,99,0
5028,6273,5409,14,16,5,10240,-1.00,-1.00,1.16,0.74,5015,6256,5404,37,54,47,57,99,0
5029,6275,5408,14,17,5,10240,-1.00,-1.00,1.16,0.74,5015,6257,5404,37,54,47,57,99,0
5030,6275,5408,13,17,4,10240,-1.00,-1.00,1.16,0.74,5016,6257,5404,37,54,47,57,99,0
5031,6276,5410,14,17,4,10240,-1.00,-1.00,1.16,0.74,5016,6258,5404,37,54,47,57,99,0
5029,6273,5409,13,17,4,10240,-1.00,-1.00,1.16,0.74,5017,6258,5404,37,54,47,57,99,0
5029,6273,5407,13,16,4,10240,-1.00,-1.00,1.16,0.74,5017,6259,5404,37,54,47,57,99,0
5030,6273,5409,12,15,4,10240,-1.00,-1.00,1.16,0.74,5018,6259,5405,37,54,47,57,99,0
5028,6274,5409,11,14,4,10240,-1.00,-1.00,1.16,0.74,5018,6260,5405,37,54,47,57,99,0
5028,6274,5410,11,14,4,10240,-1.00,-1.00,1.16,0.74,5018,6260,5405,37,54,47,57,99,0
5027,6274,5409,10,13,4,10240,-1.00,-1.00,1.16,0.74,5019,6261,5405,37,54,47,57,99,0
5028,6274,5410,9,13,4,10240,-1.00,-1.00,1.16,0.74,5019,6261,5405,37,54,47,57,99,0
5026,6275,5411,8,13,5,10240,-1.00,-1.00,1.16,0.74,5019,6262,5405,37,54,47,57,99,0
5026,6274,5411,7,12,5,10240,-1.00,-1.00,1.16,0.74,5019,6262,5406,37,54,47,57,99,0
5026,6273,5412,7,12,5,10240,-1.00,-1.00,1.16,0.74,5020,6262,5406,37,54,47,57,99,0
5026,6272,5411,6,11,5,10240,-1.00,-1.00,1.16,0.74,5020,6263,5406,37,54,47,57,99,0
5025,6271,5412,6,10,5,10240,-1.00,-1.00,1.16,0.74,5020,6263,5406,37,54,47,57,99,0
5025,6269,5412,5,8,5,10240,-1.00,-1.00,1.16,0.74,5020,6263,5406,37,54,47,57,99,0
5023,6266,5410,4,6,5,10240,-1.00,-1.00,1.16,0.74,5020,6263,5407,37,54,47,57,99,0
5023,6267,5411,4,5,4,10240,-1.00,-1.00,1.16,0.74,5020,6263,5407,37,54,47,57,99,0
5022,6266,5410,3,4,4,10240,-1.00,-1.00,1.16,0.74,5020,6263,5407,37,54,47,57,99,0
5023,6267,5411,2,3,3,10240,-1.00,-1.00,1.16,0.74,5020,6264,5407,37,54,47,57,99,0
5023,6268,5410,2,3,3,10240,-1.00,-1.00,1.16,0.74,5021,6264,5407,37,54,47,57,99,0
5022,6266,5410,2,3,3,10240,-1.00,-1.00,1.16,0.74,5021,6264,5407,37,54,47,57,99,0
5024,6272,5413,2,4,4,10240,-1.00,-1.00,1.16,0.74,5021,6264,5407,37,54,47,57,99,0
5024,6273,5412,2,5,4,10240,-1.00,-1.00,1.16,0.74,5021,6264,5407,37,54,47,57,99,0
5025,6270,5412,2,6,4,10240,-1.00,-1.00,1.16,0.74,5021,6265,5408,37,54,47,57,99,0
5024,6271,5412,3,7,4,10240,-1.00,-1.00,1.16,0.74,5021,6265,5408,37,54,47,57,99,0
5024,6271,5413,3,6,4,10240,-1.00,-1.00,1.16,0.74,5021,6265,5408,37,54,47,57,99,0
5026,6271,5412,3,5,4,10240,-1.00,-1.00,1.16,0.74,5021,6265,5408,37,54,47,57,99,0
5025,6270,5412,3,5,4,10240,-1.00,-1.00,1.16,0.74,5021,6265,5408,37,54,47,57,99,0
5024,6267,5409,3,4,3,10240,-1.00,-1.00,1.16,0.74,5022,6265,5408,37,54,47,57,99,0
5022,6263,5407,2,2,2,10240,-1.00,-1.00,1.16,0.74,5022,6265,5408,37,54,47,57,99,0
5021,6263,5407,1,0,0,10240,-1.00,-1.00,1.16,0.74,5022,6265,5408,37,54,47,57,99,0
5020,6263,5408,0,-1,0,10240,-1.00,-1.00,1.16,0.74,5021,6265,5408,37,54,47,57,99,0
5019,6263,5406,-1,-2,-1,10240,-1.00,-1.00,1.16,0.74,5021,6265,5408,37,54,47,57,99,0
5018,6262,5405,-1,-2,-1,10240,-1.00,-1.00,1.16,0.74,5021,6265,5408,37,54,47,57,99,0
5017,6262,5403,-2,-2,-2,10240,-1.00,-1.00,1.16,0.74,5021,6265,5408,37,54,47,57,99,0
5017,6262,5405,-3,-2,-3,10240,-1.00,-1.00,1.16,0.74,5021,6265,5408,37,54,47,57,99,0
5017,6261,5405,-3,-3,-3,10240,-1.00,-1.00,1.16,0.74,5021,6265,5408,37,54,47,57,99,0
5019,6263,5407,-3,-3,-3,10240,-1.00,-1.00,1.16,0.74,5021,6265,5408,37,54,47,57,99,0
5020,6266,5408,-2,-2,-1,10240,-1.00,-1.00,1.16,0.74,5021,6265,5408,37,54,47,57,99,0
5019,6267,5408,-2,0,-1,10240,-1.00,-1.00,1.16,0.74,5021,6265,5408,37,54,47,57,99,0
5022,6269,5410,-1,1,0,10240,-1.00,-1.00,1.16,0.74,5021,6265,5408,37,54,47,57,99,0
5020,6269,5410,0,2,1,10240,-1.00,-1.00,1.16,0.74,5021,6265,5408,37,54,47,57,99,0
5021,6268,5411,0,3,1,10240,-1.00,-1.00,1.16,0.74,5021,6265,5408,37,54,47,57,99,0
5023,6267,5408,0,3,1,10240,-1.00,-1.00,1.16,0.74,5021,6265,5408,37,54,47,57,99,0
5022,6263,5407,0,1,1,10240,-1.00,-1.00,1.16,0.74,5021,6265,5408,37,54,47,57,99,0
5024,6264,5408,1,0,0,10240,-1.00,-1.00,1.16,0.74,5021,6265,5408,37,54,47,57,99,0
5026,6266,5409,2,0,0,10240,-1.00,-1.00,1.16,0.74,5021,6265,5408,37,54,47,57,99,0
5028,6270,5408,4,0,0,10240,-1.00,-1.00,1.16,0.74,5021,6265,5408,37,54,47,57,99,0
5027,6270,5409,5,2,0,10240,-1.00,-1.00,1.16,0.74,5022,6265,5408,37,54,47,57,99,0
5027,6272,5410,5,4,1,10240,-1.00,-1.00,1.16,0.74,5022,6266,5408,37,54,47,57,99,0
5028,6272,5409,5,5,1,10240,-1.00,-1.00,1.16,0.74,5022,6266,5408,37,54,47,57,99,0
5027,6271,5409,5,5,1,10240,-1.00,-1.00,1.16,0.74,5022,6266,5408,37,54,47,57,99,0
5027,6272,5410,5,5,1,10240,-1.00,-1.00,1.16,0.74,5022,6266,5408,37,54,47,57,99,0
5027,6272,5410,5,5,1,10240,-1.00,-1.00,1.16,0.74,5022,6266,5408,37,54,47,57,99,0
5028,6272,5407,5,5,1,10240,-1.00,-1.00,1.16,0.74,5023,6267,5408,37,54,47,57,99,0
5027,6271,5408,4,5,0,10240,-1.00,-1.00,1.16,0.74,5023,6267,5408,37,54,47,57,99,0
5027,6271,5408,4,4,0,10240,-1.00,-1.00,1.16,0.74,5023,6267,5408,37,54,47,57,99,0
5027,6268,5407,4,3,0,10240,-1.00,-1.00,1.16,0.74,5023,6267,5408,37,54,47,57,99,0
5027,6267,5408,4,2,0,10240,-1.00,-1.00,1.16,0.74,5023,6267,5408,37,54,47,57,99,0
5026,6267,5408,3,1,0,10240,-1.00,-1.00,1.16,0.74,5023,6267,5408,37,54,47,57,99,0
5026,6267,5408,3,0,0,10240,-1.00,-1.00,1.16,0.74,5023,6267,5408,37,54,47,57,99,0
5026,6267,5408,3,0,0,10240,-1.00,-1.00,1.16,0.74,5023,6267,5408,37,54,47,57,99,0
5027,6267,5408,3,0,0,10240,-1.00,-1.00,1.16,0.74,5024,6267,5408,37,54,47,57,99,0
5026,6268,5408,2,0,0,10240,-1.00,-1.00,1.16,0.74,5024,6267,5408,37,54,47,55,99,0
5025,6265,5409,2,0,0,10240,-1.00,-1.00,1.16,0.74,5024,6267,5408,37,54,47,55,99,0
5027,6267,5408,2,0,0,10240,-1.00,-1.00,1.16,0.74,5024,6267,5408,37,54,47,55,99,0
5026,6267,5408,2,0,0,10240,-1.00,-1.00,1.16,0.74,5024,6267,5408,37,54,47,55,99,0
5027,6266,5407,2,0,0,10240,-1.00,-1.00,1.16,0.74,5024,6267,5408,37,54,47,55,99,0
5028,6267,5408,3,0,0,10240,-1.00,-1.00,1.16,0.74,5024,6267,5408,37,54,47,55,99,0
5028,6268,5407,3,0,0,10240,-1.00,-1.00,1.16,0.74,5024,6267,5408,37,54,47,55,99,0
5028,6273,5409,3,1,0,10240,-1.00,-1.00,1.16,0.74,5024,6267,5408,37,54,47,55,99,0
5028,6273,5409,4,3,0,10240,-1.00,-1.00,1.16,0.74,5024,6267,5408,37,54,47,55,99,0
5029,6275,5409,4,5,0,10240,-1.00,-1.00,1.16,0.74,5025,6268,5408,37,54,47,55,99,0
5031,6277,5410,4,7,1,10240,-1.00,-1.00,1.16,0.74,5025,6268,5408,37,54,47,55,99,0
5029,6276,5408,4,7,1,10240,-1.00,-1.00,1.16,0.74,5025,6268,5408,37,54,47,55,99,0
5029,6275,5409,4,7,1,10240,-1.00,-1.00,1.16,0.74,5025,6268,5408,37,54,47,55,99,0
5029,6275,5408,4,7,0,10240,-1.00,-1.00,1.16,0.74,5025,6269,5408,37,54,47,55,99,0
5029,6276,5408,4,7,0,10240,-1.00,-1.00,1.16,0.74,5025,6269,5408,37,54,47,55,99,0
5028,6276,5409,3,6,0,10240,-1.00,-1.00,1.16,0.74,5025,6269,5408,37,54,47,55,99,0
5029,6275,5410,3,6,0,10240,-1.00,-1.00,1.16,0.74,5026,6269,5408,37,54,47,55,99,0
5030,6277,5409,3,6,1,10240,-1.00,-1.00,1.16,0.74,5026,6270,5408,37,54,47,55,99,0
5029,6277,5408,3,6,1,10240,-1.00,-1.00,1.16,0.74,5026,6270,5408,37,54,47,55,99,0
5029,6277,5410,3,6,1,10240,-1.00,-1.00,1.16,0.74,5026,6270,5408,37,54,47,61,99,0
5029,6276,5408,3,6,0,10240,-1.00,-1.00,1.16,0.74,5026,6270,5408,37,54,47,61,99,0
5029,6275,5408,3,6,0,10240,-1.00,-1.00,1.16,0.74,5026,6270,5408,37,54,47,61,99,0
5029,6275,5408,3,5,0,10240,-1.00,-1.00,1.16,0.74,5026,6271,5408,37,54,47,61,99,0
5029,6275,5408,3,4,0,10240,-1.00,-1.00,1.16,0.74,5026,6271,5408,37,54,47,61,99,0
5030,6273,5406,3,3,0,10240,-1.00,-1.00,1.16,0.74,5026,6271,5408,37,54,47,61,99,0
5031,6276,5407,3,3,0,10240,-1.00,-1.00,1.16,0.74,5027,6271,5408,37,54,47,61,99,0
5032,6274,5409,4,3,0,10240,-1.00,-1.00,1.16,0.74,5027,6271,5408,37,54,47,61,99,0
5031,6274,5407,4,3,0,10240,-1.00,-1.00,1.16,0.74,5027,6271,5408,37,54,47,61,99,0
5032,6274,5407,4,3,0,10240,-1.00,-1.00,1.16,0.74,5027,6271,5408,37,54,47,61,99,0
5033,6276,5410,5,3,0,10240,-1.00,-1.00,1.16,0.74,5027,6271,5408,37,54,47,61,99,0
5035,6280,5410,5,4,0,10240,-1.00,-1.00,1.16,0.74,5028,6272,5408,37,54,47,61,99,0
5038,6282,5413,7,6,1,10240,-1.00,-1.00,1.16,0.74,5028,6272,5409,37,54,47,61,99,0
5037,6283,5413,8,8,3,10240,-1.00,-1.00,1.16,0.74,5028,6272,5409,37,54,47,61,99,0
5039,6284,5414,9,10,3,10240,-1.00,-1.00,1.16,0.74,5029,6273,5409,37,54,47,61,99,0
5039,6286,5414,9,11,4,10240,-1.00,-1.00,1.16,0.74,5029,6273,5409,37,54,47,61,99,0
5039,6286,5414,9,11,4,10240,-1.00,-1.00,1.16,0.74,5029,6274,5409,37,54,47,61,99,0
5040,6285,5414,10,11,5,10240,-1.00,-1.00,1.16,0.74,5030,6274,5409,37,54,47,61,99,0
5038,6282,5412,9,11,4,10240,-1.00,-1.00,1.16,0.74,5030,6274,5410,37,54,47,61,99,0
5039,6285,5412,9,10,3,10240,-1.00,-1.00,1.16,0.74,5030,6275,5410,37,54,47,61,99,0
5039,6285,5412,9,9,2,10240,-1.00,-1.00,1.16,0.74,5030,6275,5410,37,54,47,61,99,0
5041,6285,5412,9,9,2,10240,-1.00,-1.00,1.16,0.74,5031,6275,5410,37,54,47,61,99,0
5041,6283,5412,9,9,2,10240,-1.00,-1.00,1.16,0.74,5031,6276,5410,37,54,47,61,99,0
5041,6285,5412,9,9,2,10240,-1.00,-1.00,1.16,0.74,5031,6276,5410,37,54,47,61,99,0
5040,6285,5412,9,8,2,10240,-1.00,-1.00,1.16,0.74,5032,6276,5410,37,54,47,61,99,0
5039,6285,5412,8,8,2,10240,-1.00,-1.00,1.16,0.74,5032,6276,5410,37,54,47,61,99,0
5038,6284,5412,7,8,2,10240,-1.00,-1.00,1.16,0.74,5032,6277,5410,37,54,47,61,99,0
5041,6284,5412,7,8,2,10240,-1.00,-1.00,1.16,0.74,5033,6277,5410,37,54,47,61,99,0
5040,6284,5411,7,7,1,10240,-1.00,-1.00,1.16,0.74,5033,6277,5410,37,54,47,61,99,0
5040,6284,5412,7,7,1,10240,-1.00,-1.00,1.16,0.74,5033,6277,5410,37,54,47,61,99,0
5039,6284,5412,7,6,1,10240,-1.00,-1.00,1.16,0.74,5033,6278,5410,37,54,47,61,99,0
5038,6283,5411,6,6,1,10240,-1.00,-1.00,1.16,0.74,5033,6278,5410,37,54,47,61,99,0
5040,6283,5411,6,5,1,10240,-1.00,-1.00,1.16,0.74,5034,6278,5410,37,54,47,61,99,0
5040,6282,5411,5,5,1,10240,-1.00,-1.00,1.16,0.74,5034,6278,5410,37,54,47,61,99,0
5039,6282,5411,5,4,1,10240,-1.00,-1.00,1.16,0.74,5034,6278,5410,37,54,47,61,99,0
5040,6282,5411,5,4,1,10240,-1.00,-1.00,1.16,0.74,5034,6278,5410,37,54,47,61,99,0
5040,6283,5410,5,4,0,10240,-1.00,-1.00,1.16,0.74,5034,6279,5410,37,54,47,61,99,0
5045,6287,5412,6,5,0,10240,-1.00,-1.00,1.16,0.74,5035,6279,5411,37,54,47,61,99,0
5046,6286,5414,8,5,1,10240,-1.00,-1.00,1.16,0.74,5035,6279,5411,37,54,47,61,99,0
5046,6288,5414,9,7,1,10240,-1.00,-1.00,1.16,0.74,5035,6279,5411,37,54,47,61,99,0
5044,6288,5414,10,8,2,10240,-1.00,-1.00,1.16,0.74,5036,6280,5411,37,54,47,61,99,0
5045,6289,5415,9,8,3,10240,-1.00,-1.00,1.16,0.74,5036,6280,5411,37,54,47,61,99,0
5044,6290,5415,9,9,3,10240,-1.00,-1.00,1.16,0.74,5036,6280,5411,37,54,47,61,99,0
5044,6289,5414,8,8,3,10240,-1.00,-1.00,1.16,0.74,5037,6281,5411,37,54,47,61,99,0
5043,6289,5413,7,8,3,10240,-1.00,-1.00,1.16,0.74,5037,6281,5411,37,54,47,61,99,0
5042,6287,5413,6,8,2,10240,-1.00,-1.00,1.16,0.74,5037,6281,5411,37,54,47,61,99,0
5040,6285,5411,5,6,1,10240,-1.00,-1.00,1.16,0.74,5037,6281,5411,37,54,47,61,99,0
5039,6284,5411,4,5,1,10240,-1.00,-1.00,1.16,0.74,5037,6281,5411,37,54,47,61,99,0
5038,6283,5412,2,3,0,10240,-1.00,-1.00,1.16,0.74,5037,6281,5411,37,54,47,61,99,0
5035,6282,5409,1,2,0,10240,-1.00,-1.00,1.16,0.74,5037,6281,5411,37,54,47,61,99,0
5034,6279,5407,0,1,-1,10240,-1.00,-1.00,1.16,0.74,5037,6281,5411,37,54,47,61,99,0
5033,6278,5407,-2,0,-2,10240,-1.00,-1.00,1.16,0.74,5037,6281,5411,37,54,47,61,99,0
5033,6277,5407,-3,-2,-3,10240,-1.00,-1.00,1.16,0.74,5037,6281,5411,37,54,47,61,99,0
5031,6276,5405,-4,-3,-4,10240,-1.00,-1.00,1.16,0.74,5037,6281,5411,37,54,47,61,99,0
5030,6277,5405,-5,-4,-4,10240,-1.00,-1.00,1.16,0.74,5036,6281,5410,37,54,47,61,99,0
5031,6276,5406,-5,-4,-4,10240,-1.00,-1.00,1.16,0.74,5036,6281,5410,37,54,47,61,99,0
5030,6277,5406,-5,-4,-4,10240,-1.00,-1.00,1.16,0.74,5036,6280,5410,37,54,47,61,99,0
5030,6275,5404,-5,-4,-4,10240,-1.00,-1.00,1.16,0.74,5036,6280,5410,37,54,47,61,99,0
5030,6274,5405,-5,-4,-4,10240,-1.00,-1.00,1.16,0.74,5036,6280,5410,37,54,47,61,99,0
5029,6273,5405,-6,-5,-5,10240,-1.00,-1.00,1.16,0.74,5035,6280,5410,37,54,47,61,99,0
5030,6275,5406,-5,-5,-5,10240,-1.00,-1.00,1.16,0.74,5035,6280,5410,37,54,47,61,99,0
5031,6275,5408,-5,-5,-3,10240,-1.00,-1.00,1.16,0.74,5035,6280,5409,37,54,47,61,99,0
5031,6278,5408,-4,-4,-2,10240,-1.00,-1.00,1.16,0.74,5035,6279,5409,37,54,47,61,99,0
5031,6278,5407,-4,-3,-2,10240,-1.00,-1.00,1.16,0.74,5035,6279,5409,37,54,47,61,99,0
5032,6278,5407,-3,-2,-1,10240,-1.00,-1.00,1.16,0.74,5035,6279,5409,37,54,47,61,99,0
5031,6277,5407,-3,-1,-1,10240,-1.00,-1.00,1.16,0.74,5034,6279,5409,37,54,47,61,99,0
5031,6277,5407,-3,-1,-2,10240,-1.00,-1.00,1.16,0.74,5034,6279,5409,37,54,47,61,99,0
5029,6275,5404,-3,-2,-2,10240,-1.00,-1.00,1.16,0.74,5034,6279,5409,37,54,47,61,99,0
5030,6274,5404,-3,-3,-3,10240,-1.00,-1.00,1.16,0.74,5034,6279,5409,37,54,47,61,99,0
5030,6273,5405,-4,-4,-4,10240,-1.00,-1.00,1.16,0.74,5034,6279,5409,37,54,47,61,99,0
5029,6272,5404,-4,-5,-4,10240,-1.00,-1.00,1.16,0.74,5034,6279,5409,37,54,47,61,99,0
5029,6272,5404,-4,-6,-4,10240,-1.00,-1.00,1.16,0.74,5034,6278,5408,37,54,47,61,99,0
5029,6269,5402,-4,-7,-4,10240,-1.00,-1.00,1.16,0.74,5033,6278,5408,37,54,47,61,99,0
5029,6268,5402,-4,-8,-5,10240,-1.00,-1.00,1.16,0.74,5033,6278,5408,37,54,47,61,99,0
5029,6268,5405,-4,-8,-4,10240,-1.00,-1.00,1.16,0.74,5033,6277,5408,37,54,47,61,99,0
5028,6265,5404,-4,-10,-4,10240,-1.00,-1.00,1.16,0.74,5033,6277,5408,37,54,47,61,99,0
5027,6266,5403,-4,-10,-4,10240,-1.00,-1.00,1.16,0.74,5033,6277,5408,37,54,47,61,99,0
5028,6268,5404,-5,-10,-3,10240,-1.00,-1.00,1.16,0.74,5033,6276,5407,37,54,47,61,99,0
5028,6265,5403,-5,-10,-4,10240,-1.00,-1.00,1.16,0.74,5032,6276,5407,37,54,47,61,99,0
5029,6266,5403,-4,-10,-4,10240,-1.00,-1.00,1.16,0.74,5032,6276,5407,37,54,47,61,99,0
5029,6268,5405,-3,-9,-3,10240,-1.00,-1.00,1.16,0.74,5032,6275,5407,37,54,47,61,99,0
5028,6267,5404,-3,-9,-3,10240,-1.00,-1.00,1.16,0.74,5032,6275,5407,37,54,47,61,99,0
5028,6268,5404,-3,-8,-3,10240,-1.00,-1.00,1.16,0.74,5032,6275,5407,37,54,47,61,99,0
5028,6269,5405,-3,-7,-2,10240,-1.00,-1.00,1.16,0.74,5032,6275,5407,37,54,47,61,99,0
5029,6269,5404,-3,-6,-2,10240,-1.00,-1.00,1.16,0.74,5032,6274,5407,37,54,47,61,99,0
5030,6274,5405,-3,-4,-2,10240,-1.00,-1.00,1.16,0.74,5032,6274,5407,37,54,47,61,99,0
5030,6275,5406,-2,-2,-2,10240,-1.00,-1.00,1.16,0.74,5032,6274,5407,37,54,47,61,99,0
5029,6276,5405,-2,0,-2,10240,-1.00,-1.00,1.16,0.74,5032,6275,5407,37,54,47,61,99,0
5031,6275,5405,-2,0,-1,10240,-1.00,-1.00,1.16,0.74,5032,6275,5407,37,54,47,61,99,0
5031,6275,5405,-1,0,-1,10240,-1.00,-1.00,1.16,0.74,5031,6275,5406,37,54,47,61,99,0
5032,6278,5406,-1,1,-1,10240,-1.00,-1.00,1.16,0.74,5032,6275,5406,37,54,47,61,99,0
5032,6277,5404,0,1,-1,10240,-1.00,-1.00,1.16,0.74,5032,6275,5406,37,54,47,61,99,0
5030,6276,5404,0,1,-1,10240,-1.00,-1.00,1.16,0.74,5031,6275,5406,37,54,47,61,99,0
5032,6276,5405,0,1,-1,10240,-1.00,-1.00,1.16,0.74,5031,6275,5406,37,54,47,61,99,0
5031,6278,5406,0,1,-1,10240,-1.00,-1.00,1.16,0.74,5031,6275,5406,37,54,47,61,99,0
5030,6276,5405,0,1,-1,10240,-1.00,-1.00,1.16,0.74,5031,6275,5406,37,54,47,61,99,0
5030,6275,5404,0,1,-1,10240,-1.00,-1.00,1.16,0.74,5031,6275,5406,37,54,47,61,99,0
5031,6275,5404,0,1,-1,10240,-1.00,-1.00,1.16,0.74,5031,6275,5406,37,54,47,61,99,0
5029,6273,5403,-1,0,-2,10240,-1.00,-1.00,1.16,0.74,5031,6275,5406,37,54,47,61,99,0
5030,6272,5403,-1,-1,-2,10240,-1.00,-1.00,1.16,0.74,5031,6275,5406,37,54,47,61,99,0
5030,6270,5401,-1,-2,-3,10240,-1.00,-1.00,1.16,0.74,5031,6275,5406,37,54,47,61,99,0
5031,6270,5402,-1,-3,-3,10240,-1.00,-1.00,1.16,0.74,5031,6274,5406,37,54,47,61,99,0
5031,6271,5401,0,-3,-4,10240,-1.00,-1.00,1.16,0.74,5031,6274,5405,37,54,47,61,99,0
5031,6271,5401,0,-3,-4,10240,-1.00,-1.00,1.16,0.74,5031,6274,5405,37,54,47,61,99,0
5030,6270,5402,0,-3,-3,10240,-1.00,-1.00,1.16,0.74,5031,6274,5405,37,54,47,61,99,0
5031,6271,5402,0,-3,-3,10240,-1.00,-1.00,1.16,0.74,5031,6274,5405,37,54,47,61,99,0
5032,6272,5403,0,-3,-3,10240,-1.00,-1.00,1.16,0.74,5031,6274,5405,37,54,47,61,99,0
5031,6271,5400,0,-3,-3,10240,-1.00,-1.00,1.16,0.74,5031,6274,5405,37,54,47,61,99,0
5033,6271,5401,0,-2,-3,10240,-1.00,-1.00,1.16,0.74,5031,6274,5405,37,54,47,61,99,0
5033,6273,5401,1,-2,-3,10240,-1.00,-1.00,1.16,0.74,5031,6274,5405,37,54,47,61,99,0
5035,6276,5402,1,-1,-4,10240,-1.00,-1.00,1.16,0.74,5032,6274,5405,37,54,47,61,99,0
5035,6278,5404,2,0,-2,10240,-1.00,-1.00,1.16,0.74,5032,6274,5404,37,54,47,61,99,0
5036,6277,5406,3,2,-1,10240,-1.00,-1.00,1.16,0.74,5032,6274,5405,37,54,47,61,99,0
5036,6277,5404,3,3,0,10240,-1.00,-1.00,1.16,0.74,5032,6274,5405,37,54,47,61,99,0
5036,6276,5402,3,3,0,10240,-1.00,-1.00,1.16,0.74,5032,6274,5404,37,54,47,61,99,0
5035,6277,5402,3,2,-1,10240,-1.00,-1.00,1.16,0.74,5032,6274,5404,37,54,47,61,99,0
5035,6275,5401,3,2,-2,10240,-1.00,-1.00,1.16,0.74,5032,6274,5404,37,54,47,61,99,0
5033,6271,5398,2,0,-3,10240,-1.00,-1.00,1.16,0.74,5032,6274,5404,37,54,47,61,99,0
5033,6269,5397,2,-1,-4,10240,-1.00,-1.00,1.16,0.74,5032,6274,5404,37,54,47,61,99,0
5033,6269,5397,1,-3,-5,10240,-1.00,-1.00,1.16,0.74,5032,6274,5404,37,54,47,61,99,0
5033,6266,5396,1,-5,-6,10240,-1.00,-1.00,1.16,0.74,5032,6274,5403,37,54,47,61,99,0
5032,6262,5396,0,-7,-7,10240,-1.00,-1.00,1.16,0.74,5032,6273,5403,37,54,47,61,99,0
5032,6262,5396,0,-8,-7,10240,-1.00,-1.00,1.16,0.74,5032,6273,5403,37,54,47,61,99,0
5031,6260,5396,0,-10,-7,10240,-1.00,-1.00,1.16,0.74,5032,6272,5403,37,54,47,61,99,0
5030,6260,5396,0,-11,-6,10240,-1.00,-1.00,1.16,0.74,5032,6272,5402,37,54,47,61,99,0
5031,6260,5396,-1,-11,-6,10240,-1.00,-1.00,1.16,0.74,5032,6272,5402,37,54,47,61,99,0
5031,6259,5395,-1,-12,-6,10240,-1.00,-1.00,1.16,0.74,5032,6271,5402,37,54,47,61,99,0
5032,6262,5397,-1,-11,-6,10240,-1.00,-1.00,1.16,0.74,5032,6271,5402,37,54,47,61,99,0
5031,6261,5396,0,-10,-6,10240,-1.00,-1.00,1.16,0.74,5032,6270,5402,37,54,47,61,99,0
5032,6262,5396,0,-9,-5,10240,-1.00,-1.00,1.16,0.74,5032,6270,5401,37,54,47,61,99,0
5032,6261,5396,0,-8,-5,10240,-1.00,-1.00,1.16,0.74,5032,6270,5401,37,54,47,61,99,0
5032,6262,5395,0,-8,-5,10240,-1.00,-1.00,1.16,0.74,5032,6270,5401,37,54,47,61,99,0
5033,6265,5396,0,-7,-5,10240,-1.00,-1.00,1.16,0.74,5032,6269,5401,37,54,47,61,99,0
5034,6268,5396,0,-5,-5,10240,-1.00,-1.00,1.16,0.74,5032,6269,5401,37,54,47,61,99,0
5038,6270,5399,2,-3,-4,10240,-1.00,-1.00,1.16,0.74,5032,6269,5401,37,54,47,61,99,0
5039,6273,5403,3,0,-2,10240,-1.00,-1.00,1.16,0.74,5033,6270,5401,37,54,47,61,99,0
5038,6272,5400,4,1,-1,10240,-1.00,-1.00,1.16,0.74,5033,6270,5401,37,54,47,61,99,0
5041,6273,5402,6,2,0,10240,-1.00,-1.00,1.16,0.74,5033,6270,5401,37,54,47,61,99,0
5041,6272,5401,6,2,0,10240,-1.00,-1.00,1.16,0.74,5033,6270,5401,37,54,47,61,99,0
5038,6270,5398,6,1,0,10240,-1.00,-1.00,1.16,0.74,5034,6270,5401,37,54,47,61,99,0
5036,6265,5394,5,0,-2,10240,-1.00,-1.00,1.16,0.74,5034,6270,5400,37,54,47,61,99,0
5035,6260,5391,3,-3,-4,10240,-1.00,-1.00,1.16,0.74,5034,6269,5400,37,54,47,61,99,0
5033,6256,5392,1,-6,-6,10240,-1.00,-1.00,1.16,0.74,5034,6269,5400,37,54,47,61,99,0
5033,6255,5393,0,-10,-7,10240,-1.00,-1.00,1.16,0.74,5034,6268,5400,37,54,47,61,99,0
5031,6253,5392,-1,-12,-7,10240,-1.00,-1.00,1.16,0.74,5034,6268,5399,37,54,47,61,99,0
5030,6254,5394,-2,-13,-6,10240,-1.00,-1.00,1.16,0.74,5033,6267,5399,37,54,47,61,99,0
5028,6252,5392,-3,-14,-6,10240,-1.00,-1.00,1.16,0.74,5033,6267,5399,37,54,47,61,99,0
5029,6253,5393,-3,-14,-6,10240,-1.00,-1.00,1.16,0.74,5033,6267,5399,37,54,47,61,99,0
5027,6252,5393,-4,-14,-5,10240,-1.00,-1.00,1.16,0.74,5033,6266,5398,37,54,47,61,99,0
5026,6251,5392,-5,-14,-6,10240,-1.00,-1.00,1.16,0.74,5033,6266,5398,37,54,47,61,99,0
5027,6252,5392,-5,-14,-5,10240,-1.00,-1.00,1.16,0.74,5032,6265,5398,37,54,47,61,99,0
5027,6252,5393,-5,-13,-5,10240,-1.00,-1.00,1.16,0.74,5032,6265,5398,37,54,47,61,99,0
5028,6253,5393,-5,-13,-5,10240,-1.00,-1.00,1.16,0.74,5032,6264,5398,37,54,47,61,99,0
5028,6253,5395,-4,-12,-4,10240,-1.00,-1.00,1.16,0.74,5032,6264,5398,37,54,47,61,99,0
5029,6255,5395,-4,-11,-4,10240,-1.00,-1.00,1.16,0.74,5032,6264,5398,37,54,47,61,99,0
5029,6255,5394,-3,-9,-3,10240,-1.00,-1.00,1.16,0.74,5032,6263,5397,37,54,47,61,99,0
5030,6255,5393,-3,-9,-3,10240,-1.00,-1.00,1.16,0.74,5032,6263,5397,37,54,47,61,99,0
5030,6256,5396,-2,-8,-2,10240,-1.00,-1.00,1.16,0.74,5032,6263,5397,37,54,47,61,99,0
5032,6259,5395,-1,-6,-2,10240,-1.00,-1.00,1.16,0.74,5032,6263,5397,37,54,47,61,99,0
5031,6260,5394,-1,-5,-2,10240,-1.00,-1.00,1.16,0.74,5032,6263,5397,37,54,47,61,99,0
5032,6261,5395,0,-3,-2,10240,-1.00,-1.00,1.16,0.74,5032,6262,5397,37,54,47,61,99,0
5032,6263,5396,0,-1,-2,10240,-1.00,-1.00,1.16,0.74,5032,6262,5397,37,54,47,61,99,0
5032,6261,5395,0,-1,-2,10240,-1.00,-1.00,1.16,0.74,5032,6262,5397,37,54,47,61,99,0
5032,6258,5393,0,-1,-2,10240,-1.00,-1.00,1.16,0.74,5032,6262,5397,37,54,47,61,99,0
5031,6255,5393,0,-2,-2,10240,-1.00,-1.00,1.16,0.74,5032,6262,5397,37,54,47,61,99,0
5029,6254,5392,-1,-5,-3,10240,-1.00,-1.00,1.16,0.74,5032,6262,5396,37,54,47,61,99,0
5026,6248,5390,-2,-8,-4,10240,-1.00,-1.00,1.16,0.74,5031,6261,5396,37,54,47,61,99,0
5023,6246,5388,-4,-10,-5,10240,-1.00,-1.00,1.16,0.74,5031,6261,5396,37,54,47,61,99,0
5021,6243,5386,-6,-13,-7,10240,-1.00,-1.00,1.16,0.74,5031,6260,5396,37,54,47,61,99,0
5018,6240,5383,-8,-16,-9,10240,-1.00,-1.00,1.16,0.74,5030,6260,5395,37,54,47,61,99,0
5018,6238,5383,-10,-18,-10,10240,-1.00,-1.00,1.16,0.74,5030,6259,5395,37,54,47,61,99,0
5016,6237,5382,-11,-19,-11,10240,-1.00,-1.00,1.16,0.74,5029,6258,5394,37,54,47,61,99,0
5016,6236,5381,-12,-20,-12,10240,-1.00,-1.00,1.16,0.74,5029,6257,5394,37,54,47,61,99,0
5015,6231,5379,-13,-22,-12,10240,-1.00,-1.00,1.16,0.74,5029,6257,5393,37,54,47,61,99,0
5014,6230,5378,-13,-23,-13,10240,-1.00,-1.00,1.16,0.74,5028,6256,5393,37,54,47,61,99,0
5013,6231,5378,-14,-24,-14,10240,-1.00,-1.00,1.16,0.74,5028,6255,5392,37,54,47,61,99,0
5013,6231,5377,-14,-24,-14,10240,-1.00,-1.00,1.16,0.74,5027,6254,5392,37,54,47,61,99,0
5012,6231,5377,-14,-23,-14,10240,-1.00,-1.00,1.16,0.74,5027,6253,5391,37,54,47,61,99,0
5014,6233,5379,-14,-22,-13,10240,-1.00,-1.00,1.16,0.74,5026,6253,5391,37,54,47,61,99,0
5016,6236,5382,-12,-20,-12,10240,-1.00,-1.00,1.16,0.74,5026,6252,5391,37,54,47,61,99,0
5016,6235,5381,-11,-18,-11,10240,-1.00,-1.00,1.16,0.74,5025,6251,5390,37,54,47,61,99,0
5016,6236,5381,-10,-16,-9,10240,-1.00,-1.00,1.16,0.74,5025,6251,5390,37,54,47,61,99,0
5016,6236,5382,-9,-15,-8,10240,-1.00,-1.00,1.16,0.74,5025,6250,5390,37,54,47,61,99,0
5020,6242,5384,-8,-13,-8,10240,-1.00,-1.00,1.16,0.74,5025,6250,5390,37,54,47,61,99,0
5020,6243,5386,-6,-11,-6,10240,-1.00,-1.00,1.16,0.74,5024,6250,5390,37,54,47,61,99,0
5020,6245,5389,-5,-8,-4,10240,-1.00,-1.00,1.16,0.74,5024,6250,5390,37,54,47,61,99,0
5022,6246,5389,-3,-6,-2,10240,-1.00,-1.00,1.16,0.74,5024,6250,5389,37,54,47,61,99,0
5022,6246,5389,-3,-4,-1,10240,-1.00,-1.00,1.16,0.74,5024,6249,5389,37,54,47,61,99,0
5020,6245,5390,-3,-4,0,10240,-1.00,-1.00,1.16,0.74,5024,6249,5390,37,54,47,61,99,0
5021,6243,5388,-2,-4,0,10240,-1.00,-1.00,1.16,0.74,5024,6249,5389,37,54,47,61,99,0
5021,6242,5386,-3,-5,-1,10240,-1.00,-1.00,1.16,0.74,5024,6249,5389,37,54,47,61,99,0
5019,6243,5386,-3,-5,-1,10240,-1.00,-1.00,1.16,0.74,5024,6249,5389,37,54,47,61,99,0
5019,6242,5387,-4,-6,-2,10240,-1.00,-1.00,1.16,0.74,5024,6248,5389,37,54,47,61,99,0
5018,6240,5385,-4,-6,-3,10240,-1.00,-1.00,1.16,0.74,5023,6248,5389,37,54,47,61,99,0
5018,6240,5385,-5,-7,-3,10240,-1.00,-1.00,1.16,0.74,5023,6248,5389,37,54,47,61,99,0
5017,6241,5385,-5,-7,-3,10240,-1.00,-1.00,1.16,0.74,5023,6248,5389,37,54,47,61,99,0
5018,6240,5385,-5,-7,-4,10240,-1.00,-1.00,1.16,0.74,5023,6247,5389,37,54,47,61,99,0
5018,6242,5386,-5,-6,-3,10240,-1.00,-1.00,1.16,0.74,5023,6247,5389,37,54,47,61,99,0
5017,6241,5385,-5,-6,-3,10240,-1.00,-1.00,1.16,0.74,5022,6247,5388,37,54,47,61,99,0
5019,6245,5388,-4,-5,-2,10240,-1.00,-1.00,1.16,0.74,5022,6247,5388,37,54,47,61,99,0
5020,6247,5388,-3,-3,-1,10240,-1.00,-1.00,1.16,0.74,5022,6247,5388,37,54,47,61,99,0
5022,6249,5391,-2,-1,0,10240,-1.00,-1.00,1.16,0.74,5022,6247,5389,37,54,47,61,99,0
5021,6250,5393,-1,0,1,10240,-1.00,-1.00,1.16,0.74,5022,6247,5389,37,54,47,61,99,0
5022,6252,5394,0,2,2,10240,-1.00,-1.00,1.16,0.74,5022,6247,5389,37,54,47,61,99,0
5025,6253,5394,0,3,4,10240,-1.00,-1.00,1.16,0.74,5022,6248,5389,37,54,47,61,99,0
5028,6256,5397,1,5,5,10240,-1.00,-1.00,1.16,0.74,5023,6248,5389,37,54,47,61,99,0
5027,6256,5396,3,6,6,10240,-1.00,-1.00,1.16,0.74,5023,6248,5389,37,54,47,61,99,0
5030,6258,5395,4,7,6,10240,-1.00,-1.00,1.16,0.74,5023,6248,5390,37,54,47,61,99,0
5031,6259,5398,6,9,7,10240,-1.00,-1.00,1.16,0.74,5023,6249,5390,37,54,47,61,99,0
5031,6258,5397,6,9,6,10240,-1.00,-1.00,1.16,0.74,5023,6249,5390,37,54,47,61,99,0
5032,6259,5396,7,9,6,10240,-1.00,-1.00,1.16,0.74,5024,6249,5390,37,54,47,61,99,0
5031,6258,5395,7,9,6,10240,-1.00,-1.00,1.16,0.74,5024,6250,5391,37,54,47,61,99,0
5030,6257,5395,7,8,5,10240,-1.00,-1.00,1.16,0.74,5024,6250,5391,37,54,47,61,99,0
5028,6254,5395,6,7,4,10240,-1.00,-1.00,1.16,0.74,5024,6250,5391,37,54,47,61,99,0
5026,6248,5391,4,4,3,10240,-1.00,-1.00,1.16,0.74,5024,6250,5391,37,54,47,61,99,0
5023,6245,5389,2,1,1,10240,-1.00,-1.00,1.16,0.74,5024,6250,5391,37,54,47,61,99,0
5024,6245,5388,1,-2,0,10240,-1.00,-1.00,1.16,0.74,5024,6250,5391,37,54,47,61,99,0
5022,6243,5388,0,-4,-2,10240,-1.00,-1.00,1.16,0.74,5024,6249,5391,37,54,47,61,99,0
5021,6242,5387,-1,-5,-2,10240,-1.00,-1.00,1.16,0.74,5024,6249,5390,37,54,47,61,99,0
5022,6241,5385,-1,-6,-3,10240,-1.00,-1.00,1.16,0.74,5024,6249,5390,37,54,47,61,99,0
5022,6239,5385,-2,-7,-4,10240,-1.00,-1.00,1.16,0.74,5024,6249,5390,37,54,47,61,99,0
5022,6238,5385,-2,-8,-4,10240,-1.00,-1.00,1.16,0.74,5024,6248,5390,37,54,47,61,99,0
5018,6233,5381,-3,-10,-6,10240,-1.00,-1.00,1.16,0.74,5024,6248,5390,37,54,47,61,99,0
5017,6231,5380,-4,-12,-7,10240,-1.00,-1.00,1.16,0.74,5024,6247,5389,37,54,47,61,99,0
5015,6231,5379,-5,-14,-8,10240,-1.00,-1.00,1.16,0.74,5023,6247,5389,37,54,47,61,99,0
5016,6231,5380,-7,-15,-9,10240,-1.00,-1.00,1.16,0.74,5023,6246,5389,37,54,47,61,99,0
5015,6231,5379,-7,-15,-9,10240,-1.00,-1.00,1.16,0.74,5023,6246,5388,37,54,47,61,99,0
5016,6235,5381,-7,-14,-8,10240,-1.00,-1.00,1.16,0.74,5023,6245,5388,37,54,47,61,99,0
5016,6236,5382,-7,-12,-7,10240,-1.00,-1.00,1.16,0.74,5022,6245,5388,37,54,47,61,99,0
5017,6237,5383,-6,-10,-6,10240,-1.00,-1.00,1.16,0.74,5022,6245,5388,37,54,47,61,99,0
5023,6243,5387,-4,-7,-4,10240,-1.00,-1.00,1.16,0.74,5022,6245,5388,37,54,47,61,99,0
5024,6246,5391,-2,-4,-2,10240,-1.00,-1.00,1.16,0.74,5022,6245,5388,37,54,47,61,99,0
5024,6248,5392,0,-1,0,10240,-1.00,-1.00,1.16,0.74,5022,6245,5388,37,54,47,61,99,0
5024,6246,5391,1,0,2,10240,-1.00,-1.00,1.16,0.74,5022,6245,5388,37,54,47,61,99,0
5025,6244,5390,2,1,3,10240,-1.00,-1.00,1.16,0.74,5022,6245,5388,37,54,47,61,99,0
5021,6245,5389,1,0,2,10240,-1.00,-1.00,1.16,0.74,5022,6245,5388,37,54,47,61,99,0
5020,6235,5382,0,-2,0,10240,-1.00,-1.00,1.16,0.74,5022,6244,5388,37,54,47,61,99,0
5016,6228,5377,-1,-6,-3,10240,-1.00,-1.00,1.16,0.74,5022,6244,5388,37,54,47,61,99,0
5014,6223,5374,-4,-11,-7,10240,-1.00,-1.00,1.16,0.74,5022,6243,5387,37,54,47,61,99,0
5013,6220,5372,-6,-16,-11,10240,-1.00,-1.00,1.16,0.74,5022,6242,5387,37,54,47,61,99,0
5010,6217,5369,-8,-20,-14,10240,-1.00,-1.00,1.16,0.74,5021,6242,5386,37,54,47,61,99,0
5008,6212,5365,-10,-24,-16,10240,-1.00,-1.00,1.16,0.74,5021,6241,5385,37,54,47,61,99,0
5009,6211,5365,-11,-26,-18,10240,-1.00,-1.00,1.16,0.74,5020,6240,5385,37,54,47,61,99,0
5009,6210,5364,-11,-28,-19,10240,-1.00,-1.00,1.16,0.74,5020,6239,5384,37,54,47,61,99,0
5009,6210,5365,-11,-28,-19,10240,-1.00,-1.00,1.16,0.74,5020,6238,5383,37,54,47,61,99,0
5008,6210,5365,-11,-28,-19,10240,-1.00,-1.00,1.16,0.74,5019,6237,5383,37,54,47,61,99,0
5010,6210,5365,-10,-27,-18,10240,-1.00,-1.00,1.16,0.74,5019,6236,5382,37,54,47,61,99,0
5009,6211,5365,-10,-26,-17,10240,-1.00,-1.00,1.16,0.74,5019,6235,5382,37,54,47,61,99,0
5010,6213,5368,-9,-24,-16,10240,-1.00,-1.00,1.16,0.74,5018,6234,5381,37,54,47,61,99,0
5010,6214,5369,-8,-22,-14,10240,-1.00,-1.00,1.16,0.74,5018,6234,5381,37,54,47,61,99,0
5011,6214,5369,-8,-21,-13,10240,-1.00,-1.00,1.16,0.74,5018,6233,5380,37,54,47,61,99,0
5014,6219,5371,-6,-18,-11,10240,-1.00,-1.00,1.16,0.74,5018,6232,5380,37,54,47,61,99,0
5016,6221,5372,-5,-15,-10,10240,-1.00,-1.00,1.16,0.74,5018,6232,5380,37,54,47,61,99,0
5016,6221,5372,-3,-13,-8,10240,-1.00,-1.00,1.16,0.74,5018,6232,5379,37,54,47,61,99,0
5018,6223,5373,-2,-10,-7,10240,-1.00,-1.00,1.16,0.74,5018,6231,5379,37,54,47,61,99,0
5020,6226,5374,0,-8,-6,10240,-1.00,-1.00,1.16,0.74,5018,6231,5379,37,54,47,61,99,0
5025,6228,5377,1,-6,-5,10240,-1.00,-1.00,1.16,0.74,5018,6231,5379,37,54,47,61,99,0
5024,6226,5376,3,-5,-4,10240,-1.00,-1.00,1.16,0.74,5018,6231,5379,37,54,47,61,99,0
5020,6223,5372,4,-5,-4,10240,-1.00,-1.00,1.16,0.74,5018,6231,5379,37,54,47,61,99,0
5017,6218,5370,3,-7,-5,10240,-1.00,-1.00,1.16,0.74,5018,6230,5378,37,46,47,61,99,0
5012,6212,5364,0,-10,-8,10240,-1.00,-1.00,1.16,0.74,5018,6230,5378,37,46,47,61,99,0
5006,6202,5359,-4,-16,-11,10240,-1.00,-1.00,1.16,0.74,5017,6229,5377,37,46,47,61,99,0
5006,6199,5358,-7,-21,-14,10240,-1.00,-1.00,1.16,0.74,5017,6228,5377,37,46,47,61,99,0
5005,6196,5356,-10,-26,-17,10240,-1.00,-1.00,1.16,0.74,5017,6227,5376,37,46,47,61,99,0
5005,6194,5356,-11,-29,-19,10240,-1.00,-1.00,1.16,0.74,5016,6226,5375,37,46,47,61,99,0
5005,6196,5355,-11,-30,-19,10240,-1.00,-1.00,1.16,0.74,5016,6225,5375,37,46,47,61,99,0
5005,6199,5356,-11,-29,-19,10240,-1.00,-1.00,1.16,0.74,5016,6224,5374,37,46,47,61,99,0
5005,6198,5358,-10,-27,-18,10240,-1.00,-1.00,1.16,0.74,5015,6223,5373,37,46,47,61,99,0
5004,6197,5358,-10,-26,-17,10240,-1.00,-1.00,1.16,0.74,5015,6222,5373,37,46,47,61,99,0
5004,6196,5357,-10,-25,-15,10240,-1.00,-1.00,1.16,0.74,5014,6221,5372,37,46,47,61,99,0
5004,6197,5357,-10,-24,-15,10240,-1.00,-1.00,1.16,0.74,5014,6220,5372,37,46,47,61,99,0
5004,6198,5358,-10,-23,-14,10240,-1.00,-1.00,1.16,0.74,5014,6220,5371,37,46,47,61,99,0
5005,6199,5359,-9,-22,-13,10240,-1.00,-1.00,1.16,0.74,5013,6219,5371,37,46,47,61,99,0
5004,6201,5361,-9,-20,-12,10240,-1.00,-1.00,1.16,0.74,5013,6218,5371,37,46,47,61,99,0
5005,6203,5360,-8,-18,-11,10240,-1.00,-1.00,1.16,0.74,5013,6218,5370,37,46,47,61,99,0
5005,6203,5360,-8,-16,-10,10240,-1.00,-1.00,1.16,0.74,5013,6217,5370,37,46,47,61,99,0
5006,6205,5361,-7,-14,-9,10240,-1.00,-1.00,1.16,0.74,5012,6217,5370,37,46,47,61,99,0
5009,6210,5366,-6,-12,-8,10240,-1.00,-1.00,1.16,0.74,5012,6217,5370,37,46,47,61,99,0
5009,6212,5367,-5,-9,-6,10240,-1.00,-1.00,1.16,0.74,5012,6216,5369,37,46,47,61,99,0
5011,6214,5368,-3,-6,-4,10240,-1.00,-1.00,1.16,0.74,5012,6216,5369,37,46,47,61,99,0
5013,6218,5371,-1,-2,-1,10240,-1.00,-1.00,1.16,0.74,5012,6216,5369,37,46,47,61,99,0
5016,6222,5372,0,0,0,10240,-1.00,-1.00,1.16,0.74,5012,6217,5370,37,46,47,61,99,0
5016,6220,5372,2,2,1,10240,-1.00,-1.00,1.16,0.74,5012,6217,5370,37,46,47,61,99,0
5012,6214,5368,2,1,1,10240,-1.00,-1.00,1.16,0.74,5012,6217,5370,37,42,47,61,99,0
5009,6211,5364,1,0,0,10240,-1.00,-1.00,1.16,0.74,5012,6216,5369,37,42,47,61,99,0
5007,6207,5362,-1,-3,-3,10240,-1.00,-1.00,1.16,0.74,5012,6216,5369,37,42,47,61,99,0
5005,6202,5361,-3,-7,-5,10240,-1.00,-1.00,1.16,0.74,5012,6216,5369,37,42,47,61,99,0
5004,6198,5358,-5,-11,-7,10240,-1.00,-1.00,1.16,0.74,5012,6215,5369,37,42,47,61,99,0
5004,6197,5359,-6,-14,-8,10240,-1.00,-1.00,1.16,0.74,5011,6214,5368,37,42,47,61,99,0
5003,6199,5359,-7,-15,-9,10240,-1.00,-1.00,1.16,0.74,5011,6214,5368,37,42,47,61,99,0
5004,6199,5359,-7,-15,-9,10240,-1.00,-1.00,1.16,0.74,5011,6213,5368,37,42,47,61,99,0
5003,6198,5357,-7,-15,-9,10240,-1.00,-1.00,1.16,0.74,5011,6213,5367,37,42,47,61,99,0
5003,6198,5358,-7,-14,-9,10240,-1.00,-1.00,1.16,0.74,5010,6212,5367,37,42,47,61,99,0
5004,6202,5361,-7,-13,-8,10240,-1.00,-1.00,1.16,0.74,5010,6212,5367,37,42,47,61,99,0
5005,6203,5361,-6,-12,-7,10240,-1.00,-1.00,1.16,0.74,5010,6212,5367,37,42,47,61,99,0
5005,6203,5362,-5,-10,-6,10240,-1.00,-1.00,1.16,0.74,5010,6212,5366,37,42,47,61,99,0
5005,6204,5362,-5,-8,-5,10240,-1.00,-1.00,1.16,0.74,5010,6211,5366,37,42,47,61,99,0
5006,6208,5362,-4,-7,-4,10240,-1.00,-1.00,1.16,0.74,5010,6211,5366,37,42,47,61,99,0
5007,6209,5365,-4,-5,-3,10240,-1.00,-1.00,1.16,0.74,5009,6211,5366,37,42,47,61,99,0
5006,6211,5365,-3,-3,-2,10240,-1.00,-1.00,1.16,0.74,5009,6211,5366,37,42,47,61,99,0
5007,6213,5368,-2,0,-1,10240,-1.00,-1.00,1.16,0.74,5009,6211,5366,37,42,47,61,99,0
5009,6214,5368,-1,0,0,10240,-1.00,-1.00,1.16,0.74,5009,6211,5366,37,42,47,61,99,0
5009,6214,5367,-1,2,1,10240,-1.00,-1.00,1.16,0.74,5009,6211,5366,37,42,47,61,99,0
5011,6217,5370,0,3,2,10240,-1.00,-1.00,1.16,0.74,5009,6212,5366,37,42,47,61,99,0
5013,6221,5372,1,5,3,10240,-1.00,-1.00,1.16,0.74,5010,6212,5367,37,42,47,61,99,0
5014,6223,5374,2,7,4,10240,-1.00,-1.00,1.16,0.74,5010,6212,5367,37,42,47,61,99,0
5014,6224,5375,3,9,6,10240,-1.00,-1.00,1.16,0.74,5010,6213,5367,37,42,47,61,99,0
5016,6225,5373,4,10,6,10240,-1.00,-1.00,1.16,0.74,5010,6213,5367,37,42,47,61,99,0
5015,6218,5371,4,9,6,10240,-1.00,-1.00,1.16,0.74,5010,6213,5367,37,38,47,61,99,0
5012,6217,5369,4,8,5,10240,-1.00,-1.00,1.16,0.74,5010,6213,5367,37,38,47,61,99,0
5010,6216,5368,3,6,3,10240,-1.00,-1.00,1.16,0.74,5010,6213,5367,37,38,47,61,99,0
5011,6215,5368,2,3,2,10240,-1.00,-1.00,1.16,0.74,5010,6214,5367,37,38,47,61,99,0
5011,6214,5366,1,2,0,10240,-1.00,-1.00,1.16,0.74,5010,6214,5367,37,38,47,61,99,0
5011,6216,5369,0,1,0,10240,-1.00,-1.00,1.16,0.74,5010,6214,5368,37,38,47,61,99,0
5010,6218,5370,0,1,0,10240,-1.00,-1.00,1.16,0.74,5010,6214,5368,37,38,47,61,99,0
5010,6218,5369,0,2,0,10240,-1.00,-1.00,1.16,0.74,5010,6214,5368,37,38,47,61,99,0
5012,6221,5372,0,4,2,10240,-1.00,-1.00,1.16,0.74,5010,6214,5368,37,38,47,61,99,0
5012,6221,5371,1,5,2,10240,-1.00,-1.00,1.16,0.74,5010,6214,5368,37,38,47,61,99,0
