4265,6143,5670,56,88,73,10240,-1.00,-1.00,0.00,0.00,4209,6057,5599,0,0,0,63,0,0
4264,6143,5670,55,86,71,10240,-1.00,-1.00,0.00,0.00,4211,6060,5602,0,0,0,63,0,0
4265,6145,5670,54,85,69,10240,-1.00,-1.00,0.00,0.00,4213,6062,5604,0,0,0,63,0,0
4267,6145,5672,53,83,67,10240,-1.00,-1.00,0.00,0.00,4214,6065,5606,0,0,0,63,0,0
4269,6145,5671,52,80,65,10240,-1.00,-1.00,0.00,0.00,4216,6068,5608,0,0,0,63,0,0
4269,6146,5673,52,79,64,10240,-1.00,-1.00,0.00,0.00,4218,6070,5610,0,0,0,63,0,0
4269,6146,5673,51,76,63,10240,-1.00,-1.00,0.00,0.00,4220,6073,5613,0,0,0,63,0,0
4267,6147,5674,49,74,61,10240,-1.00,-1.00,0.00,0.00,4221,6075,5615,0,0,0,63,0,0
4268,6147,5674,47,72,59,10240,-1.00,-1.00,0.00,0.00,4223,6078,5617,0,0,0,63,0,0
4268,6146,5673,46,70,57,10240,-1.00,-1.00,0.00,0.00,4224,6080,5618,0,0,0,63,0,0
4270,6147,5675,44,68,56,10240,-1.00,-1.00,0.00,0.00,4226,6082,5620,0,0,0,63,0,0
4270,6147,5676,44,65,55,10240,-1.00,-1.00,0.00,0.00,4227,6084,5622,0,0,0,63,0,0
4271,6147,5677,43,63,54,10240,-1.00,-1.00,0.00,0.00,4229,6087,5624,0,0,0,63,0,0
4271,6147,5677,42,61,53,10240,-1.00,-1.00,0.00,0.00,4230,6089,5626,0,0,0,63,0,0
4271,6147,5677,41,59,51,10240,-1.00,-1.00,0.00,0.00,4232,6090,5628,0,0,0,63,0,0
4270,6147,5673,39,57,49,10240,-1.00,-1.00,0.00,0.00,4233,6092,5629,0,0,0,63,0,0
4270,6147,5673,38,55,46,10240,-1.00,-1.00,0.00,0.00,4234,6094,5630,0,0,0,63,0,0
4271,6147,5673,37,54,44,10240,-1.00,-1.00,0.00,0.00,4235,6096,5632,0,0,0,63,0,0
4272,6147,5673,36,52,42,10240,-1.00,-1.00,0.00,0.00,4237,6098,5633,0,0,0,63,0,0
4272,6147,5673,35,50,40,10240,-1.00,-1.00,0.00,0.00,4238,6099,5635,0,0,0,63,0,0
4272,6146,5674,34,48,39,10240,-1.00,-1.00,0.00,0.00,4239,6101,5636,0,0,0,63,0,0
4273,6147,5674,33,46,38,10240,-1.00,-1.00,0.00,0.00,4240,6102,5637,0,0,0,63,0,0
4272,6147,5676,32,45,37,10240,-1.00,-1.00,0.00,0.00,4241,6104,5638,0,0,0,63,0,0
4271,6147,5675,31,43,37,10240,-1.00,-1.00,0.00,0.00,4242,6105,5640,0,0,0,63,0,0
4270,6147,5674,30,42,35,10240,-1.00,-1.00,0.00,0.00,4243,6107,5641,0,0,0,63,0,0
4269,6147,5674,28,41,34,10240,-1.00,-1.00,0.00,0.00,4244,6108,5642,0,0,0,63,0,0
4269,6147,5675,26,39,33,10240,-1.00,-1.00,0.00,0.00,4245,6109,5643,0,0,0,63,0,0
4269,6147,5676,25,38,32,10240,-1.00,-1.00,0.00,0.00,4245,6111,5644,0,0,0,63,0,0
4268,6147,5674,23,37,31,10240,-1.00,-1.00,0.00,0.00,4246,6112,5645,0,0,0,63,0,0
4268,6147,5674,22,35,30,10240,-1.00,-1.00,0.00,0.00,4247,6113,5646,0,0,0,63,0,0
4267,6147,5676,21,34,29,10240,-1.00,-1.00,0.00,0.00,4248,6114,5647,0,0,0,63,0,0
4267,6147,5676,20,33,28,10240,-1.00,-1.00,0.00,0.00,4248,6115,5648,0,0,0,63,0,0
4266,6147,5677,19,32,28,10240,-1.00,-1.00,0.00,0.00,4249,6116,5649,0,0,0,63,0,0
4267,6147,5677,18,31,28,10240,-1.00,-1.00,0.00,0.00,4249,6117,5650,0,0,0,63,0,0
4266,6147,5677,17,30,27,10240,-1.00,-1.00,0.00,0.00,4250,6118,5651,0,0,0,63,0,0
4266,6147,5677,16,29,26,10240,-1.00,-1.00,0.00,0.00,4251,6119,5652,0,0,0,63,0,0
4267,6147,5678,16,28,25,10240,-1.00,-1.00,0.00,0.00,4251,6120,5653,0,0,0,63,0,0
4265,6147,5675,15,27,24,10240,-1.00,-1.00,0.00,0.00,4252,6121,5653,0,0,0,63,0,0
4267,6147,5675,14,26,23,10240,-1.00,-1.00,0.00,0.00,4252,6122,5654,0,0,0,63,0,0
4265,6147,5674,14,25,21,10240,-1.00,-1.00,0.00,0.00,4252,6123,5655,0,0,0,63,0,0
4264,6146,5673,13,24,20,10240,-1.00,-1.00,0.00,0.00,4253,6124,5655,0,0,0,63,0,0
4264,6146,5672,12,23,18,10240,-1.00,-1.00,0.00,0.00,4253,6124,5656,0,0,0,63,0,0
4264,6147,5673,11,22,17,10240,-1.00,-1.00,0.00,0.00,4254,6125,5656,0,0,0,63,0,0
4263,6146,5673,10,21,16,10240,-1.00,-1.00,0.00,0.00,4254,6126,5657,0,0,0,63,0,0
4264,6146,5674,10,21,16,10240,-1.00,-1.00,0.00,0.00,4254,6126,5658,0,0,0,63,0,0
4262,6146,5674,9,20,16,10240,-1.00,-1.00,0.00,0.00,4255,6127,5658,0,0,0,63,0,0
4264,6147,5673,8,19,15,10240,-1.00,-1.00,0.00,0.00,4255,6128,5659,0,0,0,63,0,0
4264,6147,5675,8,19,15,10240,-1.00,-1.00,0.00,0.00,4255,6128,5659,0,0,0,63,0,0
4264,6147,5674,8,18,15,10240,-1.00,-1.00,0.00,0.00,4255,6129,5660,0,0,0,63,0,0
4264,6147,5675,8,18,14,10240,-1.00,-1.00,0.00,0.00,4256,6130,5660,0,0,0,63,0,0
4264,6147,5675,8,17,14,10240,-1.00,-1.00,0.00,0.00,4256,6130,5661,0,0,0,63,0,0
4263,6147,5675,8,17,14,10240,-1.00,-1.00,0.00,0.00,4256,6131,5661,0,0,0,63,0,0
4258,6147,5675,6,16,14,10240,-1.00,-1.00,0.00,0.00,4256,6131,5662,0,0,0,63,0,0
4258,6147,5675,4,16,13,10240,-1.00,-1.00,0.00,0.00,4256,6132,5662,0,0,0,63,0,0
4257,6147,5673,3,15,12,10240,-1.00,-1.00,0.00,0.00,4256,6132,5662,0,0,0,63,0,0
4255,6146,5674,1,14,12,10240,-1.00,-1.00,0.00,0.00,4256,6133,5663,0,0,0,63,0,0
4256,6146,5674,0,14,11,10240,-1.00,-1.00,0.00,0.00,4256,6133,5663,0,0,0,63,0,0
4255,6146,5675,0,13,11,10240,-1.00,-1.00,0.00,0.00,4256,6134,5664,0,0,0,63,0,0
4255,6146,5674,0,12,10,10240,-1.00,-1.00,0.00,0.00,4256,6134,5664,0,0,0,63,0,0
4253,6146,5674,-1,12,10,10240,-1.00,-1.00,0.00,0.00,4256,6135,5664,0,0,0,63,0,0
4253,6145,5673,-2,11,9,10240,-1.00,-1.00,0.00,0.00,4256,6135,5665,0,0,0,63,0,0
4254,6145,5673,-2,10,9,10240,-1.00,-1.00,0.00,0.00,4256,6135,5665,0,0,0,63,0,0
4256,6146,5672,-2,10,8,10240,-1.00,-1.00,0.00,0.00,4256,6136,5665,0,0,0,63,0,0
4256,6146,5672,-1,10,7,10240,-1.00,-1.00,0.00,0.00,4256,6136,5665,0,0,0,63,0,0
4255,6146,5671,0,10,7,10240,-1.00,-1.00,0.00,0.00,4256,6136,5665,0,0,0,63,0,0
4258,6146,5671,0,9,6,10240,-1.00,-1.00,0.00,0.00,4256,6137,5666,0,0,0,63,0,0
4257,6147,5671,0,9,5,10240,-1.00,-1.00,0.00,0.00,4256,6137,5666,0,0,0,63,0,0
4257,6146,5672,0,9,5,10240,-1.00,-1.00,0.00,0.00,4256,6137,5666,0,0,0,63,0,0
4255,6146,5671,0,9,5,10240,-1.00,-1.00,0.00,0.00,4256,6137,5666,0,0,0,63,0,0
4256,6145,5671,0,8,5,10240,-1.00,-1.00,0.00,0.00,4256,6138,5666,0,0,0,63,0,0
4256,6145,5671,0,8,5,10240,-1.00,-1.00,0.00,0.00,4256,6138,5667,0,0,0,63,0,0
4255,6146,5671,0,7,4,10240,-1.00,-1.00,0.00,0.00,4256,6138,5667,0,0,0,63,0,0
4255,6147,5673,0,7,4,10240,-1.00,-1.00,0.00,0.00,4256,6139,5667,0,0,0,63,0,0
4256,6147,5673,0,7,5,10240,-1.00,-1.00,0.00,0.00,4256,6139,5667,0,0,0,63,0,0
4255,6146,5674,0,7,5,10240,-1.00,-1.00,0.00,0.00,4256,6139,5667,0,0,0,63,100,0
4255,6146,5673,0,7,6,10240,-1.00,-1.00,0.00,0.00,4256,6139,5668,0,0,0,63,100,0
4253,6146,5674,-1,7,6,10240,-1.00,-1.00,0.00,0.00,4256,6140,5668,0,0,0,63,100,0
4255,6147,5674,-1,6,6,10240,-1.00,-1.00,0.00,0.00,4256,6140,5668,0,0,0,63,100,0
4255,6147,5674,-1,6,5,10240,-1.00,-1.00,0.00,0.00,4256,6140,5668,0,0,0,63,100,0
4255,6147,5676,-1,6,6,10240,-1.00,-1.00,0.00,0.00,4256,6140,5668,0,0,0,63,100,0
4255,6147,5675,-1,7,6,10240,-1.00,-1.00,0.00,0.00,4256,6140,5669,0,0,0,63,100,0
4255,6147,5677,-1,6,7,10240,-1.00,-1.00,0.00,0.00,4256,6141,5669,0,0,0,63,100,0
4255,6147,5675,-1,6,7,10240,-1.00,-1.00,0.00,0.00,4256,6141,5669,0,0,0,63,100,0
4256,6147,5674,0,6,6,10240,-1.00,-1.00,0.00,0.00,4256,6141,5669,0,0,0,63,100,0
4256,6147,5673,0,6,5,10240,-1.00,-1.00,0.00,0.00,4256,6141,5669,0,0,0,63,100,0
4255,6146,5672,0,5,4,10240,-1.00,-1.00,0.00,0.00,4256,6141,5669,0,0,0,63,100,0
4254,6147,5672,0,5,3,10240,-1.00,-1.00,0.00,0.00,4256,6142,5670,0,0,0,63,100,0
4255,6146,5672,-1,5,2,10240,-1.00,-1.00,0.00,0.00,4256,6142,5670,0,0,0,63,100,0
4253,6146,5671,-1,4,2,10240,-1.00,-1.00,0.00,0.00,4255,6142,5670,0,0,0,63,100,0
4253,6147,5671,-1,4,1,10240,-1.00,-1.00,0.00,0.00,4255,6142,5670,0,0,0,63,100,0
4252,6147,5672,-2,4,1,10240,-1.00,-1.00,0.00,0.00,4255,6142,5670,0,0,0,63,100,0
4252,6146,5673,-2,4,1,10240,-1.00,-1.00,0.00,0.00,4255,6142,5670,0,0,0,63,100,0
4250,6145,5671,-3,4,1,10240,-1.00,-1.00,0.00,0.00,4255,6142,5670,0,0,0,63,100,0
4250,6146,5672,-4,3,2,10240,-1.00,-1.00,0.00,0.00,4255,6143,5670,0,0,0,63,100,0
4251,6146,5672,-4,3,2,10240,-1.00,-1.00,0.00,0.00,4255,6143,5670,0,0,0,63,100,0
4250,6146,5673,-4,3,2,10240,-1.00,-1.00,0.00,0.00,4255,6143,5670,0,0,0,63,100,0
4251,6146,5673,-4,3,2,10240,-1.00,-1.00,0.00,0.00,4254,6143,5670,0,0,0,63,100,0
4250,6146,5673,-4,3,2,10240,-1.00,-1.00,0.00,0.00,4254,6143,5670,0,0,0,63,100,0
4251,6146,5674,-3,3,3,10240,-1.00,-1.00,0.00,0.00,4254,6143,5670,0,0,0,63,100,0
4250,6147,5674,-3,3,3,10240,-1.00,-1.00,0.00,0.00,4254,6143,5671,0,0,0,63,100,0
4252,6147,5676,-3,3,3,10240,-1.00,-1.00,0.00,0.00,4254,6143,5671,0,0,0,63,100,0
4251,6147,5675,-3,3,4,10240,-1.00,-1.00,0.00,0.00,4254,6144,5671,0,0,0,63,100,0
4251,6146,5676,-3,3,4,10240,-1.00,-1.00,0.00,0.00,4254,6144,5671,0,0,0,63,100,0
4250,6147,5676,-3,3,4,10240,-1.00,-1.00,0.00,0.00,4254,6144,5671,0,0,0,63,100,0
4252,6147,5678,-3,2,5,10240,-1.00,-1.00,0.00,0.00,4254,6144,5671,0,0,0,63,100,0
4254,6147,5677,-2,2,5,10240,-1.00,-1.00,0.00,0.00,4254,6144,5672,0,0,0,63,100,0
4255,6147,5677,-1,3,5,10240,-1.00,-1.00,0.00,0.00,4254,6144,5672,0,0,0,63,100,0
4256,6147,5675,0,3,5,10240,-1.00,-1.00,0.00,0.00,4254,6144,5672,0,0,0,63,100,0
4256,6147,5675,1,3,4,10240,-1.00,-1.00,0.00,0.00,4254,6144,5672,0,0,0,63,100,0
4256,6147,5676,1,3,3,10240,-1.00,-1.00,0.00,0.00,4254,6144,5672,0,0,0,63,100,0
4256,6147,5676,2,3,3,10240,-1.00,-1.00,0.00,0.00,4254,6144,5672,0,0,0,63,100,0
4256,6147,5676,2,3,3,10240,-1.00,-1.00,0.00,0.00,4254,6144,5672,0,0,0,63,100,0
4256,6147,5676,2,2,3,10240,-1.00,-1.00,0.00,0.00,4254,6145,5673,0,0,0,63,100,0
4257,6147,5678,2,2,4,10240,-1.00,-1.00,0.00,0.00,4254,6145,5673,0,0,0,63,100,0
4257,6147,5679,2,2,4,10240,-1.00,-1.00,0.00,0.00,4254,6145,5673,0,0,0,63,100,0
4260,6147,5679,3,2,5,10240,-1.00,-1.00,0.00,0.00,4254,6145,5673,0,0,0,63,100,0
4264,6149,5683,5,2,6,10240,-1.00,-1.00,0.00,0.00,4255,6145,5673,0,0,0,63,100,0
4262,6148,5682,6,2,7,10240,-1.00,-1.00,0.00,0.00,4255,6145,5674,0,0,0,63,100,0
4262,6149,5681,7,3,7,10240,-1.00,-1.00,0.00,0.00,4255,6145,5674,0,0,0,63,100,0
4265,6152,5683,8,4,8,10240,-1.00,-1.00,0.00,0.00,4256,6145,5674,0,0,0,63,100,0
4266,6152,5683,8,5,8,10240,-1.00,-1.00,0.00,0.00,4256,6146,5675,0,0,0,63,100,0
4267,6154,5685,9,6,8,10240,-1.00,-1.00,0.00,0.00,4256,6146,5675,0,0,0,63,100,0
4268,6153,5686,10,7,9,10240,-1.00,-1.00,0.00,0.00,4257,6146,5675,0,0,0,63,100,0
4267,6155,5685,10,7,9,10240,-1.00,-1.00,0.00,0.00,4257,6146,5676,0,0,0,63,100,0
4268,6156,5687,10,8,10,10240,-1.00,-1.00,0.00,0.00,4257,6147,5676,0,0,0,63,100,0
4269,6158,5688,10,9,10,10240,-1.00,-1.00,0.00,0.00,4258,6147,5676,0,0,0,63,100,0
4268,6158,5687,10,10,10,10240,-1.00,-1.00,0.00,0.00,4258,6147,5677,0,0,0,63,100,0
4268,6157,5687,10,10,10,10240,-1.00,-1.00,0.00,0.00,4258,6148,5677,0,0,0,63,100,0
4267,6156,5686,9,9,10,10240,-1.00,-1.00,0.00,0.00,4259,6148,5677,0,0,0,63,100,0
4267,6156,5685,9,9,9,10240,-1.00,-1.00,0.00,0.00,4259,6148,5678,0,0,0,63,100,0
4269,6157,5683,9,8,7,10240,-1.00,-1.00,0.00,0.00,4259,6149,5678,0,0,0,63,100,0
4269,6155,5684,8,7,6,10240,-1.00,-1.00,0.00,0.00,4260,6149,5678,0,0,0,63,100,0
4268,6154,5682,8,6,5,10240,-1.00,-1.00,0.00,0.00,4260,6149,5678,0,0,0,63,100,0
4269,6156,5682,9,6,4,10240,-1.00,-1.00,0.00,0.00,4260,6149,5678,0,0,0,63,100,0
4271,6157,5683,9,6,4,10240,-1.00,-1.00,0.00,0.00,4261,6150,5678,0,0,0,63,100,0
4272,6159,5684,9,7,4,10240,-1.00,-1.00,0.00,0.00,4261,6150,5679,0,0,0,63,100,0
4271,6159,5684,10,8,4,10240,-1.00,-1.00,0.00,0.00,4261,6150,5679,0,0,0,63,100,0
4271,6160,5686,10,8,5,10240,-1.00,-1.00,0.00,0.00,4262,6150,5679,0,0,0,63,100,0
4271,6160,5686,9,9,6,10240,-1.00,-1.00,0.00,0.00,4262,6151,5679,0,0,0,63,100,0
4270,6160,5685,9,9,6,10240,-1.00,-1.00,0.00,0.00,4262,6151,5680,0,0,0,63,100,0
4271,6162,5686,8,9,6,10240,-1.00,-1.00,0.00,0.00,4262,6151,5680,0,0,0,63,100,0
4271,6162,5686,8,9,6,10240,-1.00,-1.00,0.00,0.00,4263,6152,5680,0,0,0,63,100,0
4271,6163,5687,8,10,6,10240,-1.00,-1.00,0.00,0.00,4263,6152,5680,0,0,0,63,100,0
4267,6160,5687,7,10,6,10240,-1.00,-1.00,0.00,0.00,4263,6152,5680,0,0,0,63,100,0
4267,6160,5687,6,9,6,10240,-1.00,-1.00,0.00,0.00,4263,6153,5681,0,0,0,63,100,0
4269,6164,5686,5,9,6,10240,-1.00,-1.00,0.00,0.00,4263,6153,5681,0,0,0,63,100,0
4266,6159,5687,4,8,6,10240,-1.00,-1.00,0.00,0.00,4264,6153,5681,0,0,0,63,100,0
4266,6160,5687,3,7,5,10240,-1.00,-1.00,0.00,0.00,4264,6154,5681,0,0,0,63,100,0
4265,6159,5686,2,7,5,10240,-1.00,-1.00,0.00,0.00,4264,6154,5681,0,0,0,63,100,0
4266,6161,5687,1,6,5,10240,-1.00,-1.00,0.00,0.00,4264,6154,5682,0,0,0,63,100,0
4264,6160,5686,1,6,5,10240,-1.00,-1.00,0.00,0.00,4264,6154,5682,0,0,0,63,100,0
4266,6162,5687,1,6,4,10240,-1.00,-1.00,0.00,0.00,4264,6154,5682,0,0,0,63,100,0
4268,6161,5685,2,6,4,10240,-1.00,-1.00,0.00,0.00,4264,6155,5682,0,0,0,63,100,0
4269,6160,5685,2,6,3,10240,-1.00,-1.00,0.00,0.00,4264,6155,5682,0,0,0,63,100,0
4269,6164,5685,4,7,3,10240,-1.00,-1.00,0.00,0.00,4264,6155,5682,0,0,0,63,100,0
4271,6164,5684,5,7,2,10240,-1.00,-1.00,0.00,0.00,4265,6155,5682,0,0,0,63,100,0
4272,6164,5684,5,7,2,10240,-1.00,-1.00,0.00,0.00,4265,6156,5682,0,0,0,63,100,0
4271,6163,5684,6,8,2,10240,-1.00,-1.00,0.00,0.00,4265,6156,5682,0,0,0,63,100,0
4272,6166,5686,6,8,2,10240,-1.00,-1.00,0.00,0.00,4265,6156,5682,0,0,0,63,100,0
4273,6167,5688,7,8,3,10240,-1.00,-1.00,0.00,0.00,4265,6157,5683,0,0,0,63,100,0
4273,6168,5686,7,9,3,10240,-1.00,-1.00,0.00,0.00,4266,6157,5683,0,0,0,63,100,0
4272,6167,5687,7,10,4,10240,-1.00,-1.00,0.00,0.00,4266,6157,5683,0,0,0,63,100,0
4273,6168,5686,7,10,3,10240,-1.00,-1.00,0.00,0.00,4266,6158,5683,0,0,0,63,100,0
4273,6167,5687,6,10,3,10240,-1.00,-1.00,0.00,0.00,4266,6158,5683,0,0,0,63,100,0
4274,6169,5688,6,10,4,10240,-1.00,-1.00,0.00,0.00,4267,6158,5683,0,0,0,63,100,0
4275,6171,5688,7,10,4,10240,-1.00,-1.00,0.00,0.00,4267,6159,5683,0,0,0,63,100,0
4277,6173,5689,8,11,4,10240,-1.00,-1.00,0.00,0.00,4267,6159,5684,0,0,0,63,100,0
4276,6174,5689,8,12,5,10240,-1.00,-1.00,0.00,0.00,4268,6160,5684,0,0,0,63,100,0
4277,6174,5689,8,13,5,10240,-1.00,-1.00,0.00,0.00,4268,6160,5684,0,0,0,63,100,0
4277,6175,5690,9,14,5,10240,-1.00,-1.00,0.00,0.00,4268,6161,5684,0,0,0,63,100,0
4278,6175,5691,9,14,5,10240,-1.00,-1.00,0.00,0.00,4268,6161,5684,0,0,0,63,100,0
4278,6178,5690,9,14,5,10240,-1.00,-1.00,0.00,0.00,4269,6162,5685,0,0,0,63,100,0
4278,6178,5690,9,15,5,10240,-1.00,-1.00,0.00,0.00,4269,6162,5685,0,0,0,63,100,0
4277,6178,5690,9,15,5,10240,-1.00,-1.00,0.00,0.00,4269,6163,5685,0,0,0,63,100,0
4275,6174,5689,7,14,4,10240,-1.00,-1.00,0.00,0.00,4270,6163,5685,0,0,0,63,100,0
4276,6172,5689,7,12,4,10240,-1.00,-1.00,0.00,0.00,4270,6163,5685,0,0,0,63,100,0
4274,6172,5688,5,10,4,10240,-1.00,-1.00,0.00,0.00,4270,6164,5685,0,0,0,63,100,0
4274,6170,5687,4,8,3,10240,-1.00,-1.00,0.00,0.00,4270,6164,5685,0,0,0,63,100,0
4274,6169,5687,4,7,2,10240,-1.00,-1.00,0.00,0.00,4270,6164,5685,0,0,0,63,100,0
4274,6169,5684,4,6,1,10240,-1.00,-1.00,0.00,0.00,4270,6164,5685,0,0,0,63,100,0
4277,6171,5685,4,5,0,10240,-1.00,-1.00,0.00,0.00,4271,6165,5685,0,0,0,63,100,0
4274,6172,5687,4,5,0,10240,-1.00,-1.00,0.00,0.00,4271,6165,5686,0,0,0,63,100,0
4275,6172,5686,4,6,0,10240,-1.00,-1.00,0.00,0.00,4271,6165,5686,0,0,0,63,100,0
4275,6174,5687,4,7,0,10240,-1.00,-1.00,0.00,0.00,4271,6165,5686,0,0,0,63,100,0
4276,6174,5687,4,7,0,10240,-1.00,-1.00,0.00,0.00,4271,6166,5686,0,0,0,63,100,0
4278,6176,5689,5,8,1,10240,-1.00,-1.00,0.00,0.00,4271,6166,5686,0,0,0,63,100,0
4280,6180,5691,6,10,2,10240,-1.00,-1.00,0.00,0.00,4272,6166,5686,0,0,0,63,100,0
4280,6180,5690,7,11,3,10240,-1.00,-1.00,0.00,0.00,4272,6167,5686,0,0,0,63,100,0
4279,6179,5689,7,12,3,10240,-1.00,-1.00,0.00,0.00,4272,6167,5686,0,0,0,63,100,0
4278,6178,5691,7,12,4,10240,-1.00,-1.00,0.00,0.00,4272,6168,5686,0,0,0,63,100,0
4278,6178,5691,6,11,4,10240,-1.00,-1.00,0.00,0.00,4273,6168,5686,0,0,0,63,100,0
4279,6182,5691,6,11,4,10240,-1.00,-1.00,0.00,0.00,4273,6168,5687,0,0,0,63,100,0
4279,6180,5691,5,11,4,10240,-1.00,-1.00,0.00,0.00,4273,6169,5687,0,0,0,63,100,0
4279,6181,5691,5,11,4,10240,-1.00,-1.00,0.00,0.00,4273,6169,5687,0,0,0,63,100,0
4280,6183,5692,6,12,4,10240,-1.00,-1.00,0.00,0.00,4273,6170,5687,0,0,0,63,100,0
4279,6181,5692,6,11,4,10240,-1.00,-1.00,0.00,0.00,4274,6170,5687,0,0,0,63,100,0
4278,6179,5691,5,11,4,10240,-1.00,-1.00,0.00,0.00,4274,6170,5687,0,0,0,63,100,0
4279,6179,5690,5,10,4,10240,-1.00,-1.00,0.00,0.00,4274,6171,5687,0,0,0,63,100,0
4277,6176,5688,4,8,3,10240,-1.00,-1.00,0.00,0.00,4274,6171,5687,0,0,0,63,100,0
4274,6174,5688,3,6,2,10240,-1.00,-1.00,0.00,0.00,4274,6171,5687,0,0,0,63,100,0
4272,6173,5687,1,4,1,10240,-1.00,-1.00,0.00,0.00,4274,6171,5687,0,0,0,63,100,0
4273,6172,5686,0,2,0,10240,-1.00,-1.00,0.00,0.00,4274,6171,5687,0,0,0,63,100,0
4270,6170,5687,-1,1,0,10240,-1.00,-1.00,0.00,0.00,4274,6171,5687,0,0,0,63,100,0
4272,6172,5688,-2,0,0,10240,-1.00,-1.00,0.00,0.00,4274,6171,5687,0,0,0,63,100,0
4271,6172,5688,-2,0,0,10240,-1.00,-1.00,0.00,0.00,4274,6171,5688,0,0,0,63,100,0
4269,6170,5686,-3,0,0,10240,-1.00,-1.00,0.00,0.00,4273,6171,5687,0,0,0,63,100,0
4268,6170,5687,-3,0,0,10240,-1.00,-1.00,0.00,0.00,4273,6171,5687,0,0,0,63,100,0
4270,6172,5688,-3,0,0,10240,-1.00,-1.00,0.00,0.00,4273,6171,5687,0,0,0,63,100,0
4270,6172,5690,-3,0,0,10240,-1.00,-1.00,0.00,0.00,4273,6171,5688,0,0,0,63,100,0
4270,6173,5689,-3,0,1,10240,-1.00,-1.00,0.00,0.00,4273,6171,5688,0,0,0,63,100,0
4271,6175,5689,-2,2,1,10240,-1.00,-1.00,0.00,0.00,4273,6171,5688,0,0,0,63,100,0
4270,6174,5690,-2,2,1,10240,-1.00,-1.00,0.00,0.00,4273,6171,5688,0,0,0,63,100,0
4269,6173,5690,-3,2,1,10240,-1.00,-1.00,0.00,0.00,4273,6171,5688,0,0,0,63,100,0
4271,6175,5691,-2,3,2,10240,-1.00,-1.00,0.00,0.00,4273,6172,5688,0,0,0,63,100,0
4271,6175,5691,-2,2,2,10240,-1.00,-1.00,0.00,0.00,4272,6172,5688,0,0,0,63,100,0
4271,6177,5690,-2,3,2,10240,-1.00,-1.00,0.00,0.00,4272,6172,5688,0,0,0,63,100,0
4273,6179,5692,0,4,3,10240,-1.00,-1.00,0.00,0.00,4272,6172,5688,0,0,0,63,100,0
4274,6180,5692,0,5,3,10240,-1.00,-1.00,0.00,0.00,4273,6172,5688,0,0,0,63,100,0
4273,6178,5691,0,6,3,10240,-1.00,-1.00,0.00,0.00,4273,6173,5688,0,0,0,63,100,0
4273,6179,5690,0,6,3,10240,-1.00,-1.00,0.00,0.00,4273,6173,5688,0,0,0,63,100,0
4273,6178,5689,0,6,2,10240,-1.00,-1.00,0.00,0.00,4273,6173,5689,0,0,0,63,100,0
4272,6176,5689,0,4,1,10240,-1.00,-1.00,0.00,0.00,4273,6173,5689,0,0,0,63,100,0
4270,6171,5687,0,3,0,10240,-1.00,-1.00,0.00,0.00,4272,6173,5688,0,0,0,63,100,0
4270,6172,5688,-1,1,0,10240,-1.00,-1.00,0.00,0.00,4272,6173,5688,0,0,0,63,100,0
4270,6171,5688,-1,0,0,10240,-1.00,-1.00,0.00,0.00,4272,6173,5688,0,0,0,63,100,0
4271,6172,5687,-1,-1,0,10240,-1.00,-1.00,0.00,0.00,4272,6173,5688,0,0,0,63,100,0
4271,6174,5687,-1,0,0,10240,-1.00,-1.00,0.00,0.00,4272,6173,5688,0,0,0,63,100,0
4271,6175,5688,-1,0,0,10240,-1.00,-1.00,0.00,0.00,4272,6173,5688,0,0,0,63,100,0
4272,6175,5689,0,1,0,10240,-1.00,-1.00,0.00,0.00,4272,6173,5688,0,0,0,63,100,0
4272,6176,5689,0,2,0,10240,-1.00,-1.00,0.00,0.00,4272,6173,5688,0,0,0,63,100,0
4273,6177,5690,0,2,0,10240,-1.00,-1.00,0.00,0.00,4272,6173,5689,0,0,0,63,100,0
4273,6179,5691,0,3,1,10240,-1.00,-1.00,0.00,0.00,4272,6173,5689,0,0,0,63,100,0
4275,6179,5690,1,4,1,10240,-1.00,-1.00,0.00,0.00,4272,6174,5689,0,0,0,63,100,0
4274,6179,5691,1,5,1,10240,-1.00,-1.00,0.00,0.00,4272,6174,5689,0,0,0,63,100,0
4273,6179,5691,1,5,1,10240,-1.00,-1.00,0.00,0.00,4272,6174,5689,0,0,0,63,100,0
4274,6182,5692,1,5,2,10240,-1.00,-1.00,0.00,0.00,4273,6174,5689,0,0,0,63,100,0
4276,6184,5692,1,6,2,10240,-1.00,-1.00,0.00,0.00,4273,6175,5689,0,0,0,63,100,0
4276,6183,5693,2,7,3,10240,-1.00,-1.00,0.00,0.00,4273,6175,5689,0,0,0,63,100,0
4277,6185,5693,2,8,3,10240,-1.00,-1.00,0.00,0.00,4273,6175,5689,0,0,0,63,100,0
4275,6186,5692,3,9,3,10240,-1.00,-1.00,0.00,0.00,4273,6176,5689,0,0,0,63,100,0
4274,6184,5693,2,9,3,10240,-1.00,-1.00,0.00,0.00,4273,6176,5689,0,0,0,63,100,0
4273,6182,5692,1,8,3,10240,-1.00,-1.00,0.00,0.00,4273,6176,5690,0,0,0,63,100,0
4272,6180,5691,0,7,2,10240,-1.00,-1.00,0.00,0.00,4273,6176,5690,0,0,0,63,100,0
4272,6179,5690,0,5,1,10240,-1.00,-1.00,0.00,0.00,4273,6176,5690,0,0,0,63,100,0
4271,6177,5690,-1,3,0,10240,-1.00,-1.00,0.00,0.00,4273,6176,5690,0,0,0,63,100,0
4272,6177,5690,-1,2,0,10240,-1.00,-1.00,0.00,0.00,4273,6176,5690,0,0,0,63,100,0
4272,6177,5688,-1,1,0,10240,-1.00,-1.00,0.00,0.00,4273,6176,5690,0,0,0,63,100,0
4272,6176,5689,-1,0,0,10240,-1.00,-1.00,0.00,0.00,4273,6176,5689,0,0,0,63,100,0
4272,6178,5689,-1,1,0,10240,-1.00,-1.00,0.00,0.00,4273,6176,5689,0,0,0,63,100,0
4272,6178,5689,-1,1,0,10240,-1.00,-1.00,0.00,0.00,4273,6176,5689,0,0,0,63,100,0
4273,6181,5690,0,2,0,10240,-1.00,-1.00,0.00,0.00,4273,6177,5690,0,0,0,63,100,0
4277,6182,5691,0,3,0,10240,-1.00,-1.00,0.00,0.00,4273,6177,5690,0,0,0,63,100,0
4278,6184,5692,2,4,0,10240,-1.00,-1.00,0.00,0.00,4273,6177,5690,0,0,0,63,100,0
4277,6185,5690,3,6,0,10240,-1.00,-1.00,0.00,0.00,4273,6177,5690,0,0,0,63,100,0
4277,6186,5692,4,7,1,10240,-1.00,-1.00,0.00,0.00,4273,6178,5690,0,0,0,63,100,0
4277,6185,5692,4,7,1,10240,-1.00,-1.00,0.00,0.00,4273,6178,5690,0,0,0,63,100,0
4277,6186,5693,4,7,1,10240,-1.00,-1.00,0.00,0.00,4273,6178,5690,0,0,0,63,100,0
4276,6187,5693,3,8,2,10240,-1.00,-1.00,0.00,0.00,4274,6178,5690,0,0,0,63,100,0
4276,6187,5693,3,8,2,10240,-1.00,-1.00,0.00,0.00,4274,6179,5690,0,0,0,63,100,0
4276,6187,5694,2,8,3,10240,-1.00,-1.00,0.00,0.00,4274,6179,5690,0,0,0,63,100,0
4275,6186,5693,1,8,3,10240,-1.00,-1.00,0.00,0.00,4274,6179,5690,0,0,0,63,100,0
4276,6187,5693,1,7,3,10240,-1.00,-1.00,0.00,0.00,4274,6179,5690,0,0,0,63,100,0
4278,6190,5694,2,8,3,10240,-1.00,-1.00,0.00,0.00,4274,6180,5691,0,0,0,63,100,0
4277,6189,5695,2,8,3,10240,-1.00,-1.00,0.00,0.00,4274,6180,5691,0,0,0,63,100,0
4277,6189,5694,3,9,3,10240,-1.00,-1.00,0.00,0.00,4274,6180,5691,0,0,0,63,100,0
4278,6189,5693,3,9,3,10240,-1.00,-1.00,0.00,0.00,4274,6181,5691,0,0,0,63,100,0
4276,6187,5692,3,8,2,10240,-1.00,-1.00,0.00,0.00,4274,6181,5691,0,0,0,63,100,0
4276,6185,5691,2,6,1,10240,-1.00,-1.00,0.00,0.00,4274,6181,5691,0,0,0,63,100,0
4276,6185,5692,2,5,1,10240,-1.00,-1.00,0.00,0.00,4274,6181,5691,0,0,0,63,100,0
4274,6183,5690,1,4,0,10240,-1.00,-1.00,0.00,0.00,4274,6181,5691,0,0,0,63,100,0
4274,6182,5691,1,2,0,10240,-1.00,-1.00,0.00,0.00,4274,6181,5691,0,0,0,63,100,0
4274,6183,5691,0,2,0,10240,-1.00,-1.00,0.00,0.00,4274,6181,5691,0,0,0,63,100,0
4277,6185,5691,0,2,0,10240,-1.00,-1.00,0.00,0.00,4275,6181,5691,0,0,0,63,100,0
4276,6187,5692,0,3,0,10240,-1.00,-1.00,0.00,0.00,4275,6182,5691,0,0,0,63,100,0
4273,6184,5691,0,3,0,10240,-1.00,-1.00,0.00,0.00,4275,6182,5691,0,0,0,63,100,0
4274,6184,5691,0,3,0,10240,-1.00,-1.00,0.00,0.00,4275,6182,5691,0,0,0,63,100,0
4272,6184,5692,-1,2,0,10240,-1.00,-1.00,0.00,0.00,4274,6182,5691,0,0,0,63,100,0
4273,6186,5693,-1,2,0,10240,-1.00,-1.00,0.00,0.00,4274,6182,5691,0,0,0,63,100,0
4272,6185,5692,-1,2,1,10240,-1.00,-1.00,0.00,0.00,4274,6182,5691,0,0,0,63,100,0
4270,6185,5692,-2,3,1,10240,-1.00,-1.00,0.00,0.00,4274,6182,5691,0,0,0,63,100,0
4270,6185,5693,-2,3,1,10240,-1.00,-1.00,0.00,0.00,4274,6182,5691,0,0,0,63,100,0
4271,6185,5693,-3,3,1,10240,-1.00,-1.00,0.00,0.00,4274,6182,5691,0,0,0,63,100,0
4271,6187,5693,-3,3,1,10240,-1.00,-1.00,0.00,0.00,4274,6183,5691,0,0,0,63,100,0
4270,6188,5694,-3,3,2,10240,-1.00,-1.00,0.00,0.00,4274,6183,5691,0,0,0,63,100,0
4270,6187,5694,-3,4,2,10240,-1.00,-1.00,0.00,0.00,4274,6183,5691,0,0,0,63,100,0
4269,6188,5695,-3,4,2,10240,-1.00,-1.00,0.00,0.00,4273,6183,5692,0,0,0,63,100,0
4269,6188,5694,-4,4,2,10240,-1.00,-1.00,0.00,0.00,4273,6183,5692,0,0,0,63,100,0
4269,6185,5694,-4,4,2,10240,-1.00,-1.00,0.00,0.00,4273,6183,5692,0,0,0,63,100,0
4268,6183,5691,-4,3,1,10240,-1.00,-1.00,0.00,0.00,4273,6183,5692,0,0,0,63,100,0
4267,6181,5692,-4,1,0,10240,-1.00,-1.00,0.00,0.00,4273,6183,5692,0,0,0,63,100,0
4265,6179,5690,-5,-1,0,10240,-1.00,-1.00,0.00,0.00,4273,6183,5692,0,0,0,63,100,0
4264,6177,5690,-6,-3,-1,10240,-1.00,-1.00,0.00,0.00,4272,6183,5692,0,0,0,63,100,0
4263,6176,5691,-7,-4,-1,10240,-1.00,-1.00,0.00,0.00,4272,6183,5692,0,0,0,63,100,0
4262,6175,5690,-8,-6,-1,10240,-1.00,-1.00,0.00,0.00,4272,6182,5691,0,0,0,63,100,0
4263,6177,5691,-8,-6,-1,10240,-1.00,-1.00,0.00,0.00,4271,6182,5691,0,0,0,63,100,0
4264,6180,5691,-8,-5,0,10240,-1.00,-1.00,0.00,0.00,4271,6182,5691,0,0,0,63,100,0
4264,6179,5691,-8,-4,0,10240,-1.00,-1.00,0.00,0.00,4271,6182,5691,0,0,0,63,100,0
4264,6180,5691,-7,-3,0,10240,-1.00,-1.00,0.00,0.00,4271,6182,5691,0,0,0,63,100,0
4266,6182,5691,-6,-1,0,10240,-1.00,-1.00,0.00,0.00,4270,6182,5691,0,0,0,63,100,0
4268,6183,5693,-5,-1,0,10240,-1.00,-1.00,0.00,0.00,4270,6182,5692,0,0,0,63,100,0
4268,6185,5694,-3,0,0,10240,-1.00,-1.00,0.00,0.00,4270,6182,5692,0,0,0,63,100,0
4269,6186,5693,-2,2,1,10240,-1.00,-1.00,0.00,0.00,4270,6182,5692,0,0,0,63,100,0
4268,6186,5692,-1,3,1,10240,-1.00,-1.00,0.00,0.00,4270,6182,5692,0,0,0,63,100,0
4268,6186,5694,-1,3,1,10240,-1.00,-1.00,0.00,0.00,4270,6183,5692,0,0,0,63,100,0
4269,6187,5693,-1,3,1,10240,-1.00,-1.00,0.00,0.00,4270,6183,5692,0,0,0,63,100,0
4269,6188,5694,-1,4,1,10240,-1.00,-1.00,0.00,0.00,4270,6183,5692,0,0,0,63,100,0
4269,6188,5695,-1,4,2,10240,-1.00,-1.00,0.00,0.00,4270,6183,5692,0,0,0,63,100,0
4268,6187,5694,-1,4,2,10240,-1.00,-1.00,0.00,0.00,4270,6183,5692,0,0,0,63,100,0
4269,6187,5694,-1,4,2,10240,-1.00,-1.00,0.00,0.00,4270,6183,5692,0,0,0,63,100,0
4269,6187,5694,-1,4,2,10240,-1.00,-1.00,0.00,0.00,4270,6183,5692,0,0,0,63,100,0
4268,6186,5695,-1,3,2,10240,-1.00,-1.00,0.00,0.00,4270,6183,5692,0,0,0,63,100,0
4268,6186,5693,-1,3,2,10240,-1.00,-1.00,0.00,0.00,4270,6184,5692,0,0,0,63,100,0
4267,6184,5692,-2,2,1,10240,-1.00,-1.00,0.00,0.00,4270,6184,5692,0,0,0,63,100,0
4267,6182,5691,-2,0,0,10240,-1.00,-1.00,0.00,0.00,4270,6184,5692,0,0,0,63,100,0
4267,6181,5690,-2,0,0,10240,-1.00,-1.00,0.00,0.00,4269,6183,5692,0,0,0,63,100,0
4268,6184,5691,-2,0,-1,10240,-1.00,-1.00,0.00,0.00,4269,6183,5692,0,0,0,63,100,0
4271,6186,5692,-1,0,-1,10240,-1.00,-1.00,0.00,0.00,4269,6184,5692,0,0,0,63,100,0
4272,6187,5693,0,1,0,10240,-1.00,-1.00,0.00,0.00,4270,6184,5692,0,0,0,63,100,0
4274,6189,5693,1,2,0,10240,-1.00,-1.00,0.00,0.00,4270,6184,5692,0,0,0,63,100,0
4274,6190,5693,3,4,0,10240,-1.00,-1.00,0.00,0.00,4270,6184,5692,0,0,0,63,100,0
4275,6190,5693,3,5,1,10240,-1.00,-1.00,0.00,0.00,4270,6184,5692,0,0,0,63,100,0
4273,6191,5694,4,6,1,10240,-1.00,-1.00,0.00,0.00,4270,6184,5692,0,0,0,63,100,0
4275,6191,5694,4,6,1,10240,-1.00,-1.00,0.00,0.00,4270,6185,5692,0,0,0,63,100,0
4274,6192,5695,4,6,2,10240,-1.00,-1.00,0.00,0.00,4270,6185,5692,0,0,0,63,100,0
4276,6193,5695,4,7,2,10240,-1.00,-1.00,0.00,0.00,4271,6185,5693,0,0,0,63,100,0
4275,6193,5695,4,7,2,10240,-1.00,-1.00,0.00,0.00,4271,6185,5693,0,0,0,63,100,0
4276,6194,5696,4,7,2,10240,-1.00,-1.00,0.00,0.00,4271,6186,5693,0,0,0,63,100,0
4275,6195,5696,4,8,2,10240,-1.00,-1.00,0.00,0.00,4271,6186,5693,0,0,0,63,100,0
4275,6196,5697,4,8,3,10240,-1.00,-1.00,0.00,0.00,4271,6186,5693,0,0,0,63,100,0
4276,6196,5698,4,9,3,10240,-1.00,-1.00,0.00,0.00,4271,6187,5693,0,0,0,63,100,0
4274,6195,5697,4,9,4,10240,-1.00,-1.00,0.00,0.00,4271,6187,5693,0,0,0,63,100,0
4273,6195,5697,3,8,4,10240,-1.00,-1.00,0.00,0.00,4272,6187,5693,0,0,0,63,100,0
4272,6194,5696,2,8,4,10240,-1.00,-1.00,0.00,0.00,4272,6187,5693,0,0,0,63,100,0
4272,6192,5694,1,6,2,10240,-1.00,-1.00,0.00,0.00,4272,6188,5694,0,0,0,63,100,0
4273,6192,5694,0,5,1,10240,-1.00,-1.00,0.00,0.00,4272,6188,5694,0,0,0,63,100,0
4273,6192,5695,0,4,1,10240,-1.00,-1.00,0.00,0.00,4272,6188,5694,0,0,0,63,100,0
4272,6192,5693,0,4,0,10240,-1.00,-1.00,0.00,0.00,4272,6188,5694,0,0,0,63,100,0
4273,6190,5693,0,3,0,10240,-1.00,-1.00,0.00,0.00,4272,6188,5693,0,0,0,63,100,0
4272,6191,5693,0,3,0,10240,-1.00,-1.00,0.00,0.00,4272,6188,5693,0,0,0,63,100,0
4273,6192,5693,0,3,0,10240,-1.00,-1.00,0.00,0.00,4272,6188,5693,0,0,0,63,100,0
4273,6192,5693,0,3,0,10240,-1.00,-1.00,0.00,0.00,4272,6188,5693,0,0,0,63,100,0
4273,6192,5694,0,3,0,10240,-1.00,-1.00,0.00,0.00,4272,6189,5694,0,0,0,63,100,0
4273,6193,5694,1,3,0,10240,-1.00,-1.00,0.00,0.00,4272,6189,5694,0,0,0,63,100,0
4274,6193,5694,1,3,0,10240,-1.00,-1.00,0.00,0.00,4272,6189,5694,0,0,0,63,100,0
4272,6193,5694,1,3,0,10240,-1.00,-1.00,0.00,0.00,4272,6189,5694,0,0,0,63,100,0
4270,6192,5694,0,3,0,10240,-1.00,-1.00,0.00,0.00,4272,6189,5694,0,0,0,63,100,0
4270,6191,5693,0,3,0,10240,-1.00,-1.00,0.00,0.00,4272,6189,5693,0,0,0,63,100,0
4271,6194,5695,-1,3,0,10240,-1.00,-1.00,0.00,0.00,4272,6189,5694,0,0,0,63,100,0
4270,6194,5694,-1,3,0,10240,-1.00,-1.00,0.00,0.00,4272,6190,5694,0,0,0,63,100,0
4271,6193,5695,-1,3,0,10240,-1.00,-1.00,0.00,0.00,4272,6190,5694,0,0,0,63,100,0
4269,6192,5695,-1,3,0,10240,-1.00,-1.00,0.00,0.00,4271,6190,5694,0,0,0,63,100,0
4268,6192,5696,-2,2,1,10240,-1.00,-1.00,0.00,0.00,4271,6190,5694,0,0,0,63,100,0
4268,6193,5697,-2,2,1,10240,-1.00,-1.00,0.00,0.00,4271,6190,5694,0,0,0,63,100,0
4269,6192,5697,-2,2,2,10240,-1.00,-1.00,0.00,0.00,4271,6190,5694,0,0,0,63,100,0
4268,6193,5697,-2,2,2,10240,-1.00,-1.00,0.00,0.00,4271,6190,5694,0,0,0,63,100,0
4267,6191,5695,-3,2,2,10240,-1.00,-1.00,0.00,0.00,4271,6190,5694,0,0,0,63,100,0
4269,6190,5694,-2,1,1,10240,-1.00,-1.00,0.00,0.00,4271,6190,5694,0,0,0,63,100,0
4270,6190,5695,-2,1,1,10240,-1.00,-1.00,0.00,0.00,4271,6190,5694,0,0,0,63,100,0
4270,6190,5694,-2,0,0,10240,-1.00,-1.00,0.00,0.00,4271,6190,5694,0,0,0,63,100,0
4272,6191,5694,0,0,0,10240,-1.00,-1.00,0.00,0.00,4271,6190,5694,0,0,0,63,100,0
4271,6192,5694,0,0,0,10240,-1.00,-1.00,0.00,0.00,4271,6190,5694,0,0,0,63,100,0
4271,6190,5692,0,0,0,10240,-1.00,-1.00,0.00,0.00,4271,6190,5694,0,0,0,63,100,0
4272,6191,5694,0,1,0,10240,-1.00,-1.00,0.00,0.00,4271,6190,5694,0,0,0,63,100,0
4270,6192,5694,0,1,0,10240,-1.00,-1.00,0.00,0.00,4271,6190,5694,0,0,0,63,100,0
4270,6192,5694,0,1,0,10240,-1.00,-1.00,0.00,0.00,4271,6190,5694,0,0,0,63,100,0
4272,6192,5695,0,1,0,10240,-1.00,-1.00,0.00,0.00,4271,6190,5694,0,0,0,63,100,0
4271,6192,5694,0,2,0,10240,-1.00,-1.00,0.00,0.00,4271,6190,5694,0,0,0,63,100,0
4270,6193,5694,0,2,0,10240,-1.00,-1.00,0.00,0.00,4271,6191,5694,0,0,0,63,100,0
4272,6194,5695,0,2,0,10240,-1.00,-1.00,0.00,0.00,4271,6191,5694,0,0,0,63,100,0
4273,6196,5696,0,3,0,10240,-1.00,-1.00,0.00,0.00,4271,6191,5694,0,0,0,63,100,0
4275,6198,5697,1,4,1,10240,-1.00,-1.00,0.00,0.00,4271,6191,5694,0,0,0,63,100,0
4277,6200,5697,3,6,2,10240,-1.00,-1.00,0.00,0.00,4271,6191,5694,0,0,0,63,100,0
4277,6201,5697,4,7,2,10240,-1.00,-1.00,0.00,0.00,4271,6192,5694,0,0,0,63,100,0
4278,6202,5699,5,8,3,10240,-1.00,-1.00,0.00,0.00,4272,6192,5695,0,0,0,63,100,0
4277,6202,5698,5,9,3,10240,-1.00,-1.00,0.00,0.00,4272,6192,5695,0,0,0,63,100,0
4277,6203,5698,5,9,3,10240,-1.00,-1.00,0.00,0.00,4272,6193,5695,0,0,0,63,100,0
4276,6202,5699,5,9,3,10240,-1.00,-1.00,0.00,0.00,4272,6193,5695,0,0,0,63,100,0
4276,6201,5698,4,9,3,10240,-1.00,-1.00,0.00,0.00,4272,6193,5695,0,0,0,63,100,0
4276,6201,5696,4,8,2,10240,-1.00,-1.00,0.00,0.00,4272,6194,5695,0,0,0,63,100,0
4277,6200,5696,4,7,2,10240,-1.00,-1.00,0.00,0.00,4273,6194,5695,0,0,0,63,100,0
4276,6199,5696,3,6,1,10240,-1.00,-1.00,0.00,0.00,4273,6194,5695,0,0,0,63,100,0
4277,6200,5696,3,6,1,10240,-1.00,-1.00,0.00,0.00,4273,6194,5695,0,0,0,63,100,0
4276,6198,5695,3,5,0,10240,-1.00,-1.00,0.00,0.00,4273,6194,5695,0,0,0,63,100,0
4276,6198,5695,3,4,0,10240,-1.00,-1.00,0.00,0.00,4273,6194,5695,0,0,0,63,100,0
4275,6198,5695,3,4,0,10240,-1.00,-1.00,0.00,0.00,4273,6195,5695,0,0,0,63,100,0
4274,6197,5696,2,3,0,10240,-1.00,-1.00,0.00,0.00,4273,6195,5695,0,0,0,63,100,0
4274,6199,5697,1,3,0,10240,-1.00,-1.00,0.00,0.00,4273,6195,5695,0,0,0,63,100,0
4275,6198,5697,1,3,1,10240,-1.00,-1.00,0.00,0.00,4273,6195,5695,0,0,0,63,100,0
4275,6199,5696,1,3,1,10240,-1.00,-1.00,0.00,0.00,4273,6195,5695,0,0,0,63,100,0
4275,6200,5696,1,4,1,10240,-1.00,-1.00,0.00,0.00,4273,6195,5695,0,0,0,63,100,0
4275,6200,5696,2,4,1,10240,-1.00,-1.00,0.00,0.00,4273,6195,5695,0,0,0,63,100,0
4277,6201,5698,2,5,1,10240,-1.00,-1.00,0.00,0.00,4274,6195,5696,0,0,0,63,100,0
4276,6202,5698,2,5,1,10240,-1.00,-1.00,0.00,0.00,4274,6196,5696,0,0,0,63,100,0
4278,6203,5699,2,6,2,10240,-1.00,-1.00,0.00,0.00,4274,6196,5696,0,0,0,63,100,0
4277,6203,5698,3,6,2,10240,-1.00,-1.00,0.00,0.00,4274,6196,5696,0,0,0,63,100,0
4277,6203,5698,3,6,2,10240,-1.00,-1.00,0.00,0.00,4274,6196,5696,0,0,0,63,100,0
4279,6206,5699,3,7,2,10240,-1.00,-1.00,0.00,0.00,4274,6197,5696,0,0,0,63,100,0
4280,6206,5701,4,8,3,10240,-1.00,-1.00,0.00,0.00,4274,6197,5696,0,0,0,63,100,0
4281,6207,5702,5,8,4,10240,-1.00,-1.00,0.00,0.00,4275,6197,5696,0,0,0,63,100,0
4280,6206,5700,5,9,4,10240,-1.00,-1.00,0.00,0.00,4275,6198,5696,0,0,0,63,100,0
4280,6205,5699,5,8,4,10240,-1.00,-1.00,0.00,0.00,4275,6198,5697,0,0,0,63,100,0
4279,6204,5697,5,7,3,10240,-1.00,-1.00,0.00,0.00,4275,6198,5697,0,0,0,63,100,0
4282,6204,5696,5,6,1,10240,-1.00,-1.00,0.00,0.00,4275,6198,5696,0,0,0,63,100,0
4282,6204,5696,5,6,0,10240,-1.00,-1.00,0.00,0.00,4275,6199,5696,0,0,0,63,100,0
4282,6204,5695,6,5,0,10240,-1.00,-1.00,0.00,0.00,4276,6199,5696,0,0,0,63,100,0
4283,6205,5696,6,5,0,10240,-1.00,-1.00,0.00,0.00,4276,6199,5696,0,0,0,63,100,0
4283,6206,5696,6,5,0,10240,-1.00,-1.00,0.00,0.00,4276,6199,5696,0,0,0,63,100,0
4284,6206,5696,7,6,0,10240,-1.00,-1.00,0.00,0.00,4276,6199,5696,0,0,0,63,100,0
4285,6207,5699,7,6,0,10240,-1.00,-1.00,0.00,0.00,4277,6200,5697,0,0,0,63,100,0
4285,6209,5698,7,7,0,10240,-1.00,-1.00,0.00,0.00,4277,6200,5697,0,0,0,63,100,0
4286,6209,5699,8,8,1,10240,-1.00,-1.00,0.00,0.00,4277,6200,5697,0,0,0,63,100,0
4287,6210,5701,8,8,2,10240,-1.00,-1.00,0.00,0.00,4278,6201,5697,0,0,0,63,100,0
4288,6212,5701,9,9,2,10240,-1.00,-1.00,0.00,0.00,4278,6201,5697,0,0,0,63,100,0
4288,6215,5701,9,10,3,10240,-1.00,-1.00,0.00,0.00,4278,6201,5697,0,0,0,63,100,0
4289,6215,5700,9,11,3,10240,-1.00,-1.00,0.00,0.00,4279,6202,5697,0,0,0,63,100,0
4288,6215,5701,9,12,3,10240,-1.00,-1.00,0.00,0.00,4279,6202,5697,0,0,0,63,100,0
4288,6214,5702,9,12,4,10240,-1.00,-1.00,0.00,0.00,4279,6203,5697,0,0,0,63,100,0
4288,6217,5701,9,12,3,10240,-1.00,-1.00,0.00,0.00,4280,6203,5698,0,0,0,63,100,0
4288,6218,5702,8,13,4,10240,-1.00,-1.00,0.00,0.00,4280,6204,5698,0,0,0,63,100,0
4289,6218,5703,8,13,4,10240,-1.00,-1.00,0.00,0.00,4280,6204,5698,0,0,0,63,100,0
4287,6217,5702,8,13,4,10240,-1.00,-1.00,0.00,0.00,4280,6205,5698,0,0,0,63,100,0
4289,6217,5703,8,13,4,10240,-1.00,-1.00,0.00,0.00,4281,6205,5698,0,0,0,63,100,0
4288,6218,5702,7,12,4,10240,-1.00,-1.00,0.00,0.00,4281,6205,5698,0,0,0,63,100,0
4288,6216,5703,7,11,4,10240,-1.00,-1.00,0.00,0.00,4281,6206,5698,0,0,0,63,100,0
4289,6215,5700,7,11,3,10240,-1.00,-1.00,0.00,0.00,4281,6206,5699,0,0,0,63,100,0
4289,6213,5698,7,9,2,10240,-1.00,-1.00,0.00,0.00,4282,6206,5699,0,0,0,63,100,0
4287,6212,5698,6,8,1,10240,-1.00,-1.00,0.00,0.00,4282,6206,5698,0,0,0,63,100,0
4288,6212,5701,6,6,0,10240,-1.00,-1.00,0.00,0.00,4282,6207,5699,0,0,0,63,100,0
4287,6211,5698,5,5,0,10240,-1.00,-1.00,0.00,0.00,4282,6207,5699,0,0,0,63,100,0
4287,6211,5698,5,4,0,10240,-1.00,-1.00,0.00,0.00,4282,6207,5699,0,0,0,63,100,0
4288,6212,5701,5,4,0,10240,-1.00,-1.00,0.00,0.00,4283,6207,5699,0,0,0,63,100,0
4287,6211,5701,4,4,0,10240,-1.00,-1.00,0.00,0.00,4283,6207,5699,0,0,0,63,100,0
4285,6210,5700,4,4,1,10240,-1.00,-1.00,0.00,0.00,4283,6207,5699,0,0,0,63,100,0
4286,6212,5701,3,4,1,10240,-1.00,-1.00,0.00,0.00,4283,6208,5699,0,0,0,63,100,0
4287,6214,5701,3,4,1,10240,-1.00,-1.00,0.00,0.00,4283,6208,5699,0,0,0,63,100,0
4287,6216,5701,3,5,1,10240,-1.00,-1.00,0.00,0.00,4283,6208,5699,0,0,0,63,100,0
4288,6216,5700,4,6,1,10240,-1.00,-1.00,0.00,0.00,4283,6208,5699,0,0,0,63,100,0
4288,6217,5701,4,7,1,10240,-1.00,-1.00,0.00,0.00,4283,6209,5699,0,0,0,63,100,0
4287,6215,5700,4,7,1,10240,-1.00,-1.00,0.00,0.00,4284,6209,5699,0,0,0,63,100,0
4288,6218,5703,4,7,2,10240,-1.00,-1.00,0.00,0.00,4284,6209,5699,0,0,0,63,100,0
4287,6217,5704,3,7,3,10240,-1.00,-1.00,0.00,0.00,4284,6209,5699,0,0,0,63,100,0
4286,6217,5703,3,7,3,10240,-1.00,-1.00,0.00,0.00,4284,6210,5699,0,0,0,63,100,0
4285,6217,5703,2,7,4,10240,-1.00,-1.00,0.00,0.00,4284,6210,5700,0,0,0,63,100,0
4284,6216,5704,1,7,4,10240,-1.00,-1.00,0.00,0.00,4284,6210,5700,0,0,0,63,100,0
4283,6214,5705,0,6,4,10240,-1.00,-1.00,0.00,0.00,4284,6210,5700,0,0,0,63,100,0
4283,6214,5704,0,5,4,10240,-1.00,-1.00,0.00,0.00,4284,6210,5700,0,0,0,63,100,0
4283,6212,5702,0,4,3,10240,-1.00,-1.00,0.00,0.00,4284,6210,5700,0,0,0,63,100,0
4282,6210,5699,-1,2,2,10240,-1.00,-1.00,0.00,0.00,4284,6210,5700,0,0,0,63,100,0
4283,6210,5701,-1,1,1,10240,-1.00,-1.00,0.00,0.00,4284,6210,5700,0,0,0,63,100,0
4282,6208,5700,-1,0,0,10240,-1.00,-1.00,0.00,0.00,4284,6210,5700,0,0,0,63,100,0
4281,6208,5698,-2,-1,0,10240,-1.00,-1.00,0.00,0.00,4284,6210,5700,0,0,0,63,100,0
4281,6208,5700,-2,-1,0,10240,-1.00,-1.00,0.00,0.00,4283,6210,5700,0,0,0,63,100,0
4280,6208,5699,-2,-2,0,10240,-1.00,-1.00,0.00,0.00,4283,6210,5700,0,0,0,63,100,0
4280,6209,5699,-2,-1,-1,10240,-1.00,-1.00,0.00,0.00,4283,6210,5700,0,0,0,63,100,0
4280,6209,5699,-2,-1,0,10240,-1.00,-1.00,0.00,0.00,4283,6210,5700,0,0,0,63,100,0
4280,6209,5700,-3,-1,0,10240,-1.00,-1.00,0.00,0.00,4283,6210,5700,0,0,0,63,100,0
4281,6210,5699,-2,0,0,10240,-1.00,-1.00,0.00,0.00,4283,6210,5700,0,0,0,63,100,0
4282,6210,5700,-2,0,0,10240,-1.00,-1.00,0.00,0.00,4283,6210,5700,0,0,0,63,100,0
4282,6212,5703,-1,0,0,10240,-1.00,-1.00,0.00,0.00,4283,6210,5700,0,0,0,63,100,0
4282,6213,5703,-1,1,1,10240,-1.00,-1.00,0.00,0.00,4283,6210,5700,0,0,0,63,100,0
4283,6214,5704,0,2,2,10240,-1.00,-1.00,0.00,0.00,4283,6210,5700,0,0,0,63,100,0
4284,6215,5705,0,3,3,10240,-1.00,-1.00,0.00,0.00,4283,6210,5700,0,0,0,63,100,0
4284,6216,5704,0,4,3,10240,-1.00,-1.00,0.00,0.00,4283,6211,5701,0,0,0,63,100,0
4285,6218,5704,1,5,3,10240,-1.00,-1.00,0.00,0.00,4283,6211,5701,0,0,0,63,100,0
4285,6219,5705,1,6,3,10240,-1.00,-1.00,0.00,0.00,4283,6211,5701,0,0,0,63,100,0
4285,6219,5704,1,7,3,10240,-1.00,-1.00,0.00,0.00,4283,6211,5701,0,0,0,63,100,0
4287,6219,5706,2,7,3,10240,-1.00,-1.00,0.00,0.00,4283,6212,5701,0,0,0,63,100,0
4287,6221,5705,3,8,4,10240,-1.00,-1.00,0.00,0.00,4283,6212,5701,0,0,0,63,100,0
4287,6219,5702,3,7,3,10240,-1.00,-1.00,0.00,0.00,4284,6212,5701,0,0,0,63,100,0
4288,6218,5702,3,7,2,10240,-1.00,-1.00,0.00,0.00,4284,6212,5701,0,0,0,63,100,0
4288,6218,5701,3,6,1,10240,-1.00,-1.00,0.00,0.00,4284,6213,5701,0,0,0,63,100,0
4288,6219,5702,3,6,0,10240,-1.00,-1.00,0.00,0.00,4284,6213,5701,0,0,0,63,100,0
4286,6216,5700,3,5,0,10240,-1.00,-1.00,0.00,0.00,4284,6213,5701,0,0,0,63,100,0
4286,6214,5702,3,3,0,10240,-1.00,-1.00,0.00,0.00,4284,6213,5701,0,0,0,63,100,0
4287,6215,5702,2,3,0,10240,-1.00,-1.00,0.00,0.00,4284,6213,5701,0,0,0,63,100,0
4286,6216,5701,2,2,0,10240,-1.00,-1.00,0.00,0.00,4284,6213,5701,0,0,0,63,100,0
4286,6215,5702,2,2,0,10240,-1.00,-1.00,0.00,0.00,4284,6213,5701,0,0,0,63,100,0
4286,6218,5702,2,3,0,10240,-1.00,-1.00,0.00,0.00,4284,6213,5701,0,0,0,63,100,0
4286,6219,5702,2,3,0,10240,-1.00,-1.00,0.00,0.00,4284,6214,5701,0,0,0,63,100,0
4286,6220,5702,1,4,1,10240,-1.00,-1.00,0.00,0.00,4285,6214,5701,0,0,0,63,100,0
4286,6220,5703,1,5,1,10240,-1.00,-1.00,0.00,0.00,4285,6214,5701,0,0,0,63,100,0
4286,6219,5703,1,5,1,10240,-1.00,-1.00,0.00,0.00,4285,6214,5702,0,0,0,63,100,0
4287,6220,5703,1,5,1,10240,-1.00,-1.00,0.00,0.00,4285,6214,5702,0,0,0,63,100,0
4286,6218,5702,1,5,1,10240,-1.00,-1.00,0.00,0.00,4285,6214,5702,0,0,0,63,100,0
4286,6220,5705,1,5,1,10240,-1.00,-1.00,0.00,0.00,4285,6215,5702,0,0,0,63,100,0
4286,6220,5704,1,5,1,10240,-1.00,-1.00,0.00,0.00,4285,6215,5702,0,0,0,63,100,0
4286,6220,5705,1,4,2,10240,-1.00,-1.00,0.00,0.00,4285,6215,5702,0,0,0,63,100,0
4285,6221,5705,0,5,2,10240,-1.00,-1.00,0.00,0.00,4285,6215,5702,0,0,0,63,100,0
4286,6220,5706,0,5,3,10240,-1.00,-1.00,0.00,0.00,4285,6215,5702,0,0,0,63,100,0
4284,6218,5706,0,4,3,10240,-1.00,-1.00,0.00,0.00,4285,6215,5702,0,0,0,63,100,0
4284,6216,5704,0,3,3,10240,-1.00,-1.00,0.00,0.00,4285,6215,5702,0,0,0,63,100,0
4284,6216,5702,0,2,2,10240,-1.00,-1.00,0.00,0.00,4285,6216,5702,0,0,0,63,100,0
4285,6217,5700,0,1,1,10240,-1.00,-1.00,0.00,0.00,4285,6216,5702,0,0,0,63,100,0
4286,6216,5701,0,0,0,10240,-1.00,-1.00,0.00,0.00,4285,6216,5702,0,0,0,63,100,0
4284,6215,5700,0,0,-1,10240,-1.00,-1.00,0.00,0.00,4285,6216,5702,0,0,0,63,100,0
4284,6212,5700,0,0,-1,10240,-1.00,-1.00,0.00,0.00,4285,6215,5702,0,0,0,63,100,0
4284,6214,5698,0,-1,-2,10240,-1.00,-1.00,0.00,0.00,4285,6215,5702,0,0,0,63,100,0
4285,6215,5699,0,-1,-2,10240,-1.00,-1.00,0.00,0.00,4285,6215,5702,0,0,0,63,100,0
4285,6216,5703,0,0,-2,10240,-1.00,-1.00,0.00,0.00,4285,6215,5702,0,0,0,63,100,0
4284,6215,5702,0,0,-1,10240,-1.00,-1.00,0.00,0.00,4285,6215,5702,0,0,0,63,100,0
4285,6217,5702,0,0,0,10240,-1.00,-1.00,0.00,0.00,4285,6215,5702,0,0,0,63,100,0
4284,6216,5702,0,1,0,10240,-1.00,-1.00,0.00,0.00,4285,6215,5702,0,0,0,63,100,0
4284,6217,5703,0,1,0,10240,-1.00,-1.00,0.00,0.00,4285,6216,5702,0,0,0,63,100,0
4284,6216,5704,0,1,0,10240,-1.00,-1.00,0.00,0.00,4285,6216,5702,0,0,0,63,100,0
4283,6217,5703,-1,0,1,10240,-1.00,-1.00,0.00,0.00,4284,6216,5702,0,0,0,63,100,0
4282,6216,5703,-1,0,1,10240,-1.00,-1.00,0.00,0.00,4284,6216,5702,0,0,0,63,100,0
4283,6214,5706,-1,0,2,10240,-1.00,-1.00,0.00,0.00,4284,6216,5702,0,0,0,63,100,0
4280,6215,5706,-2,0,2,10240,-1.00,-1.00,0.00,0.00,4284,6215,5702,0,0,0,63,100,0
4280,6214,5706,-2,0,3,10240,-1.00,-1.00,0.00,0.00,4284,6215,5702,0,0,0,63,100,0
4279,6214,5704,-3,-1,3,10240,-1.00,-1.00,0.00,0.00,4284,6215,5702,0,0,0,63,100,0
4281,6215,5706,-4,0,3,10240,-1.00,-1.00,0.00,0.00,4284,6215,5703,0,0,0,63,100,0
4279,6215,5706,-4,0,3,10240,-1.00,-1.00,0.00,0.00,4284,6215,5703,0,0,0,63,100,0
4278,6213,5703,-4,0,2,10240,-1.00,-1.00,0.00,0.00,4283,6215,5703,0,0,0,63,100,0
4277,6211,5703,-4,-1,1,10240,-1.00,-1.00,0.00,0.00,4283,6215,5703,0,0,0,63,100,0
4278,6211,5705,-5,-2,1,10240,-1.00,-1.00,0.00,0.00,4283,6215,5703,0,0,0,63,100,0
4277,6210,5702,-5,-3,0,10240,-1.00,-1.00,0.00,0.00,4283,6215,5703,0,0,0,63,100,0
4279,6210,5700,-5,-4,0,10240,-1.00,-1.00,0.00,0.00,4283,6215,5703,0,0,0,63,100,0
4280,6211,5701,-4,-4,-1,10240,-1.00,-1.00,0.00,0.00,4283,6215,5703,0,0,0,63,100,0
4279,6211,5699,-4,-4,-2,10240,-1.00,-1.00,0.00,0.00,4283,6214,5702,0,0,0,63,100,0
4279,6211,5700,-3,-3,-2,10240,-1.00,-1.00,0.00,0.00,4282,6214,5702,0,0,0,63,100,0
4281,6212,5703,-2,-3,-1,10240,-1.00,-1.00,0.00,0.00,4282,6214,5702,0,0,0,63,100,0
4281,6214,5702,-2,-2,-1,10240,-1.00,-1.00,0.00,0.00,4282,6214,5702,0,0,0,63,100,0
4282,6217,5701,-1,0,0,10240,-1.00,-1.00,0.00,0.00,4282,6214,5702,0,0,0,63,100,0
4281,6215,5702,0,0,0,10240,-1.00,-1.00,0.00,0.00,4282,6214,5702,0,0,0,63,100,0
4283,6217,5703,0,1,0,10240,-1.00,-1.00,0.00,0.00,4282,6215,5702,0,0,0,63,100,0
4282,6216,5704,0,1,0,10240,-1.00,-1.00,0.00,0.00,4282,6215,5702,0,0,0,63,100,0
4282,6217,5704,0,1,1,10240,-1.00,-1.00,0.00,0.00,4282,6215,5703,0,0,0,63,100,0
4282,6218,5703,0,2,1,10240,-1.00,-1.00,0.00,0.00,4282,6215,5703,0,0,0,63,100,0
4282,6217,5706,0,2,1,10240,-1.00,-1.00,0.00,0.00,4282,6215,5703,0,0,0,63,100,0
4281,6216,5706,0,2,1,10240,-1.00,-1.00,0.00,0.00,4282,6215,5703,0,0,0,63,100,0
4282,6216,5707,0,1,2,10240,-1.00,-1.00,0.00,0.00,4282,6215,5703,0,0,0,63,100,0
4282,6217,5708,0,1,3,10240,-1.00,-1.00,0.00,0.00,4282,6215,5703,0,0,0,63,100,0
4281,6217,5707,0,1,4,10240,-1.00,-1.00,0.00,0.00,4282,6215,5703,0,0,0,63,100,0
4280,6218,5706,0,2,4,10240,-1.00,-1.00,0.00,0.00,4282,6215,5703,0,0,0,63,100,0
4281,6217,5706,-1,2,3,10240,-1.00,-1.00,0.00,0.00,4282,6215,5703,0,0,0,63,100,0
4279,6215,5704,-1,1,2,10240,-1.00,-1.00,0.00,0.00,4282,6215,5703,0,0,0,63,100,0
4280,6215,5703,-2,1,1,10240,-1.00,-1.00,0.00,0.00,4282,6215,5703,0,0,0,63,100,0
4280,6214,5703,-2,0,1,10240,-1.00,-1.00,0.00,0.00,4282,6215,5703,0,0,0,63,100,0
4279,6213,5700,-2,0,0,10240,-1.00,-1.00,0.00,0.00,4282,6215,5703,0,0,0,63,100,0
4279,6213,5701,-2,-1,-1,10240,-1.00,-1.00,0.00,0.00,4282,6215,5703,0,0,0,63,100,0
4277,6211,5698,-3,-2,-2,10240,-1.00,-1.00,0.00,0.00,4282,6215,5703,0,0,0,63,100,0
4279,6213,5702,-3,-2,-2,10240,-1.00,-1.00,0.00,0.00,4281,6215,5703,0,0,0,63,100,0
4279,6212,5701,-3,-2,-2,10240,-1.00,-1.00,0.00,0.00,4281,6215,5703,0,0,0,63,100,0
4280,6213,5702,-2,-2,-2,10240,-1.00,-1.00,0.00,0.00,4281,6215,5703,0,0,0,63,100,0
4279,6212,5701,-1,-2,-1,10240,-1.00,-1.00,0.00,0.00,4281,6215,5703,0,0,0,63,100,0
4280,6213,5703,-1,-2,-1,10240,-1.00,-1.00,0.00,0.00,4281,6214,5703,0,0,0,63,100,0
4279,6213,5703,-1,-1,0,10240,-1.00,-1.00,0.00,0.00,4281,6214,5703,0,0,0,63,100,0
4280,6213,5703,-1,-1,0,10240,-1.00,-1.00,0.00,0.00,4281,6214,5703,0,0,0,63,100,0
4280,6215,5705,-1,0,0,10240,-1.00,-1.00,0.00,0.00,4281,6214,5703,0,0,0,63,100,0
4280,6215,5705,-1,0,1,10240,-1.00,-1.00,0.00,0.00,4281,6214,5703,0,0,0,63,100,0
4280,6216,5705,-1,0,1,10240,-1.00,-1.00,0.00,0.00,4281,6215,5703,0,0,0,63,100,0
4278,6215,5703,-1,0,1,10240,-1.00,-1.00,0.00,0.00,4281,6215,5703,0,0,0,63,100,0
4279,6216,5704,-1,0,1,10240,-1.00,-1.00,0.00,0.00,4281,6215,5703,0,0,0,63,100,0
4278,6216,5704,-2,0,1,10240,-1.00,-1.00,0.00,0.00,4281,6215,5703,0,0,0,63,100,0
4279,6217,5707,-2,1,1,10240,-1.00,-1.00,0.00,0.00,4281,6215,5703,0,0,0,63,100,0
4278,6216,5707,-2,1,2,10240,-1.00,-1.00,0.00,0.00,4281,6215,5703,0,0,0,63,100,0
4279,6217,5706,-2,1,2,10240,-1.00,-1.00,0.00,0.00,4281,6215,5704,0,0,0,63,100,0
4278,6216,5705,-2,1,2,10240,-1.00,-1.00,0.00,0.00,4280,6215,5704,0,0,0,63,100,0
4278,6215,5704,-2,1,1,10240,-1.00,-1.00,0.00,0.00,4280,6215,5704,0,0,0,63,100,0
4278,6214,5703,-2,0,0,10240,-1.00,-1.00,0.00,0.00,4280,6215,5704,0,0,0,63,100,0
4278,6213,5703,-2,0,0,10240,-1.00,-1.00,0.00,0.00,4280,6215,5703,0,0,0,53,100,0
4277,6212,5701,-2,-1,0,10240,-1.00,-1.00,0.00,0.00,4280,6215,5703,0,0,0,53,100,0
4277,6211,5699,-2,-2,-1,10240,-1.00,-1.00,0.00,0.00,4280,6214,5703,0,0,0,53,100,0
4277,6211,5698,-2,-2,-2,10240,-1.00,-1.00,0.00,0.00,4280,6214,5703,0,0,0,53,100,0
4278,6213,5700,-2,-2,-3,10240,-1.00,-1.00,0.00,0.00,4280,6214,5703,0,0,0,53,100,0
4279,6216,5702,-2,-1,-3,10240,-1.00,-1.00,0.00,0.00,4280,6214,5703,0,0,0,53,100,0
4280,6216,5703,-1,0,-2,10240,-1.00,-1.00,0.00,0.00,4280,6214,5703,0,0,0,53,100,0
4280,6218,5704,0,1,0,10240,-1.00,-1.00,0.00,0.00,4280,6215,5703,0,0,0,53,100,0
4280,6217,5702,0,2,0,10240,-1.00,-1.00,0.00,0.00,4280,6215,5703,0,0,0,53,100,0
4282,6219,5705,0,2,0,10240,-1.00,-1.00,0.00,0.00,4280,6215,5703,0,0,0,53,100,0
4281,6219,5704,0,3,0,10240,-1.00,-1.00,0.00,0.00,4280,6215,5703,0,0,0,53,100,0
4282,6219,5706,1,3,1,10240,-1.00,-1.00,0.00,0.00,4280,6215,5703,0,0,0,99,100,0
4282,6221,5704,1,4,1,10240,-1.00,-1.00,0.00,0.00,4280,6215,5703,0,0,0,99,100,0
4282,6222,5704,1,5,1,10240,-1.00,-1.00,0.00,0.00,4280,6216,5703,0,0,0,99,100,0
4282,6222,5705,2,5,1,10240,-1.00,-1.00,0.00,0.00,4280,6216,5703,0,0,0,99,100,0
4282,6221,5706,2,5,1,10240,-1.00,-1.00,0.00,0.00,4280,6216,5703,0,0,0,99,100,0
4282,6222,5706,2,5,2,10240,-1.00,-1.00,0.00,0.00,4280,6216,5704,0,0,0,99,100,0
4282,6222,5706,2,5,2,10240,-1.00,-1.00,0.00,0.00,4280,6216,5704,0,0,0,99,100,0
4282,6224,5706,1,6,2,10240,-1.00,-1.00,0.00,0.00,4281,6217,5704,0,0,0,99,100,0
4282,6223,5706,1,6,2,10240,-1.00,-1.00,0.00,0.00,4281,6217,5704,0,0,0,99,100,0
4281,6224,5704,1,6,1,10240,-1.00,-1.00,0.00,0.00,4281,6217,5704,0,0,0,99,100,0
4283,6223,5703,1,6,0,10240,-1.00,-1.00,0.00,0.00,4281,6217,5704,0,0,0,99,100,0
4284,6223,5703,1,6,0,10240,-1.00,-1.00,0.00,0.00,4281,6217,5704,0,0,0,123,100,0
4283,6223,5701,1,6,-1,10240,-1.00,-1.00,0.00,0.00,4281,6218,5704,0,0,0,123,100,0
4284,6222,5704,2,5,-1,10240,-1.00,-1.00,0.00,0.00,4281,6218,5704,0,0,0,123,100,0
4284,6224,5701,2,5,-1,10240,-1.00,-1.00,0.00,0.00,4281,6218,5703,0,0,0,123,100,0
4286,6223,5704,3,5,-1,10240,-1.00,-1.00,0.00,0.00,4281,6218,5703,0,0,0,123,100,0
4285,6225,5704,3,5,0,10240,-1.00,-1.00,0.00,0.00,4281,6218,5704,0,0,0,123,100,0
4286,6224,5704,4,5,0,10240,-1.00,-1.00,0.00,0.00,4281,6219,5704,0,0,0,123,100,0
4287,6224,5703,4,5,0,10240,-1.00,-1.00,0.00,0.00,4282,6219,5703,0,0,0,123,100,0
4288,6225,5704,5,5,0,10240,-1.00,-1.00,0.00,0.00,4282,6219,5704,0,0,0,123,100,0
4288,6226,5705,5,5,0,10240,-1.00,-1.00,0.00,0.00,4282,6219,5704,0,0,0,123,100,0
4289,6227,5705,6,6,0,10240,-1.00,-1.00,0.00,0.00,4282,6219,5704,0,0,0,123,100,0
4289,6228,5705,6,7,0,10240,-1.00,-1.00,0.00,0.00,4283,6220,5704,0,0,0,123,100,0
4290,6229,5705,6,8,1,10240,-1.00,-1.00,0.00,0.00,4283,6220,5704,0,0,0,123,100,0
4290,6228,5705,6,8,1,10240,-1.00,-1.00,0.00,0.00,4283,6220,5704,0,0,0,123,100,0
4289,6227,5706,6,8,1,10240,-1.00,-1.00,0.00,0.00,4283,6220,5704,0,0,0,123,100,0
4291,6229,5707,7,8,1,10240,-1.00,-1.00,0.00,0.00,4283,6221,5704,0,0,0,123,100,0
4290,6228,5706,6,7,2,10240,-1.00,-1.00,0.00,0.00,4284,6221,5704,0,0,0,123,100,0
4289,6229,5706,6,7,2,10240,-1.00,-1.00,0.00,0.00,4284,6221,5704,0,0,0,123,100,0
4288,6229,5706,5,7,2,10240,-1.00,-1.00,0.00,0.00,4284,6222,5704,0,0,0,123,100,0
4289,6229,5706,5,7,2,10240,-1.00,-1.00,0.00,0.00,4284,6222,5704,0,0,0,123,100,0
4288,6227,5705,4,6,1,10240,-1.00,-1.00,0.00,0.00,4284,6222,5704,0,0,0,123,100,0
4288,6227,5705,4,6,1,10240,-1.00,-1.00,0.00,0.00,4284,6222,5704,0,0,0,123,100,0
4287,6226,5704,3,5,1,10240,-1.00,-1.00,0.00,0.00,4285,6222,5704,0,0,0,123,100,0
4288,6225,5704,3,4,0,10240,-1.00,-1.00,0.00,0.00,4285,6222,5704,0,0,0,123,100,0
4287,6227,5703,2,4,0,10240,-1.00,-1.00,0.00,0.00,4285,6223,5704,0,0,0,123,100,0
4288,6226,5703,2,3,0,10240,-1.00,-1.00,0.00,0.00,4285,6223,5704,0,0,0,123,100,0
4288,6228,5703,2,3,0,10240,-1.00,-1.00,0.00,0.00,4285,6223,5704,0,0,0,123,100,0
4287,6228,5703,2,4,-1,10240,-1.00,-1.00,0.00,0.00,4285,6223,5704,0,0,0,123,100,0
4288,6228,5704,2,4,0,10240,-1.00,-1.00,0.00,0.00,4285,6223,5704,0,0,0,123,100,0
4288,6228,5704,2,5,0,10240,-1.00,-1.00,0.00,0.00,4285,6223,5704,0,0,0,123,100,0
4289,6228,5703,3,5,0,10240,-1.00,-1.00,0.00,0.00,4285,6223,5704,0,0,0,123,100,0
4290,6229,5704,3,5,0,10240,-1.00,-1.00,0.00,0.00,4285,6224,5704,0,0,0,123,100,0
4291,6231,5704,4,5,0,10240,-1.00,-1.00,0.00,0.00,4286,6224,5704,0,0,0,123,100,0
4291,6230,5705,4,5,0,10240,-1.00,-1.00,0.00,0.00,4286,6224,5704,0,0,0,123,100,0
4291,6231,5705,5,6,0,10240,-1.00,-1.00,0.00,0.00,4286,6224,5704,0,0,0,123,100,0
4292,6231,5706,5,6,1,10240,-1.00,-1.00,0.00,0.00,4286,6225,5704,0,0,0,123,100,0
4292,6232,5706,5,6,1,10240,-1.00,-1.00,0.00,0.00,4286,6225,5704,0,0,0,123,100,0
4292,6233,5706,5,7,1,10240,-1.00,-1.00,0.00,0.00,4287,6225,5704,0,0,0,123,100,0
4291,6232,5706,5,7,2,10240,-1.00,-1.00,0.00,0.00,4287,6225,5704,0,0,0,123,100,0
4291,6233,5707,4,7,2,10240,-1.00,-1.00,0.00,0.00,4287,6226,5704,0,0,0,123,100,0
4292,6233,5706,4,7,2,10240,-1.00,-1.00,0.00,0.00,4287,6226,5705,0,0,0,123,100,0
4289,6233,5707,3,7,2,10240,-1.00,-1.00,0.00,0.00,4287,6226,5705,0,0,0,123,100,0
4290,6231,5706,3,6,1,10240,-1.00,-1.00,0.00,0.00,4287,6226,5705,0,0,0,123,100,0
4289,6229,5705,3,5,1,10240,-1.00,-1.00,0.00,0.00,4287,6226,5705,0,0,0,123,100,0
4288,6228,5705,2,4,0,10240,-1.00,-1.00,0.00,0.00,4287,6226,5705,0,0,0,123,100,0
4287,6228,5705,1,3,0,10240,-1.00,-1.00,0.00,0.00,4287,6226,5705,0,0,0,107,100,0
4287,6228,5704,0,2,0,10240,-1.00,-1.00,0.00,0.00,4287,6226,5705,0,0,0,107,100,0
4286,6227,5704,0,1,0,10240,-1.00,-1.00,0.00,0.00,4287,6227,5705,0,0,0,107,100,0
4286,6227,5704,0,1,0,10240,-1.00,-1.00,0.00,0.00,4287,6227,5705,0,0,0,107,100,0
4286,6227,5704,0,0,0,10240,-1.00,-1.00,0.00,0.00,4287,6227,5704,0,0,0,107,100,0
4284,6227,5703,-1,0,0,10240,-1.00,-1.00,0.00,0.00,4287,6227,5704,0,0,0,107,100,0
4285,6228,5703,-1,0,0,10240,-1.00,-1.00,0.00,0.00,4287,6227,5704,0,0,0,107,100,0
4287,6227,5705,-1,0,0,10240,-1.00,-1.00,0.00,0.00,4287,6227,5704,0,0,0,107,100,0
4286,6228,5705,-1,0,0,10240,-1.00,-1.00,0.00,0.00,4287,6227,5704,0,0,0,107,100,0
4286,6227,5705,-1,0,0,10240,-1.00,-1.00,0.00,0.00,4287,6227,5705,0,0,0,107,100,0
4286,6228,5705,0,0,0,10240,-1.00,-1.00,0.00,0.00,4287,6227,5705,0,0,0,107,100,0
4284,6227,5705,-1,0,0,10240,-1.00,-1.00,0.00,0.00,4287,6227,5705,0,0,0,107,100,0
4282,6227,5706,-2,0,0,10240,-1.00,-1.00,0.00,0.00,4287,6227,5705,0,0,0,107,100,0
4281,6226,5706,-3,0,0,10240,-1.00,-1.00,0.00,0.00,4286,6227,5705,0,0,0,107,100,0
4279,6226,5705,-5,0,0,10240,-1.00,-1.00,0.00,0.00,4286,6227,5705,0,0,0,107,100,0
4279,6226,5706,-6,0,0,10240,-1.00,-1.00,0.00,0.00,4286,6227,5705,0,0,0,107,100,0
4279,6227,5706,-6,0,0,10240,-1.00,-1.00,0.00,0.00,4286,6227,5705,0,0,0,107,100,0
4280,6226,5706,-6,0,0,10240,-1.00,-1.00,0.00,0.00,4286,6226,5705,0,0,0,107,100,0
4280,6226,5705,-6,0,0,10240,-1.00,-1.00,0.00,0.00,4285,6226,5705,0,0,0,107,100,0
4280,6228,5705,-5,0,0,10240,-1.00,-1.00,0.00,0.00,4285,6227,5705,0,0,0,107,100,0
4280,6226,5706,-5,0,0,10240,-1.00,-1.00,0.00,0.00,4285,6227,5705,0,0,0,107,100,0
4282,6225,5706,-4,0,0,10240,-1.00,-1.00,0.00,0.00,4285,6226,5705,0,0,0,107,100,0
4282,6226,5704,-4,0,0,10240,-1.00,-1.00,0.00,0.00,4285,6226,5705,0,0,0,107,100,0
4282,6226,5704,-3,0,0,10240,-1.00,-1.00,0.00,0.00,4285,6226,5705,0,0,0,107,100,0
4283,6227,5704,-2,0,0,10240,-1.00,-1.00,0.00,0.00,4285,6226,5705,0,0,0,107,100,0
4283,6226,5704,-2,0,-1,10240,-1.00,-1.00,0.00,0.00,4285,6226,5705,0,0,0,107,100,0
4284,6227,5703,-2,0,-1,10240,-1.00,-1.00,0.00,0.00,4285,6227,5705,0,0,0,107,100,0
4285,6226,5704,-1,0,-1,10240,-1.00,-1.00,0.00,0.00,4285,6226,5705,0,0,0,107,100,0
4283,6226,5705,-1,0,-1,10240,-1.00,-1.00,0.00,0.00,4284,6226,5705,0,0,0,107,100,0
4283,6228,5704,0,0,0,10240,-1.00,-1.00,0.00,0.00,4284,6227,5704,0,0,0,107,100,0
4283,6227,5704,0,0,0,10240,-1.00,-1.00,0.00,0.00,4284,6227,5704,0,0,0,107,100,0
4283,6228,5706,-1,0,0,10240,-1.00,-1.00,0.00,0.00,4284,6227,5705,0,0,0,107,100,0
4283,6228,5704,-1,0,0,10240,-1.00,-1.00,0.00,0.00,4284,6227,5705,0,0,0,107,100,0
4282,6228,5705,-1,0,0,10240,-1.00,-1.00,0.00,0.00,4284,6227,5705,0,0,0,107,100,0
4283,6228,5706,-1,1,0,10240,-1.00,-1.00,0.00,0.00,4284,6227,5705,0,0,0,107,100,0
4282,6228,5706,-1,1,0,10240,-1.00,-1.00,0.00,0.00,4284,6227,5705,0,0,0,107,100,0
4280,6228,5704,-2,1,0,10240,-1.00,-1.00,0.00,0.00,4284,6227,5705,0,0,0,107,100,0
4282,6227,5707,-2,0,0,10240,-1.00,-1.00,0.00,0.00,4284,6227,5705,0,0,0,107,100,0
4281,6229,5706,-2,1,0,10240,-1.00,-1.00,0.00,0.00,4284,6227,5705,0,0,0,107,100,0
4280,6229,5706,-3,1,0,10240,-1.00,-1.00,0.00,0.00,4284,6227,5705,0,0,0,97,100,0
4282,6229,5707,-2,1,1,10240,-1.00,-1.00,0.00,0.00,4284,6227,5705,0,0,0,97,100,0
4280,6228,5707,-3,1,1,10240,-1.00,-1.00,0.00,0.00,4284,6227,5705,0,0,0,97,100,0
4280,6228,5706,-3,1,1,10240,-1.00,-1.00,0.00,0.00,4283,6227,5705,0,0,0,97,100,0
4281,6228,5706,-2,1,1,10240,-1.00,-1.00,0.00,0.00,4283,6227,5705,0,0,0,97,100,0
4281,6228,5705,-2,1,1,10240,-1.00,-1.00,0.00,0.00,4283,6227,5705,0,0,0,97,100,0
4281,6229,5704,-2,1,0,10240,-1.00,-1.00,0.00,0.00,4283,6227,5705,0,0,0,97,100,0
4281,6228,5705,-2,1,0,10240,-1.00,-1.00,0.00,0.00,4283,6227,5705,0,0,0,97,100,0
4281,6226,5705,-2,0,0,10240,-1.00,-1.00,0.00,0.00,4283,6227,5705,0,0,0,97,100,0
4280,6227,5703,-2,0,0,10240,-1.00,-1.00,0.00,0.00,4283,6227,5705,0,0,0,97,100,0
4281,6227,5704,-2,0,0,10240,-1.00,-1.00,0.00,0.00,4283,6227,5705,0,0,0,97,100,0
4284,6228,5705,-1,0,0,10240,-1.00,-1.00,0.00,0.00,4283,6227,5705,0,0,0,97,100,0
4283,6228,5704,-1,0,-1,10240,-1.00,-1.00,0.00,0.00,4283,6227,5705,0,0,0,97,100,0
4284,6228,5705,0,0,0,10240,-1.00,-1.00,0.00,0.00,4283,6227,5705,0,0,0,97,100,0
4283,6229,5705,0,1,0,10240,-1.00,-1.00,0.00,0.00,4283,6227,5705,0,0,0,97,100,0
4283,6230,5704,0,1,0,10240,-1.00,-1.00,0.00,0.00,4283,6227,5705,0,0,0,97,100,0
4285,6231,5706,0,2,0,10240,-1.00,-1.00,0.00,0.00,4283,6228,5705,0,0,0,97,100,0
4286,6231,5706,1,2,0,10240,-1.00,-1.00,0.00,0.00,4283,6228,5705,0,0,0,97,100,0
4287,6233,5705,2,3,0,10240,-1.00,-1.00,0.00,0.00,4283,6228,5705,0,0,0,97,100,0
4286,6232,5707,3,3,1,10240,-1.00,-1.00,0.00,0.00,4283,6228,5705,0,0,0,97,100,0
4285,6232,5706,3,4,1,10240,-1.00,-1.00,0.00,0.00,4283,6228,5705,0,0,0,97,100,0
4285,6232,5708,2,4,1,10240,-1.00,-1.00,0.00,0.00,4284,6228,5705,0,0,0,97,100,0
4285,6233,5707,1,4,2,10240,-1.00,-1.00,0.00,0.00,4284,6228,5705,0,0,0,97,100,0
4284,6231,5707,1,4,2,10240,-1.00,-1.00,0.00,0.00,4284,6228,5705,0,0,0,97,100,0
4283,6233,5708,0,4,2,10240,-1.00,-1.00,0.00,0.00,4284,6229,5705,0,0,0,97,100,0
4285,6233,5707,0,4,2,10240,-1.00,-1.00,0.00,0.00,4284,6229,5705,0,0,0,97,100,0
4282,6231,5707,0,3,2,10240,-1.00,-1.00,0.00,0.00,4283,6229,5705,0,0,0,97,100,0
4283,6229,5705,0,2,1,10240,-1.00,-1.00,0.00,0.00,4283,6229,5705,0,0,0,97,100,0
4283,6230,5705,0,1,1,10240,-1.00,-1.00,0.00,0.00,4283,6229,5705,0,0,0,97,100,0
4283,6230,5705,0,1,0,10240,-1.00,-1.00,0.00,0.00,4283,6229,5705,0,0,0,97,100,0
4283,6229,5704,0,0,0,10240,-1.00,-1.00,0.00,0.00,4283,6229,5705,0,0,0,97,100,0
4284,6230,5704,0,0,0,10240,-1.00,-1.00,0.00,0.00,4284,6229,5705,0,0,0,97,100,0
4284,6228,5705,0,0,0,10240,-1.00,-1.00,0.00,0.00,4284,6229,5705,0,0,0,97,100,0
4285,6229,5705,0,0,0,10240,-1.00,-1.00,0.00,0.00,4284,6229,5705,0,0,0,97,100,0
4284,6230,5704,0,0,0,10240,-1.00,-1.00,0.00,0.00,4284,6229,5705,0,0,0,97,100,0
4284,6230,5705,0,0,0,10240,-1.00,-1.00,0.00,0.00,4284,6229,5705,0,0,0,97,100,0
4284,6230,5705,0,0,0,10240,-1.00,-1.00,0.00,0.00,4284,6229,5705,0,0,0,97,100,0
4285,6231,5705,0,1,0,10240,-1.00,-1.00,0.00,0.00,4284,6229,5705,0,0,0,97,100,0
4285,6232,5706,0,1,0,10240,-1.00,-1.00,0.00,0.00,4284,6229,5705,0,0,0,97,100,0
4284,6231,5706,0,2,0,10240,-1.00,-1.00,0.00,0.00,4284,6229,5705,0,0,0,97,100,0
4285,6233,5706,0,2,0,10240,-1.00,-1.00,0.00,0.00,4284,6229,5705,0,0,0,97,100,0
4285,6233,5706,0,3,1,10240,-1.00,-1.00,0.00,0.00,4284,6230,5705,0,0,0,97,100,0
4284,6233,5707,0,3,1,10240,-1.00,-1.00,0.00,0.00,4284,6230,5705,0,0,0,97,100,0
4285,6235,5708,0,3,1,10240,-1.00,-1.00,0.00,0.00,4284,6230,5706,0,0,0,97,100,0
4285,6233,5707,0,3,1,10240,-1.00,-1.00,0.00,0.00,4284,6230,5706,0,0,0,97,100,0
4285,6236,5709,0,4,2,10240,-1.00,-1.00,0.00,0.00,4284,6230,5706,0,0,0,97,100,0
4283,6235,5707,0,4,1,10240,-1.00,-1.00,0.00,0.00,4284,6230,5706,0,0,0,97,100,0
4285,6235,5709,0,4,2,10240,-1.00,-1.00,0.00,0.00,4284,6230,5706,0,0,0,97,100,0
4285,6235,5709,0,5,2,10240,-1.00,-1.00,0.00,0.00,4284,6231,5706,0,0,0,97,100,0
4285,6234,5707,0,4,2,10240,-1.00,-1.00,0.00,0.00,4284,6231,5706,0,0,0,97,100,0
4284,6232,5706,0,3,1,10240,-1.00,-1.00,0.00,0.00,4284,6231,5706,0,0,0,97,100,0
4285,6231,5705,0,2,0,10240,-1.00,-1.00,0.00,0.00,4284,6231,5706,0,0,0,97,100,0
4285,6232,5705,0,1,0,10240,-1.00,-1.00,0.00,0.00,4284,6231,5706,0,0,0,97,100,0
4285,6232,5706,0,0,0,10240,-1.00,-1.00,0.00,0.00,4284,6231,5706,0,0,0,97,100,0
4285,6232,5705,1,0,0,10240,-1.00,-1.00,0.00,0.00,4284,6231,5706,0,0,0,97,100,0
4284,6231,5705,0,0,0,10240,-1.00,-1.00,0.00,0.00,4284,6231,5706,0,0,0,97,100,0
4284,6231,5704,0,0,-1,10240,-1.00,-1.00,0.00,0.00,4284,6231,5706,0,0,0,97,100,0
4283,6231,5705,0,0,-1,10240,-1.00,-1.00,0.00,0.00,4284,6231,5706,0,0,0,97,100,0
4284,6232,5706,0,0,-1,10240,-1.00,-1.00,0.00,0.00,4284,6231,5706,0,0,0,97,100,0
4282,6231,5706,0,0,0,10240,-1.00,-1.00,0.00,0.00,4284,6231,5706,0,0,0,97,100,0
4281,6231,5706,-1,0,0,10240,-1.00,-1.00,0.00,0.00,4284,6231,5706,0,0,0,97,100,0
4280,6230,5705,-2,0,0,10240,-1.00,-1.00,0.00,0.00,4284,6231,5706,0,0,0,97,100,0
4280,6231,5707,-3,0,0,10240,-1.00,-1.00,0.00,0.00,4284,6231,5706,0,0,0,97,100,0
4281,6231,5706,-3,0,0,10240,-1.00,-1.00,0.00,0.00,4283,6231,5706,0,0,0,97,100,0
4281,6231,5707,-3,0,0,10240,-1.00,-1.00,0.00,0.00,4283,6231,5706,0,0,0,97,100,0
4282,6234,5709,-2,0,1,10240,-1.00,-1.00,0.00,0.00,4283,6231,5706,0,0,0,97,100,0
4281,6234,5707,-1,1,1,10240,-1.00,-1.00,0.00,0.00,4283,6231,5706,0,0,0,97,100,0
4283,6234,5708,-1,2,1,10240,-1.00,-1.00,0.00,0.00,4283,6231,5706,0,0,0,97,100,0
4283,6236,5709,0,3,2,10240,-1.00,-1.00,0.00,0.00,4283,6231,5706,0,0,0,97,100,0
4284,6234,5709,0,3,2,10240,-1.00,-1.00,0.00,0.00,4283,6231,5706,0,0,0,97,100,0
4283,6236,5709,0,3,2,10240,-1.00,-1.00,0.00,0.00,4283,6232,5706,0,0,0,97,100,0
4284,6236,5709,0,4,3,10240,-1.00,-1.00,0.00,0.00,4283,6232,5706,0,0,0,97,100,0
4285,6237,5709,1,4,3,10240,-1.00,-1.00,0.00,0.00,4283,6232,5706,0,0,0,97,100,0
4286,6236,5707,1,4,2,10240,-1.00,-1.00,0.00,0.00,4283,6232,5706,0,0,0,97,100,0
4286,6236,5706,2,4,1,10240,-1.00,-1.00,0.00,0.00,4284,6232,5706,0,0,0,97,100,0
4291,6240,5708,3,5,1,10240,-1.00,-1.00,0.00,0.00,4284,6232,5707,0,0,0,97,100,0
4290,6240,5708,4,5,0,10240,-1.00,-1.00,0.00,0.00,4284,6233,5707,0,0,0,97,100,0
4291,6239,5708,5,6,0,10240,-1.00,-1.00,0.00,0.00,4284,6233,5707,0,0,0,97,100,0
4291,6239,5707,6,6,0,10240,-1.00,-1.00,0.00,0.00,4284,6233,5707,0,0,0,97,100,0
4291,6239,5708,6,6,0,10240,-1.00,-1.00,0.00,0.00,4285,6233,5707,0,0,0,97,100,0
4292,6241,5709,6,6,1,10240,-1.00,-1.00,0.00,0.00,4285,6234,5707,0,0,0,97,100,0
4290,6240,5709,6,6,1,10240,-1.00,-1.00,0.00,0.00,4285,6234,5707,0,0,0,97,100,0
4290,6239,5708,5,6,1,10240,-1.00,-1.00,0.00,0.00,4285,6234,5707,0,0,0,97,100,0
4289,6239,5708,5,5,1,10240,-1.00,-1.00,0.00,0.00,4285,6234,5707,0,0,0,97,100,0
4292,6244,5711,5,6,2,10240,-1.00,-1.00,0.00,0.00,4286,6234,5707,0,0,0,97,100,0
4292,6243,5711,5,7,2,10240,-1.00,-1.00,0.00,0.00,4286,6235,5707,0,0,0,97,100,0
4291,6242,5710,5,7,3,10240,-1.00,-1.00,0.00,0.00,4286,6235,5707,0,0,0,97,100,0
4291,6242,5711,5,8,3,10240,-1.00,-1.00,0.00,0.00,4286,6235,5707,0,0,0,97,100,0
4290,6242,5711,5,7,3,10240,-1.00,-1.00,0.00,0.00,4286,6235,5707,0,0,0,97,100,0
4289,6241,5711,4,6,3,10240,-1.00,-1.00,0.00,0.00,4286,6236,5708,0,0,0,97,100,0
4288,6241,5711,3,6,3,10240,-1.00,-1.00,0.00,0.00,4286,6236,5708,0,0,0,97,100,0
4286,6240,5711,2,5,3,10240,-1.00,-1.00,0.00,0.00,4286,6236,5708,0,0,0,97,100,0
4285,6240,5712,1,4,3,10240,-1.00,-1.00,0.00,0.00,4286,6236,5708,0,0,0,97,100,0
4286,6240,5711,0,4,3,10240,-1.00,-1.00,0.00,0.00,4286,6236,5708,0,0,0,97,100,0
4286,6240,5712,0,4,3,10240,-1.00,-1.00,0.00,0.00,4286,6236,5708,0,0,0,97,100,0
4285,6238,5710,0,3,3,10240,-1.00,-1.00,0.00,0.00,4286,6236,5708,0,0,0,97,100,0
4283,6236,5706,-1,2,1,10240,-1.00,-1.00,0.00,0.00,4286,6236,5708,0,0,0,97,100,0
4283,6233,5706,-1,0,0,10240,-1.00,-1.00,0.00,0.00,4286,6236,5708,0,0,0,97,100,0
4283,6233,5706,-2,-1,-1,10240,-1.00,-1.00,0.00,0.00,4286,6236,5708,0,0,0,97,100,0
4282,6230,5704,-3,-3,-2,10240,-1.00,-1.00,0.00,0.00,4286,6236,5708,0,0,0,97,100,0
4281,6230,5705,-3,-4,-2,10240,-1.00,-1.00,0.00,0.00,4286,6236,5708,0,0,0,97,100,0
4281,6231,5704,-4,-5,-3,10240,-1.00,-1.00,0.00,0.00,4286,6236,5708,0,0,0,97,100,0
4283,6233,5705,-4,-4,-3,10240,-1.00,-1.00,0.00,0.00,4286,6235,5708,0,0,0,97,100,0
4283,6234,5706,-3,-3,-2,10240,-1.00,-1.00,0.00,0.00,4285,6235,5707,0,0,0,97,100,0
4283,6234,5706,-3,-2,-2,10240,-1.00,-1.00,0.00,0.00,4285,6235,5707,0,0,0,97,100,0
4283,6233,5705,-2,-1,-1,10240,-1.00,-1.00,0.00,0.00,4285,6235,5707,0,0,0,97,100,0
4283,6234,5706,-2,-1,-1,10240,-1.00,-1.00,0.00,0.00,4285,6235,5707,0,0,0,97,100,0
4283,6235,5707,-2,-1,-1,10240,-1.00,-1.00,0.00,0.00,4285,6235,5707,0,0,0,97,100,0
4284,6236,5709,-1,0,0,10240,-1.00,-1.00,0.00,0.00,4285,6235,5707,0,0,0,97,100,0
4285,6238,5709,-1,0,0,10240,-1.00,-1.00,0.00,0.00,4285,6235,5707,0,0,0,97,100,0
4285,6237,5710,0,1,1,10240,-1.00,-1.00,0.00,0.00,4285,6236,5708,0,0,0,97,100,0
4285,6238,5711,0,1,2,10240,-1.00,-1.00,0.00,0.00,4285,6236,5708,0,0,0,97,100,0
4285,6240,5711,0,2,2,10240,-1.00,-1.00,0.00,0.00,4285,6236,5708,0,0,0,97,100,0
4286,6240,5712,0,2,3,10240,-1.00,-1.00,0.00,0.00,4285,6236,5708,0,0,0,97,100,0
4284,6239,5712,0,3,3,10240,-1.00,-1.00,0.00,0.00,4285,6236,5708,0,0,0,97,100,0
4285,6240,5712,0,3,3,10240,-1.00,-1.00,0.00,0.00,4285,6236,5708,0,0,0,97,100,0
4285,6240,5712,0,3,4,10240,-1.00,-1.00,0.00,0.00,4285,6236,5708,0,0,0,97,100,0
4284,6240,5711,0,3,3,10240,-1.00,-1.00,0.00,0.00,4285,6236,5708,0,0,0,97,100,0
4286,6240,5711,0,4,3,10240,-1.00,-1.00,0.00,0.00,4285,6236,5709,0,0,0,97,100,0
4290,6241,5711,1,4,2,10240,-1.00,-1.00,0.00,0.00,4285,6237,5709,0,0,0,97,100,0
4289,6239,5708,2,3,1,10240,-1.00,-1.00,0.00,0.00,4285,6237,5709,0,0,0,97,100,0
4289,6240,5707,3,3,0,10240,-1.00,-1.00,0.00,0.00,4286,6237,5708,0,0,0,97,100,0
4290,6240,5708,4,3,0,10240,-1.00,-1.00,0.00,0.00,4286,6237,5708,0,0,0,97,100,0
4290,6239,5707,3,2,0,10240,-1.00,-1.00,0.00,0.00,4286,6237,5708,0,0,0,97,100,0
4291,6240,5707,4,2,0,10240,-1.00,-1.00,0.00,0.00,4286,6237,5708,0,0,0,97,100,0
4291,6241,5710,4,3,0,10240,-1.00,-1.00,0.00,0.00,4286,6237,5708,0,0,0,97,100,0
4291,6242,5709,4,3,0,10240,-1.00,-1.00,0.00,0.00,4286,6237,5709,0,0,0,97,100,0
4291,6242,5710,4,4,0,10240,-1.00,-1.00,0.00,0.00,4287,6238,5709,0,0,0,97,100,0
4292,6244,5710,4,4,1,10240,-1.00,-1.00,0.00,0.00,4287,6238,5709,0,0,0,97,100,0
4293,6247,5710,5,6,0,10240,-1.00,-1.00,0.00,0.00,4287,6238,5709,0,0,0,97,100,0
4292,6246,5711,5,6,1,10240,-1.00,-1.00,0.00,0.00,4287,6238,5709,0,0,0,97,100,0
4293,6248,5712,5,8,1,10240,-1.00,-1.00,0.00,0.00,4287,6239,5709,0,0,0,97,100,0
4293,6249,5712,5,9,2,10240,-1.00,-1.00,0.00,0.00,4287,6239,5709,0,0,0,97,100,0
4293,6250,5713,5,9,3,10240,-1.00,-1.00,0.00,0.00,4288,6239,5709,0,0,0,97,100,0
4292,6249,5713,5,9,3,10240,-1.00,-1.00,0.00,0.00,4288,6240,5709,0,0,0,97,100,0
4293,6251,5714,5,10,4,10240,-1.00,-1.00,0.00,0.00,4288,6240,5709,0,0,0,97,100,0
4292,6250,5715,4,10,4,10240,-1.00,-1.00,0.00,0.00,4288,6240,5710,0,0,0,97,100,0
4293,6251,5715,4,10,4,10240,-1.00,-1.00,0.00,0.00,4288,6241,5710,0,0,0,97,100,0
4292,6250,5715,4,10,5,10240,-1.00,-1.00,0.00,0.00,4288,6241,5710,0,0,0,97,100,0
4293,6251,5716,4,9,5,10240,-1.00,-1.00,0.00,0.00,4289,6241,5710,0,0,0,97,100,0
4294,6252,5715,4,9,5,10240,-1.00,-1.00,0.00,0.00,4289,6242,5710,0,0,0,97,100,0
4293,6253,5714,4,10,5,10240,-1.00,-1.00,0.00,0.00,4289,6242,5710,0,0,0,97,100,0
4293,6249,5713,4,9,4,10240,-1.00,-1.00,0.00,0.00,4289,6242,5710,0,0,0,97,100,0
4292,6248,5713,4,8,3,10240,-1.00,-1.00,0.00,0.00,4289,6243,5711,0,0,0,97,100,0
4292,6245,5711,3,6,2,10240,-1.00,-1.00,0.00,0.00,4289,6243,5711,0,0,0,97,100,0
4292,6245,5710,3,4,1,10240,-1.00,-1.00,0.00,0.00,4289,6243,5711,0,0,0,97,100,0
4292,6245,5709,3,2,0,10240,-1.00,-1.00,0.00,0.00,4289,6243,5710,0,0,0,97,100,0
4291,6243,5708,2,1,-1,10240,-1.00,-1.00,0.00,0.00,4289,6243,5710,0,0,0,97,100,0
4291,6244,5709,2,1,-1,10240,-1.00,-1.00,0.00,0.00,4290,6243,5710,0,0,0,97,100,0
4291,6245,5710,1,1,-1,10240,-1.00,-1.00,0.00,0.00,4290,6243,5710,0,0,0,97,100,0
4290,6246,5709,1,1,-1,10240,-1.00,-1.00,0.00,0.00,4290,6243,5710,0,0,0,97,100,0
4291,6245,5711,0,2,0,10240,-1.00,-1.00,0.00,0.00,4290,6243,5710,0,0,0,97,100,0
4289,6244,5710,0,2,0,10240,-1.00,-1.00,0.00,0.00,4290,6243,5710,0,0,0,97,100,0
4290,6246,5712,0,2,0,10240,-1.00,-1.00,0.00,0.00,4290,6243,5710,0,0,0,97,100,0
4291,6249,5711,0,3,1,10240,-1.00,-1.00,0.00,0.00,4290,6243,5710,0,0,0,97,100,0
4294,6252,5712,1,4,1,10240,-1.00,-1.00,0.00,0.00,4290,6244,5711,0,0,0,97,100,0
4294,6252,5712,2,6,1,10240,-1.00,-1.00,0.00,0.00,4290,6244,5711,0,0,0,97,100,0
4293,6251,5713,3,7,1,10240,-1.00,-1.00,0.00,0.00,4290,6244,5711,0,0,0,97,100,0
4292,6250,5712,3,7,1,10240,-1.00,-1.00,0.00,0.00,4290,6244,5711,0,0,0,97,100,0
4288,6247,5712,1,6,1,10240,-1.00,-1.00,0.00,0.00,4290,6244,5711,0,0,0,97,100,0
4287,6246,5713,0,4,1,10240,-1.00,-1.00,0.00,0.00,4290,6245,5711,0,0,0,97,100,0
4284,6243,5711,-2,2,1,10240,-1.00,-1.00,0.00,0.00,4290,6244,5711,0,0,0,97,100,0
4283,6244,5713,-4,0,1,10240,-1.00,-1.00,0.00,0.00,4289,6244,5711,0,0,0,97,100,0
4284,6244,5714,-5,0,1,10240,-1.00,-1.00,0.00,0.00,4289,6244,5711,0,0,0,97,100,0
4284,6246,5713,-5,0,1,10240,-1.00,-1.00,0.00,0.00,4289,6245,5711,0,0,0,97,100,0
4284,6244,5711,-5,0,1,10240,-1.00,-1.00,0.00,0.00,4289,6244,5711,0,0,0,97,100,0
4284,6243,5709,-5,0,0,10240,-1.00,-1.00,0.00,0.00,4289,6244,5711,0,0,0,97,100,0
4286,6242,5708,-4,0,0,10240,-1.00,-1.00,0.00,0.00,4289,6244,5711,0,0,0,97,100,0
4286,6239,5707,-4,-2,-2,10240,-1.00,-1.00,0.00,0.00,4289,6244,5711,0,0,0,97,100,0
4286,6240,5708,-3,-3,-3,10240,-1.00,-1.00,0.00,0.00,4288,6244,5711,0,0,0,97,100,0
4288,6242,5708,-2,-3,-3,10240,-1.00,-1.00,0.00,0.00,4288,6244,5710,0,0,0,97,100,0
4288,6242,5707,-1,-3,-3,10240,-1.00,-1.00,0.00,0.00,4288,6244,5710,0,0,0,97,100,0
4289,6244,5708,0,-2,-2,10240,-1.00,-1.00,0.00,0.00,4288,6244,5710,0,0,0,97,100,0
4291,6247,5711,0,0,-1,10240,-1.00,-1.00,0.00,0.00,4289,6244,5710,0,0,0,97,100,0
4291,6249,5710,1,1,-1,10240,-1.00,-1.00,0.00,0.00,4289,6244,5710,0,0,0,97,100,0
4293,6251,5711,2,3,0,10240,-1.00,-1.00,0.00,0.00,4289,6244,5710,0,0,0,97,100,0
4293,6249,5709,3,4,0,10240,-1.00,-1.00,0.00,0.00,4289,6245,5710,0,0,0,97,100,0
4293,6249,5711,3,5,0,10240,-1.00,-1.00,0.00,0.00,4289,6245,5710,0,0,0,97,100,0
4294,6253,5713,4,5,1,10240,-1.00,-1.00,0.00,0.00,4289,6245,5710,0,0,0,97,100,0
4294,6253,5714,4,6,1,10240,-1.00,-1.00,0.00,0.00,4289,6245,5711,0,0,0,97,100,0
4294,6253,5713,4,6,2,10240,-1.00,-1.00,0.00,0.00,4290,6246,5711,0,0,0,97,100,0
4294,6253,5714,4,7,2,10240,-1.00,-1.00,0.00,0.00,4290,6246,5711,0,0,0,97,100,0
4294,6251,5713,4,6,2,10240,-1.00,-1.00,0.00,0.00,4290,6246,5711,0,0,0,97,100,0
4294,6255,5714,4,7,2,10240,-1.00,-1.00,0.00,0.00,4290,6246,5711,0,0,0,97,100,0
4296,6255,5715,4,7,3,10240,-1.00,-1.00,0.00,0.00,4290,6247,5711,0,0,0,97,100,0
4294,6255,5714,4,7,3,10240,-1.00,-1.00,0.00,0.00,4290,6247,5711,0,0,0,97,100,0
4294,6254,5715,4,8,3,10240,-1.00,-1.00,0.00,0.00,4290,6247,5711,0,0,0,97,100,0
4294,6254,5714,4,7,3,10240,-1.00,-1.00,0.00,0.00,4291,6247,5711,0,0,0,97,100,0
4294,6254,5714,3,7,3,10240,-1.00,-1.00,0.00,0.00,4291,6248,5712,0,0,0,97,100,0
4296,6255,5713,3,6,2,10240,-1.00,-1.00,0.00,0.00,4291,6248,5712,0,0,0,97,100,0
4296,6255,5712,4,6,1,10240,-1.00,-1.00,0.00,0.00,4291,6248,5712,0,0,0,97,100,0
4297,6254,5712,4,6,0,10240,-1.00,-1.00,0.00,0.00,4291,6248,5712,0,0,0,97,100,0
4295,6254,5711,5,6,0,10240,-1.00,-1.00,0.00,0.00,4291,6248,5712,0,0,0,97,100,0
4295,6253,5711,4,5,0,10240,-1.00,-1.00,0.00,0.00,4291,6249,5711,0,0,0,97,100,0
4295,6252,5711,4,4,0,10240,-1.00,-1.00,0.00,0.00,4292,6249,5711,0,0,0,97,100,0
4297,6255,5712,4,4,0,10240,-1.00,-1.00,0.00,0.00,4292,6249,5712,0,0,0,97,100,0
4297,6254,5712,4,4,0,10240,-1.00,-1.00,0.00,0.00,4292,6249,5712,0,0,0,97,100,0
4298,6254,5712,4,4,0,10240,-1.00,-1.00,0.00,0.00,4292,6249,5712,0,0,0,97,100,0
4299,6256,5712,5,5,0,10240,-1.00,-1.00,0.00,0.00,4292,6249,5712,0,0,0,97,100,0
4299,6255,5712,6,5,0,10240,-1.00,-1.00,0.00,0.00,4293,6250,5712,0,0,0,97,100,0
4301,6255,5713,6,5,0,10240,-1.00,-1.00,0.00,0.00,4293,6250,5712,0,0,0,97,100,0
4299,6256,5712,6,5,0,10240,-1.00,-1.00,0.00,0.00,4293,6250,5712,0,0,0,97,100,0
4301,6256,5714,7,5,0,10240,-1.00,-1.00,0.00,0.00,4293,6250,5712,0,0,0,97,100,0
4300,6256,5714,7,5,1,10240,-1.00,-1.00,0.00,0.00,4294,6250,5712,0,0,0,97,100,0
4300,6255,5714,6,5,1,10240,-1.00,-1.00,0.00,0.00,4294,6251,5712,0,0,0,97,100,0
4300,6255,5716,6,5,2,10240,-1.00,-1.00,0.00,0.00,4294,6251,5712,0,0,0,97,100,0
4299,6256,5715,5,4,2,10240,-1.00,-1.00,0.00,0.00,4294,6251,5712,0,0,0,97,100,0
4300,6257,5715,5,4,3,10240,-1.00,-1.00,0.00,0.00,4294,6251,5712,0,0,0,97,100,0
4301,6257,5715,5,5,3,10240,-1.00,-1.00,0.00,0.00,4295,6251,5712,0,0,0,97,100,0
4301,6257,5717,5,5,3,10240,-1.00,-1.00,0.00,0.00,4295,6251,5712,0,0,0,97,100,0
4302,6257,5718,6,5,4,10240,-1.00,-1.00,0.00,0.00,4295,6252,5713,0,0,0,97,100,0
4302,6259,5719,6,6,4,10240,-1.00,-1.00,0.00,0.00,4295,6252,5713,0,0,0,97,100,0
4302,6258,5717,6,6,5,10240,-1.00,-1.00,0.00,0.00,4295,6252,5713,0,0,0,97,100,0
4303,6257,5716,7,5,4,10240,-1.00,-1.00,0.00,0.00,4296,6252,5713,0,0,0,97,100,0
4301,6256,5714,6,5,3,10240,-1.00,-1.00,0.00,0.00,4296,6252,5713,0,0,0,97,100,0
4301,6255,5714,6,4,2,10240,-1.00,-1.00,0.00,0.00,4296,6252,5713,0,0,0,97,100,0
4302,6255,5714,5,3,1,10240,-1.00,-1.00,0.00,0.00,4296,6253,5713,0,0,0,97,100,0
4300,6255,5713,5,2,0,10240,-1.00,-1.00,0.00,0.00,4296,6253,5713,0,0,0,97,100,0
4300,6255,5713,4,2,0,10240,-1.00,-1.00,0.00,0.00,4297,6253,5713,0,0,0,97,100,0
4300,6256,5712,4,2,0,10240,-1.00,-1.00,0.00,0.00,4297,6253,5713,0,0,0,97,100,0
4301,6255,5714,3,2,0,10240,-1.00,-1.00,0.00,0.00,4297,6253,5713,0,0,0,97,100,0
4301,6255,5713,3,2,0,10240,-1.00,-1.00,0.00,0.00,4297,6253,5713,0,0,0,97,100,0
4301,6256,5714,3,2,0,10240,-1.00,-1.00,0.00,0.00,4297,6253,5713,0,0,0,97,100,0
4301,6256,5713,4,2,0,10240,-1.00,-1.00,0.00,0.00,4297,6253,5713,0,0,0,97,100,0
4299,6256,5713,3,2,0,10240,-1.00,-1.00,0.00,0.00,4297,6253,5713,0,0,0,97,100,0
4301,6256,5714,3,3,0,10240,-1.00,-1.00,0.00,0.00,4297,6253,5713,0,0,0,97,100,0
4301,6258,5715,3,3,0,10240,-1.00,-1.00,0.00,0.00,4297,6254,5713,0,0,0,97,100,0
4300,6258,5715,3,3,1,10240,-1.00,-1.00,0.00,0.00,4298,6254,5713,0,0,0,97,100,0
4299,6256,5714,2,3,1,10240,-1.00,-1.00,0.00,0.00,4298,6254,5713,0,0,0,97,100,0
4300,6257,5714,2,3,1,10240,-1.00,-1.00,0.00,0.00,4298,6254,5713,0,0,0,97,100,0
4299,6257,5715,1,3,1,10240,-1.00,-1.00,0.00,0.00,4298,6254,5713,0,0,0,97,100,0
4300,6258,5715,1,3,1,10240,-1.00,-1.00,0.00,0.00,4298,6254,5713,0,0,0,97,100,0
4301,6261,5718,2,4,2,10240,-1.00,-1.00,0.00,0.00,4298,6254,5714,0,0,0,97,100,0
4302,6261,5719,2,5,3,10240,-1.00,-1.00,0.00,0.00,4298,6255,5714,0,0,0,97,100,0
4304,6263,5720,3,6,4,10240,-1.00,-1.00,0.00,0.00,4298,6255,5714,0,0,0,97,100,0
4304,6261,5717,4,6,4,10240,-1.00,-1.00,0.00,0.00,4298,6255,5714,0,0,0,97,100,0
4303,6261,5718,5,6,4,10240,-1.00,-1.00,0.00,0.00,4299,6255,5714,0,0,0,97,100,0
4304,6261,5718,5,6,4,10240,-1.00,-1.00,0.00,0.00,4299,6255,5714,0,0,0,97,100,0
4306,6261,5717,5,5,3,10240,-1.00,-1.00,0.00,0.00,4299,6256,5714,0,0,0,97,100,0
4305,6260,5716,5,5,3,10240,-1.00,-1.00,0.00,0.00,4299,6256,5715,0,0,0,97,100,0
4305,6259,5715,6,4,2,10240,-1.00,-1.00,0.00,0.00,4299,6256,5715,0,0,0,97,100,0
4305,6259,5715,6,3,1,10240,-1.00,-1.00,0.00,0.00,4300,6256,5715,0,0,0,97,100,0
4304,6259,5714,5,3,0,10240,-1.00,-1.00,0.00,0.00,4300,6256,5715,0,0,0,97,100,0
4305,6261,5715,5,3,0,10240,-1.00,-1.00,0.00,0.00,4300,6256,5715,0,0,0,97,100,0
4305,6262,5716,4,4,0,10240,-1.00,-1.00,0.00,0.00,4300,6256,5715,0,0,0,97,100,0
4304,6261,5716,4,4,0,10240,-1.00,-1.00,0.00,0.00,4300,6257,5715,0,0,0,97,100,0
4305,6262,5716,4,5,0,10240,-1.00,-1.00,0.00,0.00,4300,6257,5715,0,0,0,97,100,0
4306,6262,5717,4,5,1,10240,-1.00,-1.00,0.00,0.00,4301,6257,5715,0,0,0,97,100,0
4306,6264,5719,4,5,2,10240,-1.00,-1.00,0.00,0.00,4301,6257,5715,0,0,0,97,100,0
4307,6266,5719,5,6,2,10240,-1.00,-1.00,0.00,0.00,4301,6257,5715,0,0,0,97,100,0
4306,6265,5718,5,7,3,10240,-1.00,-1.00,0.00,0.00,4301,6258,5715,0,0,0,97,100,0
4306,6265,5719,5,7,3,10240,-1.00,-1.00,0.00,0.00,4301,6258,5715,0,0,0,97,100,0
4305,6265,5718,5,7,3,10240,-1.00,-1.00,0.00,0.00,4301,6258,5715,0,0,0,97,100,0
4307,6266,5719,4,7,3,10240,-1.00,-1.00,0.00,0.00,4302,6258,5715,0,0,0,97,100,0
4308,6269,5722,5,8,4,10240,-1.00,-1.00,0.00,0.00,4302,6259,5716,0,0,0,97,100,0
4308,6269,5722,5,8,4,10240,-1.00,-1.00,0.00,0.00,4302,6259,5716,0,0,0,97,100,0
4307,6270,5721,5,9,5,10240,-1.00,-1.00,0.00,0.00,4302,6259,5716,0,0,0,97,100,0
4307,6269,5723,5,10,6,10240,-1.00,-1.00,0.00,0.00,4302,6260,5716,0,0,0,97,100,0
4307,6269,5722,5,9,6,10240,-1.00,-1.00,0.00,0.00,4302,6260,5716,0,0,0,97,100,0
4306,6269,5722,4,9,5,10240,-1.00,-1.00,0.00,0.00,4303,6260,5717,0,0,0,97,100,0
4305,6266,5720,3,8,5,10240,-1.00,-1.00,0.00,0.00,4303,6261,5717,0,0,0,97,100,0
4304,6264,5719,2,6,4,10240,-1.00,-1.00,0.00,0.00,4303,6261,5717,0,0,0,97,100,0
4303,6263,5718,1,4,2,10240,-1.00,-1.00,0.00,0.00,4303,6261,5717,0,0,0,97,100,0
4302,6262,5717,0,2,1,10240,-1.00,-1.00,0.00,0.00,4303,6261,5717,0,0,0,97,100,0
4302,6261,5717,0,1,0,10240,-1.00,-1.00,0.00,0.00,4303,6261,5717,0,0,0,97,100,0
4303,6262,5717,0,1,0,10240,-1.00,-1.00,0.00,0.00,4303,6261,5717,0,0,0,97,100,0
4303,6262,5718,0,0,0,10240,-1.00,-1.00,0.00,0.00,4303,6261,5717,0,0,0,97,100,0
4305,6264,5719,0,1,0,10240,-1.00,-1.00,0.00,0.00,4303,6261,5717,0,0,0,97,100,0
4305,6265,5718,1,2,1,10240,-1.00,-1.00,0.00,0.00,4303,6261,5717,0,0,0,97,100,0
4305,6265,5719,1,3,1,10240,-1.00,-1.00,0.00,0.00,4303,6261,5717,0,0,0,97,100,0
4307,6265,5719,2,3,1,10240,-1.00,-1.00,0.00,0.00,4303,6261,5717,0,0,0,97,100,0
4307,6266,5720,3,4,2,10240,-1.00,-1.00,0.00,0.00,4303,6262,5717,0,0,0,97,100,0
4307,6267,5720,3,4,2,10240,-1.00,-1.00,0.00,0.00,4303,6262,5717,0,0,0,97,100,0
4309,6269,5720,4,5,2,10240,-1.00,-1.00,0.00,0.00,4303,6262,5717,0,0,0,97,100,0
4309,6271,5721,4,6,3,10240,-1.00,-1.00,0.00,0.00,4304,6262,5718,0,0,0,97,100,0
4310,6272,5722,5,7,3,10240,-1.00,-1.00,0.00,0.00,4304,6263,5718,0,0,0,97,100,0
4311,6271,5723,6,8,3,10240,-1.00,-1.00,0.00,0.00,4304,6263,5718,0,0,0,97,100,0
4309,6271,5722,5,8,4,10240,-1.00,-1.00,0.00,0.00,4304,6263,5718,0,0,0,97,100,0
4309,6270,5722,5,8,4,10240,-1.00,-1.00,0.00,0.00,4304,6263,5718,0,0,0,97,100,0
4308,6271,5723,5,7,4,10240,-1.00,-1.00,0.00,0.00,4305,6264,5718,0,0,0,97,100,0
4309,6272,5723,4,7,4,10240,-1.00,-1.00,0.00,0.00,4305,6264,5718,0,0,0,97,100,0
4309,6272,5724,4,7,4,10240,-1.00,-1.00,0.00,0.00,4305,6264,5719,0,0,0,97,100,0
4308,6273,5724,3,8,5,10240,-1.00,-1.00,0.00,0.00,4305,6264,5719,0,0,0,97,100,0
4308,6272,5724,3,8,5,10240,-1.00,-1.00,0.00,0.00,4305,6265,5719,0,0,0,97,100,0
4308,6271,5723,3,7,4,10240,-1.00,-1.00,0.00,0.00,4305,6265,5719,0,0,0,97,100,0
4308,6272,5722,3,7,4,10240,-1.00,-1.00,0.00,0.00,4305,6265,5719,0,0,0,97,100,0
4307,6269,5722,2,6,3,10240,-1.00,-1.00,0.00,0.00,4305,6265,5719,0,0,0,97,100,0
4306,6269,5721,2,5,3,10240,-1.00,-1.00,0.00,0.00,4305,6265,5719,0,0,0,97,100,0
4306,6270,5721,1,4,2,10240,-1.00,-1.00,0.00,0.00,4305,6266,5719,0,0,0,97,100,0
4306,6268,5719,1,3,1,10240,-1.00,-1.00,0.00,0.00,4305,6266,5719,0,0,0,97,100,0
4306,6269,5720,1,3,1,10240,-1.00,-1.00,0.00,0.00,4305,6266,5719,0,0,0,97,100,0
4307,6268,5721,1,2,1,10240,-1.00,-1.00,0.00,0.00,4305,6266,5720,0,0,0,97,100,0
4307,6270,5722,1,2,1,10240,-1.00,-1.00,0.00,0.00,4306,6266,5720,0,0,0,97,100,0
4306,6270,5721,1,3,1,10240,-1.00,-1.00,0.00,0.00,4306,6266,5720,0,0,0,97,100,0
4307,6269,5721,1,3,1,10240,-1.00,-1.00,0.00,0.00,4306,6266,5720,0,0,0,97,100,0
4307,6271,5722,0,4,1,10240,-1.00,-1.00,0.00,0.00,4306,6266,5720,0,0,0,97,100,0
4306,6269,5721,0,3,1,10240,-1.00,-1.00,0.00,0.00,4306,6266,5720,0,0,0,97,100,0
4307,6270,5722,0,3,1,10240,-1.00,-1.00,0.00,0.00,4306,6267,5720,0,0,0,97,100,0
4308,6272,5723,1,4,2,10240,-1.00,-1.00,0.00,0.00,4306,6267,5720,0,0,0,97,100,0
4308,6273,5722,1,4,2,10240,-1.00,-1.00,0.00,0.00,4306,6267,5720,0,0,0,97,100,0
4309,6274,5723,2,5,2,10240,-1.00,-1.00,0.00,0.00,4306,6267,5720,0,0,0,97,100,0
4309,6275,5724,2,6,3,10240,-1.00,-1.00,0.00,0.00,4306,6267,5720,0,0,0,97,100,0
4310,6276,5724,3,7,3,10240,-1.00,-1.00,0.00,0.00,4306,6268,5720,0,0,0,97,100,0
4311,6278,5726,3,8,4,10240,-1.00,-1.00,0.00,0.00,4306,6268,5721,0,0,0,97,100,0
4311,6278,5727,4,9,4,10240,-1.00,-1.00,0.00,0.00,4306,6268,5721,0,0,0,97,100,0
4312,6279,5727,4,9,5,10240,-1.00,-1.00,0.00,0.00,4307,6269,5721,0,0,0,97,100,0
4312,6278,5727,5,9,5,10240,-1.00,-1.00,0.00,0.00,4307,6269,5721,0,0,0,97,100,0
4311,6278,5726,4,9,5,10240,-1.00,-1.00,0.00,0.00,4307,6269,5721,0,0,0,97,100,0
4315,6280,5727,5,9,5,10240,-1.00,-1.00,0.00,0.00,4307,6270,5722,0,0,0,97,100,0
4316,6281,5724,6,9,4,10240,-1.00,-1.00,0.00,0.00,4308,6270,5722,0,0,0,97,100,0
4317,6280,5725,7,10,3,10240,-1.00,-1.00,0.00,0.00,4308,6270,5722,0,0,0,97,100,0
4316,6279,5724,8,9,3,10240,-1.00,-1.00,0.00,0.00,4308,6271,5722,0,0,0,97,100,0
4316,6281,5725,8,9,2,10240,-1.00,-1.00,0.00,0.00,4308,6271,5722,0,0,0,97,100,0
4316,6279,5725,8,9,2,10240,-1.00,-1.00,0.00,0.00,4309,6271,5722,0,0,0,97,100,0
4317,6280,5726,7,8,3,10240,-1.00,-1.00,0.00,0.00,4309,6272,5722,0,0,0,97,100,0
4316,6280,5726,7,8,3,10240,-1.00,-1.00,0.00,0.00,4309,6272,5722,0,0,0,97,100,0
4316,6280,5725,7,8,3,10240,-1.00,-1.00,0.00,0.00,4309,6272,5722,0,0,0,97,100,0
4315,6279,5725,6,7,3,10240,-1.00,-1.00,0.00,0.00,4310,6272,5722,0,0,0,97,100,0
4316,6280,5726,6,7,3,10240,-1.00,-1.00,0.00,0.00,4310,6273,5723,0,0,0,97,100,0
4316,6280,5727,6,7,3,10240,-1.00,-1.00,0.00,0.00,4310,6273,5723,0,0,0,97,100,0
4315,6280,5727,5,7,3,10240,-1.00,-1.00,0.00,0.00,4310,6273,5723,0,0,0,97,100,0
4315,6281,5727,5,7,3,10240,-1.00,-1.00,0.00,0.00,4310,6273,5723,0,0,0,97,100,0
4315,6282,5727,5,7,4,10240,-1.00,-1.00,0.00,0.00,4310,6274,5723,0,0,0,97,100,0
4315,6282,5726,4,7,3,10240,-1.00,-1.00,0.00,0.00,4311,6274,5723,0,0,0,97,100,0
4315,6282,5728,4,8,4,10240,-1.00,-1.00,0.00,0.00,4311,6274,5723,0,0,0,97,100,0
4315,6283,5729,4,8,4,10240,-1.00,-1.00,0.00,0.00,4311,6275,5724,0,0,0,97,100,0
4316,6281,5728,4,7,4,10240,-1.00,-1.00,0.00,0.00,4311,6275,5724,0,0,0,97,100,0
4315,6283,5728,4,7,4,10240,-1.00,-1.00,0.00,0.00,4311,6275,5724,0,0,0,97,100,0
4315,6283,5729,4,7,4,10240,-1.00,-1.00,0.00,0.00,4311,6275,5724,0,0,0,97,100,0
4315,6283,5729,4,7,4,10240,-1.00,-1.00,0.00,0.00,4311,6276,5724,0,0,0,97,100,0
4314,6283,5730,3,7,5,10240,-1.00,-1.00,0.00,0.00,4312,6276,5724,0,0,0,97,100,0
4313,6282,5727,2,7,4,10240,-1.00,-1.00,0.00,0.00,4312,6276,5724,0,0,0,97,100,0
4313,6281,5727,2,6,4,10240,-1.00,-1.00,0.00,0.00,4312,6276,5725,0,0,0,97,100,0
4313,6279,5725,1,5,2,10240,-1.00,-1.00,0.00,0.00,4312,6276,5725,0,0,0,97,100,0
4314,6281,5725,1,4,1,10240,-1.00,-1.00,0.00,0.00,4312,6276,5725,0,0,0,97,100,0
4312,6279,5724,1,3,0,10240,-1.00,-1.00,0.00,0.00,4312,6277,5725,0,0,0,97,100,0
4312,6278,5725,0,2,0,10240,-1.00,-1.00,0.00,0.00,4312,6277,5725,0,0,0,97,100,0
4311,6278,5723,0,2,0,10240,-1.00,-1.00,0.00,0.00,4312,6277,5724,0,0,0,97,100,0
4311,6277,5724,0,1,0,10240,-1.00,-1.00,0.00,0.00,4312,6277,5724,0,0,0,97,100,0
4310,6277,5723,-1,0,0,10240,-1.00,-1.00,0.00,0.00,4312,6277,5724,0,0,0,97,100,0
4312,6279,5725,-1,0,0,10240,-1.00,-1.00,0.00,0.00,4312,6277,5724,0,0,0,97,100,0
4312,6278,5725,0,0,0,10240,-1.00,-1.00,0.00,0.00,4312,6277,5725,0,0,0,97,100,0
4313,6279,5725,0,1,0,10240,-1.00,-1.00,0.00,0.00,4312,6277,5725,0,0,0,97,100,0
4313,6281,5727,0,2,0,10240,-1.00,-1.00,0.00,0.00,4312,6277,5725,0,0,0,97,100,0
4314,6281,5727,1,2,1,10240,-1.00,-1.00,0.00,0.00,4312,6277,5725,0,0,0,97,100,0
4314,6281,5726,1,3,1,10240,-1.00,-1.00,0.00,0.00,4312,6277,5725,0,0,0,97,100,0
4314,6283,5728,1,4,2,10240,-1.00,-1.00,0.00,0.00,4312,6277,5725,0,0,0,97,100,0
4313,6282,5726,1,4,1,10240,-1.00,-1.00,0.00,0.00,4312,6278,5725,0,0,0,97,100,0
4314,6282,5727,1,4,1,10240,-1.00,-1.00,0.00,0.00,4312,6278,5725,0,0,0,97,100,0
4315,6284,5727,2,5,2,10240,-1.00,-1.00,0.00,0.00,4312,6278,5725,0,0,0,97,100,0
4316,6285,5728,2,5,2,10240,-1.00,-1.00,0.00,0.00,4312,6278,5725,0,0,0,97,100,0
4317,6285,5729,3,6,2,10240,-1.00,-1.00,0.00,0.00,4312,6278,5725,0,0,0,97,100,0
4316,6286,5729,4,6,3,10240,-1.00,-1.00,0.00,0.00,4312,6279,5725,0,0,0,97,100,0
4317,6286,5729,4,7,3,10240,-1.00,-1.00,0.00,0.00,4313,6279,5725,0,0,0,97,100,0
4317,6285,5731,4,6,4,10240,-1.00,-1.00,0.00,0.00,4313,6279,5726,0,0,0,97,100,0
4316,6285,5728,3,6,3,10240,-1.00,-1.00,0.00,0.00,4313,6279,5726,0,0,0,97,100,0
4317,6283,5726,3,5,2,10240,-1.00,-1.00,0.00,0.00,4313,6279,5726,0,0,0,97,100,0
4318,6285,5727,4,5,2,10240,-1.00,-1.00,0.00,0.00,4313,6280,5726,0,0,0,97,100,0
4318,6284,5727,4,4,1,10240,-1.00,-1.00,0.00,0.00,4313,6280,5726,0,0,0,97,100,0
4319,6284,5726,4,4,0,10240,-1.00,-1.00,0.00,0.00,4314,6280,5726,0,0,0,97,100,0
4318,6285,5725,4,4,0,10240,-1.00,-1.00,0.00,0.00,4314,6280,5726,0,0,0,97,100,0
4320,6285,5726,5,4,0,10240,-1.00,-1.00,0.00,0.00,4314,6280,5726,0,0,0,97,100,0
4320,6286,5727,5,5,0,10240,-1.00,-1.00,0.00,0.00,4314,6280,5726,0,0,0,97,100,0
4319,6285,5726,5,5,0,10240,-1.00,-1.00,0.00,0.00,4314,6281,5726,0,0,0,97,100,0
4320,6285,5727,5,4,0,10240,-1.00,-1.00,0.00,0.00,4314,6281,5726,0,0,0,97,100,0
4320,6285,5727,5,4,0,10240,-1.00,-1.00,0.00,0.00,4315,6281,5726,0,0,0,97,100,0
4320,6286,5728,5,4,1,10240,-1.00,-1.00,0.00,0.00,4315,6281,5726,0,0,0,97,100,0
4318,6284,5728,4,4,1,10240,-1.00,-1.00,0.00,0.00,4315,6281,5726,0,0,0,97,100,0
4318,6285,5728,4,4,1,10240,-1.00,-1.00,0.00,0.00,4315,6281,5726,0,0,0,97,100,0
4318,6286,5729,3,4,2,10240,-1.00,-1.00,0.00,0.00,4315,6281,5726,0,0,0,97,100,0
4318,6286,5728,3,4,2,10240,-1.00,-1.00,0.00,0.00,4315,6282,5726,0,0,0,97,100,0
4317,6286,5729,2,4,2,10240,-1.00,-1.00,0.00,0.00,4315,6282,5726,0,0,0,97,100,0
4316,6285,5728,2,4,2,10240,-1.00,-1.00,0.00,0.00,4315,6282,5726,0,0,0,97,100,0
4317,6286,5730,2,3,2,10240,-1.00,-1.00,0.00,0.00,4315,6282,5727,0,0,0,97,100,0
4316,6286,5730,1,3,2,10240,-1.00,-1.00,0.00,0.00,4315,6282,5727,0,0,0,97,100,0
4316,6286,5729,1,3,2,10240,-1.00,-1.00,0.00,0.00,4315,6282,5727,0,0,0,97,100,0
4317,6286,5729,1,4,2,10240,-1.00,-1.00,0.00,0.00,4316,6282,5727,0,0,0,97,100,0
4318,6287,5731,1,4,2,10240,-1.00,-1.00,0.00,0.00,4316,6282,5727,0,0,0,97,100,0
4319,6288,5730,1,4,2,10240,-1.00,-1.00,0.00,0.00,4316,6283,5727,0,0,0,97,100,0
4321,6288,5729,2,4,2,10240,-1.00,-1.00,0.00,0.00,4316,6283,5727,0,0,0,97,100,0
4321,6288,5726,3,5,2,10240,-1.00,-1.00,0.00,0.00,4316,6283,5727,0,0,0,97,100,0
4321,6289,5728,4,5,1,10240,-1.00,-1.00,0.00,0.00,4316,6283,5727,0,0,0,97,100,0
4322,6290,5728,5,5,0,10240,-1.00,-1.00,0.00,0.00,4316,6283,5727,0,0,0,97,100,0
4321,6288,5727,5,5,0,10240,-1.00,-1.00,0.00,0.00,4317,6284,5727,0,0,0,97,100,0
4323,6290,5728,5,5,0,10240,-1.00,-1.00,0.00,0.00,4317,6284,5727,0,0,0,97,100,0
4324,6290,5729,5,5,1,10240,-1.00,-1.00,0.00,0.00,4317,6284,5727,0,0,0,97,100,0
4323,6289,5727,5,5,0,10240,-1.00,-1.00,0.00,0.00,4317,6284,5727,0,0,0,97,100,0
4323,6289,5728,6,5,1,10240,-1.00,-1.00,0.00,0.00,4317,6284,5727,0,0,0,97,100,0
4323,6290,5728,6,5,1,10240,-1.00,-1.00,0.00,0.00,4318,6285,5727,0,0,0,97,100,0
4323,6290,5730,5,5,1,10240,-1.00,-1.00,0.00,0.00,4318,6285,5727,0,0,0,97,100,0
4322,6289,5728,5,4,1,10240,-1.00,-1.00,0.00,0.00,4318,6285,5727,0,0,0,97,100,0
4320,6287,5728,4,4,1,10240,-1.00,-1.00,0.00,0.00,4318,6285,5727,0,0,0,97,100,0
4319,6287,5728,3,3,1,10240,-1.00,-1.00,0.00,0.00,4318,6285,5727,0,0,0,97,100,0
4316,6285,5729,1,2,1,10240,-1.00,-1.00,0.00,0.00,4318,6285,5728,0,0,0,97,100,0
4316,6284,5729,0,0,1,10240,-1.00,-1.00,0.00,0.00,4318,6285,5728,0,0,0,97,100,0
4317,6284,5730,-1,0,1,10240,-1.00,-1.00,0.00,0.00,4318,6285,5728,0,0,0,97,100,0
4318,6287,5729,-1,0,1,10240,-1.00,-1.00,0.00,0.00,4318,6285,5728,0,0,0,97,100,0
4319,6288,5731,0,0,1,10240,-1.00,-1.00,0.00,0.00,4318,6285,5728,0,0,0,97,100,0
4319,6287,5729,0,1,1,10240,-1.00,-1.00,0.00,0.00,4318,6285,5728,0,0,0,97,100,0
4318,6288,5730,0,2,1,10240,-1.00,-1.00,0.00,0.00,4318,6285,5728,0,0,0,97,100,0
4312,6282,5729,-1,1,1,10240,-1.00,-1.00,0.00,0.00,4318,6285,5728,0,0,0,97,100,0
4313,6282,5728,-2,0,1,10240,-1.00,-1.00,0.00,0.00,4318,6285,5728,0,0,0,97,100,0
4312,6281,5725,-4,-1,0,10240,-1.00,-1.00,0.00,0.00,4317,6285,5728,0,0,0,97,100,0
4311,6279,5724,-5,-4,-1,10240,-1.00,-1.00,0.00,0.00,4317,6285,5728,0,0,0,97,100,0
4310,6278,5726,-5,-4,-2,10240,-1.00,-1.00,0.00,0.00,4317,6284,5728,0,0,0,97,100,0
4310,6277,5725,-6,-5,-2,10240,-1.00,-1.00,0.00,0.00,4317,6284,5727,0,0,0,97,100,0
4311,6276,5723,-6,-6,-3,10240,-1.00,-1.00,0.00,0.00,4316,6284,5727,0,0,0,97,100,0
4310,6277,5724,-6,-7,-2,10240,-1.00,-1.00,0.00,0.00,4316,6284,5727,0,0,0,97,100,0
4311,6277,5725,-5,-7,-2,10240,-1.00,-1.00,0.00,0.00,4316,6283,5727,0,0,0,97,100,0
4310,6276,5724,-5,-7,-3,10240,-1.00,-1.00,0.00,0.00,4316,6283,5727,0,0,0,97,100,0
4310,6275,5723,-5,-7,-3,10240,-1.00,-1.00,0.00,0.00,4316,6283,5727,0,0,0,97,100,0
4308,6275,5723,-6,-7,-3,10240,-1.00,-1.00,0.00,0.00,4315,6283,5727,0,0,0,97,100,0
4308,6275,5723,-6,-7,-3,10240,-1.00,-1.00,0.00,0.00,4315,6282,5727,0,0,0,97,100,0
4307,6275,5723,-7,-7,-4,10240,-1.00,-1.00,0.00,0.00,4315,6282,5727,0,0,0,97,100,0
4308,6275,5724,-7,-7,-3,10240,-1.00,-1.00,0.00,0.00,4315,6282,5726,0,0,0,97,100,0
4308,6276,5724,-7,-6,-3,10240,-1.00,-1.00,0.00,0.00,4314,6282,5726,0,0,0,97,100,0
4310,6278,5725,-6,-6,-2,10240,-1.00,-1.00,0.00,0.00,4314,6282,5726,0,0,0,97,100,0
4309,6277,5725,-5,-5,-1,10240,-1.00,-1.00,0.00,0.00,4314,6281,5726,0,0,0,97,100,0
4310,6277,5725,-4,-4,-1,10240,-1.00,-1.00,0.00,0.00,4314,6281,5726,0,0,0,97,100,0
4309,6278,5725,-4,-3,-1,10240,-1.00,-1.00,0.00,0.00,4314,6281,5726,0,0,0,97,100,0
4311,6280,5725,-4,-3,-1,10240,-1.00,-1.00,0.00,0.00,4314,6281,5726,0,0,0,97,100,0
4311,6280,5725,-3,-2,-1,10240,-1.00,-1.00,0.00,0.00,4314,6281,5726,0,0,0,97,100,0
4312,6284,5727,-3,0,0,10240,-1.00,-1.00,0.00,0.00,4314,6281,5726,0,0,0,97,100,0
4311,6282,5725,-2,0,0,10240,-1.00,-1.00,0.00,0.00,4313,6281,5726,0,0,0,97,100,0
4312,6283,5726,-2,1,0,10240,-1.00,-1.00,0.00,0.00,4313,6281,5726,0,0,0,97,100,0
4313,6283,5726,-1,2,0,10240,-1.00,-1.00,0.00,0.00,4313,6281,5726,0,0,0,97,100,0
4314,6283,5724,0,1,0,10240,-1.00,-1.00,0.00,0.00,4313,6282,5726,0,0,0,97,100,0
4316,6284,5725,0,1,0,10240,-1.00,-1.00,0.00,0.00,4314,6282,5726,0,0,0,97,100,0
4315,6283,5724,1,1,-1,10240,-1.00,-1.00,0.00,0.00,4314,6282,5726,0,0,0,97,100,0
4317,6283,5725,1,1,-1,10240,-1.00,-1.00,0.00,0.00,4314,6282,5726,0,0,0,97,100,0
4317,6285,5725,2,1,-1,10240,-1.00,-1.00,0.00,0.00,4314,6282,5726,0,0,0,97,100,0
4318,6286,5725,2,2,-1,10240,-1.00,-1.00,0.00,0.00,4314,6282,5726,0,0,0,97,100,0
4320,6288,5726,4,3,0,10240,-1.00,-1.00,0.00,0.00,4314,6282,5726,0,0,0,97,100,0
4319,6288,5726,4,4,0,10240,-1.00,-1.00,0.00,0.00,4314,6282,5726,0,0,0,97,100,0
4321,6289,5726,5,5,0,10240,-1.00,-1.00,0.00,0.00,4315,6283,5726,0,0,0,97,100,0
4320,6289,5726,5,6,0,10240,-1.00,-1.00,0.00,0.00,4315,6283,5726,0,0,0,97,100,0
4321,6290,5726,5,6,0,10240,-1.00,-1.00,0.00,0.00,4315,6283,5726,0,0,0,97,100,0
4321,6290,5727,5,6,0,10240,-1.00,-1.00,0.00,0.00,4315,6283,5726,0,0,0,97,100,0
4322,6294,5729,6,7,1,10240,-1.00,-1.00,0.00,0.00,4315,6284,5726,0,0,0,97,100,0
4322,6293,5728,6,8,1,10240,-1.00,-1.00,0.00,0.00,4316,6284,5726,0,0,0,97,100,0
4322,6293,5730,6,8,2,10240,-1.00,-1.00,0.00,0.00,4316,6284,5726,0,0,0,97,100,0
4322,6293,5731,6,9,3,10240,-1.00,-1.00,0.00,0.00,4316,6284,5726,0,0,0,97,100,0
4321,6292,5730,5,8,3,10240,-1.00,-1.00,0.00,0.00,4316,6285,5727,0,0,0,97,100,0
4316,6289,5729,4,7,3,10240,-1.00,-1.00,0.00,0.00,4316,6285,5727,0,0,0,97,100,0
4315,6288,5730,2,5,3,10240,-1.00,-1.00,0.00,0.00,4316,6285,5727,0,0,0,97,100,0
4313,6287,5729,0,4,2,10240,-1.00,-1.00,0.00,0.00,4316,6285,5727,0,0,0,97,100,0
4314,6287,5729,-1,2,2,10240,-1.00,-1.00,0.00,0.00,4316,6285,5727,0,0,0,97,100,0
4313,6287,5730,-2,2,2,10240,-1.00,-1.00,0.00,0.00,4316,6285,5727,0,0,0,97,100,0
4313,6286,5728,-2,1,2,10240,-1.00,-1.00,0.00,0.00,4316,6285,5727,0,0,0,97,100,0
4314,6286,5726,-2,1,1,10240,-1.00,-1.00,0.00,0.00,4316,6285,5727,0,0,0,97,100,0
4313,6285,5725,-2,1,0,10240,-1.00,-1.00,0.00,0.00,4316,6285,5727,0,0,0,97,100,0
4312,6284,5725,-2,0,-1,10240,-1.00,-1.00,0.00,0.00,4315,6285,5727,0,0,0,97,100,0
4313,6283,5725,-2,0,-1,10240,-1.00,-1.00,0.00,0.00,4315,6285,5727,0,0,0,97,100,0
4312,6282,5725,-2,-1,-2,10240,-1.00,-1.00,0.00,0.00,4315,6285,5727,0,0,0,97,100,0
4313,6285,5725,-2,-1,-2,10240,-1.00,-1.00,0.00,0.00,4315,6285,5727,0,0,0,97,100,0
4313,6284,5726,-2,-1,-1,10240,-1.00,-1.00,0.00,0.00,4315,6285,5727,0,0,0,97,100,0
4314,6285,5727,-2,-1,-1,10240,-1.00,-1.00,0.00,0.00,4315,6285,5727,0,0,0,97,100,0
4314,6285,5727,-1,0,0,10240,-1.00,-1.00,0.00,0.00,4315,6285,5727,0,0,0,97,100,0
4315,6286,5727,-1,0,0,10240,-1.00,-1.00,0.00,0.00,4315,6285,5727,0,0,0,97,100,0
4318,6289,5728,0,1,0,10240,-1.00,-1.00,0.00,0.00,4315,6285,5727,0,0,0,97,100,0
4319,6292,5729,1,3,0,10240,-1.00,-1.00,0.00,0.00,4315,6285,5727,0,0,0,97,100,0
4319,6291,5729,2,4,1,10240,-1.00,-1.00,0.00,0.00,4315,6286,5727,0,0,0,97,100,0
4319,6291,5730,3,5,2,10240,-1.00,-1.00,0.00,0.00,4316,6286,5727,0,0,0,97,100,0
4320,6293,5729,3,6,2,10240,-1.00,-1.00,0.00,0.00,4316,6286,5727,0,0,0,97,100,0
4320,6292,5729,3,5,2,10240,-1.00,-1.00,0.00,0.00,4316,6286,5727,0,0,0,97,100,0
4321,6293,5730,4,6,2,10240,-1.00,-1.00,0.00,0.00,4316,6286,5727,0,0,0,97,100,0
4320,6293,5729,4,6,2,10240,-1.00,-1.00,0.00,0.00,4316,6287,5727,0,0,0,97,100,0
4320,6294,5730,4,6,2,10240,-1.00,-1.00,0.00,0.00,4316,6287,5727,0,0,0,97,100,0
4319,6294,5730,4,6,2,10240,-1.00,-1.00,0.00,0.00,4316,6287,5727,0,0,0,97,100,0
4319,6293,5730,3,6,2,10240,-1.00,-1.00,0.00,0.00,4316,6287,5727,0,0,0,97,100,0
4322,6296,5730,3,7,2,10240,-1.00,-1.00,0.00,0.00,4317,6288,5728,0,0,0,92,100,0
4324,6296,5729,4,7,2,10240,-1.00,-1.00,0.00,0.00,4317,6288,5728,0,0,0,92,100,0
4325,6296,5728,5,7,1,10240,-1.00,-1.00,0.00,0.00,4317,6288,5728,0,0,0,92,100,0
4325,6296,5728,7,8,0,10240,-1.00,-1.00,0.00,0.00,4317,6288,5728,0,0,0,92,100,0
4324,6295,5727,7,7,0,10240,-1.00,-1.00,0.00,0.00,4318,6289,5728,0,0,0,92,100,0
4326,6294,5727,7,6,0,10240,-1.00,-1.00,0.00,0.00,4318,6289,5728,0,0,0,92,100,0
4326,6296,5728,7,6,0,10240,-1.00,-1.00,0.00,0.00,4318,6289,5728,0,0,0,92,100,0
4327,6296,5728,7,6,0,10240,-1.00,-1.00,0.00,0.00,4319,6289,5728,0,0,0,92,100,0
4328,6297,5729,8,6,0,10240,-1.00,-1.00,0.00,0.00,4319,6290,5728,0,0,0,92,100,0
4328,6298,5729,8,7,0,10240,-1.00,-1.00,0.00,0.00,4319,6290,5728,0,0,0,92,100,0
4328,6298,5728,8,7,0,10240,-1.00,-1.00,0.00,0.00,4319,6290,5728,0,0,0,92,100,0
4329,6301,5729,9,8,0,10240,-1.00,-1.00,0.00,0.00,4320,6290,5728,0,0,0,92,100,0
4327,6300,5730,8,9,1,10240,-1.00,-1.00,0.00,0.00,4320,6291,5728,0,0,0,92,100,0
4326,6299,5730,7,9,1,10240,-1.00,-1.00,0.00,0.00,4320,6291,5728,0,0,0,92,100,0
4326,6300,5731,7,9,2,10240,-1.00,-1.00,0.00,0.00,4320,6291,5728,0,0,0,92,100,0
4326,6300,5730,6,8,2,10240,-1.00,-1.00,0.00,0.00,4321,6292,5728,0,0,0,92,100,0
4327,6301,5731,5,8,2,10240,-1.00,-1.00,0.00,0.00,4321,6292,5728,0,0,0,92,100,0
4327,6301,5732,5,8,3,10240,-1.00,-1.00,0.00,0.00,4321,6292,5728,0,0,0,92,100,0
4327,6301,5732,5,8,3,10240,-1.00,-1.00,0.00,0.00,4321,6293,5728,0,0,0,92,100,0
4327,6301,5733,6,8,4,10240,-1.00,-1.00,0.00,0.00,4321,6293,5728,0,0,0,92,100,0
4329,6302,5732,6,8,4,10240,-1.00,-1.00,0.00,0.00,4322,6293,5729,0,0,0,92,100,0
4331,6304,5732,7,9,3,10240,-1.00,-1.00,0.00,0.00,4322,6293,5729,0,0,0,92,100,0
4332,6307,5734,8,10,4,10240,-1.00,-1.00,0.00,0.00,4322,6294,5729,0,0,0,92,100,0
4332,6306,5732,8,11,3,10240,-1.00,-1.00,0.00,0.00,4323,6294,5729,0,0,0,92,100,0
4333,6305,5731,9,11,3,10240,-1.00,-1.00,0.00,0.00,4323,6295,5729,0,0,0,92,100,0
4335,6306,5731,10,11,3,10240,-1.00,-1.00,0.00,0.00,4323,6295,5729,0,0,0,92,100,0
4336,6306,5730,10,11,2,10240,-1.00,-1.00,0.00,0.00,4324,6295,5729,0,0,0,92,100,0
4337,6306,5731,11,10,1,10240,-1.00,-1.00,0.00,0.00,4324,6296,5729,0,0,0,92,100,0
4338,6307,5731,12,10,1,10240,-1.00,-1.00,0.00,0.00,4325,6296,5729,0,0,0,92,100,0
4337,6305,5729,12,10,1,10240,-1.00,-1.00,0.00,0.00,4325,6296,5729,0,0,0,92,100,0
4337,6305,5730,12,9,1,10240,-1.00,-1.00,0.00,0.00,4325,6297,5729,0,0,0,92,100,0
4337,6305,5730,12,9,1,10240,-1.00,-1.00,0.00,0.00,4326,6297,5729,0,0,0,92,100,0
4337,6307,5732,11,8,1,10240,-1.00,-1.00,0.00,0.00,4326,6297,5729,0,0,0,92,100,0
4338,6307,5732,11,8,1,10240,-1.00,-1.00,0.00,0.00,4327,6298,5730,0,0,0,92,100,0
4338,6306,5731,11,8,1,10240,-1.00,-1.00,0.00,0.00,4327,6298,5730,0,0,0,92,100,0
4338,6308,5732,11,9,2,10240,-1.00,-1.00,0.00,0.00,4327,6298,5730,0,0,0,92,100,0
4339,6308,5734,11,9,2,10240,-1.00,-1.00,0.00,0.00,4328,6299,5730,0,0,0,92,100,0
4339,6310,5734,11,9,2,10240,-1.00,-1.00,0.00,0.00,4328,6299,5730,0,0,0,92,100,0
4341,6311,5733,11,10,3,10240,-1.00,-1.00,0.00,0.00,4329,6299,5730,0,0,0,92,100,0
4339,6310,5733,11,10,3,10240,-1.00,-1.00,0.00,0.00,4329,6300,5730,0,0,0,92,100,0
4339,6310,5734,10,10,3,10240,-1.00,-1.00,0.00,0.00,4329,6300,5730,0,0,0,92,100,0
4338,6310,5734,10,10,3,10240,-1.00,-1.00,0.00,0.00,4330,6300,5730,0,0,0,92,100,0
4338,6310,5734,9,9,3,10240,-1.00,-1.00,0.00,0.00,4330,6301,5730,0,0,0,92,100,0
4337,6310,5734,8,9,3,10240,-1.00,-1.00,0.00,0.00,4330,6301,5731,0,0,0,92,100,0
4337,6308,5734,7,8,3,10240,-1.00,-1.00,0.00,0.00,4330,6301,5731,0,0,0,92,100,0
4337,6308,5733,7,7,3,10240,-1.00,-1.00,0.00,0.00,4331,6302,5731,0,0,0,92,100,0
4337,6309,5733,6,7,2,10240,-1.00,-1.00,0.00,0.00,4331,6302,5731,0,0,0,92,100,0
4339,6308,5732,6,6,2,10240,-1.00,-1.00,0.00,0.00,4331,6302,5731,0,0,0,92,100,0
4341,6308,5732,7,6,1,10240,-1.00,-1.00,0.00,0.00,4331,6302,5731,0,0,0,92,100,0
4340,6309,5731,8,6,1,10240,-1.00,-1.00,0.00,0.00,4332,6302,5731,0,0,0,92,100,0
4341,6310,5730,8,6,0,10240,-1.00,-1.00,0.00,0.00,4332,6303,5731,0,0,0,92,100,0
4341,6310,5731,9,6,0,10240,-1.00,-1.00,0.00,0.00,4332,6303,5731,0,0,0,92,100,0
4342,6309,5731,8,6,0,10240,-1.00,-1.00,0.00,0.00,4333,6303,5731,0,0,0,92,100,0
4342,6311,5732,9,7,0,10240,-1.00,-1.00,0.00,0.00,4333,6303,5731,0,0,0,92,100,0
4342,6310,5732,9,6,0,10240,-1.00,-1.00,0.00,0.00,4333,6304,5731,0,0,0,92,100,0
4341,6311,5732,8,6,0,10240,-1.00,-1.00,0.00,0.00,4333,6304,5731,0,0,0,92,100,0
4340,6310,5732,8,6,1,10240,-1.00,-1.00,0.00,0.00,4334,6304,5731,0,0,0,92,100,0
4340,6308,5733,7,5,1,10240,-1.00,-1.00,0.00,0.00,4334,6304,5731,0,0,0,92,100,0
4339,6308,5732,6,5,1,10240,-1.00,-1.00,0.00,0.00,4334,6304,5731,0,0,0,92,100,0
4338,6308,5733,5,4,1,10240,-1.00,-1.00,0.00,0.00,4334,6304,5731,0,0,0,92,100,0
4339,6309,5735,5,4,2,10240,-1.00,-1.00,0.00,0.00,4334,6305,5731,0,0,0,92,100,0
4336,6307,5732,4,3,2,10240,-1.00,-1.00,0.00,0.00,4334,6305,5731,0,0,0,92,100,0
4336,6307,5732,3,3,2,10240,-1.00,-1.00,0.00,0.00,4334,6305,5731,0,0,0,92,100,0
4337,6308,5733,2,2,2,10240,-1.00,-1.00,0.00,0.00,4335,6305,5731,0,0,0,92,100,0
4335,6307,5732,1,2,1,10240,-1.00,-1.00,0.00,0.00,4335,6305,5731,0,0,0,92,100,0
4336,6308,5734,1,2,1,10240,-1.00,-1.00,0.00,0.00,4335,6305,5732,0,0,0,92,100,0
4337,6309,5733,1,3,1,10240,-1.00,-1.00,0.00,0.00,4335,6305,5732,0,0,0,92,100,0
4336,6309,5733,1,3,1,10240,-1.00,-1.00,0.00,0.00,4335,6305,5732,0,0,0,92,100,0
4336,6309,5732,1,3,1,10240,-1.00,-1.00,0.00,0.00,4335,6305,5732,0,0,0,92,100,0
4336,6310,5733,1,4,0,10240,-1.00,-1.00,0.00,0.00,4335,6306,5732,0,0,0,92,100,0
4337,6307,5731,1,3,0,10240,-1.00,-1.00,0.00,0.00,4335,6306,5732,0,0,0,92,100,0
4337,6306,5731,1,2,0,10240,-1.00,-1.00,0.00,0.00,4335,6306,5732,0,0,0,92,100,0
4336,6304,5729,1,0,-1,10240,-1.00,-1.00,0.00,0.00,4335,6306,5732,0,0,0,92,100,0
4336,6305,5729,1,0,-1,10240,-1.00,-1.00,0.00,0.00,4335,6306,5731,0,0,0,92,100,0
4336,6305,5729,1,0,-2,10240,-1.00,-1.00,0.00,0.00,4335,6305,5731,0,0,0,92,100,0
4336,6303,5728,1,-1,-2,10240,-1.00,-1.00,0.00,0.00,4335,6305,5731,0,0,0,92,100,0
4335,6304,5729,0,-1,-2,10240,-1.00,-1.00,0.00,0.00,4335,6305,5731,0,0,0,92,100,0
4336,6304,5728,0,-1,-2,10240,-1.00,-1.00,0.00,0.00,4335,6305,5731,0,0,0,92,100,0
4335,6303,5728,0,-1,-2,10240,-1.00,-1.00,0.00,0.00,4335,6305,5731,0,0,0,92,100,0
4335,6304,5728,0,-1,-2,10240,-1.00,-1.00,0.00,0.00,4335,6305,5731,0,0,0,92,100,0
4335,6304,5729,0,-1,-2,10240,-1.00,-1.00,0.00,0.00,4335,6305,5731,0,0,0,92,100,0
4335,6306,5730,0,0,-2,10240,-1.00,-1.00,0.00,0.00,4335,6305,5731,0,0,0,92,100,0
4335,6305,5729,0,0,-2,10240,-1.00,-1.00,0.00,0.00,4335,6305,5731,0,0,0,92,100,0
4334,6304,5730,0,0,-1,10240,-1.00,-1.00,0.00,0.00,4335,6305,5731,0,0,0,92,100,0
4335,6305,5730,0,0,-1,10240,-1.00,-1.00,0.00,0.00,4335,6305,5731,0,0,0,92,100,0
4335,6305,5730,0,0,-1,10240,-1.00,-1.00,0.00,0.00,4335,6305,5731,0,0,0,92,100,0
4334,6306,5731,0,0,0,10240,-1.00,-1.00,0.00,0.00,4335,6305,5731,0,0,0,92,100,0
4334,6305,5731,0,0,0,10240,-1.00,-1.00,0.00,0.00,4335,6305,5731,0,0,0,92,100,0
4332,6304,5730,-1,0,0,10240,-1.00,-1.00,0.00,0.00,4335,6305,5731,0,0,0,92,100,0
4329,6303,5731,-2,0,0,10240,-1.00,-1.00,0.00,0.00,4335,6305,5731,0,0,0,92,100,0
4328,6302,5731,-4,-1,0,10240,-1.00,-1.00,0.00,0.00,4334,6305,5731,0,0,0,92,100,0
4326,6301,5732,-5,-2,0,10240,-1.00,-1.00,0.00,0.00,4334,6305,5731,0,0,0,92,100,0
4326,6301,5731,-7,-3,0,10240,-1.00,-1.00,0.00,0.00,4334,6305,5731,0,0,0,92,100,0
4325,6298,5727,-7,-4,0,10240,-1.00,-1.00,0.00,0.00,4334,6305,5730,0,0,0,92,100,0
4327,6298,5726,-7,-5,-1,10240,-1.00,-1.00,0.00,0.00,4333,6304,5730,0,0,0,92,100,0
4327,6297,5726,-7,-6,-2,10240,-1.00,-1.00,0.00,0.00,4333,6304,5730,0,0,0,92,100,0
4326,6296,5726,-7,-7,-3,10240,-1.00,-1.00,0.00,0.00,4333,6304,5730,0,0,0,92,100,0
4324,6293,5724,-7,-7,-4,10240,-1.00,-1.00,0.00,0.00,4333,6303,5730,0,0,0,92,100,0
4323,6292,5724,-7,-9,-5,10240,-1.00,-1.00,0.00,0.00,4332,6303,5730,0,0,0,92,100,0
4323,6292,5725,-8,-10,-5,10240,-1.00,-1.00,0.00,0.00,4332,6303,5730,0,0,0,92,100,0
4323,6293,5725,-9,-10,-5,10240,-1.00,-1.00,0.00,0.00,4332,6302,5729,0,0,0,92,100,0
4323,6294,5725,-8,-9,-4,10240,-1.00,-1.00,0.00,0.00,4331,6302,5729,0,0,0,92,100,0
4322,6294,5725,-8,-9,-4,10240,-1.00,-1.00,0.00,0.00,4331,6302,5729,0,0,0,92,100,0
4323,6294,5725,-8,-8,-4,10240,-1.00,-1.00,0.00,0.00,4331,6302,5729,0,0,0,92,100,0
4323,6295,5727,-8,-7,-3,10240,-1.00,-1.00,0.00,0.00,4331,6301,5729,0,0,0,92,100,0
4323,6297,5728,-8,-6,-2,10240,-1.00,-1.00,0.00,0.00,4330,6301,5729,0,0,0,92,100,0
4323,6296,5727,-7,-5,-2,10240,-1.00,-1.00,0.00,0.00,4330,6301,5729,0,0,0,92,100,0
4322,6296,5729,-7,-5,-1,10240,-1.00,-1.00,0.00,0.00,4330,6301,5729,0,0,0,92,100,0
4323,6298,5729,-7,-4,0,10240,-1.00,-1.00,0.00,0.00,4330,6301,5729,0,0,0,92,100,0
4322,6298,5728,-7,-4,0,10240,-1.00,-1.00,0.00,0.00,4329,6301,5729,0,0,0,92,100,0
4322,6297,5728,-7,-3,0,10240,-1.00,-1.00,0.00,0.00,4329,6301,5729,0,0,0,92,100,0
4322,6298,5729,-7,-3,0,10240,-1.00,-1.00,0.00,0.00,4329,6300,5729,0,0,0,92,100,0
4323,6299,5730,-6,-2,0,10240,-1.00,-1.00,0.00,0.00,4329,6300,5729,0,0,0,92,100,0
4324,6300,5730,-6,-1,0,10240,-1.00,-1.00,0.00,0.00,4328,6300,5729,0,0,0,92,100,0
4324,6300,5729,-5,0,0,10240,-1.00,-1.00,0.00,0.00,4328,6300,5729,0,0,0,92,100,0
4325,6300,5730,-4,0,0,10240,-1.00,-1.00,0.00,0.00,4328,6300,5729,0,0,0,92,100,0
4327,6302,5728,-3,0,0,10240,-1.00,-1.00,0.00,0.00,4328,6300,5729,0,0,0,92,100,0
4328,6301,5728,-2,0,0,10240,-1.00,-1.00,0.00,0.00,4328,6301,5729,0,0,0,92,100,0
4328,6300,5727,-1,0,0,10240,-1.00,-1.00,0.00,0.00,4328,6300,5729,0,0,0,92,100,0
4326,6298,5727,0,0,-1,10240,-1.00,-1.00,0.00,0.00,4328,6300,5729,0,0,0,92,100,0
4327,6297,5727,0,-1,-1,10240,-1.00,-1.00,0.00,0.00,4328,6300,5729,0,0,0,92,100,0
4324,6297,5725,-1,-2,-2,10240,-1.00,-1.00,0.00,0.00,4328,6300,5728,0,0,0,92,100,0
4325,6296,5726,-2,-3,-2,10240,-1.00,-1.00,0.00,0.00,4328,6300,5728,0,0,0,92,100,0
4326,6298,5727,-2,-3,-2,10240,-1.00,-1.00,0.00,0.00,4328,6300,5728,0,0,0,92,100,0
4326,6299,5727,-2,-2,-1,10240,-1.00,-1.00,0.00,0.00,4328,6300,5728,0,0,0,92,100,0
4327,6300,5727,-2,-1,-1,10240,-1.00,-1.00,0.00,0.00,4328,6300,5728,0,0,0,92,100,0
4327,6300,5728,-1,0,0,10240,-1.00,-1.00,0.00,0.00,4328,6300,5728,0,0,0,92,100,0
4327,6300,5726,-1,0,-1,10240,-1.00,-1.00,0.00,0.00,4328,6300,5728,0,0,0,92,100,0
4330,6302,5728,0,0,0,10240,-1.00,-1.00,0.00,0.00,4328,6300,5728,0,0,0,92,100,0
4331,6304,5730,0,1,0,10240,-1.00,-1.00,0.00,0.00,4328,6300,5728,0,0,0,92,100,0
4329,6304,5729,1,2,0,10240,-1.00,-1.00,0.00,0.00,4328,6300,5728,0,0,0,92,100,0
4330,6304,5729,2,3,1,10240,-1.00,-1.00,0.00,0.00,4328,6300,5728,0,0,0,92,100,0
4330,6304,5729,2,3,1,10240,-1.00,-1.00,0.00,0.00,4328,6301,5728,0,0,0,92,100,0
4329,6305,5730,1,3,1,10240,-1.00,-1.00,0.00,0.00,4328,6301,5728,0,0,0,92,100,0
4328,6303,5731,1,3,1,10240,-1.00,-1.00,0.00,0.00,4328,6301,5729,0,0,0,92,100,0
4327,6303,5730,0,2,1,10240,-1.00,-1.00,0.00,0.00,4328,6301,5729,0,0,0,92,100,0
4326,6303,5730,0,2,1,10240,-1.00,-1.00,0.00,0.00,4328,6301,5729,0,0,0,92,100,0
4325,6302,5730,-1,1,1,10240,-1.00,-1.00,0.00,0.00,4328,6301,5729,0,0,0,92,100,0
4325,6302,5730,-2,1,1,10240,-1.00,-1.00,0.00,0.00,4328,6301,5729,0,0,0,92,100,0
4329,6301,5728,-1,1,0,10240,-1.00,-1.00,0.00,0.00,4328,6301,5729,0,0,0,92,100,0
4330,6302,5727,0,0,0,10240,-1.00,-1.00,0.00,0.00,4328,6301,5729,0,0,0,92,100,0
4329,6303,5727,0,1,0,10240,-1.00,-1.00,0.00,0.00,4328,6301,5728,0,0,0,92,100,0
4330,6302,5726,1,1,-1,10240,-1.00,-1.00,0.00,0.00,4328,6301,5728,0,0,0,92,100,0
4330,6301,5727,1,1,-1,10240,-1.00,-1.00,0.00,0.00,4328,6301,5728,0,0,0,92,100,0
4331,6302,5726,2,1,-1,10240,-1.00,-1.00,0.00,0.00,4328,6301,5728,0,0,0,92,100,0
4333,6303,5727,3,1,-1,10240,-1.00,-1.00,0.00,0.00,4328,6301,5728,0,0,0,92,100,0
4331,6303,5727,3,1,-1,10240,-1.00,-1.00,0.00,0.00,4328,6301,5728,0,0,0,92,100,0
4332,6304,5727,3,2,-1,10240,-1.00,-1.00,0.00,0.00,4328,6301,5728,0,0,0,92,100,0
4333,6304,5728,4,2,0,10240,-1.00,-1.00,0.00,0.00,4329,6301,5728,0,0,0,92,100,0
4332,6303,5727,3,2,0,10240,-1.00,-1.00,0.00,0.00,4329,6302,5728,0,0,0,92,100,0
4334,6307,5730,4,3,0,10240,-1.00,-1.00,0.00,0.00,4329,6302,5728,0,0,0,92,100,0
4334,6307,5730,4,3,0,10240,-1.00,-1.00,0.00,0.00,4329,6302,5728,0,0,0,92,100,0
4334,6307,5731,4,4,1,10240,-1.00,-1.00,0.00,0.00,4329,6302,5728,0,0,0,92,100,0
4334,6309,5731,5,5,2,10240,-1.00,-1.00,0.00,0.00,4329,6302,5729,0,0,0,92,100,0
4334,6308,5731,4,5,2,10240,-1.00,-1.00,0.00,0.00,4330,6302,5729,0,0,0,92,100,0
4334,6309,5733,4,6,2,10240,-1.00,-1.00,0.00,0.00,4330,6303,5729,0,0,0,92,100,0
4334,6308,5732,4,6,2,10240,-1.00,-1.00,0.00,0.00,4330,6303,5729,0,0,0,92,100,0
4333,6308,5734,3,5,3,10240,-1.00,-1.00,0.00,0.00,4330,6303,5729,0,0,0,92,100,0
4333,6309,5733,3,5,4,10240,-1.00,-1.00,0.00,0.00,4330,6303,5729,0,0,0,92,100,0
4333,6309,5733,3,5,4,10240,-1.00,-1.00,0.00,0.00,4330,6303,5729,0,0,0,92,100,0
4334,6309,5733,3,5,4,10240,-1.00,-1.00,0.00,0.00,4330,6304,5729,0,0,0,92,100,0
4334,6309,5732,3,5,3,10240,-1.00,-1.00,0.00,0.00,4330,6304,5729,0,0,0,92,100,0
4334,6307,5730,3,4,2,10240,-1.00,-1.00,0.00,0.00,4331,6304,5730,0,0,0,92,100,0
4335,6307,5729,3,4,1,10240,-1.00,-1.00,0.00,0.00,4331,6304,5729,0,0,0,92,100,0
4336,6306,5729,4,3,0,10240,-1.00,-1.00,0.00,0.00,4331,6304,5729,0,0,0,92,100,0
4334,6306,5729,3,2,0,10240,-1.00,-1.00,0.00,0.00,4331,6304,5729,0,0,0,92,100,0
4336,6305,5729,4,2,0,10240,-1.00,-1.00,0.00,0.00,4331,6304,5729,0,0,0,92,100,0
4336,6305,5728,4,1,0,10240,-1.00,-1.00,0.00,0.00,4331,6304,5729,0,0,0,92,100,0
4336,6305,5728,4,1,0,10240,-1.00,-1.00,0.00,0.00,4331,6304,5729,0,0,0,92,100,0
4336,6307,5729,4,1,0,10240,-1.00,-1.00,0.00,0.00,4332,6304,5729,0,0,0,92,100,0
4336,6307,5729,4,2,0,10240,-1.00,-1.00,0.00,0.00,4332,6304,5729,0,0,0,92,100,0
4337,6307,5730,4,2,0,10240,-1.00,-1.00,0.00,0.00,4332,6305,5729,0,0,0,92,100,0
4335,6308,5730,4,2,0,10240,-1.00,-1.00,0.00,0.00,4332,6305,5729,0,0,0,92,100,0
4336,6309,5730,4,3,0,10240,-1.00,-1.00,0.00,0.00,4332,6305,5730,0,0,0,92,100,0
4335,6311,5730,3,3,0,10240,-1.00,-1.00,0.00,0.00,4332,6305,5730,0,0,0,92,100,0
4336,6310,5731,3,4,0,10240,-1.00,-1.00,0.00,0.00,4332,6305,5730,0,0,0,92,100,0
4337,6312,5733,3,5,1,10240,-1.00,-1.00,0.00,0.00,4333,6305,5730,0,0,0,92,100,0
4335,6311,5731,3,5,1,10240,-1.00,-1.00,0.00,0.00,4333,6306,5730,0,0,0,92,100,0
4336,6311,5732,3,5,1,10240,-1.00,-1.00,0.00,0.00,4333,6306,5730,0,0,0,92,100,0
4336,6310,5732,3,5,2,10240,-1.00,-1.00,0.00,0.00,4333,6306,5730,0,0,0,92,100,0
4336,6311,5732,2,4,1,10240,-1.00,-1.00,0.00,0.00,4333,6306,5730,0,0,0,92,100,0
4336,6312,5734,3,5,2,10240,-1.00,-1.00,0.00,0.00,4333,6306,5730,0,0,0,92,100,0
4335,6313,5734,2,5,3,10240,-1.00,-1.00,0.00,0.00,4333,6306,5730,0,0,0,92,100,0
4335,6311,5733,2,5,3,10240,-1.00,-1.00,0.00,0.00,4333,6307,5730,0,0,0,92,100,0
4335,6311,5733,2,5,3,10240,-1.00,-1.00,0.00,0.00,4333,6307,5730,0,0,0,92,100,0
4337,6311,5733,2,4,3,10240,-1.00,-1.00,0.00,0.00,4333,6307,5730,0,0,0,92,100,0
4337,6310,5731,3,3,2,10240,-1.00,-1.00,0.00,0.00,4333,6307,5730,0,0,0,92,100,0
4337,6310,5731,3,3,1,10240,-1.00,-1.00,0.00,0.00,4334,6307,5731,0,0,0,92,100,0
4338,6310,5731,3,3,1,10240,-1.00,-1.00,0.00,0.00,4334,6307,5731,0,0,0,92,100,0
4338,6310,5729,3,3,0,10240,-1.00,-1.00,0.00,0.00,4334,6307,5730,0,0,0,92,100,0
4337,6308,5729,3,2,0,10240,-1.00,-1.00,0.00,0.00,4334,6307,5730,0,0,0,92,100,0
4336,6307,5729,3,1,0,10240,-1.00,-1.00,0.00,0.00,4334,6307,5730,0,0,0,92,100,0
4338,6311,5730,3,2,0,10240,-1.00,-1.00,0.00,0.00,4334,6307,5730,0,0,0,92,100,0
4338,6312,5731,3,2,0,10240,-1.00,-1.00,0.00,0.00,4334,6308,5730,0,0,0,92,100,0
4337,6310,5731,3,2,0,10240,-1.00,-1.00,0.00,0.00,4334,6308,5730,0,0,0,92,100,0
4338,6312,5731,3,3,0,10240,-1.00,-1.00,0.00,0.00,4335,6308,5730,0,0,0,92,100,0
4338,6311,5731,3,3,0,10240,-1.00,-1.00,0.00,0.00,4335,6308,5731,0,0,0,92,100,0
4339,6311,5731,3,3,0,10240,-1.00,-1.00,0.00,0.00,4335,6308,5731,0,0,0,92,100,0
4339,6314,5733,3,4,0,10240,-1.00,-1.00,0.00,0.00,4335,6308,5731,0,0,0,92,100,0
4338,6312,5732,3,4,0,10240,-1.00,-1.00,0.00,0.00,4335,6308,5731,0,0,0,92,100,0
4338,6313,5733,3,4,1,10240,-1.00,-1.00,0.00,0.00,4335,6309,5731,0,0,0,92,100,0
4338,6313,5733,3,4,1,10240,-1.00,-1.00,0.00,0.00,4335,6309,5731,0,0,0,92,100,0
4338,6314,5733,3,4,1,10240,-1.00,-1.00,0.00,0.00,4335,6309,5731,0,0,0,92,100,0
4338,6314,5734,3,4,2,10240,-1.00,-1.00,0.00,0.00,4335,6309,5731,0,0,0,92,100,0
4337,6313,5734,2,4,2,10240,-1.00,-1.00,0.00,0.00,4335,6309,5731,0,0,0,92,100,0
4337,6313,5733,2,4,2,10240,-1.00,-1.00,0.00,0.00,4336,6309,5731,0,0,0,92,100,0
4337,6314,5734,1,4,2,10240,-1.00,-1.00,0.00,0.00,4336,6309,5731,0,0,0,92,100,0
4338,6316,5735,1,4,3,10240,-1.00,-1.00,0.00,0.00,4336,6310,5731,0,0,0,92,100,0
4339,6315,5734,1,5,3,10240,-1.00,-1.00,0.00,0.00,4336,6310,5731,0,0,0,92,100,0
4341,6315,5732,2,5,2,10240,-1.00,-1.00,0.00,0.00,4336,6310,5731,0,0,0,92,100,0
4339,6313,5730,3,4,1,10240,-1.00,-1.00,0.00,0.00,4336,6310,5731,0,0,0,92,100,0
4339,6313,5730,3,4,0,10240,-1.00,-1.00,0.00,0.00,4336,6310,5731,0,0,0,92,100,0
4341,6313,5730,4,3,0,10240,-1.00,-1.00,0.00,0.00,4336,6310,5731,0,0,0,92,100,0
4340,6310,5729,3,2,-1,10240,-1.00,-1.00,0.00,0.00,4336,6310,5731,0,0,0,92,100,0
4340,6311,5729,3,1,-1,10240,-1.00,-1.00,0.00,0.00,4337,6310,5731,0,0,0,92,100,0
4341,6312,5730,4,1,-1,10240,-1.00,-1.00,0.00,0.00,4337,6310,5731,0,0,0,92,100,0
4341,6313,5730,3,1,-1,10240,-1.00,-1.00,0.00,0.00,4337,6311,5731,0,0,0,92,100,0
4341,6314,5731,3,2,-1,10240,-1.00,-1.00,0.00,0.00,4337,6311,5731,0,0,0,92,100,0
4340,6315,5731,3,2,0,10240,-1.00,-1.00,0.00,0.00,4337,6311,5731,0,0,0,92,100,0
4341,6315,5732,3,3,0,10240,-1.00,-1.00,0.00,0.00,4337,6311,5731,0,0,0,92,100,0
4342,6315,5732,4,3,0,10240,-1.00,-1.00,0.00,0.00,4337,6311,5731,0,0,0,92,100,0
4342,6318,5732,4,4,0,10240,-1.00,-1.00,0.00,0.00,4337,6311,5731,0,0,0,92,100,0
4343,6317,5733,4,5,1,10240,-1.00,-1.00,0.00,0.00,4338,6311,5731,0,0,0,92,100,0
4341,6316,5733,4,5,1,10240,-1.00,-1.00,0.00,0.00,4338,6312,5731,0,0,0,92,100,0
4341,6316,5733,4,5,1,10240,-1.00,-1.00,0.00,0.00,4338,6312,5731,0,0,0,92,100,0
4341,6317,5734,3,4,2,10240,-1.00,-1.00,0.00,0.00,4338,6312,5732,0,0,0,92,100,0
4342,6318,5735,3,4,2,10240,-1.00,-1.00,0.00,0.00,4338,6312,5732,0,0,0,92,100,0
4342,6319,5735,3,5,2,10240,-1.00,-1.00,0.00,0.00,4338,6312,5732,0,0,0,92,100,0
4341,6319,5735,3,6,2,10240,-1.00,-1.00,0.00,0.00,4338,6313,5732,0,0,0,92,100,0
4342,6318,5736,3,6,3,10240,-1.00,-1.00,0.00,0.00,4338,6313,5732,0,0,0,92,100,0
4343,6320,5736,3,6,3,10240,-1.00,-1.00,0.00,0.00,4339,6313,5732,0,0,0,92,100,0
4341,6319,5735,3,6,3,10240,-1.00,-1.00,0.00,0.00,4339,6313,5732,0,0,0,92,100,0
4341,6316,5734,3,5,3,10240,-1.00,-1.00,0.00,0.00,4339,6313,5732,0,0,0,92,100,0
4343,6316,5732,3,4,2,10240,-1.00,-1.00,0.00,0.00,4339,6313,5732,0,0,0,92,100,0
4343,6316,5732,3,3,1,10240,-1.00,-1.00,0.00,0.00,4339,6313,5732,0,0,0,92,100,0
4344,6316,5732,3,2,0,10240,-1.00,-1.00,0.00,0.00,4339,6314,5732,0,0,0,92,100,0
4345,6319,5731,4,3,0,10240,-1.00,-1.00,0.00,0.00,4339,6314,5732,0,0,0,92,100,0
4345,6318,5732,5,3,0,10240,-1.00,-1.00,0.00,0.00,4340,6314,5732,0,0,0,92,100,0
4343,6317,5731,4,3,0,10240,-1.00,-1.00,0.00,0.00,4340,6314,5732,0,0,0,92,100,0
4345,6319,5733,4,4,0,10240,-1.00,-1.00,0.00,0.00,4340,6314,5732,0,0,0,92,100,0
4345,6319,5733,4,4,0,10240,-1.00,-1.00,0.00,0.00,4340,6314,5732,0,0,0,92,100,0
4345,6319,5734,4,4,0,10240,-1.00,-1.00,0.00,0.00,4340,6314,5732,0,0,0,92,100,0
4346,6319,5734,5,4,1,10240,-1.00,-1.00,0.00,0.00,4340,6315,5732,0,0,0,92,100,0
4346,6321,5734,5,5,1,10240,-1.00,-1.00,0.00,0.00,4341,6315,5732,0,0,0,92,100,0
4346,6321,5735,5,5,2,10240,-1.00,-1.00,0.00,0.00,4341,6315,5733,0,0,0,92,100,0
4345,6321,5734,5,5,1,10240,-1.00,-1.00,0.00,0.00,4341,6315,5733,0,0,0,92,100,0
4346,6323,5736,4,6,2,10240,-1.00,-1.00,0.00,0.00,4341,6316,5733,0,0,0,92,100,0
4344,6321,5736,4,6,2,10240,-1.00,-1.00,0.00,0.00,4341,6316,5733,0,0,0,92,100,0
4345,6323,5736,4,6,2,10240,-1.00,-1.00,0.00,0.00,4341,6316,5733,0,0,0,92,100,0
4345,6322,5736,4,6,3,10240,-1.00,-1.00,0.00,0.00,4341,6316,5733,0,0,0,92,100,0
4345,6322,5738,3,6,3,10240,-1.00,-1.00,0.00,0.00,4342,6316,5733,0,0,0,92,100,0
4345,6324,5738,3,6,4,10240,-1.00,-1.00,0.00,0.00,4342,6317,5733,0,0,0,92,100,0
4345,6324,5738,3,6,4,10240,-1.00,-1.00,0.00,0.00,4342,6317,5734,0,0,0,92,100,0
4345,6325,5737,3,7,4,10240,-1.00,-1.00,0.00,0.00,4342,6317,5734,0,0,0,92,100,0
4344,6325,5739,2,7,4,10240,-1.00,-1.00,0.00,0.00,4342,6317,5734,0,0,0,92,100,0
4345,6324,5738,2,7,4,10240,-1.00,-1.00,0.00,0.00,4342,6318,5734,0,0,0,92,100,0
4348,6324,5736,3,7,3,10240,-1.00,-1.00,0.00,0.00,4342,6318,5734,0,0,0,92,100,0
4349,6326,5736,4,7,3,10240,-1.00,-1.00,0.00,0.00,4342,6318,5734,0,0,0,92,100,0
4349,6325,5734,5,6,2,10240,-1.00,-1.00,0.00,0.00,4343,6318,5734,0,0,0,92,100,0
4351,6325,5735,6,6,1,10240,-1.00,-1.00,0.00,0.00,4343,6319,5734,0,0,0,92,100,0
4352,6325,5736,7,6,1,10240,-1.00,-1.00,0.00,0.00,4343,6319,5734,0,0,0,92,100,0
4352,6324,5735,7,6,1,10240,-1.00,-1.00,0.00,0.00,4344,6319,5734,0,0,0,92,100,0
4352,6326,5738,8,6,2,10240,-1.00,-1.00,0.00,0.00,4344,6319,5734,0,0,0,92,100,0
4351,6325,5737,8,6,2,10240,-1.00,-1.00,0.00,0.00,4344,6319,5734,0,0,0,92,100,0
4350,6326,5737,7,6,2,10240,-1.00,-1.00,0.00,0.00,4344,6320,5735,0,0,0,92,100,0
4349,6325,5736,6,6,2,10240,-1.00,-1.00,0.00,0.00,4344,6320,5735,0,0,0,92,100,0
4349,6325,5737,5,5,2,10240,-1.00,-1.00,0.00,0.00,4345,6320,5735,0,0,0,92,100,0
4348,6324,5737,4,5,1,10240,-1.00,-1.00,0.00,0.00,4345,6320,5735,0,0,0,92,100,0
4347,6325,5738,3,4,2,10240,-1.00,-1.00,0.00,0.00,4345,6320,5735,0,0,0,92,100,0
4347,6326,5738,2,5,2,10240,-1.00,-1.00,0.00,0.00,4345,6320,5735,0,0,0,92,100,0
4345,6325,5738,1,4,2,10240,-1.00,-1.00,0.00,0.00,4345,6321,5735,0,0,0,92,100,0
4345,6324,5738,1,4,3,10240,-1.00,-1.00,0.00,0.00,4345,6321,5735,0,0,0,92,100,0
4345,6324,5738,0,4,3,10240,-1.00,-1.00,0.00,0.00,4345,6321,5735,0,0,0,92,100,0
4344,6325,5740,0,3,3,10240,-1.00,-1.00,0.00,0.00,4345,6321,5735,0,0,0,92,100,0
4342,6324,5739,-1,3,3,10240,-1.00,-1.00,0.00,0.00,4345,6321,5735,0,0,0,92,100,0
4342,6324,5740,-1,3,4,10240,-1.00,-1.00,0.00,0.00,4345,6321,5736,0,0,0,92,100,0
4341,6322,5740,-2,2,4,10240,-1.00,-1.00,0.00,0.00,4344,6321,5736,0,0,0,92,100,0
4341,6322,5741,-3,2,4,10240,-1.00,-1.00,0.00,0.00,4344,6321,5736,0,0,0,92,100,0
4341,6321,5740,-3,1,4,10240,-1.00,-1.00,0.00,0.00,4344,6321,5736,0,0,0,92,100,0
4341,6322,5739,-3,0,4,10240,-1.00,-1.00,0.00,0.00,4344,6321,5736,0,0,0,92,100,0
4340,6321,5737,-3,0,3,10240,-1.00,-1.00,0.00,0.00,4344,6321,5736,0,0,0,92,100,0
4340,6319,5736,-3,0,2,10240,-1.00,-1.00,0.00,0.00,4344,6321,5736,0,0,0,92,100,0
4340,6318,5735,-3,-1,0,10240,-1.00,-1.00,0.00,0.00,4344,6321,5736,0,0,0,92,100,0
4341,6318,5734,-3,-2,0,10240,-1.00,-1.00,0.00,0.00,4344,6321,5736,0,0,0,92,100,0
4340,6318,5735,-3,-2,-1,10240,-1.00,-1.00,0.00,0.00,4344,6321,5736,0,0,0,92,100,0
4340,6318,5735,-3,-3,-1,10240,-1.00,-1.00,0.00,0.00,4343,6321,5736,0,0,0,92,100,0
4340,6318,5735,-3,-3,-1,10240,-1.00,-1.00,0.00,0.00,4343,6321,5736,0,0,0,92,100,0
4341,6320,5736,-3,-2,0,10240,-1.00,-1.00,0.00,0.00,4343,6321,5736,0,0,0,92,100,0
4340,6319,5736,-2,-2,0,10240,-1.00,-1.00,0.00,0.00,4343,6321,5736,0,0,0,92,100,0
4341,6320,5735,-2,-1,0,10240,-1.00,-1.00,0.00,0.00,4343,6320,5736,0,0,0,92,100,0
4341,6320,5736,-2,0,0,10240,-1.00,-1.00,0.00,0.00,4343,6320,5736,0,0,0,92,100,0
4342,6321,5737,-2,0,0,10240,-1.00,-1.00,0.00,0.00,4343,6321,5736,0,0,0,92,100,0
4343,6323,5736,-1,0,0,10240,-1.00,-1.00,0.00,0.00,4343,6321,5736,0,0,0,92,100,0
4343,6323,5737,0,1,0,10240,-1.00,-1.00,0.00,0.00,4343,6321,5736,0,0,0,92,100,0
4345,6325,5739,0,2,1,10240,-1.00,-1.00,0.00,0.00,4343,6321,5736,0,0,0,92,100,0
4344,6325,5739,0,3,1,10240,-1.00,-1.00,0.00,0.00,4343,6321,5736,0,0,0,92,100,0
4343,6324,5738,0,3,2,10240,-1.00,-1.00,0.00,0.00,4343,6321,5736,0,0,0,92,100,0
4343,6324,5738,0,3,2,10240,-1.00,-1.00,0.00,0.00,4343,6321,5736,0,0,0,92,100,0
4341,6323,5739,0,3,2,10240,-1.00,-1.00,0.00,0.00,4343,6321,5736,0,0,0,92,100,0
4343,6325,5741,0,3,2,10240,-1.00,-1.00,0.00,0.00,4343,6321,5737,0,0,0,92,100,0
4343,6325,5741,0,3,3,10240,-1.00,-1.00,0.00,0.00,4343,6321,5737,0,0,0,92,100,0
4342,6324,5741,0,3,3,10240,-1.00,-1.00,0.00,0.00,4343,6322,5737,0,0,0,92,100,0
4341,6324,5740,0,3,3,10240,-1.00,-1.00,0.00,0.00,4343,6322,5737,0,0,0,92,100,0
4341,6324,5738,-1,2,3,10240,-1.00,-1.00,0.00,0.00,4343,6322,5737,0,0,0,92,100,0
4341,6322,5737,-1,1,2,10240,-1.00,-1.00,0.00,0.00,4343,6322,5737,0,0,0,92,100,0
4341,6321,5736,-2,0,0,10240,-1.00,-1.00,0.00,0.00,4343,6322,5737,0,0,0,92,100,0
4341,6321,5735,-2,0,0,10240,-1.00,-1.00,0.00,0.00,4343,6322,5737,0,0,0,92,100,0
4342,6321,5735,-1,0,-1,10240,-1.00,-1.00,0.00,0.00,4343,6322,5737,0,0,0,92,100,0
4342,6321,5735,-1,-1,-1,10240,-1.00,-1.00,0.00,0.00,4343,6322,5737,0,0,0,92,100,0
4342,6321,5735,-1,-1,-2,10240,-1.00,-1.00,0.00,0.00,4343,6322,5737,0,0,0,92,100,0
4342,6322,5736,-1,0,-1,10240,-1.00,-1.00,0.00,0.00,4343,6322,5737,0,0,0,92,100,0
4341,6321,5736,-1,0,-1,10240,-1.00,-1.00,0.00,0.00,4342,6321,5737,0,0,0,92,100,0
4340,6320,5736,-1,0,-1,10240,-1.00,-1.00,0.00,0.00,4342,6321,5737,0,0,0,92,100,0
4340,6320,5736,-1,0,-1,10240,-1.00,-1.00,0.00,0.00,4342,6321,5737,0,0,0,92,100,0
4340,6319,5735,-1,-1,-1,10240,-1.00,-1.00,0.00,0.00,4342,6321,5737,0,0,0,92,100,0
4340,6320,5736,-2,-1,-1,10240,-1.00,-1.00,0.00,0.00,4342,6321,5737,0,0,0,92,100,0
4340,6321,5737,-2,-1,-1,10240,-1.00,-1.00,0.00,0.00,4342,6321,5737,0,0,0,92,100,0
4339,6321,5737,-2,0,0,10240,-1.00,-1.00,0.00,0.00,4342,6321,5737,0,0,0,92,100,0
4339,6321,5737,-2,0,0,10240,-1.00,-1.00,0.00,0.00,4342,6321,5737,0,0,0,92,100,0
4339,6322,5738,-2,0,0,10240,-1.00,-1.00,0.00,0.00,4342,6321,5737,0,0,0,92,100,0
4339,6322,5738,-3,0,0,10240,-1.00,-1.00,0.00,0.00,4342,6321,5737,0,0,0,92,100,0
4338,6321,5738,-3,0,0,10240,-1.00,-1.00,0.00,0.00,4342,6321,5737,0,0,0,92,100,0
4339,6323,5739,-3,1,1,10240,-1.00,-1.00,0.00,0.00,4341,6321,5737,0,0,0,92,100,0
4339,6323,5739,-2,1,1,10240,-1.00,-1.00,0.00,0.00,4341,6322,5737,0,0,0,92,100,0
4339,6324,5740,-2,1,2,10240,-1.00,-1.00,0.00,0.00,4341,6322,5737,0,0,0,92,100,0
4339,6323,5740,-2,1,2,10240,-1.00,-1.00,0.00,0.00,4341,6322,5737,0,0,0,92,100,0
4339,6324,5739,-2,1,2,10240,-1.00,-1.00,0.00,0.00,4341,6322,5737,0,0,0,92,100,0
4341,6322,5737,-1,1,2,10240,-1.00,-1.00,0.00,0.00,4341,6322,5737,0,0,0,92,100,0
4342,6322,5736,0,0,1,10240,-1.00,-1.00,0.00,0.00,4341,6322,5737,0,0,0,92,100,0
4343,6323,5736,0,0,0,10240,-1.00,-1.00,0.00,0.00,4341,6322,5737,0,0,0,92,100,0
4341,6321,5736,0,0,0,10240,-1.00,-1.00,0.00,0.00,4341,6322,5737,0,0,0,92,100,0
4341,6322,5736,0,0,-1,10240,-1.00,-1.00,0.00,0.00,4341,6322,5737,0,0,0,92,100,0
4343,6324,5736,1,0,-1,10240,-1.00,-1.00,0.00,0.00,4341,6322,5737,0,0,0,92,100,0
4344,6325,5736,1,1,-1,10240,-1.00,-1.00,0.00,0.00,4341,6322,5737,0,0,0,92,100,0
4343,6325,5736,1,2,-1,10240,-1.00,-1.00,0.00,0.00,4342,6322,5737,0,0,0,92,100,0
4343,6324,5737,1,2,0,10240,-1.00,-1.00,0.00,0.00,4342,6322,5737,0,0,0,89,100,0
4342,6323,5736,1,2,0,10240,-1.00,-1.00,0.00,0.00,4342,6322,5737,0,0,0,89,100,0
4343,6324,5737,0,2,0,10240,-1.00,-1.00,0.00,0.00,4342,6322,5737,0,0,0,89,100,0
4343,6325,5738,0,2,0,10240,-1.00,-1.00,0.00,0.00,4342,6322,5737,0,0,0,89,100,0
4342,6324,5737,0,2,0,10240,-1.00,-1.00,0.00,0.00,4342,6322,5737,0,0,0,89,100,0
4342,6323,5737,0,2,0,10240,-1.00,-1.00,0.00,0.00,4342,6322,5737,0,0,0,89,100,0
4341,6323,5738,0,1,0,10240,-1.00,-1.00,0.00,0.00,4342,6322,5737,0,0,0,89,100,0
4342,6325,5738,0,1,0,10240,-1.00,-1.00,0.00,0.00,4342,6322,5737,0,0,0,89,100,0
4340,6324,5739,0,1,1,10240,-1.00,-1.00,0.00,0.00,4342,6323,5737,0,0,0,89,100,0
4339,6324,5739,-1,1,1,10240,-1.00,-1.00,0.00,0.00,4341,6323,5737,0,0,0,89,100,0
4339,6323,5739,-1,1,1,10240,-1.00,-1.00,0.00,0.00,4341,6323,5737,0,0,0,89,100,0
4337,6322,5739,-2,0,2,10240,-1.00,-1.00,0.00,0.00,4341,6323,5737,0,0,0,89,100,0
4336,6322,5738,-3,0,1,10240,-1.00,-1.00,0.00,0.00,4341,6322,5737,0,0,0,89,100,0
4338,6322,5741,-3,0,2,10240,-1.00,-1.00,0.00,0.00,4341,6322,5737,0,0,0,89,100,0
4337,6322,5740,-4,0,2,10240,-1.00,-1.00,0.00,0.00,4341,6322,5737,0,0,0,89,100,0
4337,6322,5739,-4,0,2,10240,-1.00,-1.00,0.00,0.00,4341,6322,5737,0,0,0,89,100,0
4336,6321,5737,-4,0,2,10240,-1.00,-1.00,0.00,0.00,4341,6322,5737,0,0,0,89,100,0
4337,6320,5737,-4,0,1,10240,-1.00,-1.00,0.00,0.00,4340,6322,5737,0,0,0,89,100,0
4336,6319,5737,-4,-1,0,10240,-1.00,-1.00,0.00,0.00,4340,6322,5737,0,0,0,89,100,0
4337,6318,5737,-3,-2,0,10240,-1.00,-1.00,0.00,0.00,4340,6322,5737,0,0,0,89,100,0
4336,6318,5735,-3,-3,0,10240,-1.00,-1.00,0.00,0.00,4340,6322,5737,0,0,0,89,100,0
4335,6319,5736,-4,-3,0,10240,-1.00,-1.00,0.00,0.00,4340,6322,5737,0,0,0,89,100,0
4336,6319,5735,-4,-3,-1,10240,-1.00,-1.00,0.00,0.00,4340,6322,5737,0,0,0,89,100,0
4335,6317,5736,-4,-3,-1,10240,-1.00,-1.00,0.00,0.00,4340,6322,5737,0,0,0,89,100,0
4334,6318,5737,-4,-3,-1,10240,-1.00,-1.00,0.00,0.00,4339,6322,5737,0,0,0,89,100,0
4335,6318,5739,-4,-3,0,10240,-1.00,-1.00,0.00,0.00,4339,6321,5737,0,0,0,89,100,0
4335,6321,5738,-4,-3,0,10240,-1.00,-1.00,0.00,0.00,4339,6321,5737,0,0,0,89,100,0
4334,6319,5738,-4,-2,1,10240,-1.00,-1.00,0.00,0.00,4339,6321,5737,0,0,0,89,100,0
4334,6320,5738,-4,-1,1,10240,-1.00,-1.00,0.00,0.00,4339,6321,5737,0,0,0,89,100,0
4333,6319,5739,-5,-1,1,10240,-1.00,-1.00,0.00,0.00,4339,6321,5737,0,0,0,89,100,0
4333,6319,5739,-5,-1,1,10240,-1.00,-1.00,0.00,0.00,4338,6321,5738,0,0,0,89,100,0
4332,6318,5738,-5,-2,1,10240,-1.00,-1.00,0.00,0.00,4338,6321,5738,0,0,0,89,100,0
4331,6318,5739,-6,-2,1,10240,-1.00,-1.00,0.00,0.00,4338,6321,5738,0,0,0,89,100,0
4332,6319,5740,-6,-2,1,10240,-1.00,-1.00,0.00,0.00,4338,6321,5738,0,0,0,89,100,0
4332,6320,5739,-6,-2,1,10240,-1.00,-1.00,0.00,0.00,4338,6321,5738,0,0,0,89,100,0
4332,6321,5740,-6,-1,1,10240,-1.00,-1.00,0.00,0.00,4337,6321,5738,0,0,0,89,100,0
