61387,310737,383207,-99,9,1032,1
61385,310761,383228,-99,21,1032,1
61369,310776,383213,-99,21,1024,1
61435,310986,383406,-96,14,1021,1
61516,310935,383443,-96,11,1014,1
61592,310958,383496,-94,9,1014,1
61514,311107,383584,-95,9,1024,1
61570,311019,383585,-95,14,1030,1
61684,311284,383658,-100,11,1030,1
61601,311224,383679,-99,11,1007,1
61699,311181,383753,-99,10,1046,1
61734,311174,383782,-87,15,1007,1
61740,311251,383782,-108,9,1007,1
61680,311276,383740,-108,9,1046,1
61757,311192,383723,-91,10,1029,1
61655,311037,383766,-105,9,1029,1
61605,311009,383831,-96,9,1002,1
61593,310958,383811,-96,13,1053,1
61606,310924,383880,-103,18,1053,1
61532,310679,383891,-99,18,1008,1
61548,310692,383919,-99,13,1034,1
61456,310601,383919,-98,6,1034,1
61530,310453,383801,-100,6,1004,1
61433,310421,383747,-100,15,1011,1
61497,310206,383542,-99,9,1011,1
61356,310104,383600,-101,12,1013,1
61332,310051,383696,-96,12,1008,1
61379,310100,383803,-96,16,1032,1
61314,309906,383817,-90,14,1032,1
61285,309795,383873,-99,14,1029,1
61276,309789,383815,-99,11,1026,1
61289,309766,383813,-95,12,1026,1
61298,309647,383694,-94,12,1027,1
61267,309679,383687,-94,12,1023,1
61229,309742,383758,-105,13,1023,1
61337,309643,383809,-96,13,1027,1
61324,309714,383835,-96,8,1027,1
61327,309824,383781,-96,12,1020,1
61369,309813,383873,-102,9,1020,1
61533,309825,383930,-94,9,1004,1
61433,309747,383903,-94,13,1026,1
61480,309833,383944,-96,18,1026,1
61432,309866,383860,-105,18,1013,1
61506,309855,383944,-105,8,1005,1
61542,310036,384021,-99,15,1024,1
61578,310071,384009,-97,17,1024,1
61606,310085,384163,-97,17,1038,1
61650,310102,384173,-88,15,1038,1
61666,310064,384116,-102,15,1023,1
61720,310255,384275,-93,15,1011,1
61769,310286,384363,-93,12,1029,1
61828,310362,384478,-110,12,1029,1
61811,310420,384542,-89,12,1013,1
61874,310428,384532,-89,12,1017,1
61830,310564,384652,-90,5,1017,1
61982,310663,384700,-113,5,1015,1
61906,310649,384746,-102,6,974,1
61940,310700,384743,-102,10,1015,1
61992,310810,384789,-111,10,1015,1
62052,310968,384944,-111,17,1021,1
62100,310905,384908,-100,10,1005,1
62178,310978,384907,-99,9,1005,1
62206,311108,385038,-85,9,1005,1
62256,311136,384988,-85,12,1017,1
62280,311220,385191,-84,-3,1017,1
62319,311251,385347,-103,-3,1043,1
62256,311280,385392,-103,20,1015,1
62314,311248,385303,-90,17,1015,1
62275,311230,385324,-93,17,1014,1
62323,311250,385291,-93,20,1010,1
62259,311107,385374,-102,11,1015,1
62264,311041,385424,-99,19,1015,1
62254,310962,385407,-101,19,1008,1
62196,310915,385404,-101,18,1027,1
62239,310949,385430,-84,15,1027,1
62176,310671,385247,-103,15,1032,1
62128,310599,385315,-103,6,1004,1
62111,310566,385320,-93,10,1004,1
62116,310528,385309,-97,10,1010,1
62085,310424,385405,-97,17,1027,1
61992,310252,385491,-96,9,1026,1
61972,310108,385431,-97,9,1026,1
61911,310094,385460,-97,5,1017,1
61974,310054,385477,-102,10,1032,1
61959,310098,385550,-94,12,1032,1
62015,309883,385576,-97,12,1026,1
61988,309931,385637,-97,21,1005,1
61991,309955,385637,-105,15,1005,1
62002,309911,385506,-102,15,1002,1
61944,310011,385600,-102,18,1024,1
62017,309957,385549,-93,21,1024,1
62001,309982,385568,-95,6,1018,1
62088,310023,385600,-101,6,1026,1
62124,310057,385745,-101,11,1034,1
62186,310021,385738,-95,12,1034,1
62181,310116,385743,-101,12,1002,1
62192,310148,385785,-101,13,1002,1
62180,310225,385803,-107,18,1002,1
62258,310239,385864,-98,18,1017,1
62255,310287,385946,-98,17,1014,1
62231,310342,385960,-96,18,1014,1
62347,310385,385948,-94,12,1014,1
62321,310462,385970,-94,12,1005,1
62351,310503,385978,-96,4,1020,1
62482,310572,386026,-105,14,1020,1
62492,310715,386114,-96,14,1001,1
62525,310722,386209,-96,17,993,1
62527,310717,386192,-96,15,993,1
62557,310687,386241,-100,15,1017,1
62590,310855,386217,-100,8,1011,1
62581,310930,386107,-98,15,1011,1
62560,310951,386129,-101,15,1014,1
62657,310969,386148,-101,6,1024,1
62663,311034,386227,-105,18,1013,1
62691,311056,386247,-102,18,1013,1
62731,311173,386251,-102,9,1020,1
62794,311226,386231,-97,18,1023,1
62811,311187,386408,-99,9,1023,1
62815,311263,386380,-97,9,1026,1
62896,311367,386482,-97,9,1008,1
62987,311472,386609,-96,13,1008,1
62982,311484,386581,-99,13,1020,1
62854,311408,386445,-99,9,1037,1
62907,311348,386535,-105,15,1037,1
62914,311374,386450,-107,21,1005,1
62894,311409,386632,-89,21,1029,1
62851,311216,386576,-89,12,1029,1
62845,311103,386560,-112,12,1018,1
62751,311049,386535,-99,15,1035,1
62736,311027,386486,-99,15,1014,1
62770,310862,386497,-98,9,1014,1
62612,310679,386356,-99,9,1024,1
62626,310583,386461,-99,18,1021,1
62595,310445,386298,-96,15,1021,1
62562,310398,386148,-96,15,1008,1
62568,310291,386076,-96,14,1018,1
62453,310256,385984,-93,17,1017,1
62484,310150,386015,-94,18,1017,1
62519,310148,385978,-94,18,1030,1
62441,310158,385987,-101,6,1035,1
62474,310171,385971,-99,17,1035,1
62470,310012,386078,-94,17,1004,1
62509,310057,386138,-94,16,1004,1
62503,310062,386171,-96,16,1004,1
62497,310037,386153,-96,16,1026,1
62519,310249,386298,-96,12,1010,1
62666,310199,386348,-60,4,1030,1
62503,310216,386443,-105,9,1030,1
62576,310186,386478,-105,9,1030,1
62612,310271,386562,-110,11,1030,1
62640,310421,386674,-96,10,1032,1
62708,310449,386671,-99,10,1015,1
62726,310463,386670,-99,7,1018,1
62674,310483,386699,-97,39,1018,1
62731,310506,386632,-105,39,1026,1
62717,310563,386758,-105,16,1020,1
62768,310637,386732,-95,21,1020,1
62797,310692,386777,-101,21,1027,1
62851,310751,386792,-101,11,1027,1
62887,310787,386881,-106,20,1037,1
62929,311033,387189,-100,20,1037,1
62865,311016,387043,-100,12,1035,1
62937,311045,387012,-95,9,1032,1
63054,311049,387040,-103,12,1032,1
62967,311081,387107,-105,12,1024,1
63011,311226,387090,-105,12,1010,1
63021,311180,387089,-112,13,1010,1
63108,311210,387156,-95,13,1026,1
63142,311289,387228,-95,10,1018,1
63135,311328,387343,-90,14,1018,1
63261,311381,387371,-99,14,1026,1
63296,311475,387373,-99,9,1026,1
63291,311547,387421,-105,18,1015,1
63279,311531,387339,-90,12,1015,1
63286,311496,387404,-96,12,1014,1
63409,311700,387456,-96,17,1021,1
63344,311606,387459,-100,15,1021,1
63346,311587,387481,-105,15,1014,1
63256,311545,387439,-105,21,1030,1
63348,311558,387492,-95,23,1030,1
63294,311504,387436,-94,21,1013,1
63363,311247,387237,-98,21,1041,1
63145,311164,387274,-98,10,1041,1
63140,311067,387167,-96,10,1002,1
63104,310978,387116,-99,15,1021,1
63129,310975,387206,-99,9,998,1
63008,310680,386994,-103,13,998,1
62972,310484,386864,-90,13,1044,1
62872,310414,386789,-90,12,1024,1
62834,310325,386641,-103,17,1024,1
62723,310265,386589,-90,17,1002,1
62631,310080,386445,-90,21,1030,1
62777,310113,386304,-103,13,1026,1
62782,310000,386238,-93,13,1026,1
62736,309925,386331,-93,10,1015,1
62759,309965,386297,-105,13,999,1
62875,309929,386320,-96,12,999,1
62725,309885,386258,-90,12,1008,1
62744,309850,386160,-90,14,1029,1
62795,309969,386151,-96,13,1029,1
62802,309960,386245,-96,13,1013,1
62805,310189,386462,-96,12,1034,1
62831,310122,386444,-94,11,1034,1
62839,310103,386454,-96,11,1017,1
62886,310096,386507,-96,12,1046,1
62906,310201,386418,-89,13,1032,1
62957,310198,386526,-99,12,1032,1
62982,310325,386679,-99,12,1029,1
63063,310354,386663,-99,15,1017,1
63025,310395,386639,-98,12,1017,1
63081,310449,386648,-89,12,1013,1
63024,310560,386702,-89,9,1011,1
63056,310537,386646,-96,10,1011,1
63078,310523,386564,-89,10,1017,1
63068,310599,386650,-100,15,998,1
63177,310627,386604,-100,11,998,1
63149,310888,386726,-90,18,1024,1
63228,310848,386795,-93,18,1021,1
63294,310845,386776,-93,14,1013,1
63331,310903,386779,-90,11,1013,1
63354,310989,386843,-94,11,1002,1
63153,311091,387001,-94,17,1029,1
63344,311054,386941,-98,9,1029,1
63449,311080,386862,-85,9,1011,1
63408,311188,386833,-93,15,1005,1
63464,311225,386883,-93,9,1005,1
63529,311255,386948,-96,12,1032,1
63472,311327,386947,-101,12,1034,1
63478,311335,386894,-101,12,1023,1
63439,311344,386884,-93,15,1023,1
63504,311337,386948,-93,15,1018,1
63493,311330,386943,-93,10,1010,1
63548,311220,386991,-99,13,1010,1
63492,311225,386944,-90,13,1030,1
63491,311131,386885,-90,11,1023,1
63457,311085,386955,-96,13,1023,1
63466,311039,387107,-96,13,1017,1
63428,310881,386889,-96,4,1020,1
63351,310768,386801,-93,12,1015,1
63323,310718,386688,-91,15,1015,1
63332,310632,386711,-91,15,1024,1
63225,310640,386875,-91,17,1017,1
63146,310344,386524,-97,12,1017,1
63150,310251,386598,-86,12,1020,1
63133,310176,386510,-86,9,1027,1
63025,310139,386503,-99,14,1027,1
63114,310185,386508,-95,14,1020,1
63080,309899,386441,-95,13,1010,1
63105,309879,386496,-88,11,1029,1
63060,309859,386422,-102,12,1029,1
63022,309848,386397,-99,12,1021,1
63036,309915,386552,-99,16,1018,1
62985,309915,386461,-95,18,1018,1
63068,309917,386474,-91,18,1020,1
63084,309915,386611,-91,11,1032,1
63121,309926,386506,-93,11,1032,1
63159,310000,386571,-95,11,1014,1
63054,310052,386627,-95,12,1029,1
63192,310145,386658,-84,13,1029,1
63293,310175,386722,-93,13,1013,1
63222,310134,386661,-99,15,1007,1
63297,310228,386706,-99,15,1004,1
63367,310215,386667,-84,21,1004,1
63357,310227,386727,-96,21,1026,1
63367,310304,386791,-96,15,1030,1
63441,310433,386911,-90,18,1030,1
63425,310507,386991,-93,18,1007,1
63441,310480,386970,-93,16,1024,1
63418,310546,386881,-96,18,1021,1
63448,310591,386962,-93,18,1021,1
63560,310630,386977,-93,9,1013,1
63647,310722,387131,-98,15,1027,1
63500,310796,387140,-95,15,1027,1
63634,310827,387089,-95,15,1027,1
63643,310710,387014,-95,18,1015,1
63666,310838,387028,-94,12,1015,1
63645,310913,386989,-90,12,1015,1
63774,310961,387067,-90,11,1032,1
63805,310943,387183,-99,12,1032,1
63781,311046,387236,-87,12,1030,1
63811,311053,387246,-87,15,1010,1
63878,311246,387281,-96,11,1010,1
63839,311282,387387,-97,14,1021,1
63953,311292,387388,-90,14,1021,1
63942,311254,387357,-90,16,1010,1
63899,311361,387325,-98,13,1010,1
64027,311323,387350,-100,13,1018,1
63873,311303,387369,-100,20,1032,1
63852,311192,387362,-100,15,1032,1
63892,311075,387382,-93,15,1015,1
63825,310956,387410,-88,5,1002,1
63876,310841,387389,-88,18,1002,1
63768,310920,387416,-95,15,999,1
63728,310576,387396,-85,15,1008,1
63714,310556,387460,-85,21,1027,1
63731,310440,387372,-101,17,1027,1
63595,310472,387435,-101,17,1020,1
63637,310429,387459,-101,15,1013,1
63584,310131,387482,-99,11,1013,1
63538,310139,387479,-93,11,1034,1
63565,310029,387430,-93,18,1002,1
63513,309940,387313,-101,13,1002,1
63521,310033,387323,-99,13,1024,1
63493,309937,387348,-99,9,1007,1
63356,309807,387268,-87,16,1015,1
63450,309795,387135,-97,12,1015,1
63429,309784,387143,-98,12,1013,1
63393,309822,387060,-98,10,1032,1
63442,309828,387102,-93,9,1032,1
63492,309862,387167,-95,9,1008,1
63521,309845,387218,-95,12,1026,1
63591,309920,387240,-87,9,1026,1
63583,309976,387411,-99,9,1029,1
63610,309995,387292,-95,18,1015,1
63616,310065,387221,-95,11,1015,1
63638,310028,387209,-96,15,1032,1
63628,310053,387270,-88,15,1020,1
63617,310128,387338,-88,13,1024,1
63678,310190,387313,-91,6,1024,1
63753,310215,387412,-102,6,1018,1
63756,310242,387412,-102,17,1015,1
63783,310315,387479,-91,19,1015,1
63785,310478,387621,-94,19,1015,1
63847,310458,387616,-94,6,1026,1
63854,310414,387557,-95,13,1001,1
63938,310486,387602,-90,14,1001,1
63877,310515,387640,-102,14,1030,1
63975,310567,387667,-102,8,1026,1
63931,310743,387694,-95,11,1026,1
63981,310718,387672,-96,11,996,1
64014,310817,387605,-96,12,1043,1
64038,310859,387603,-88,22,1043,1
64104,310835,387702,-103,22,1008,1
64092,311047,387767,-103,12,1014,1
64156,311029,387754,-88,6,1001,1
64148,311135,387873,-99,6,1001,1
64232,311146,387890,-99,11,1018,1
64276,311209,387964,-85,12,1023,1
64287,311269,387989,-94,9,1023,1
64309,311284,387941,-98,9,1023,1
64268,311234,387904,-98,17,1034,1
64255,311208,387808,-86,12,1034,1
64252,311194,387828,-101,12,1018,1
64277,311113,387810,-101,13,1044,1
64200,310983,387734,-93,20,1014,1
64240,310866,387798,-97,20,1014,1
64095,310818,387784,-97,12,1024,1
64110,310848,387836,-93,5,1030,1
63807,310490,387570,-80,16,1030,1
64058,310335,387579,-95,16,1020,1
64027,310255,387543,-95,13,1030,1
63914,310114,387448,-88,15,1030,1
63902,310122,387434,-103,15,1014,1
63907,309899,387498,-103,12,1005,1
63753,309786,387353,-95,14,1005,1
63721,309687,387262,-96,14,1023,1
63682,309650,387159,-96,24,1013,1
63666,309569,387111,-96,13,1023,1
63692,309575,386985,-100,13,1023,1
63654,309545,386893,-100,8,1034,1
63691,309547,387011,-96,12,1023,1
63664,309537,386977,-102,12,1023,1
63600,309475,386974,-91,12,1030,1
63641,309499,386958,-91,18,1026,1
63600,309449,386911,-90,12,1026,1
63646,309459,386884,-93,12,1024,1
63689,309493,386862,-93,9,1021,1
63696,309443,386804,-96,12,1021,1
63686,309508,386706,-95,20,1017,1
63738,309511,386660,-111,20,1026,1
63701,309602,386631,-111,18,1007,1
63763,309540,386507,-96,9,1007,1
63774,309587,386575,-100,9,1020,1
63801,309608,386707,-100,10,1029,1
63850,309691,386586,-97,12,1029,1
63875,309715,386728,-101,12,1021,1
63860,309758,386755,-101,5,1037,1
63930,309873,386769,-89,12,1037,1
63838,310022,386870,-101,12,1040,1
64031,310021,386849,-101,9,1027,1
64019,310008,386862,-101,18,1027,1
64032,310020,386832,-98,18,1024,1
64005,310116,386842,-90,12,1026,1
64092,310185,386790,-90,9,1010,1
64129,310201,386727,-105,6,1010,1
64031,310248,386690,-100,6,1020,1
64045,310311,386674,-100,21,1030,1
64184,310419,386671,-102,21,1030,1
64192,310455,386662,-98,21,1020,1
64229,310635,386685,-98,19,1034,1
64196,310613,386603,-95,12,1034,1
64201,310654,386580,-96,17,1014,1
64244,310699,386543,-96,17,1005,1
64302,310800,386697,-94,15,1037,1
64315,310836,386420,-93,16,1037,1
64301,310888,386420,-90,16,1029,1
64241,310799,386375,-90,20,1023,1
64303,310803,386299,-100,12,1023,1
64282,310895,386435,-95,12,1020,1
64274,310744,386200,-95,18,1023,1
64249,310594,386184,-106,15,1013,1
64216,310496,386101,-99,15,1013,1
64161,310352,386041,-99,15,1037,1
64040,310372,385989,-90,20,1037,1
63938,310040,385948,-96,18,1026,1
63860,309898,385930,-99,18,1011,1
63862,309804,385908,-99,14,1010,1
63871,309750,385851,-105,13,1010,1
63750,309589,385813,-101,13,1023,1
63712,309380,385658,-101,16,1017,1
63653,309321,385643,-101,12,1017,1
63631,309264,385700,-102,15,1023,1
63611,309178,385629,-87,15,1029,1
63487,309181,385701,-87,18,1029,1
63516,309075,385619,-94,18,1029,1
63604,309115,385562,-90,17,1021,1
63584,309046,385515,-90,20,1024,1
63537,309107,385548,-100,19,1024,1
63594,309159,385597,-90,19,1020,1
63654,309259,385664,-90,17,1027,1
63574,309277,385689,-86,12,1027,1
63627,309257,385704,-96,12,999,1
63586,309336,385734,-96,15,1023,1
63771,309499,385974,-96,19,1023,1
63749,309502,385968,-91,19,1032,1
63639,309570,385828,-91,12,1007,1
63815,309538,385885,-91,9,1024,1
63786,309616,385845,-99,12,1024,1
63781,309672,385871,-96,12,1015,1
63701,309671,385781,-96,18,1026,1
63828,309740,385756,-100,16,1026,1
63862,309781,385785,-89,16,1029,1
63958,309841,385831,-89,12,1020,1
63948,310035,385947,-99,11,1020,1
64002,310125,385964,-99,11,1011,1
63991,310068,385930,-99,16,1014,1
64008,310039,385939,-102,15,1037,1
64097,310153,385954,-95,13,1037,1
64088,310185,385913,-88,13,1015,1
64115,310242,385766,-88,21,1026,1
64059,310179,385737,-90,17,1026,1
64130,310262,385794,-95,17,1035,1
64124,310281,385807,-95,12,1013,1
64243,310448,385962,-105,2,1014,1
64292,310549,386037,-88,12,1014,1
64264,310630,386105,-88,12,1037,1
64340,310582,386036,-93,13,1037,1
64381,310603,385994,-102,12,1017,1
64337,310641,385934,-93,12,1010,1
64384,310761,386171,-93,6,1015,1
64402,310719,386135,-106,3,1015,1
64391,310766,386226,-99,3,1010,1
64401,310757,386151,-99,26,1017,1
64354,310612,386100,-90,18,1017,1
64310,310748,386244,-106,15,1018,1
64192,310310,386194,-106,15,1011,1
64151,310222,386168,-114,18,1011,1
64099,310000,386084,-105,18,1002,1
64064,309846,386075,-101,22,1021,1
63962,309781,386010,-101,13,1035,1
63866,309378,386034,-96,12,1035,1
63774,309288,385979,-94,12,1034,1
63728,309124,385930,-94,12,1010,1
63598,308929,385860,-103,17,1010,1
63615,308912,385957,-99,17,1010,1
63499,308651,385926,-99,18,1023,1
63509,308571,385934,-93,12,1023,1
63435,308617,385975,-105,12,1020,1
63512,308612,385990,-105,12,1021,1
63512,308615,386010,-93,16,1032,1
63419,308498,386054,-105,12,1032,1
63461,308680,386247,-101,12,1026,1
63469,308705,386221,-101,12,999,1
63477,308666,386288,-88,17,999,1
63586,308840,386612,-102,17,1026,1
63475,308887,386621,-102,8,1034,1
63598,308939,386679,-96,15,1035,1
63595,308976,386743,-100,15,1035,1
63696,309068,386738,-100,14,1008,1
63620,309110,386863,-95,12,1015,1
63731,309145,386841,-106,17,1015,1
63708,309199,387047,-98,17,1024,1
63756,309299,387046,-98,17,1034,1
63720,309370,387189,-94,12,1034,1
63762,309409,387202,-101,12,1032,1
63857,309626,387288,-101,9,1013,1
63885,309630,387329,-102,21,1013,1
63884,309784,387416,-90,21,1020,1
64024,309842,387479,-96,17,1027,1
63989,309925,387669,-96,11,1027,1
64041,310052,387804,-99,11,1032,1
64079,310113,387776,-99,15,1032,1
64013,310067,387900,-106,17,1026,1
64106,310079,387867,-94,12,1026,1
64169,310248,387925,-105,12,1018,1
64208,310361,388132,-105,18,1029,1
64233,310436,388255,-100,17,1029,1
64311,310513,388408,-102,17,1020,1
64362,310522,388455,-102,9,1021,1
64346,310679,388586,-98,15,1032,1
64448,310756,388573,-102,15,1032,1
64451,310830,388513,-97,6,1029,1
64399,310851,388441,-97,14,1005,1
64424,310802,388451,-102,12,1005,1
64500,310982,388621,-93,12,1024,1
64493,310820,388630,-93,17,1005,1
64417,310787,388677,-94,12,1005,1
64408,310801,388717,-102,12,1035,1
64338,310603,388767,-102,16,1011,1
64170,310432,388726,-99,13,1011,1
64123,310099,388600,-98,13,1026,1
63992,309909,388539,-105,21,1026,1
63904,309706,388500,-105,17,1026,1
63820,309513,388523,-105,7,1017,1
63697,309330,388585,-97,7,1027,1
63767,309278,388672,-97,15,1029,1
63494,308857,388850,-103,15,1029,1
63419,308791,388782,-108,15,1021,1
63388,308724,388959,-108,21,1011,1
63385,308611,388934,-105,15,1011,1
63365,308725,389078,-96,15,1034,1
63371,308614,389190,-99,12,1021,1
63371,308685,389315,-99,16,1021,1
63353,308777,389514,-99,16,1002,1
63389,308723,389544,-108,16,1024,1
63363,308867,389693,-108,16,1027,1
63439,308946,389748,-96,13,1027,1
63474,309047,389682,-94,13,1032,1
63498,309096,389668,-94,12,1005,1
63495,309121,389720,-105,13,1005,1
63531,309284,390044,-95,13,1020,1
63639,309373,389981,-95,6,1018,1
63600,309489,390062,-95,19,1018,1
63688,309608,390170,-99,22,998,1
63720,309743,390297,-103,22,1017,1
63655,309963,390494,-103,20,1034,1
63833,310046,390515,-101,8,1034,1
63797,310070,390617,-101,8,1029,1
63833,310210,390674,-101,13,1015,1
63944,310226,390819,-99,12,1015,1
63852,310367,390873,-100,12,996,1
63950,310481,390891,-100,17,1017,1
64053,310609,390937,-97,12,1017,1
64084,310682,390961,-100,12,1023,1
64125,310702,390940,-100,15,996,1
64166,310893,391050,-101,15,996,1
64144,311033,391049,-103,15,1010,1
64174,310981,391106,-100,18,1021,1
64268,311105,391148,-100,13,1013,1
64363,311251,391268,-96,20,1013,1
64445,311310,391431,-101,20,1020,1
64467,311368,391487,-101,20,1024,1
64404,311494,391530,-98,15,1024,1
64522,311569,391624,-97,15,1002,1
64538,311737,391751,-97,12,1035,1
64568,311731,392005,-102,12,1035,1
64555,311736,392067,-105,12,1024,1
64662,311779,392190,-100,11,1026,1
64623,311786,392093,-100,8,1023,1
64605,311805,392225,-102,23,1023,1
64615,311718,392441,-95,23,1005,1
64452,311428,392238,-95,11,1013,1
64376,311336,392067,-108,14,1013,1
64313,311120,391990,-95,14,1021,1
64191,310828,391984,-95,18,1024,1
64134,310727,391989,-110,15,1024,1
63874,310260,391969,-107,15,1026,1
63735,310051,392035,-107,13,1017,1
63708,309928,391939,-99,14,1017,1
63585,309668,392003,-103,13,1008,1
63497,309533,392145,-105,13,1020,1
63319,309283,392183,-105,21,1030,1
63250,309193,392155,-99,15,1030,1
63244,309096,392144,-98,15,1007,1
63197,309149,392169,-98,22,1013,1
63196,309310,392304,-105,9,1013,1
63201,309346,392449,-105,9,1023,1
63259,309449,392450,-95,17,1024,1
63310,309460,392545,-95,16,1024,1
63361,309525,392594,-105,16,1027,1
63253,309641,392671,-105,17,1017,1
63299,309834,392735,-99,23,1013,1
63278,309913,392847,-98,12,1013,1
63401,309952,392842,-98,12,1021,1
63396,310084,393012,-98,20,1030,1
63465,310255,393166,-99,13,1030,1
63466,310436,393333,-105,13,1024,1
63535,310515,393421,-105,18,1011,1
63546,310653,393582,-103,20,1023,1
63671,310812,393669,-101,20,1023,1
63720,310921,393741,-99,20,1007,1
63631,311206,393808,-99,11,1011,1
63762,311346,393848,-100,14,1011,1
63872,311401,393896,-105,14,1032,1
63911,311581,394010,-105,12,1015,1
63979,311692,394124,-100,7,1015,1
64039,311869,394293,-95,7,1017,1
64006,311863,394354,-95,18,1023,1
64028,311995,394422,-101,18,1018,1
64095,312097,394584,-102,18,1018,1
64274,312263,394566,-102,13,1021,1
64277,312370,394755,-101,13,1032,1
64287,312504,394849,-102,13,1032,1
64334,312623,394865,-98,13,1024,1
64428,312665,394880,-98,16,1018,1
64434,312913,394969,-99,16,1018,1
64430,312979,395176,-99,16,1027,1
64588,313109,395252,-99,18,1023,1
64549,313206,395435,-102,16,1023,1
64715,313388,395641,-100,16,1010,1
64686,313424,395639,-99,15,1017,1
64722,313537,395919,-99,11,1017,1
64843,313605,396082,-105,18,1020,1
64847,313558,396042,-107,18,1002,1
64663,313421,396020,-107,17,1014,1
64659,313405,396035,-100,15,1014,1
64537,313304,396118,-105,15,1015,1
64350,312714,395960,-105,14,1018,1
64220,312503,396025,-95,18,1018,1
64189,312286,396046,-105,18,1007,1
64009,312116,396027,-105,15,1023,1
63895,312018,396132,-106,9,1013,1
63577,311314,396183,-105,9,1013,1
63536,311137,396175,-105,15,1024,1
63438,310966,396188,-98,12,1035,1
63316,310825,396280,-99,12,1035,1
63235,310726,396289,-96,12,1032,1
63176,310681,396246,-96,19,1013,1
63074,310616,396161,-108,20,1013,1
63179,310675,396244,-105,20,1007,1
63089,310738,396202,-105,22,1013,1
63191,310859,396382,-102,10,1013,1
63171,311008,396518,-106,7,1011,1
63274,311069,396670,-106,7,1020,1
63292,311300,396675,-106,16,1002,1
63288,311352,396814,-109,4,1002,1
63469,311556,396968,-101,4,1029,1
63401,311681,397110,-101,19,1018,1
63473,311821,397046,-102,8,1018,1
63547,311940,397137,-102,8,1041,1
63578,312075,397315,-102,11,994,1
63669,312298,397507,-105,12,994,1
63738,312375,397505,-100,14,1011,1
63712,312487,397603,-103,14,1023,1
63868,312612,397588,-103,9,1023,1
63805,312684,397641,-107,9,1014,1
63921,312912,397800,-93,15,1007,1
63888,313048,397773,-93,6,1024,1
63985,313131,397744,-99,12,1024,1
64004,313219,397848,-103,12,1002,1
64060,313350,397932,-103,13,1023,1
64071,313466,398005,-108,20,1023,1
64241,313639,398157,-98,20,1008,1
64191,313691,398244,-98,13,1040,1
64325,313794,398207,-108,15,1040,1
64314,313906,398234,-95,15,1018,1
64304,314027,398268,-95,8,1010,1
64384,314065,398261,-108,17,1015,1
64463,314133,398279,-99,15,1015,1
64534,314194,398373,-95,15,1018,1
64532,314340,398415,-95,17,1030,1
64547,314493,398533,-96,17,1030,1
64637,314566,398597,-102,17,1018,1
64686,314616,398604,-102,15,1032,1
64651,314621,398520,-99,17,1032,1
64705,314756,398477,-102,17,1026,1
64639,314858,398542,-102,17,1002,1
64713,314831,398521,-106,14,1014,1
64754,314796,398622,-89,11,1014,1
64653,314655,398634,-105,11,1030,1
64600,314662,398876,-105,4,1023,1
64504,314428,398875,-106,16,1023,1
64456,313984,398701,-105,16,1005,1
64253,313774,398670,-105,16,1024,1
64184,313617,398719,-108,19,1024,1
64106,313387,398542,-102,19,1023,1
63992,313154,398572,-102,15,1027,1
64012,313091,398805,-97,15,1027,1
63706,312677,398964,-97,15,1018,1
63690,312503,398895,-103,15,1011,1
63588,312466,398994,-103,12,1014,1
63547,312325,398889,-101,15,1014,1
63629,312329,399007,-101,15,1015,1
63589,312424,399027,-101,10,1020,1
63497,312390,399094,-102,12,1020,1
63512,312429,399128,-100,12,1024,1
63600,312517,399248,-100,15,1011,1
63618,312675,399284,-105,18,1011,1
63609,312730,399322,-93,18,1014,1
63637,312863,399406,-93,18,1029,1
63755,312961,399496,-100,12,1030,1
63741,313114,399620,-102,16,1030,1
63818,313262,399676,-96,16,1007,1
63892,313431,399661,-96,10,1014,1
63885,313496,399692,-97,18,1014,1
63948,313546,399808,-101,18,1018,1
63908,313627,399789,-101,17,1015,1
63973,313835,399990,-103,9,1018,1
63994,313799,399915,-98,9,1018,1
64081,313942,399935,-98,9,1024,1
64167,314094,399976,-102,9,1024,1
64245,314247,400107,-97,12,1024,1
64209,314362,400158,-98,12,1040,1
64225,314347,400101,-98,18,1027,1
64350,314478,400077,-110,21,1027,1
64322,314599,400090,-97,21,1017,1
64337,314666,400062,-97,15,1024,1
64338,314748,400185,-99,10,1024,1
64411,314839,400143,-99,10,1038,1
64485,314964,400108,-99,20,999,1
64545,315032,400136,-100,15,999,1
64543,315069,400017,-106,15,1017,1
64558,315215,400105,-94,15,1018,1
64692,315272,400124,-94,23,1007,1
64708,315375,400130,-96,9,1007,1
64679,315353,400169,-96,9,1018,1
64724,315422,400144,-96,21,988,1
64783,315679,400430,-101,12,988,1
64777,315673,400391,-99,12,1010,1
64892,315795,400493,-99,12,1034,1
64871,315942,400543,-99,13,1027,1
64950,316057,400458,-96,19,1027,1
64916,316185,400738,-96,19,1013,1
65035,316026,400779,-99,15,1017,1
64964,315983,400896,-97,9,1017,1
64920,315787,400838,-102,9,1017,1
64852,315715,400863,-102,15,1024,1
64687,315558,400867,-102,18,1024,1
64549,315163,400769,-105,18,1034,1
64422,314881,400750,-105,15,1010,1
64347,314555,400605,-99,12,1020,1
64329,314442,400551,-105,10,1020,1
64151,314247,400523,-105,10,1015,1
63934,313782,400425,-89,20,1015,1
63868,313584,400347,-103,21,1021,1
63899,313603,400570,-98,21,1018,1
63865,313500,400533,-98,16,1024,1
63839,313514,400638,-94,18,1024,1
63858,313481,400521,-102,18,1046,1
63774,313365,400517,-102,22,1018,1
63759,313372,400407,-93,15,1018,1
63841,313433,400406,-105,15,1026,1
63739,313611,400503,-105,15,1014,1
63871,313600,400646,-94,12,1014,1
63803,313734,400656,-96,12,1005,1
63876,313857,400823,-106,12,1030,1
63921,313937,400895,-106,16,1010,1
63974,314103,400891,-102,6,1010,1
63827,314203,400955,-101,6,1034,1
63945,314128,400893,-101,12,1005,1
64049,314250,400889,-97,16,1005,1
64115,314390,401027,-102,16,1017,1
64139,314540,401252,-102,15,1024,1
64114,314681,401273,-102,9,1032,1
64186,314736,401219,-102,9,1032,1
64234,314786,401290,-102,10,1018,1
64294,314792,401204,-95,13,1027,1
64333,314967,401234,-99,10,1027,1
64390,315057,401151,-96,10,1021,1
64282,315115,401120,-96,11,1011,1
64371,315255,401131,-107,20,1011,1
64468,315275,401277,-106,20,1011,1
64539,315393,401243,-106,11,1015,1
64635,315462,401378,-95,18,1015,1
64629,315654,401425,-99,18,1026,1
64644,315726,401494,-99,14,1024,1
64753,315885,401560,-99,15,1024,1
64757,315940,401587,-95,12,1024,1
64801,316086,401571,-102,12,1021,1
64769,316214,401478,-102,18,1011,1
64796,316195,401598,-105,-1,1011,1
64890,316402,401453,-100,-1,1023,1
64908,316487,401470,-100,14,1034,1
64912,316529,401556,-105,9,1034,1
65042,316567,401681,-100,9,1004,1
64981,316623,401782,-101,16,1014,1
65049,316703,401818,-101,11,1014,1
65063,316712,401882,-102,11,1040,1
65054,316793,401932,-102,3,1038,1
64879,316517,401863,-97,15,1030,1
64850,316306,401824,-108,15,1030,1
64827,316119,401822,-105,15,1018,1
64694,315927,401879,-105,7,1015,1
64706,315745,401904,-102,18,1015,1
64473,315189,401736,-96,18,1040,1
64352,314923,401658,-96,17,1010,1
64170,314720,401619,-100,11,1032,1
64187,314457,401575,-105,11,1032,1
64080,314293,401606,-105,15,1004,1
63891,313973,401494,-99,17,1015,1
63901,313833,401429,-108,22,1015,1
63841,313682,401432,-105,22,1027,1
63775,313665,401456,-105,14,1010,1
63769,313637,401395,-101,15,1010,1
63787,313663,401271,-101,15,1007,1
63826,313664,401387,-101,12,1020,1
63753,313695,401357,-102,10,1020,1
63853,313808,401388,-101,10,1017,1
63821,313962,401526,-101,12,1002,1
63867,313974,401538,-96,12,1002,1
63894,314096,401491,-101,11,1032,1
63993,314129,401490,-99,11,1032,1
63975,314200,401525,-99,19,1014,1
64044,314419,401615,-108,11,1014,1
64152,314526,401747,-90,11,1018,1
64150,314530,401845,-90,17,1013,1
64166,314700,401755,-103,12,1013,1
64185,314729,401805,-102,12,1034,1
64253,314872,401922,-98,12,1037,1
64328,314970,401952,-98,21,1037,1
64317,315106,401897,-105,18,1015,1
64311,315123,401857,-103,18,1015,1
64528,315238,401882,-103,19,1020,1
64436,315373,401984,-102,13,1020,1
64459,315438,402045,-102,13,1008,1
64536,315392,401958,-102,15,1007,1
64566,315564,402037,-101,18,1007,1
64670,315639,402066,-97,18,1030,1
64650,315805,402101,-97,12,1032,1
64724,315912,402252,-96,15,1032,1
64693,315960,402283,-103,15,1027,1
64743,316069,402261,-99,15,1001,1
64812,316162,402293,-99,18,1015,1
64833,316331,402428,-99,15,1015,1
64893,316452,402521,-102,15,1027,1
64910,316556,402569,-102,19,1017,1
64978,316623,402499,-99,11,1017,1
65064,316683,402577,-97,11,1002,1
65056,316803,402595,-97,6,1027,1
64971,316777,402485,-105,18,1027,1
65076,316907,402450,-99,18,1018,1
65127,316889,402425,-99,14,1037,1
65133,316795,402321,-102,20,1037,1
65060,316877,402472,-99,20,1018,1
65052,316556,402384,-99,17,1029,1
64939,316344,402424,-99,15,1005,1
64795,316173,402479,-105,12,1005,1
64770,315896,402308,-97,12,1021,1
64623,315693,402319,-97,11,1032,1
64615,315572,402277,-93,9,1032,1
64306,315019,402107,-111,9,1021,1
64293,314840,402185,-111,12,1026,1
64167,314535,402047,-96,9,1029,1
64071,314331,401971,-102,19,1029,1
64004,314207,401733,-102,19,1004,1
63845,313854,401778,-105,13,1017,1
63855,313803,401727,-105,15,1017,1
63797,313700,401728,-102,15,1027,1
63757,313593,401696,-102,20,1040,1
63855,313726,401781,-94,9,1040,1
63843,313649,401737,-99,9,1034,1
63808,313700,401809,-99,8,1011,1
63758,313823,401878,-102,15,1011,1
63820,313890,401954,-105,15,1021,1
63911,314020,402133,-105,13,996,1
63944,314073,401998,-98,14,996,1
63970,314230,402103,-99,12,1027,1
63956,314208,402185,-99,12,1014,1
64015,314350,402126,-99,15,1023,1
64028,314513,402207,-100,15,1023,1
64092,314633,402319,-97,15,1021,1
64097,314681,402354,-97,15,1021,1
64183,314695,402423,-103,13,1021,1
64195,314718,402333,-105,13,1026,1
64303,314941,402510,-105,10,1021,1
64310,314939,402461,-101,16,1021,1
64346,315073,402638,-111,16,1018,1
64337,315094,402671,-102,12,1005,1
64449,315213,402767,-102,9,1032,1
64412,315388,402756,-102,18,1032,1
64492,315502,402679,-96,18,1034,1
64524,315598,402739,-96,14,1010,1
64573,315619,402685,-97,9,1010,1
64589,315703,402694,-111,9,1020,1
64654,315780,402840,-111,10,1002,1
64738,315929,402798,-108,15,1002,1
64832,316037,402957,-90,18,1023,1
64828,316054,402892,-97,18,1020,1
64829,316162,402904,-97,14,1010,1
64811,316305,403177,-95,14,1010,1
64929,316476,402992,-101,14,1047,1
64915,316476,402976,-101,16,1027,1
64974,316571,403012,-105,12,1027,1
65023,316706,403098,-97,12,1008,1
65061,316763,403163,-97,14,1018,1
65111,316777,403135,-102,15,1018,1
65087,316792,403126,-109,13,1002,1
65100,316779,403075,-109,13,1018,1
65125,316847,403247,-102,4,1030,1
65111,316775,403267,-101,11,1030,1
64996,316494,403113,-106,11,1011,1
64968,316391,403248,-106,16,1020,1
64828,316195,403106,-98,13,1020,1
64843,315883,403069,-103,13,1017,1
64654,315704,403055,-103,16,1024,1
64530,315275,402992,-103,15,1024,1
64432,315010,402928,-93,15,1021,1
64362,314724,402853,-93,12,1014,1
64202,314520,402858,-98,12,1014,1
64144,314353,402954,-105,12,1024,1
64158,313978,402846,-98,1,1010,1
63893,313803,402809,-98,18,1018,1
63900,313754,402774,-102,18,1018,1
63955,313729,402700,-97,18,1014,1
63889,313767,402850,-97,12,1017,1
63972,313739,402922,-103,17,1017,1
63885,313747,402877,-103,17,1056,1
63871,313781,402958,-103,15,1017,1
63967,313878,403068,-89,17,1017,1
63929,313908,403167,-98,17,1015,1
63904,313967,403243,-98,17,1013,1
64077,314120,403329,-108,12,1013,1
64065,314249,403328,-91,13,1035,1
64184,314365,403409,-101,13,1011,1
64107,314464,403432,-101,12,1023,1
64218,314571,403430,-100,12,1023,1
64208,314617,403362,-100,12,1011,1
64289,314695,403421,-100,14,1021,1
64330,314754,403418,-95,15,1021,1
64395,314778,403420,-96,15,1021,1
64452,314941,403479,-96,13,1029,1
64428,315074,403455,-106,15,1029,1
64407,315124,403402,-99,15,1035,1
64419,315192,403454,-99,14,1015,1
64569,315209,403447,-99,15,1035,1
64570,315304,403547,-106,12,1035,1
64591,315514,403575,-102,12,1014,1
64659,315507,403509,-102,9,1035,1
64664,315612,403484,-96,18,1035,1
64727,315605,403503,-96,18,998,1
64777,315657,403426,-96,17,1011,1
64740,315786,403372,-108,17,1011,1
64781,315913,403418,-101,17,1023,1
64779,315917,403369,-101,15,1037,1
64857,316011,403506,-105,9,1037,1
64850,316148,403611,-103,14,1013,1
65011,316300,403707,-106,14,1032,1
65085,316391,403750,-106,13,1030,1
64940,316432,403644,-102,16,1030,1
65083,316424,403700,-101,16,1007,1
65103,316701,403726,-101,12,1023,1
65173,316761,403755,-111,18,1023,1
65135,316752,403721,-96,18,1043,1
65238,316823,403636,-96,9,1007,1
65168,316700,403636,-103,13,1007,1
65225,316827,403618,-106,13,1034,1
65069,316574,403636,-96,21,1010,1
65049,316378,403576,-96,12,1030,1
64943,316143,403507,-95,12,1030,1
64917,315863,403463,-103,12,1024,1
64885,315666,403574,-103,12,1032,1
64567,315285,403470,-105,15,1032,1
64516,314970,403366,-97,15,1021,1
64410,314746,403309,-97,14,1021,1
64320,314491,403227,-93,20,1027,1
64286,314379,403088,-102,20,1027,1
64040,314004,402963,-107,10,1026,1
64003,313860,402938,-107,15,1040,1
63954,313679,402921,-111,5,1040,1
63969,313654,402975,-99,5,1017,1
63893,313798,403109,-99,16,1026,1
63878,313733,403123,-102,13,1026,1
63859,313669,403104,-94,13,1015,1
63791,313723,403065,-94,14,1018,1
63913,313767,403089,-98,22,1018,1
63927,313978,403336,-100,22,1037,1
64043,313988,403363,-105,9,1020,1
64098,314041,403431,-105,12,1020,1
64082,314235,403516,-98,11,990,1
64076,314325,403505,-99,11,1020,1
64098,314360,403516,-99,17,1024,1
64094,314445,403590,-99,22,1024,1
64142,314555,403532,-90,22,1014,1
64260,314652,403550,-90,16,1037,1
64230,314681,403443,-98,9,1037,1
64289,314713,403478,-105,9,1026,1
64234,314826,403208,-105,14,1024,1
64325,314996,403282,-108,13,1024,1
64434,315030,403272,-99,13,1010,1
64465,315052,403412,-93,8,1014,1
64541,315203,403498,-93,11,1026,1
64595,315328,403710,-105,22,1026,1
64639,315496,403785,-100,22,1014,1
64696,315580,403841,-100,11,1014,1
64767,315658,403958,-106,20,1014,1
64765,315768,404093,-97,20,1024,1
64869,315784,403950,-97,12,1018,1
64841,315871,403857,-100,13,1018,1
64871,315938,403782,-99,13,1023,1
64879,316014,403822,-99,18,1027,1
64881,316159,403786,-96,15,1027,1
64803,316245,403788,-102,14,1027,1
65001,316355,403701,-108,14,1014,1
65002,316421,403700,-108,11,1004,1
65087,316482,403651,-99,9,1004,1
65082,316577,403679,-99,9,1017,1
65158,316688,403713,-99,11,1008,1
65173,316626,403660,-88,18,1008,1
65234,316796,403521,-98,18,1015,1
65139,316771,403376,-98,14,1013,1
65103,316786,403250,-105,18,1013,1
65188,316896,403230,-101,11,1013,1
65118,316697,403277,-91,11,1017,1
65056,316674,403464,-91,9,1023,1
65062,316592,403486,-107,18,1023,1
65052,316433,403653,-99,18,1023,1
65025,316197,403673,-99,11,1040,1
64817,315743,403760,-91,14,1040,1
64740,315468,403566,-101,14,1013,1
64690,315264,403427,-101,14,1024,1
64547,315008,403229,-101,7,1024,1
64459,314821,403068,-99,7,1035,1
64240,314383,402988,-96,15,1026,1
64247,314192,403125,-96,13,1013,1
64202,314162,403096,-102,9,1013,1
64130,314036,403120,-97,9,1032,1
64055,314086,403163,-97,16,1013,1
64093,313944,403190,-105,9,1013,1
64113,313892,403078,-97,9,1037,1
64053,313986,403157,-97,12,1020,1
64108,314063,403121,-97,19,1018,1
64086,314237,403228,-93,18,1018,1
64117,314190,403161,-93,18,1007,1
64177,314312,403197,-101,22,1020,1
64231,314436,403234,-97,18,1020,1
64298,314571,403402,-93,18,1011,1
64436,314568,403523,-93,9,1007,1
64412,314663,403445,-93,9,1007,1
64404,314810,403476,-99,9,1038,1
64411,314830,403340,-99,12,998,1
64423,314960,403312,-102,17,998,1
64355,315111,403301,-99,17,1024,1
64488,315157,403319,-102,18,1020,1
64620,315299,403341,-102,9,1020,1
64574,315351,403328,-90,15,1035,1
64651,315379,403387,-101,15,1005,1
64649,315497,403489,-101,15,1032,1
64679,315641,403422,-100,7,1032,1
64725,315697,403453,-99,7,1038,1
64794,315761,403446,-99,9,1018,1
64886,315906,403415,-100,16,1018,1
64891,316071,403573,-101,16,1026,1
64919,316023,403335,-97,22,1024,1
65025,316091,403291,-97,13,1024,1
65003,316238,403224,-107,15,1017,1
64987,316224,403272,-103,15,1013,1
64956,316464,403401,-103,8,1021,1
65178,316447,403394,-102,20,1021,1
65202,316555,403588,-100,20,1029,1
65252,316578,403563,-100,9,1029,1
65216,316674,403532,-101,13,1029,1
65283,316765,403640,-107,13,1047,1
65313,316818,403414,-107,9,1011,1
65376,316850,403381,-105,18,1011,1
65344,316879,403380,-98,18,1024,1
65390,316922,403402,-96,12,1010,1
65444,317072,403505,-96,16,1017,1
65482,317048,403736,-95,20,1017,1
65498,316996,403823,-96,20,1026,1
65478,316897,403857,-96,15,1015,1
65337,316733,403883,-102,20,1015,1
65357,316625,403915,-100,20,1014,1
65319,316103,403633,-100,19,1004,1
65138,315828,403581,-102,14,1004,1
64949,315531,403466,-106,14,1026,1
64979,315289,403554,-106,17,1020,1
64830,315166,403570,-98,13,1020,1
64745,314704,403376,-100,13,1020,1
64594,314475,403439,-100,13,1005,1
64600,314388,403449,-100,15,1030,1
64523,314257,403572,-105,14,1030,1
64455,314245,403675,-107,14,991,1
64318,314113,403754,-107,9,1015,1
64419,314128,403635,-102,11,1015,1
64462,314053,403682,-94,11,1024,1
64469,314124,403681,-110,22,1030,1
64494,314185,403642,-110,12,1021,1
64562,314329,403674,-108,12,1021,1
64553,314340,403786,-108,18,1023,1
64601,314328,403848,-102,12,1021,1
64593,314535,403937,-97,18,1021,1
64667,314598,403879,-96,18,1037,1
64760,314822,404015,-96,17,1011,1
64794,314824,404050,-96,19,1011,1
64735,314804,404083,-101,19,1023,1
64843,314995,404102,-101,17,1010,1
64939,315093,404275,-105,12,1010,1
64989,315205,404424,-107,12,1029,1
65047,315270,404394,-101,18,1010,1
65083,315374,404323,-101,12,1035,1
65141,315414,404433,-102,14,1035,1
65223,315591,404403,-101,14,1015,1
65191,315651,404355,-101,15,1015,1
65385,315765,404502,-97,16,1015,1
65333,315816,404508,-105,16,1010,1
65392,315892,404538,-105,20,1017,1
65429,315897,404506,-100,6,1020,1
65482,316034,404667,-109,6,1020,1
65513,316118,404479,-109,13,1024,1
65559,316215,404450,-100,12,1008,1
65515,316195,404390,-108,17,1008,1
65583,316229,404378,-105,17,1008,1
65714,316514,404703,-105,11,1013,1
65737,316506,404688,-108,20,1013,1
65746,316583,404699,-99,20,1017,1
65859,316643,404734,-99,12,1024,1
65912,316681,404820,-107,18,1024,1
66005,316962,404954,-96,18,1017,1
65988,316968,404905,-96,15,1027,1
66008,316962,404814,-101,19,1027,1
65988,316953,404774,-105,24,1034,1
66092,317047,404746,-100,24,1032,1
66067,317145,404771,-100,14,1020,1
66117,317142,404802,-106,13,1020,1
66079,317040,404740,-90,13,1018,1
66054,316928,404820,-90,18,996,1
66084,316705,404796,-98,20,996,1
65954,316541,404978,-99,20,1013,1
65844,316183,404854,-99,18,1023,1
65803,315866,404728,-100,15,1023,1
65646,315630,404649,-102,17,1026,1
65615,315389,404552,-99,17,1038,1
65552,315261,404514,-99,10,1014,1
65259,314620,404174,-106,17,1014,1
65255,314401,404079,-101,17,1005,1
65162,314257,403960,-101,18,1015,1
65090,314145,403848,-94,17,1015,1
65068,314155,403881,-102,17,1014,1
64953,313913,403784,-102,15,1021,1
64927,313901,403662,-102,13,1021,1
64956,313878,403638,-99,13,1008,1
65023,314010,403622,-99,11,1014,1
65055,314061,403585,-112,12,1014,1
65088,314140,403605,-109,12,1013,1
65088,314195,403645,-96,12,1034,1
65219,314303,403678,-96,20,1024,1
65250,314279,403856,-110,13,1024,1
65240,314525,403950,-110,13,1021,1
65335,314622,403780,-110,12,1027,1
65324,314698,403951,-98,13,1027,1
65474,314871,404052,-102,13,1037,1
65458,314933,404111,-102,12,1014,1
65507,315060,404255,-105,19,1005,1
65678,315241,404296,-96,19,1005,1
65668,315240,404298,-102,13,1010,1
65701,315352,404344,-102,14,1023,1
65700,315389,404253,-102,15,1023,1
65769,315522,404264,-103,15,1007,1
65746,315583,404257,-103,18,1020,1
65878,315718,404390,-108,20,1020,1
65943,315713,404262,-105,20,1014,1
65983,315835,404371,-105,9,1014,1
65930,315959,404495,-105,19,1021,1
65906,316018,404542,-105,19,1021,1
66092,316119,404508,-105,12,1047,1
66122,316127,404474,-105,10,1015,1
66144,316200,404510,-99,8,1015,1
66285,316368,404552,-106,8,1027,1
66268,316421,404597,-106,15,1014,1
66317,316476,404531,-99,15,1014,1
66313,316544,404591,-102,15,998,1
66402,316652,404665,-102,15,1020,1
66481,316701,404779,-103,11,1020,1
66556,316835,404841,-108,13,1002,1
66458,316840,404904,-106,13,1020,1
66574,316887,404928,-106,15,1020,1
66592,316902,404813,-95,15,1020,1
66657,316962,404851,-108,20,1021,1
66637,316983,404849,-108,21,1015,1
66719,317021,404877,-102,12,1015,1
66718,316920,404921,-100,12,1023,1
66802,316907,405049,-100,15,1017,1
66736,316852,405081,-106,14,1017,1
66694,316743,404941,-105,14,1026,1
66644,316257,404947,-105,10,1010,1
66523,316060,404937,-108,17,1010,1
66392,315868,404864,-105,13,1010,1
66335,315542,404645,-93,13,1023,1
66220,315402,404615,-93,14,1026,1
66026,314958,404599,-100,12,1026,1
65963,314688,404506,-102,12,1026,1
65875,314490,404384,-102,9,1021,1
65787,314350,404386,-98,13,1021,1
65693,314347,404413,-99,13,1020,1
65734,314063,404144,-99,14,1007,1
65713,314082,404176,-111,12,1007,1
65755,314158,404255,-106,12,1021,1
65692,314147,404353,-106,17,1007,1
65783,314229,404526,-105,15,1037,1
65728,314269,404504,-100,12,1037,1
65818,314365,404543,-111,12,1026,1
65913,314458,404460,-111,19,1013,1
65846,314561,404486,-100,15,1013,1
65965,314662,404615,-106,15,1013,1
65958,314746,404617,-106,18,1024,1
66067,314774,404757,-108,15,1024,1
66152,314964,404894,-103,15,1023,1
66214,315093,405043,-103,19,1020,1
66228,315121,405140,-99,13,1020,1
66326,315240,405156,-102,13,999,1
66367,315339,405255,-99,16,1032,1
66392,315383,405137,-99,12,1024,1
66528,315563,405228,-102,15,1024,1
66524,315790,405359,-103,15,1024,1
66562,315836,405340,-103,17,1013,1
66642,315802,405331,-114,21,1013,1
66640,315942,405323,-94,21,1032,1
66705,315986,405471,-94,13,1024,1
66839,316214,405488,-99,18,1011,1
66881,316272,405674,-102,18,1011,1
66938,316374,405775,-102,14,1005,1
66907,316394,405749,-101,11,1040,1
66995,316452,405664,-103,18,1040,1
67060,316543,405668,-102,18,1015,1
67049,316577,405586,-102,19,1010,1
67104,316670,405601,-110,11,1010,1
67146,316676,405630,-108,11,1018,1
67193,316737,405624,-108,8,1037,1
67230,316876,405723,-114,12,1037,1
67264,316943,405736,-105,12,1008,1
67285,317027,405757,-105,19,1037,1
67374,317043,405660,-105,16,1037,1
67339,317033,405670,-102,15,1037,1
67425,317236,405827,-101,15,1007,1
67516,317159,405703,-101,18,1013,1
67489,317197,405771,-102,16,1013,1
67479,317230,405680,-102,16,1017,1
67497,317157,405693,-102,20,1035,1
67490,317097,405843,-106,12,1035,1
67484,316881,405590,-102,12,1014,1
67345,316638,405561,-102,15,1026,1
67288,316447,405561,-99,15,1026,1
67199,316131,405466,-107,15,1004,1
67046,315917,405551,-107,28,1010,1
66777,315337,405407,-102,21,1020,1
66804,315154,405360,-106,16,1020,1
66717,314845,405297,-111,16,1007,1
66636,314758,405265,-111,16,1018,1
66558,314636,405299,-111,17,1018,1
66601,314340,405308,-106,17,1010,1
66385,314182,405215,-106,12,1010,1
66296,314124,405120,-105,12,1010,1
66367,314059,405243,-107,12,1014,1
66254,314188,405166,-107,22,1026,1
66345,314304,405269,-108,17,1026,1
66333,314237,405255,-106,15,1018,1
66362,314330,405231,-109,15,1034,1
66473,314430,405254,-109,12,1027,1
66461,314599,405362,-99,15,1027,1
66470,314708,405457,-106,15,1008,1
66583,314704,405497,-106,12,1018,1
66605,314799,405566,-100,12,1018,1
66689,314948,405700,-107,12,1018,1
66744,315031,405776,-107,23,1026,1
66824,315186,405999,-107,11,1004,1
66913,315385,406019,-110,22,1004,1
66907,315404,406079,-107,22,1026,1
66957,315430,406132,-107,11,1038,1
67040,315646,406102,-97,9,1038,1
67047,315653,406147,-106,9,1023,1
67171,315893,406150,-106,16,1032,1
67167,315907,406111,-96,15,1032,1
67187,315998,406110,-108,15,1013,1
67319,316041,406177,-108,21,1027,1
67250,316279,406303,-100,20,1027,1
67385,316321,406161,-108,20,1034,1
67479,316419,406098,-103,9,1008,1
67592,316500,406210,-103,16,1024,1
67526,316485,406140,-106,17,1024,1
67632,316682,406259,-105,17,1008,1
67601,316707,406275,-105,15,1034,1
67695,316806,406269,-107,12,1034,1
67667,316884,406399,-97,12,1024,1
67612,316897,406453,-97,14,1032,1
67887,317126,406477,-103,12,1032,1
67917,317169,406449,-93,12,1027,1
68021,317238,406565,-93,12,1021,1
68015,317299,406573,-113,14,1021,1
68069,317428,406612,-100,6,1015,1
68102,317333,406838,-96,6,1014,1
68125,317488,406719,-96,12,1037,1
68103,317472,406617,-100,16,1037,1
68187,317520,406653,-100,16,1044,1
68186,317608,406646,-100,18,1038,1
68156,317740,406772,-93,18,1038,1
68221,317538,406664,-109,18,1021,1
68136,317294,406591,-109,15,1013,1
68125,317090,406471,-97,13,1013,1
67990,317006,406455,-108,13,1035,1
67925,316789,406346,-108,15,1024,1
67704,316297,406139,-100,11,1027,1
67681,315999,406174,-102,9,1027,1
67550,315728,406090,-117,9,1021,1
67414,315551,406055,-117,12,1015,1
67306,315305,406113,-105,13,1015,1
67162,314973,405819,-97,13,1029,1
67189,314855,405775,-97,19,1038,1
67123,314755,405836,-96,9,1038,1
67047,314712,405747,-103,9,1015,1
67024,314658,405851,-102,18,1049,1
66879,314749,405738,-102,15,1017,1
67040,314747,405757,-99,12,1017,1
67049,314885,405860,-105,12,1014,1
67055,314910,405815,-105,13,1023,1
67092,315008,406067,-107,16,1023,1
67213,315197,406167,-111,16,1007,1
67164,315210,406176,-111,13,1023,1
67249,315288,406206,-103,18,1023,1
67283,315361,406243,-98,9,1005,1
67320,315523,406403,-108,9,1015,1
67349,315645,406363,-108,9,1015,1
67405,315736,406431,-91,9,1023,1
67493,315880,406518,-102,16,1017,1
67568,315890,406536,-102,11,1013,1
67575,316035,406603,-103,21,1013,1
67476,316189,406659,-99,21,1004,1
67700,316283,406662,-99,12,1040,1
67763,316400,406648,-101,14,1040,1
67734,316432,406718,-105,14,1027,1
67786,316473,406764,-105,15,1027,1
67989,316694,406930,-101,21,1026,1
68032,316717,406909,-97,7,1026,1
68066,316834,407004,-97,7,1001,1
68130,316805,407053,-105,22,1007,1
68059,316998,407028,-102,15,1007,1
68168,316974,407050,-111,15,1010,1
68267,317093,406968,-111,15,1014,1
68293,317159,407031,-106,24,1014,1
68289,317258,407010,-109,24,1007,1
68406,317243,407071,-109,12,1020,1
68409,317362,407249,-110,14,1020,1
68376,317462,407102,-90,14,1021,1
68393,317488,407115,-102,5,1037,1
68514,317586,407137,-102,16,1037,1
68598,317633,407168,-101,21,1004,1
68594,317644,407053,-106,21,1024,1
68549,317648,407038,-106,15,1015,1
68617,317721,406984,-99,18,1015,1
68564,317787,407008,-101,18,1040,1
68570,317755,407025,-101,21,1015,1
68569,317865,407055,-102,17,1015,1
68540,317551,406915,-100,17,1014,1
68501,317360,406765,-100,7,1026,1
68442,317195,406723,-102,15,1026,1
68340,316916,406611,-103,15,1002,1
68136,316778,406551,-103,18,1029,1
68069,316209,406391,-101,18,1013,1
67896,316061,406239,-105,21,1013,1
67835,315772,406028,-99,21,1024,1
67701,315461,405911,-99,18,1008,1
67623,315267,405776,-100,20,1008,1
67291,314764,405501,-102,20,1018,1
67173,314726,405324,-102,14,1018,1
67172,314585,405242,-103,19,1011,1
67114,314636,405093,-100,15,1011,1
67220,314645,405081,-100,15,1017,1
67047,314594,404902,-108,14,1017,1
67099,314551,404947,-103,15,1027,1
67114,314688,404954,-98,15,1005,1
67033,314698,404888,-98,12,1024,1
67098,314913,404993,-109,12,1024,1
67096,314982,404972,-102,12,1029,1
67207,315026,404879,-102,11,1018,1
67135,315054,404821,-99,15,1018,1
67153,315128,404804,-103,15,1017,1
67231,315363,404954,-103,14,1018,1
67382,315485,404867,-96,18,1018,1
67454,315589,405001,-108,18,1018,1
67440,315644,404931,-108,17,1023,1
67458,315780,404872,-96,7,1024,1
67364,315856,404747,-94,14,1024,1
67500,316074,404931,-107,14,1004,1
67500,316027,404879,-107,10,1004,1
67543,316131,404715,-102,21,1004,1
67538,316219,404696,-102,21,1010,1
67597,316341,404846,-102,17,1030,1
67749,316495,404760,-107,13,1030,1
67762,316628,404866,-107,13,1021,1
67785,316727,404814,-107,15,1043,1
67808,316684,404829,-106,9,1015,1
67848,316844,404764,-99,12,1015,1
67793,316913,404600,-111,12,1005,1
67830,316994,404554,-111,17,1035,1
67931,317087,404490,-100,22,1035,1
67929,317165,404358,-102,22,1013,1
67891,317263,404332,-102,12,1010,1
68043,317295,404174,-106,21,1010,1
68042,317376,404255,-111,17,1018,1
68071,317417,404181,-108,17,1010,1
68093,317526,404168,-108,18,1010,1
68026,317590,404129,-99,18,1008,1
68048,317571,404106,-108,18,1041,1
68136,317657,403938,-108,15,1020,1
68151,317612,403954,-109,15,1020,1
68170,317626,403925,-109,15,1010,1
68190,317734,403988,-109,15,1029,1
68167,317519,403870,-119,15,1029,1
68059,317336,403789,-102,15,1014,1
68051,317164,403732,-102,19,1015,1
67925,317023,403570,-99,14,1010,1
67818,316808,403468,-106,15,1010,1
67830,316674,403248,-106,15,1020,1
67438,315960,403004,-99,18,1030,1
67322,315659,402821,-108,12,1030,1
67185,315405,402727,-105,12,1018,1
67040,315183,402595,-105,12,1020,1
66972,314995,402412,-101,10,1020,1
66777,314548,402339,-106,10,1026,1
66728,314403,402215,-106,19,1020,1
66674,314377,402235,-97,12,1023,1
66603,314292,402220,-102,12,1023,1
66641,314411,402150,-102,15,1008,1
66604,314376,402161,-94,15,1032,1
66640,314469,402149,-105,18,1032,1
66598,314525,402111,-100,18,1011,1
66680,314552,402182,-100,11,1013,1
66654,314728,402244,-102,15,1013,1
66738,314837,402224,-105,15,1029,1
66797,314916,402180,-105,6,1023,1
66850,314958,402165,-100,9,1023,1
66914,315128,402267,-99,9,1011,1
66859,315335,402271,-105,20,1015,1
66989,315405,402251,-105,14,1015,1
66990,315423,402233,-97,13,1005,1
67135,315584,402312,-105,13,1027,1
67162,315717,402288,-105,14,1010,1
67151,315874,402346,-94,15,1010,1
67315,315949,402416,-102,15,1014,1
67360,316101,402544,-102,16,1026,1
67342,316131,402484,-102,9,1026,1
67397,316148,402594,-106,9,1035,1
67543,316338,402657,-106,13,1007,1
67467,316460,402685,-103,12,1007,1
67605,316520,402652,-108,12,1015,1
67647,316599,402652,-108,15,1021,1
67706,316726,402751,-105,8,1032,1
67713,316865,402710,-100,19,1032,1
67715,316831,402589,-96,19,1027,1
67781,317016,402564,-96,9,996,1
67810,317107,402443,-103,19,996,1
67848,317129,402419,-102,19,1020,1
67861,317200,402609,-102,18,1018,1
67919,317411,402367,-99,13,1018,1
67954,317401,402377,-100,13,998,1
67936,317479,402319,-100,12,1034,1
68009,317594,402408,-99,11,1029,1
68026,317742,402521,-99,11,1029,1
68115,317724,402441,-100,6,1007,1
68115,317759,402330,-100,12,998,1
68140,317720,402356,-105,21,998,1
68189,317846,402317,-102,21,1021,1
68130,317932,402429,-102,13,1038,1
68171,317747,402439,-107,13,1038,1
68167,317585,402378,-106,13,1018,1
68080,317428,402296,-106,12,1049,1
67928,317066,402104,-101,21,1004,1
67829,316838,402024,-102,21,1004,1
67538,316239,401734,-102,14,1017,1
67531,318578,402344,-98,21,1029,1
67371,319152,402389,-98,12,1029,1
67253,319181,402458,-102,12,1032,1
67137,319115,402471,-102,15,998,1
67034,318844,402267,-103,14,998,1
66732,318661,401982,-107,14,1015,1
66683,318501,402007,-107,10,1013,1
66584,318403,401904,-103,16,1013,1
66573,318440,402011,-99,16,1035,1
66631,318573,402147,-99,19,1032,1
66599,318639,402178,-105,5,1032,1
66639,318728,402212,-96,5,1013,1
66729,318789,402241,-102,22,1037,1
66725,318958,402390,-102,12,1027,1
66733,319029,402321,-101,21,1027,1
66820,319138,402384,-106,21,1027,1
66858,319205,402343,-106,10,1024,1
66939,319311,402422,-109,14,1024,1
67002,319548,402475,-97,14,1026,1
66912,319652,402511,-97,10,1010,1
67140,319768,402494,-102,10,1027,1
67158,319824,402570,-97,12,1027,1
67168,319968,402644,-97,12,1027,1
67341,320051,402570,-105,10,1020,1
67452,320272,402812,-105,13,1020,1
67488,320290,402816,-106,13,1038,1
67437,320429,402823,-106,12,1023,1
67546,320515,402935,-102,13,1023,1
67626,320650,402894,-108,13,1026,1
67700,320692,402858,-108,9,1032,1
67806,320863,402885,-105,11,1032,1
67768,320883,402839,-105,11,1013,1
67763,320920,402829,-105,17,1024,1
67857,321021,402896,-99,11,1001,1
67878,321173,402974,-108,16,1001,1
67952,321252,402954,-93,16,1017,1
68014,321420,403079,-93,21,1018,1
68047,321438,402991,-111,20,1018,1
68100,321434,402911,-114,20,1013,1
68054,321562,402865,-114,16,1011,1
68165,321672,402833,-108,15,1011,1
68225,321735,402847,-111,15,999,1
68260,321882,402972,-111,12,1015,1
68252,321928,402980,-102,20,1015,1
68364,322073,403055,-106,20,1021,1
68400,322195,403038,-111,17,1026,1
68399,322072,403042,-111,10,1007,1
68491,322150,402970,-107,17,1007,1
68475,322184,402937,-103,17,1008,1
68533,322419,402987,-103,15,1018,1
68479,322074,402779,-105,24,1018,1
68329,322068,402803,-105,24,1015,1
68335,321816,402705,-105,15,1017,1
68279,321666,402597,-108,7,1017,1
68170,321512,402682,-99,7,996,1
67984,320903,402261,-110,12,1010,1
67846,320728,402212,-110,12,1027,1
67784,320468,402125,-96,15,1027,1
67674,320304,402035,-103,15,1035,1
67537,320160,402054,-103,14,1020,1
67330,319636,401749,-98,12,1020,1
67255,319522,401687,-99,12,1007,1
67124,319412,401657,-99,12,1023,1
67069,319339,401625,-100,12,1023,1
67034,319353,401785,-99,12,1002,1
66947,319206,401431,-99,12,1043,1
66985,319217,401556,-98,10,1043,1
67055,319335,401595,-107,10,1029,1
67114,319327,401651,-95,14,1017,1
67091,319557,401680,-95,24,1011,1
67186,319577,401664,-105,17,1011,1
67206,319723,401759,-107,17,1032,1
67365,319855,401884,-107,18,1015,1
67285,319880,401845,-97,16,1015,1
67377,319915,401948,-106,16,1026,1
67384,319938,401936,-106,10,1020,1
67497,319930,401943,-101,20,1015,1
67516,320004,401884,-99,12,1015,1
67584,320008,401785,-99,12,1008,1
67630,320149,401915,-97,15,1024,1
67529,320196,401840,-98,12,1024,1
67821,320287,401911,-106,12,1014,1
67795,320334,401867,-106,11,1008,1
67855,320422,401987,-97,7,1008,1
67832,320507,402018,-99,7,1024,1
67987,320448,402054,-99,14,1021,1
68005,320526,402041,-100,16,1026,1
68033,320561,401984,-108,18,1026,1
68038,320613,402027,-108,18,1004,1
68104,320753,402136,-105,18,1004,1
68188,320754,401960,-107,13,1018,1
68203,320737,402001,-99,13,1032,1
68198,320786,401964,-99,17,1021,1
68239,320840,402033,-100,18,1021,1
68286,320970,402087,-109,18,1021,1
68179,320992,401977,-109,15,1021,1
68408,321026,401956,-98,10,1021,1
68464,321032,402004,-102,10,1018,1
68497,321095,402057,-102,19,1017,1
68559,321114,401983,-99,15,1017,1
68595,321198,401943,-96,15,1015,1
68585,321327,401954,-102,13,1001,1
68682,321254,402006,-102,13,1020,1
68660,321294,402034,-99,13,1020,1
68655,321361,402083,-97,13,1014,1
68633,321459,402193,-97,15,1017,1
68647,321225,402147,-98,14,1017,1
68509,321051,402030,-102,14,999,1
68517,320816,401966,-102,19,1021,1
68422,320554,401848,-107,13,1017,1
68362,320323,401637,-99,13,1017,1
68084,319838,401493,-99,12,1015,1
67954,319474,401390,-96,18,1023,1
67845,319235,401261,-102,24,1023,1
67704,318941,401083,-101,24,1029,1
67684,318778,401002,-101,13,1035,1
67396,318242,400809,-102,16,1035,1
67358,318161,400730,-109,16,1032,1
67262,317998,400641,-109,17,1032,1
67202,317959,400613,-105,20,1032,1
67147,317857,400616,-105,20,1018,1
67186,317755,400578,-105,8,1030,1
67188,317828,400534,-100,11,1030,1
67204,317833,400629,-103,17,1015,1
67256,317850,400669,-105,17,1008,1
67180,318025,400653,-105,15,1018,1
67303,318039,400782,-106,5,1018,1
67417,318063,400852,-93,5,1017,1
67423,318193,400869,-93,15,1013,1
67363,318208,400868,-102,19,1013,1
67450,318262,400880,-99,19,1008,1
67557,318331,400879,-99,10,1038,1
67563,318396,400880,-106,16,1038,1
67580,318498,400934,-102,16,1037,1
67679,318554,400948,-102,12,996,1
67733,318644,401085,-95,15,1040,1
67861,318674,401082,-102,17,1040,1
67817,318700,401044,-99,17,998,1
67893,318775,400964,-99,15,1013,1
67957,318779,401037,-99,13,1013,1
67946,318915,401160,-102,13,1010,1
68013,318975,400979,-102,15,1005,1
68047,318952,401027,-100,12,1005,1
68038,319031,400935,-99,12,1030,1
68110,319065,400805,-99,14,1017,1
68144,319296,401017,-106,16,1029,1
68152,319276,400894,-100,19,1029,1
68192,319358,400993,-106,19,1021,1
68275,319417,400858,-106,15,1014,1
68341,319442,400884,-107,13,1014,1
68372,319578,400835,-103,13,1017,1
68369,319645,400860,-103,11,1032,1
68479,319749,400909,-116,14,1032,1
68514,319765,400948,-102,14,1011,1
68492,319732,400881,-102,19,1017,1
68503,319770,400930,-106,10,1017,1
68561,319911,400968,-97,10,1011,1
68600,319953,400951,-105,18,1011,1
68598,319944,400935,-105,18,1007,1
68640,319931,400822,-102,17,1007,1
68605,320021,400744,-106,17,1023,1
68480,319670,400761,-106,13,1005,1
68410,319519,400559,-106,9,1005,1
68362,319208,400475,-99,9,1044,1
68280,318989,400341,-99,15,1011,1
68130,318748,400186,-113,18,1011,1
68045,318130,399834,-108,18,1026,1
67721,317853,399747,-103,18,1027,1
67646,317622,399600,-103,15,1017,1
67528,317454,399540,-97,7,1017,1
67377,317256,399555,-113,7,1002,1
67252,316875,399422,-113,15,1020,1
67093,316727,399381,-102,12,1020,1
67025,316659,399341,-105,12,1021,1
67021,316640,399338,-105,15,1013,1
67031,316731,399377,-99,13,1013,1
66895,316790,399470,-102,13,1034,1
67047,316899,399404,-102,24,1014,1
67061,316928,399494,-102,13,1020,1
67089,317032,399490,-100,16,1020,1
67178,317141,399599,-106,16,1018,1
67246,317294,399751,-106,9,1032,1
67138,317315,399746,-102,15,1032,1
67291,317377,399736,-112,15,1005,1
67285,317372,399661,-112,15,1027,1
67278,317578,399680,-101,14,1027,1
67460,317528,399792,-102,14,1018,1
67450,317713,399874,-100,9,1001,1
67503,317928,399910,-100,8,1030,1
67558,317940,399902,-100,8,1030,1
67592,318052,399957,-100,12,1007,1
67694,318164,400098,-101,17,1008,1
67780,318363,400084,-100,12,1008,1
67806,318506,400142,-101,12,1015,1
67862,318544,400219,-101,12,1040,1
67960,318582,400264,-96,10,1040,1
67919,318597,400195,-100,10,1010,1
67953,318781,400240,-100,11,1023,1
68051,318910,400104,-98,12,1023,1
68106,318945,400271,-102,12,1005,1
68136,318980,400243,-102,14,1014,1
68148,319239,400344,-108,15,1030,1
68224,319198,400281,-99,13,1030,1
68167,319265,400288,-101,13,1023,1
68223,319275,400221,-101,15,1007,1
68349,319337,400192,-105,9,1007,1
68238,319480,400083,-106,9,1021,1
68346,319554,400322,-106,11,1021,1
68466,319549,400377,-97,16,1021,1
68483,319675,400450,-102,19,1005,1
68534,319663,400427,-98,19,1035,1
68620,319707,400432,-98,16,1035,1
68495,319846,400431,-102,16,1005,1
68577,319765,400400,-102,18,1032,1
68560,319827,400414,-102,13,1017,1
68577,319793,400233,-110,20,1017,1
68528,319685,400266,-105,20,1014,1
68387,319253,400134,-105,17,1017,1
68350,319078,400052,-105,22,1017,1
68224,318793,399957,-96,22,1030,1
68000,318519,399885,-96,13,1021,1
67898,318252,399901,-109,12,1014,1
67575,317722,399590,-102,12,1014,1
67489,317459,399435,-102,12,1007,1
67390,317266,399382,-102,15,1023,1
67212,317016,399328,-102,6,1023,1
67114,316989,399470,-106,6,1027,1
67005,316541,399386,-106,6,1030,1
66987,316470,399356,-105,17,1030,1
66925,316522,399412,-99,17,1038,1
66925,316460,399372,-99,15,1013,1
66874,316547,399506,-101,21,1018,1
66872,316511,399443,-100,21,1018,1
66839,316587,399423,-111,20,1026,1
66989,316719,399477,-111,9,1026,1
66928,316737,399494,-101,15,1044,1
66984,316919,399694,-103,15,1021,1
67082,317056,399759,-103,12,1020,1
67130,317185,399877,-101,15,1020,1
67209,317306,399920,-99,15,1024,1
67192,317371,399962,-99,19,994,1
67265,317519,400084,-103,13,994,1
67359,317735,400133,-107,13,1017,1
67393,317806,400279,-99,19,1015,1
67442,317849,400295,-99,20,1015,1
67512,318032,400382,-102,14,1023,1
67551,318121,400375,-96,14,1037,1
67742,318140,400459,-96,13,1023,1
67663,318342,400474,-108,14,1023,1
67750,318378,400471,-102,14,1005,1
67819,318472,400462,-102,8,1013,1
67755,318656,400585,-100,7,1013,1
67824,318727,400555,-111,7,1004,1
67902,318823,400523,-111,7,1026,1
67940,318841,400532,-102,15,1026,1
68017,318949,400634,-99,15,996,1
68068,319045,400752,-99,15,1017,1
68032,319231,400842,-99,18,1037,1
68154,319228,400808,-103,10,1037,1
68199,319266,400886,-108,10,1010,1
68261,319444,400832,-108,12,1017,1
68332,319486,401000,-102,11,1017,1
68366,319586,401088,-90,11,1020,1
68422,319643,401048,-90,10,1032,1
68416,319674,401032,-99,9,1032,1
68509,319772,401063,-96,9,1020,1
68554,319809,401150,-96,11,1010,1
68566,319853,401037,-101,13,1010,1
68561,319873,401006,-102,13,1005,1
68584,319847,400907,-105,12,1018,1
68593,319808,400886,-105,12,1024,1
68586,319759,400892,-105,14,1024,1
68540,319632,400639,-99,14,1032,1
68204,319055,400526,-99,18,1024,1
68109,318799,400352,-103,16,1024,1
67995,318523,400229,-103,16,1013,1
67871,318124,400023,-103,9,1029,1
67743,317931,399814,-102,9,1029,1
67385,317220,399679,-110,9,1013,1
67315,317068,399561,-102,13,1027,1
67130,316820,399525,-102,17,998,1
66959,316629,399544,-103,22,998,1
66917,316579,399453,-106,22,1030,1
66748,316305,399334,-106,15,1021,1
66751,316266,399394,-107,14,1021,1
66677,316314,399477,-100,14,1007,1
66727,316298,399468,-100,9,1018,1
66784,316519,399597,-99,13,1018,1
66769,316494,399642,-105,13,1027,1
66759,316577,399620,-101,9,1013,1
66772,316697,399701,-101,20,1013,1
66853,316768,399712,-110,12,1004,1
66882,316861,399784,-99,12,1021,1
66941,316999,399707,-99,16,1011,1
67050,317047,399732,-109,9,1011,1
66981,317179,399754,-105,9,1014,1
67074,317217,399746,-105,9,1023,1
67118,317354,399871,-106,15,1023,1
67296,317485,399796,-102,15,1008,1
67268,317575,399761,-102,19,1032,1
67279,317488,399697,-106,17,1032,1
67247,317592,399622,-108,17,1015,1
67329,317823,399899,-108,12,1014,1
67414,317844,399766,-96,13,1017,1
67494,317892,399766,-99,19,1017,1
67539,317955,399728,-101,19,1010,1
67535,318066,399725,-101,18,1032,1
67561,318153,399817,-102,23,1032,1
67654,318277,399796,-107,23,985,1
67697,318292,399743,-107,9,1015,1
67733,318296,399786,-105,9,1015,1
67764,318364,399712,-102,9,1023,1
67823,318448,399694,-102,16,1026,1
67848,318502,399669,-105,15,1015,1
67891,318450,399591,-103,16,1015,1
67892,318554,399599,-106,16,1020,1
67972,318579,399610,-106,20,996,1
67981,318663,399620,-100,18,996,1
68107,318753,399543,-102,18,1015,1
68080,318754,399591,-102,9,1030,1
68173,318806,399561,-98,13,1030,1
68177,318908,399600,-102,11,1005,1
68190,318993,399681,-102,11,1013,1
68285,319037,399484,-107,13,1011,1
68193,319012,399505,-102,12,1011,1
68230,318939,399388,-106,12,1035,1
68195,318791,399303,-106,12,1017,1
68181,318852,399350,-102,12,1017,1
68089,318338,399051,-111,12,1026,1
67963,318018,398980,-111,12,1024,1
67806,317783,398828,-108,18,1024,1
67601,317417,398666,-100,18,1020,1
67385,317231,398458,-100,14,1013,1
67167,316571,398257,-95,9,1013,1
66999,316308,398048,-105,9,1002,1
66880,316116,398008,-105,16,1023,1
66706,315883,397872,-103,11,1013,1
66632,315789,397855,-102,11,1013,1
66634,315545,397806,-109,11,1014,1
66452,315508,397846,-109,13,1034,1
66370,315440,397796,-110,12,1034,1
66283,315510,397737,-103,12,1018,1
66312,315506,397846,-103,11,1007,1
66376,315573,397807,-95,16,1010,1
66420,315693,397971,-100,21,1010,1
66416,315670,397945,-100,21,1011,1
66469,315781,398096,-102,13,1011,1
66578,315914,398116,-105,12,1024,1
66620,316068,398241,-107,12,1020,1
66666,316299,398277,-107,16,1014,1
66699,316446,398352,-102,13,1014,1
66772,316481,398479,-105,13,1007,1
66831,316599,398468,-105,11,1035,1
66858,316715,398524,-98,14,1035,1
67024,316769,398597,-93,14,1026,1
67002,316858,398585,-93,20,1014,1
67036,316954,398760,-103,10,1032,1
67173,317062,398884,-108,10,1032,1
67150,317157,399053,-99,8,1034,1
67261,317292,399037,-99,13,1030,1
67422,317389,399109,-98,12,1030,1
67374,317471,399126,-103,12,1015,1
67387,317509,399116,-103,12,1014,1
67440,317712,399225,-96,10,1014,1
67514,317638,399087,-105,10,1013,1
67644,317756,399101,-105,16,1034,1
67731,317809,399086,-105,12,1005,1
67663,317875,399183,-102,12,1005,1
67808,317981,399240,-102,12,1004,1
67777,318128,399262,-106,12,1010,1
67901,318228,399320,-102,14,1010,1
67911,318232,399374,-108,14,1005,1
67871,318260,399355,-108,15,1020,1
67913,318373,399372,-99,15,1020,1
68026,318486,399322,-102,15,1015,1
68036,318568,399359,-102,18,1007,1
68082,318517,399290,-105,7,1007,1
68085,318644,399334,-105,7,1032,1
68272,318713,399463,-105,15,1018,1
68185,318717,399405,-96,9,1035,1
68252,318745,399345,-102,14,1035,1
68164,318749,399366,-105,14,993,1
68211,318736,399276,-105,12,1013,1
68110,318740,399375,-95,8,1013,1
67918,318169,399157,-99,8,1018,1
67884,317933,399002,-99,15,1024,1
67773,317636,398917,-102,17,1024,1
67592,317391,398877,-105,12,1020,1
67471,317241,398853,-110,12,1029,1
67264,316624,398819,-110,20,1029,1
67055,316351,398674,-108,20,999,1
66908,316161,398653,-102,15,1011,1
66785,315916,398575,-102,20,1020,1
66729,315815,398569,-108,6,1020,1
66568,315533,398381,-108,6,1007,1
66551,315508,398364,-108,23,1032,1
66427,315435,398231,-102,13,1032,1
66453,315419,398198,-102,13,1021,1
66503,315527,398324,-102,14,1032,1
66381,315475,398161,-102,21,1032,1
66515,315647,398124,-103,21,1021,1
66498,315686,398106,-103,14,1013,1
66530,315762,398149,-106,13,1017,1
66675,315907,398371,-111,14,1017,1
66741,316019,398312,-102,14,1029,1
66733,316111,398344,-102,19,1013,1
66800,316137,398380,-108,16,1013,1
66839,316295,398402,-101,16,1027,1
66834,316333,398386,-101,12,1020,1
66938,316516,398436,-98,12,1020,1
67024,316548,398390,-106,12,1008,1
67091,316649,398424,-106,16,1013,1
67111,316824,398516,-102,13,1013,1
67095,316929,398628,-105,18,1026,1
67032,317082,398626,-93,18,1035,1
67312,317114,398595,-93,18,1004,1
67336,317198,398556,-102,15,1004,1
67363,317343,398553,-99,15,1014,1
67400,317380,398495,-99,15,1018,1
67509,317534,398491,-99,21,1018,1
67584,317564,398520,-109,21,1011,1
67616,317595,398486,-109,17,1026,1
67622,317637,398454,-103,16,1026,1
67613,317687,398488,-102,16,1027,1
67609,317826,398385,-102,12,1018,1
67690,317829,398368,-105,15,996,1
67753,317912,398361,-106,12,996,1
67799,318031,398431,-108,12,1017,1
67850,318067,398423,-108,15,1026,1
67835,318202,398467,-107,16,1026,1
67904,318189,398436,-106,16,1027,1
67960,318203,398307,-106,21,1027,1
67999,318375,398475,-108,15,1027,1
68058,318371,398420,-101,15,1010,1
68073,318474,398462,-101,13,1018,1
68091,318498,398454,-105,17,1001,1
68182,318535,398498,-99,16,1001,1
68124,318438,398520,-105,16,1021,1
67955,318292,398504,-105,15,1021,1
67918,318115,398399,-107,13,1021,1
67750,317545,398243,-111,13,1029,1
67582,317273,398199,-111,18,1034,1
67490,316910,398035,-99,15,1034,1
67287,316637,397877,-106,15,1032,1
67021,316414,397810,-106,15,1017,1
66836,315821,397484,-102,10,1017,1
66698,315494,397268,-106,10,1035,1
66549,315425,397223,-110,15,1017,1
66415,315090,397193,-110,15,985,1
66359,315047,397133,-90,15,985,1
66208,314941,397085,-110,15,1023,1
66220,314851,397083,-110,8,1026,1
66136,314840,397096,-108,16,1026,1
66157,314909,397040,-103,16,1007,1
66307,315039,397072,-103,14,1047,1
66295,315093,397040,-105,18,1047,1
66297,315206,397086,-105,18,1014,1
66339,315283,397072,-105,12,1017,1
66386,315388,397173,-108,12,1004,1
66421,315507,397497,-101,15,1004,1
66530,315786,397490,-108,15,1008,1
66632,315799,397503,-108,13,1015,1
66782,316042,397570,-100,14,1015,1
66732,316052,397570,-98,14,1014,1
66732,316309,397728,-98,9,1023,1
66823,316230,397484,-108,16,1023,1
66875,316323,397481,-108,16,1030,1
66995,316435,397578,-108,13,1008,1
67014,316495,397516,-96,16,1014,1
67120,316735,397678,-105,12,1014,1
67131,316773,397735,-100,12,1030,1
67196,316800,397711,-100,14,1020,1
67180,316932,397630,-105,17,1020,1
67279,316929,397730,-108,17,1030,1
67314,317013,397751,-108,10,1027,1
67402,317103,397688,-103,16,1027,1
67496,317253,397716,-106,16,1005,1
67488,317319,397745,-106,17,1044,1
67528,317376,397697,-105,12,1044,1
67567,317457,397857,-99,12,1026,1
67503,317627,397884,-111,17,996,1
67666,317656,397842,-111,15,1001,1
67764,317670,397881,-98,12,1001,1
67773,317825,397914,-100,12,1026,1
67820,317861,397980,-100,8,1007,1
67919,317960,397928,-105,8,1007,1
67937,317940,397921,-102,8,1011,1
67935,317987,397969,-102,14,1020,1
67978,318161,397977,-105,18,1004,1
68006,318113,397944,-97,18,1004,1
68154,318186,397938,-97,18,1026,1
68053,318119,397887,-100,19,1020,1
67984,317995,397887,-114,13,1020,1
67920,317672,397766,-103,13,1027,1
67765,317591,397728,-103,8,1030,1
67595,316954,397415,-108,9,1030,1
67380,316592,397177,-109,9,1011,1
67274,316305,397119,-109,15,1015,1
67110,316024,397071,-107,14,1015,1
66888,315810,396938,-101,14,1027,1
66846,315230,396749,-101,12,1004,1
66549,315012,396604,-108,15,1004,1
66381,314805,396516,-107,16,1017,1
66266,314586,396489,-111,16,1024,1
66208,314476,396336,-111,20,1001,1
66146,314532,396229,-111,14,1001,1
66104,314333,396185,-106,14,1024,1
66026,314334,396286,-106,18,1021,1
66079,314437,396403,-101,20,1021,1
66086,314511,396370,-105,20,1044,1
66162,314708,396589,-105,16,996,1
66214,314760,396563,-110,17,996,1
66256,314861,396596,-99,17,1018,1
66279,314916,396591,-99,17,1013,1
66399,315007,396686,-110,12,996,1
66449,315187,396681,-108,13,996,1
66539,315380,396764,-98,13,1010,1
66529,315423,396777,-98,21,1011,1
66678,315504,396862,-99,18,1011,1
66728,315581,396924,-108,18,1014,1
66762,315817,396976,-108,12,1024,1
66904,316007,397012,-105,12,1024,1
66960,316112,397089,-111,12,1002,1
67010,316212,397197,-111,12,1020,1
67126,316277,397271,-99,15,1021,1
66920,316515,397330,-99,12,1021,1
67222,316558,397266,-108,12,1021,1
67253,316584,397301,-108,15,1023,1
67282,316617,397348,-112,8,1023,1
67217,316693,397276,-111,8,1001,1
67420,316692,397273,-111,14,1034,1
67421,316902,397266,-102,9,1034,1
67419,316994,397328,-101,9,1014,1
67467,317022,397249,-101,18,1010,1
67575,317010,397330,-111,15,1010,1
67630,317243,397244,-102,15,1021,1
67689,317274,397238,-103,3,1024,1
67690,317238,397277,-103,10,1027,1
67675,317268,397184,-96,10,1027,1
67796,317392,397278,-103,10,1017,1
67830,317586,397500,-103,13,1015,1
67899,317624,397463,-101,12,1015,1
67913,317697,397467,-110,12,1007,1
67998,317806,397564,-110,15,1005,1
68004,317817,397476,-102,21,1026,1
67984,317918,397621,-102,8,1026,1
67990,317578,397230,-102,8,1014,1
68013,317546,397165,-102,20,1032,1
67940,317393,397134,-107,11,1032,1
67776,317130,397045,-110,11,1044,1
67678,316826,396994,-110,12,1034,1
67287,316236,396627,-101,15,1034,1
67151,315910,396437,-102,15,1034,1
66953,315540,396243,-102,19,1023,1
66850,315305,396142,-105,20,1015,1
66663,315030,396014,-108,14,1015,1
66360,314635,395753,-108,14,1020,1
66300,314488,395693,-109,19,1020,1
66217,314295,395634,-91,9,1011,1
66164,314160,395609,-98,9,1046,1
66095,314207,395656,-98,17,1043,1
66022,314091,395704,-102,15,1043,1
66007,314158,395714,-102,15,1024,1
66039,314310,395710,-102,14,1035,1
66033,314297,395859,-110,21,1035,1
66076,314434,395878,-103,21,1011,1
66119,314652,395863,-103,18,1023,1
66221,314769,395920,-99,18,1013,1
66289,314860,395912,-107,18,1013,1
66390,315034,395957,-107,13,1014,1
66363,315181,396137,-99,12,1004,1
66319,315397,396256,-100,16,1004,1
66617,315504,396288,-108,16,1030,1
66672,315641,396381,-108,18,1015,1
66714,315697,396435,-106,15,1015,1
66742,315897,396506,-111,15,1021,1
66777,316085,396656,-111,6,1010,1
66945,316125,396654,-111,13,1010,1
67034,316189,396695,-102,15,1014,1
67050,316355,396734,-106,15,1023,1
67018,316416,396717,-106,11,1010,1
67133,316563,396735,-108,13,1010,1
67256,316670,396882,-108,13,1014,1
67279,316743,397019,-108,9,1032,1
67354,316949,397013,-99,18,1032,1
67435,316995,397147,-112,18,1021,1
67511,317123,397315,-112,13,1018,1
67545,317295,397136,-105,11,1018,1
67595,317312,397154,-112,16,1013,1
67675,317476,397177,-108,16,1015,1
67731,317581,397150,-108,17,1015,1
67698,317602,397189,-99,17,1005,1
67774,317722,397249,-108,14,1017,1
67801,317868,397329,-108,9,996,1
67889,317864,397276,-99,16,996,1
67918,318050,397412,-105,16,1024,1
67965,318114,397315,-105,12,1032,1
67972,318184,397306,-101,10,1032,1
68033,318226,397364,-108,10,1015,1
68025,318296,397335,-108,18,1017,1
68090,318340,397355,-99,15,1021,1
68024,318469,397468,-111,6,1021,1
68157,318429,397491,-111,6,1013,1
68098,318269,397411,-107,16,1030,1
68039,317999,397288,-105,24,1030,1
67880,317731,397161,-100,24,1040,1
67806,317635,397123,-100,13,1013,1
67451,316963,396864,-109,10,1013,1
67308,316589,396722,-105,10,1004,1
67217,316410,396610,-105,14,1040,1
67039,316188,396437,-102,18,1040,1
67034,316053,396324,-108,15,1032,1
66708,315641,396290,-114,15,1018,1
66654,315541,396135,-114,12,1027,1
66514,315458,396120,-107,13,1027,1
66475,315448,396271,-105,13,999,1
66411,315409,396374,-105,16,1029,1
66424,315455,396496,-99,20,1029,1
66381,315492,396494,-102,20,1030,1
66475,315607,396569,-102,11,999,1
66485,315718,396532,-112,22,999,1
66450,315852,396658,-94,18,1010,1
66621,315901,396781,-108,18,1023,1
66571,316165,396729,-108,13,1023,1
66731,316180,396853,-103,13,1020,1
66707,316326,396996,-108,17,1008,1
66859,316580,397156,-108,18,1013,1
66841,316674,397229,-99,21,1013,1
66941,316780,397296,-108,21,1014,1
67062,316936,397337,-108,15,1027,1
66975,317021,397270,-107,15,1027,1
67069,317096,397437,-99,15,1011,1
67198,317231,397335,-99,12,1032,1
67256,317328,397419,-110,15,1032,1
67233,317512,397511,-99,19,1024,1
67346,317628,397581,-102,19,1026,1
67372,317730,397713,-102,12,1011,1
67309,317854,397738,-102,14,1011,1
67551,317947,397783,-99,14,1032,1
67488,318017,397753,-99,14,1020,1
67587,318133,397693,-103,13,1020,1
67724,318251,397839,-102,13,1007,1
67824,318397,397727,-102,10,1017,1
67791,318360,397654,-103,10,1021,1
67791,318546,397776,-102,10,1021,1
67823,318568,397716,-95,17,1023,1
67800,318694,397807,-95,16,1021,1
67917,318815,397888,-102,12,1021,1
68014,318952,397956,-105,12,1018,1
67949,318955,397857,-105,17,1027,1
68086,318991,397943,-94,11,1027,1
68092,319148,397922,-98,11,1034,1
68102,319317,398131,-98,14,1020,1
68273,319333,398045,-103,15,1020,1
68332,319421,398119,-100,15,1030,1
68319,319400,398222,-107,17,1011,1
68356,319535,398283,-107,16,1011,1
68459,319741,398272,-102,9,1011,1
68380,319618,398327,-97,9,1007,1
68376,319526,398366,-97,14,1020,1
68218,319364,398190,-99,10,1020,1
68242,319186,398128,-97,10,1020,1
68102,319031,397899,-97,10,1021,1
67915,318510,397790,-105,15,1021,1
67816,318309,397689,-111,15,1015,1
67756,318021,397619,-105,9,1017,1
67623,317952,397511,-105,15,1017,1
67470,317814,397544,-102,15,1035,1
67308,317576,397540,-102,15,1011,1
67201,317328,397534,-102,18,1023,1
67184,317364,397645,-103,12,1023,1
67142,317287,397540,-103,12,1026,1
67069,317286,397426,-103,22,1013,1
67082,317253,397281,-99,14,1013,1
67101,317275,397396,-112,14,1024,1
67116,317324,397408,-112,6,1018,1
67168,317452,397398,-90,12,1018,1
67134,317596,397514,-105,12,1024,1
67166,317658,397533,-102,12,1032,1
67271,317792,397470,-102,15,1032,1
67319,317912,397633,-99,7,1032,1
67314,317931,397600,-102,7,1018,1
67393,318082,397598,-102,27,1021,1
67495,318142,397726,-98,11,1021,1
67453,318315,397848,-102,11,1015,1
67590,318480,397847,-102,17,1027,1
67596,318514,397881,-108,17,1027,1
67682,318609,398005,-95,17,1018,1
67653,318757,398008,-95,14,1034,1
67770,318924,398150,-105,12,1034,1
67827,319008,398121,-105,12,1024,1
67851,319026,398079,-105,12,1021,1
67893,319129,398224,-105,9,1024,1
67997,319284,398097,-97,20,1024,1
68020,319358,398078,-96,20,1023,1
68043,319515,398093,-96,18,1015,1
68091,319469,398106,-108,12,1015,1
68137,319689,398316,-111,12,1024,1
68222,319705,398176,-111,15,1023,1
68223,319855,398105,-105,12,1023,1
68212,319862,398056,-105,12,1004,1
68340,319906,398045,-111,19,1021,1
68410,320137,398162,-111,15,1041,1
68479,320178,398189,-96,18,1041,1
68509,320182,398126,-105,18,1005,1
68488,320226,398111,-105,13,1029,1
68524,320323,398079,-103,17,1029,1
68493,320353,398171,-105,17,1027,1
68643,320514,398138,-105,18,1011,1
68657,320564,398218,-107,12,1011,1
68666,320468,398177,-103,12,1032,1
68723,320515,398181,-103,16,1032,1
68742,320539,398233,-96,11,1032,1
68745,320409,398146,-99,11,1005,1
68551,320277,398038,-97,10,1029,1
68440,320150,398056,-97,16,1018,1
68312,319862,397976,-105,15,1018,1
68224,319612,397889,-97,15,1023,1
68195,319080,397530,-97,14,1018,1
67971,318894,397323,-103,17,1018,1
67783,318601,397207,-111,17,1032,1
67714,318426,397161,-111,17,1023,1
67548,318271,397103,-93,15,1023,1
67536,318034,396988,-105,15,1018,1
67393,317879,397012,-105,18,1013,1
67347,317874,396945,-106,14,1021,1
67360,317847,396897,-101,6,1021,1
67252,317840,396970,-102,6,1010,1
67158,317921,396925,-102,21,1013,1
67288,317969,396894,-110,11,1013,1
67314,318011,396900,-105,11,1020,1
67264,318015,396901,-105,12,1018,1
67354,318198,396899,-106,12,1018,1
67391,318389,397016,-111,12,1018,1
67387,318417,396914,-111,12,1032,1
67457,318430,396973,-100,11,1032,1
67558,318493,396998,-106,17,1034,1
67572,318678,397002,-102,17,1017,1
67626,318751,397206,-102,18,1027,1
67628,318881,397157,-102,10,1027,1
67678,319041,397201,-107,10,1013,1
67731,319073,397343,-107,13,1021,1
67795,319161,397365,-108,12,1021,1
67857,319352,397587,-102,12,1013,1
67880,319497,397570,-102,16,1014,1
68015,319577,397522,-108,12,999,1
68028,319640,397610,-101,12,999,1
68074,319702,397665,-101,14,1001,1
68166,319826,397812,-103,17,1013,1
68177,319970,397939,-111,12,1013,1
68222,320039,397948,-102,12,1020,1
68177,320098,397952,-102,8,1027,1
68252,320147,397906,-98,11,1027,1
68269,320292,397957,-98,11,1023,1
68401,320372,397972,-98,14,1024,1
68444,320409,397953,-102,10,1040,1
68399,320444,397938,-105,10,1040,1
68442,320557,397922,-95,18,1026,1
68383,320690,397985,-95,19,1015,1
68560,320693,398023,-109,12,1015,1
68666,320802,398080,-103,12,1021,1
68583,320824,398126,-103,21,1020,1
68690,320901,398103,-99,15,1020,1
68749,320934,398212,-111,15,1032,1
68695,321009,398098,-111,20,1013,1
68732,320915,398073,-98,19,1013,1
68668,320925,398070,-93,19,1015,1
68705,320917,398256,-94,21,1015,1
68686,320751,398172,-94,10,1013,1
68543,320555,398080,-107,6,1013,1
68431,320267,398027,-110,6,1007,1
68292,320048,397971,-110,18,1026,1
68186,319713,397764,-107,21,1026,1
68059,319585,397782,-116,21,1014,1
67807,319054,397433,-116,14,1015,1
67738,318861,397463,-106,14,1015,1
67633,318670,397402,-99,18,1015,1
67509,318587,397351,-107,18,1008,1
67442,318594,397582,-107,12,1008,1
67356,318358,397390,-96,12,1030,1
67299,318312,397499,-103,18,1008,1
67263,318322,397503,-103,16,1013,1
67264,318311,397448,-101,16,1013,1
67240,318331,397393,-102,16,1047,1
67286,318409,397520,-102,24,1034,1
67250,318523,397510,-102,11,1034,1
67352,318584,397602,-113,11,1029,1
67328,318638,397636,-113,13,1032,1
67393,318798,397810,-101,18,1032,1
67421,318955,397974,-103,13,991,1
67462,318998,397970,-109,13,1005,1
67517,319172,398175,-109,16,1013,1
67586,319209,398229,-105,14,1013,1
67597,319233,398245,-102,14,1024,1
67601,319476,398324,-102,14,999,1
67679,319503,398448,-96,5,999,1
67741,319720,398560,-111,5,1018,1
67673,319741,398606,-111,15,1041,1
67851,319894,398842,-96,16,1041,1
67935,320052,398878,-107,20,1027,1
67960,320198,398926,-109,20,1035,1
67950,320253,399040,-109,11,1021,1
68036,320328,399032,-108,19,1021,1
67989,320433,399113,-107,19,1040,1
68171,320585,399158,-107,16,1032,1
68183,320614,399114,-98,18,1032,1
68225,320750,399096,-105,18,1002,1
68233,320802,399180,-105,15,1005,1
68320,320852,399242,-105,13,1005,1
68304,321026,399323,-110,12,1032,1
68375,321038,399270,-102,12,1027,1
68400,321124,399289,-102,14,1027,1
68509,321190,399418,-100,14,1015,1
68495,321197,399474,-106,15,1030,1
68604,321444,399492,-106,12,1023,1
68463,321437,399532,-98,18,1023,1
68659,321500,399516,-109,18,1015,1
68664,321493,399569,-109,12,1027,1
68652,321528,399506,-106,15,1027,1
68734,321640,399576,-108,15,1018,1
68730,321555,399595,-108,21,1004,1
68627,321467,399657,-110,19,1008,1
68633,321506,399638,-102,13,1008,1
68542,321288,399530,-102,13,1030,1
68515,321056,399480,-106,10,1026,1
68170,320542,399332,-114,21,1026,1
68151,320360,399290,-108,21,1020,1
68021,320135,399319,-108,20,1027,1
67923,319813,399298,-100,11,1027,1
67797,319723,399215,-103,11,1023,1
67548,319320,399224,-103,10,1001,1
67450,319241,399302,-100,15,1029,1
67386,319072,399208,-93,16,1029,1
67347,319020,399270,-93,16,1007,1
67171,319075,399404,-113,21,1032,1
67146,318840,399165,-100,11,1032,1
67217,318912,399165,-101,11,1037,1
67170,318831,399133,-101,15,999,1
67102,318807,399151,-99,9,999,1
67178,318935,399153,-106,9,1011,1
67221,319053,399334,-106,21,1015,1
67233,319223,399395,-107,16,1015,1
67243,319279,399523,-103,16,1034,1
67150,319379,399654,-103,9,1017,1
67270,319551,399746,-103,18,1027,1
67347,319564,399835,-102,18,1027,1
67282,319663,399770,-102,18,1005,1
67391,319776,399845,-96,17,1029,1
67339,319823,399868,-102,12,1029,1
67357,319977,399938,-107,12,1018,1
67516,320153,399953,-107,10,1011,1
67516,320232,400100,-100,5,1011,1
67644,320302,400174,-98,5,1034,1
67622,320418,400322,-98,15,1001,1
67576,320578,400340,-96,21,1001,1
67746,320674,400308,-105,21,1001,1
67789,320680,400351,-99,16,1041,1
67775,320745,400377,-99,17,1027,1
67830,320823,400312,-100,16,1027,1
67869,321056,400446,-109,16,1011,1
67939,321050,400445,-109,11,1034,1
67971,321231,400528,-109,16,1034,1
68031,321259,400461,-101,16,1018,1
68008,321264,400505,-101,16,1020,1
68085,321390,400544,-99,17,1020,1
68150,321450,400553,-101,17,1021,1
68121,321602,400699,-101,13,1023,1
68175,321603,400739,-105,11,1023,1
68178,321706,400720,-102,18,1018,1
68245,321829,400794,-105,18,1034,1
68148,321894,400691,-105,11,1011,1
68307,321945,400783,-107,12,1011,1
68345,322068,400817,-108,12,1038,1
68396,322059,400818,-108,7,1001,1
68386,322137,400870,-99,14,1001,1
68482,322029,400837,-102,14,1035,1
68324,321984,400876,-102,15,1004,1
68250,321807,400868,-105,17,1004,1
68117,321643,400760,-105,12,1015,1
68038,321537,400853,-108,12,1008,1
67923,320970,400576,-108,9,1030,1
67645,320737,400520,-103,12,1030,1
67552,320442,400372,-107,12,1023,1
67376,320215,400295,-107,12,1014,1
67313,320156,400281,-110,16,1014,1
67201,319725,400115,-114,16,1020,1
67117,319588,399921,-114,15,1020,1
66944,319428,399970,-108,19,1020,1
66882,319366,399862,-96,19,1014,1
66926,319329,399853,-96,17,1007,1
66859,319462,399935,-105,16,1014,1
66753,319327,399903,-99,11,1014,1
66729,319442,399960,-100,11,1014,1
66850,319516,400068,-100,16,1010,1
66822,319555,400106,-105,23,1010,1
66805,319653,400146,-103,23,1024,1
66915,319748,400210,-103,18,1023,1
66910,319847,400235,-106,11,1026,1
66945,319892,400287,-101,11,1026,1
66905,320036,400305,-101,11,1030,1
66960,320223,400473,-99,17,1007,1
67116,320323,400448,-106,12,1007,1
67074,320321,400519,-107,12,1017,1
67166,320539,400598,-107,8,1035,1
67132,320617,400572,-96,12,1035,1
67198,320708,400731,-106,12,1014,1
67248,320822,400744,-106,13,1030,1
67329,320992,400710,-102,13,1030,1
67336,321088,400836,-102,13,1015,1
67388,321080,400776,-105,8,1014,1
67392,321226,401002,-105,12,1020,1
67494,321380,400884,-96,11,1020,1
67495,321360,400870,-98,11,1027,1
67524,321514,400962,-98,8,1018,1
67672,321566,400864,-111,14,1018,1
67807,321727,401089,-102,14,1017,1
67779,321812,400957,-102,12,1018,1
67711,321816,400939,-108,18,1018,1
67652,321980,401034,-96,22,1021,1
67786,321986,400998,-99,22,1007,1
67787,322106,401063,-99,13,1007,1
67904,322256,401075,-111,13,1027,1
67927,322353,401187,-105,13,1023,1
67953,322462,401250,-105,7,1030,1
68002,322561,401266,-109,9,1030,1
68032,322732,401447,-112,9,1032,1
68104,322775,401236,-112,21,1010,1
68116,322837,401264,-100,10,1010,1
68150,322858,401282,-106,10,1021,1
68181,322840,401210,-111,18,1017,1
68121,323031,401364,-111,15,1011,1
68096,322898,401197,-96,15,1011,1
68015,322751,401179,-99,14,1013,1
67978,322631,401182,-99,15,1008,1
67841,322376,401100,-96,17,1008,1
67781,322342,401057,-100,17,1038,1
67529,321768,400690,-100,15,1020,1
67466,321545,400561,-102,15,1020,1
67391,321375,400612,-99,15,1024,1
67256,321074,400520,-99,10,1017,1
67173,321048,400451,-100,14,1013,1
67065,320732,400479,-106,17,1013,1
66905,320623,400397,-106,17,1027,1
66943,320514,400390,-101,15,1015,1
66881,320435,400419,-109,18,1015,1
66898,320567,400499,-101,18,1013,1
66841,320530,400574,-101,13,1017,1
66861,320608,400563,-103,18,1017,1
66889,320676,400666,-101,18,1032,1
66949,320694,400652,-101,11,1017,1
66922,320755,400765,-108,9,1017,1
67052,320874,400742,-110,9,1024,1
66990,320903,400784,-110,12,1018,1
67031,321055,400839,-100,10,1030,1
67060,321095,400892,-97,13,1030,1
67155,321277,400907,-102,13,1029,1
67172,321418,401019,-102,12,1026,1
67178,321454,401081,-101,12,1026,1
67241,321513,401074,-107,12,1026,1
67246,321669,401166,-107,15,1020,1
67333,321766,401272,-99,13,1020,1
67324,321937,401450,-98,13,1034,1
67417,322041,401341,-98,21,1011,1
67435,322107,401342,-101,19,1011,1
67560,322327,401399,-103,13,1005,1
67522,322310,401387,-105,13,1026,1
67708,322567,401381,-105,15,1014,1
67615,322605,401369,-99,12,1014,1
67687,322710,401446,-102,12,1015,1
67715,322816,401485,-102,13,1024,1
67786,322931,401528,-105,17,1024,1
67818,322978,401503,-106,13,1004,1
67928,323099,401438,-106,13,1024,1
67964,323227,401490,-99,16,1024,1
67969,323264,401501,-100,20,1024,1
68005,323336,401429,-100,20,1010,1
68063,323545,401511,-100,9,1026,1
68093,323540,401509,-111,17,1026,1
68089,323659,401466,-102,17,1018,1
68125,323680,401463,-102,15,1020,1
68136,323718,401405,-89,9,1020,1
68093,323847,401455,-98,9,1026,1
68102,323833,401361,-98,10,1017,1
68209,323809,401265,-102,7,998,1
68164,323904,401385,-102,9,998,1
68139,323764,401341,-102,9,1013,1
68132,323749,401465,-102,15,1029,1
67801,323240,401156,-99,18,1029,1
67799,323039,401107,-102,18,1035,1
67745,322871,401003,-102,15,1008,1
67615,322622,400864,-102,14,1008,1
67610,322555,400943,-101,14,1002,1
67273,321997,400645,-101,9,1024,1
67197,321845,400544,-96,15,999,1
67101,321698,400496,-108,15,999,1
67053,321480,400534,-108,14,1032,1
67049,321483,400645,-100,10,1013,1
66930,321228,400515,-90,17,1013,1
66805,321178,400587,-102,17,1024,1
66896,321208,400512,-102,14,1029,1
66878,321097,400481,-99,18,1029,1
66874,321339,400586,-99,18,1011,1
66813,321189,400482,-99,18,1021,1
66886,321241,400485,-108,13,1021,1
66945,321256,400563,-105,13,1023,1
66911,321237,400586,-105,8,1024,1
66929,321447,400664,-101,15,1020,1
66984,321400,400610,-101,15,1020,1
67022,321401,400515,-101,18,1024,1
67103,321513,400539,-107,13,1021,1
67102,321526,400551,-93,12,1021,1
67067,321748,400707,-100,12,1017,1
67228,321693,400698,-100,19,1018,1
67257,321892,400793,-99,16,1018,1
67244,321958,400787,-101,16,994,1
67359,321987,400829,-101,10,1035,1
67391,322081,400923,-85,18,1018,1
67422,322269,400972,-102,18,1018,1
67467,322277,400963,-102,12,1023,1
67508,322401,400982,-105,21,1011,1
67490,322567,401044,-105,16,1011,1
67623,322626,401096,-99,16,1015,1
67490,322680,401024,-99,18,1024,1
67622,322836,401045,-102,15,1024,1
67689,322888,401026,-108,15,1030,1
67731,322962,400977,-108,11,1027,1
67716,323076,400981,-102,14,1027,1
67899,323224,401059,-107,14,1001,1
67778,323273,401084,-101,18,1024,1
67925,323349,401052,-101,14,1024,1
67921,323502,401046,-105,18,1032,1
67985,323551,401220,-105,18,1018,1
67984,323682,401157,-105,10,1030,1
68008,323716,401185,-106,12,1030,1
68047,323847,401156,-99,12,1026,1
68048,323851,401117,-99,24,1024,1
68090,323942,401133,-102,17,1024,1
68026,323870,401127,-100,17,1001,1
68054,323816,401032,-100,13,1021,1
68028,323596,400917,-100,10,1021,1
67883,323394,400948,-111,11,1044,1
67708,323247,400789,-103,11,1035,1
67748,323165,400742,-103,21,1027,1
67483,322620,400595,-106,20,1027,1
67358,322362,400518,-106,20,1027,1
67200,322120,400465,-106,11,1018,1
67155,321918,400432,-99,13,1018,1
67089,321796,400324,-101,13,1011,1
66834,321324,400278,-101,18,1010,1
66882,321144,400214,-91,9,1010,1
66770,321060,400301,-107,15,1001,1
66704,321002,400290,-107,15,1024,1
66749,321023,400200,-96,7,1043,1
66668,320991,400257,-102,21,1043,1
66720,320968,400350,-108,21,1023,1
66686,320957,400346,-108,12,1030,1
66728,321003,400433,-101,16,1030,1
66678,321069,400532,-107,16,1027,1
66728,321101,400529,-107,18,1008,1
66768,321164,400491,-106,11,1008,1
66795,321255,400598,-103,15,1013,1
66842,321344,400585,-103,15,1026,1
66922,321599,400735,-98,9,1034,1
66959,321511,400744,-96,6,1034,1
66960,321545,400723,-96,6,998,1
67040,321606,400769,-96,14,1017,1
67030,321759,400860,-89,11,1017,1
67161,321955,400808,-105,11,1007,1
67177,322033,401004,-105,16,1021,1
67245,322045,401030,-105,15,1021,1
67290,322184,401033,-105,15,1011,1
67291,322212,401124,-105,13,996,1
67437,322400,401234,-111,17,996,1
67450,322437,401232,-102,17,1037,1
67474,322542,401169,-97,16,1029,1
67551,322595,401109,-97,14,1002,1
67593,322688,401174,-102,11,1002,1
67556,322689,401227,-106,11,1010,1
67624,322836,401024,-106,18,1032,1
67663,322970,401147,-96,7,1032,1
67784,322948,401134,-99,7,1046,1
67738,323083,401114,-99,17,1027,1
67770,323357,401369,-117,18,1027,1
67872,323298,401272,-108,18,1017,1
67824,323408,401296,-106,14,1008,1
67964,323541,401321,-106,14,1008,1
68051,323508,401431,-107,13,994,1
68019,323745,401373,-106,13,1014,1
68141,323724,401485,-106,15,1014,1
68084,323693,401433,-105,15,1014,1
68118,323780,401299,-100,15,1035,1
68041,323766,401237,-100,12,1013,1
68001,323660,401361,-99,14,1013,1
67928,323335,401113,-105,14,1024,1
67878,323161,401094,-113,15,1018,1
67648,322937,400996,-113,5,1018,1
67598,322668,400915,-99,15,1029,1
67482,322500,400893,-97,15,1021,1
67324,322056,400781,-97,14,1018,1
67145,321765,400767,-101,21,1018,1
67000,321554,400686,-99,21,1010,1
66900,321411,400666,-99,14,1014,1
66776,321294,400624,-103,15,1014,1
66758,320865,400486,-102,15,1005,1
66609,320840,400510,-102,13,1032,1
66545,320714,400458,-105,16,1032,1
66556,320679,400511,-102,16,1017,1
66536,320696,400603,-102,14,1027,1
66603,320745,400674,-105,17,1023,1
66537,320726,400715,-99,13,1023,1
66594,320749,400747,-105,13,1021,1
66529,320837,400705,-105,11,1015,1
66629,320928,400776,-101,13,1015,1
66507,320994,400888,-100,13,1024,1
66793,321024,400918,-100,8,1021,1
66767,321072,400890,-100,15,1021,1
66799,321147,400990,-99,15,1017,1
66835,321265,400955,-99,16,1013,1
66984,321393,401110,-105,11,1013,1
66971,321385,401099,-109,15,1020,1
66957,321446,401151,-102,15,1013,1
66998,321469,401166,-102,14,1018,1
67059,321645,401201,-102,21,1018,1
67114,321700,401325,-93,21,1010,1
67181,321810,401349,-93,14,1023,1
67209,321799,401398,-108,17,1023,1
67231,321931,401463,-93,17,1018,1
67325,321984,401393,-107,15,1032,1
67302,322080,401528,-107,15,1032,1
67349,322276,401466,-99,15,1027,1
67440,322295,401461,-99,12,1021,1
67486,322403,401487,-102,12,998,1
67546,322451,401515,-96,15,998,1
67541,322611,401568,-101,15,1018,1
67577,322617,401516,-101,8,1015,1
67693,322849,401559,-102,12,1015,1
67738,322905,401642,-103,12,1011,1
67687,322961,401578,-103,19,1002,1
67760,323092,401614,-108,15,1029,1
67806,323023,401658,-105,15,1029,1
67837,323103,401619,-98,16,1020,1
67913,323171,401511,-98,10,1010,1
67943,323322,401573,-108,18,1010,1
67745,323406,401501,-105,18,1035,1
67931,323420,401461,-105,12,1026,1
68028,323343,401488,-106,22,1026,1
67929,323229,401381,-111,22,1034,1
67847,323006,401349,-111,12,1024,1
67887,322988,401351,-99,22,1026,1
67618,322383,401078,-102,22,1026,1
67408,322181,400983,-102,12,1027,1
67282,321916,400871,-102,15,1041,1
67155,321694,400659,-105,18,1041,1
67178,321479,400651,-116,18,1026,1
66881,321015,400406,-116,8,1021,1
66831,320874,400440,-105,12,1021,1
66724,320702,400440,-102,12,1032,1
66560,320516,400451,-102,19,1021,1
66589,320426,400637,-96,20,1021,1
66523,320318,400499,-93,20,1008,1
66589,320318,400613,-93,13,991,1
66459,320342,400540,-106,18,991,1
66570,320397,400623,-96,23,1023,1
66603,320474,400817,-102,23,1023,1
66707,320493,400951,-102,20,1024,1
66748,320562,400939,-107,10,1024,1
66790,320656,400966,-98,10,1018,1
66778,320757,400924,-98,15,1026,1
66771,320833,401046,-98,17,1026,1
66880,320926,401086,-100,17,1024,1
66896,320979,401177,-108,12,1023,1
66913,320991,401117,-108,18,1023,1
67016,321056,401184,-107,15,1032,1
66979,321148,401183,-98,15,1014,1
67085,321205,401248,-98,16,1034,1
67226,321375,401372,-101,11,1034,1
67237,321404,401440,-101,11,1032,1
67230,321503,401473,-101,9,1013,1
67273,321534,401514,-95,12,1013,1
67372,321710,401572,-102,12,1017,1
67407,321777,401413,-102,12,1020,1
67451,321815,401352,-107,13,1020,1
67545,321907,401355,-101,13,1034,1
67491,322095,401362,-101,12,1013,1
67645,322085,401247,-98,19,1011,1
67626,322210,401233,-98,16,1011,1
67699,322340,401300,-96,16,1026,1
67733,322418,401299,-96,12,1027,1
67766,322538,401427,-94,6,1027,1
67802,322559,401272,-97,6,1015,1
67823,322661,401227,-97,9,1011,1
67901,322767,401161,-108,13,1011,1
67959,322847,401107,-107,13,1021,1
67954,322904,401245,-107,14,1004,1
68036,323086,401280,-99,20,1004,1
68089,323178,401335,-103,15,1017,1
68066,323173,401293,-98,15,1001,1
68207,323223,401196,-98,14,1035,1
68243,323293,401211,-99,17,1035,1
68320,323386,401262,-98,17,1024,1
68273,323280,401215,-98,16,1013,1
68232,323200,401264,-100,12,1013,1
68269,323171,401410,-106,12,1024,1
68111,323002,401277,-106,10,1004,1
68056,322827,401158,-98,11,1004,1
67749,322265,400913,-96,11,1005,1
67659,322026,400818,-97,10,1004,1
67551,321869,400727,-97,14,1020,1
67505,321662,400679,-96,7,1020,1
67360,321497,400498,-98,7,1021,1
67204,321091,400468,-98,14,1013,1
67150,320959,400410,-99,11,1013,1
67069,320865,400497,-100,11,998,1
67052,320888,400447,-100,12,1014,1
67005,320782,400528,-99,14,1014,1
67063,320689,400447,-98,14,1005,1
67032,320797,400577,-103,15,1027,1
67045,320850,400619,-103,10,1024,1
67103,320794,400514,-101,12,1024,1
67000,320904,400649,-100,12,1029,1
67189,321005,400742,-100,18,1002,1
67212,321070,400843,-101,11,1002,1
67285,321095,400883,-102,11,1029,1
67316,321181,400867,-102,17,1008,1
67368,321262,400976,-99,12,1008,1
67399,321363,400943,-105,12,1027,1
67488,321424,400935,-105,18,1007,1
67436,321472,400951,-105,15,1007,1
67539,321566,400962,-105,17,1018,1
67601,321697,401055,-99,17,1021,1
67592,321832,401051,-99,11,1015,1
67672,321923,401165,-103,15,1015,1
67688,322103,401205,-99,15,1026,1
67815,322183,401253,-99,15,1035,1
67906,322310,401374,-94,12,1035,1
67826,322427,401248,-94,12,1032,1
67966,322434,401322,-99,21,996,1
68001,322655,401358,-99,15,996,1
68033,322706,401388,-97,15,1029,1
68098,322998,401511,-97,18,1030,1
68205,322936,401362,-99,15,1029,1
68280,322972,401322,-102,12,1029,1
68255,323095,401348,-105,12,1015,1
68296,323127,401334,-105,9,1014,1
68370,323167,401381,-93,16,1014,1
68406,323392,401310,-96,16,1026,1
68494,323351,401368,-96,14,1005,1
68564,323413,401362,-110,14,1005,1
68570,323479,401442,-108,14,1032,1
68635,323524,401480,-108,9,1018,1
68738,323608,401389,-101,12,1029,1
68762,323686,401375,-106,10,1029,1
68717,323712,401501,-108,10,1015,1
68717,323779,401484,-108,13,1027,1
68758,323838,401663,-99,12,1027,1
68756,323672,401577,-106,12,1018,1
68659,323515,401570,-106,8,1021,1
68535,323238,401504,-98,11,1024,1
68361,323011,401299,-105,15,1024,1
68247,322777,401095,-105,15,1026,1
68272,322248,400672,-102,15,1026,1
67935,322028,400632,-94,11,1018,1
67889,321762,400453,-98,11,1020,1
67812,321675,400276,-98,8,1014,1
67643,321530,400299,-102,20,1014,1
67508,321169,400142,-106,20,1017,1
67485,321023,400056,-106,12,1008,1
67397,320938,400059,-99,15,1008,1
67394,320886,399991,-96,15,1026,1
67376,320862,399972,-96,9,1020,1
67398,320958,399997,-94,17,1020,1
67499,320971,399998,-99,13,1023,1
67409,320987,399998,-102,13,1027,1
67455,320904,399937,-102,16,1018,1
67492,321025,399952,-105,16,1018,1
67575,321190,400082,-103,16,1024,1
67658,321242,400039,-103,18,1035,1
67697,321329,400061,-93,13,1035,1
67690,321253,399986,-109,13,1037,1
67728,321290,400145,-109,13,1027,1
67821,321529,400307,-108,14,1023,1
67866,321619,400282,-105,14,1023,1
67956,321742,400322,-90,14,1021,1
67932,321811,400435,-90,11,1005,1
68067,321911,400535,-98,9,1005,1
67984,321973,400493,-102,9,1015,1
68121,322152,400446,-102,15,1020,1
68153,322280,400423,-96,18,1020,1
68254,322320,400502,-105,18,1035,1
68286,322407,400547,-101,15,1013,1
68276,322499,400644,-101,15,1024,1
68418,322696,400696,-98,15,1024,1
68416,322757,400687,-98,8,1011,1
68393,322829,400719,-98,14,1018,1
68501,322892,400662,-96,17,1018,1
68478,323056,400803,-102,17,1024,1
68546,323124,400651,-102,16,1027,1
68562,323156,400727,-102,13,1027,1
68669,323172,400708,-108,13,1017,1
68727,323256,400632,-108,12,1013,1
68773,323426,400679,-89,18,1010,1
68841,323545,400830,-101,18,1010,1
68875,323625,400824,-101,9,1015,1
68935,323637,400931,-96,15,1011,1
68994,323705,400947,-100,12,1011,1
69061,323813,401044,-108,12,1027,1
69076,323847,401027,-108,18,1007,1
69089,323873,400955,-102,14,1007,1
69084,323814,400926,-102,14,1013,1
69087,323712,400954,-102,11,1032,1
69032,323619,401043,-105,15,1032,1
68841,323300,400761,-102,15,1005,1
68758,323054,400697,-102,12,1029,1
68567,322824,400567,-103,12,1030,1
68546,322572,400516,-96,14,1030,1
68370,322578,400618,-106,14,1014,1
68210,321966,400134,-106,16,1029,1
68156,321832,400102,-105,10,1029,1
68026,321606,400024,-101,10,1001,1
67957,321493,399937,-101,20,1037,1
67919,321589,399931,-99,8,1037,1
67863,321276,399891,-99,12,1014,1
67844,321289,399851,-105,12,1035,1
67875,321173,399919,-105,13,1032,1
67825,321224,399767,-100,13,1032,1
67797,321147,399816,-100,13,1030,1
67899,321220,399806,-100,13,1018,1
67917,321317,399839,-111,16,1018,1
67962,321356,399743,-106,16,1023,1
67969,321379,399857,-106,15,1026,1
67994,321536,399921,-96,12,1026,1
67970,321704,399964,-103,12,1017,1
68139,321672,399979,-103,12,1007,1
68210,321723,400057,-105,12,1044,1
68179,321816,400160,-102,12,1044,1
68270,322014,400277,-102,12,1017,1
68376,322061,400194,-105,15,1024,1
68400,322128,400272,-100,19,1024,1
68438,322159,400233,-96,19,1018,1
68464,322250,400281,-96,18,1005,1
68508,322388,400395,-107,12,1005,1
68614,322501,400345,-94,12,1024,1
68602,322580,400361,-94,13,1017,1
68637,322725,400436,-101,18,1034,1
68772,322808,400512,-107,12,1034,1
68776,322868,400498,-107,12,1027,1
68702,322960,400534,-98,12,1027,1
68920,323049,400593,-99,8,1029,1
68918,323234,400553,-102,8,1014,1
69014,323209,400641,-102,15,1014,1
69030,323337,400646,-106,10,1014,1
69118,323537,400737,-105,10,1010,1
69196,323529,400771,-105,15,1026,1
69062,323601,400637,-99,2,1026,1
69235,323702,400789,-102,13,1024,1
69219,323720,400864,-106,13,1034,1
69256,323865,400872,-106,12,1034,1
69376,323919,400946,-107,12,1014,1
69419,323936,400965,-102,9,1030,1
69412,324023,400966,-102,9,1018,1
69394,324023,400985,-93,18,1018,1
69487,324198,400895,-100,18,1018,1
69496,324074,401004,-100,17,1001,1
69427,323977,400964,-102,13,1001,1
69312,323807,400870,-107,13,1018,1
69231,323633,400810,-107,17,1011,1
69217,323427,400662,-96,13,1011,1
68916,322947,400545,-108,13,1021,1
68787,322724,400412,-105,15,1015,1
68678,322553,400359,-105,21,1005,1
68594,322391,400213,-107,12,1005,1
68516,322374,400090,-107,12,1011,1
68352,321811,399999,-107,12,1015,1
68254,321668,399819,-108,18,1015,1
68228,321589,399772,-105,18,1034,1
68178,321444,399836,-105,21,1007,1
68213,321518,399793,-102,13,1007,1
68151,321363,399765,-102,9,1021,1
68227,321419,399737,-102,9,1018,1
68178,321317,399724,-96,15,1026,1
68202,321441,399711,-99,14,1026,1
68169,321492,399775,-107,14,1002,1
68246,321518,399912,-107,13,1010,1
68336,321599,399868,-102,16,1010,1
68371,321654,399979,-99,16,1023,1
68371,321747,399948,-99,13,1020,1
68536,321834,400136,-106,18,1020,1
68454,321879,400134,-98,19,1026,1
68592,321996,400151,-98,19,1034,1
68655,322100,400111,-105,11,1029,1
68600,322162,400224,-107,19,1029,1
68608,322366,400322,-102,19,1005,1
68713,322438,400313,-102,13,1027,1
68774,322421,400310,-102,14,1027,1
68791,322430,400274,-98,14,1030,1
68796,322578,400341,-98,15,1018,1
68929,322822,400560,-101,12,1026,1
68978,322882,400565,-108,16,1026,1
69027,322914,400556,-108,16,1030,1
69034,322956,400518,-90,18,1030,1
69152,323084,400540,-106,10,1013,1
69177,323124,400632,-108,10,1023,1
69188,323270,400631,-108,18,1046,1
69239,323357,400739,-96,10,1046,1
69262,323428,400815,-98,10,1014,1
69355,323505,400842,-98,18,1037,1
69359,323607,400922,-99,8,1037,1
69268,323689,400948,-100,8,1023,1
69538,323818,401062,-100,18,1021,1
69540,323906,401043,-103,15,1021,1
69556,324024,401236,-106,12,1021,1
69555,324048,401247,-105,12,1029,1
69693,324100,401305,-105,11,1034,1
69658,324192,401245,-101,10,1034,1
69717,324221,401123,-105,10,1007,1
69714,324180,401221,-105,12,1010,1
69746,324261,401271,-100,9,1010,1
69809,324117,401178,-105,9,1020,1
69615,323936,401243,-105,11,1032,1
69524,323785,401150,-99,15,1010,1
69416,323576,401185,-101,15,1010,1
69263,323383,401126,-101,12,1035,1
69082,322857,400901,-108,14,1026,1
68996,322689,400731,-107,10,1026,1
68938,322515,400699,-97,10,1005,1
68798,322215,400491,-97,9,1010,1
68748,322106,400536,-106,19,1010,1
68732,321821,400374,-93,19,1021,1
68485,321679,400291,-93,18,1010,1
68455,321608,400178,-99,13,1013,1
68393,321496,400178,-103,13,1013,1
68401,321494,400118,-96,20,1020,1
68415,321496,400036,-96,6,987,1
68432,321504,400120,-106,19,987,1
68372,321552,400090,-105,19,1027,1
68455,321552,400147,-105,12,1010,1
68430,321543,400159,-102,20,1010,1
68561,321642,400236,-102,20,1018,1
68593,321710,400294,-102,16,1020,1
68704,321796,400371,-102,12,1011,1
68617,321838,400482,-101,12,1011,1
68779,321945,400440,-101,9,1023,1
68746,322007,400678,-102,15,1008,1
68779,322161,400689,-105,12,1008,1
68917,322167,400580,-95,12,1018,1
68838,322276,400703,-95,20,1024,1
68865,322265,400546,-102,15,1024,1
68926,322476,400616,-101,15,1018,1
69025,322597,400709,-101,15,1047,1
69070,322631,400757,-88,15,1047,1
69132,322675,400811,-101,15,1005,1
69190,322766,400801,-101,12,1014,1
69030,322849,400812,-98,9,1014,1
69259,322901,400835,-108,9,1032,1
69280,322966,400839,-102,10,1024,1
69311,323035,400788,-102,15,1024,1
69316,323082,400723,-96,18,1024,1
69492,323189,400843,-102,18,1011,1
69395,323291,400927,-102,10,1010,1
69451,323323,401028,-109,18,1010,1
69577,323449,401069,-108,18,1029,1
69606,323541,401137,-108,15,1014,1
69687,323575,401262,-98,19,1014,1
69838,323709,401330,-97,18,1037,1
69754,323874,401355,-99,18,1021,1
69812,323954,401478,-99,11,1010,1
69847,324044,401499,-103,18,1010,1
69986,324147,401674,-96,18,1032,1
70000,324205,401611,-96,14,1024,1
69966,324244,401683,-106,10,1024,1
69930,324241,401586,-111,10,1017,1
70050,324109,401598,-111,10,1032,1
70030,324351,401515,-99,12,1032,1
69949,323953,401376,-98,15,1004,1
69804,323772,401336,-100,15,1015,1
69739,323602,401319,-100,11,1004,1
69646,323366,401190,-102,7,1004,1
69546,323188,401059,-97,7,1007,1
69373,322903,400985,-97,10,1030,1
69222,322652,400884,-99,16,1030,1
69166,322510,400808,-103,16,1030,1
69113,322415,400678,-103,12,1021,1
69074,322210,400829,-106,13,1021,1
68909,322052,400731,-102,13,1011,1
68903,321939,400673,-102,13,1021,1
68848,321952,400644,-105,8,1021,1
68848,321932,400656,-102,17,1018,1
68901,322004,400702,-102,17,1010,1
68963,321947,400815,-102,11,1017,1
68950,321993,400734,-105,14,1017,1
68953,322041,400906,-102,14,1014,1
68978,322088,400893,-102,18,1020,1
69046,322226,401009,-102,12,1020,1
69070,322322,401041,-96,12,1030,1
69091,322438,401020,-96,12,1014,1
69164,322462,401130,-93,17,1014,1
69172,322466,401144,-100,22,999,1
69246,322598,401314,-100,22,1004,1
69195,322754,401338,-102,12,1004,1
69311,322778,401298,-111,15,1004,1
69381,322860,401407,-93,15,1030,1
69532,322935,401480,-93,17,1027,1
69487,323161,401661,-101,12,1027,1
69501,323329,401574,-99,12,1010,1
69574,323294,401692,-99,14,1007,1
69652,323427,401768,-105,10,1007,1
69674,323552,401781,-103,10,1027,1
69725,323622,401778,-103,14,1017,1
69802,323744,401950,-94,18,1020,1
69816,323910,402012,-99,9,1020,1
69953,323900,402007,-99,9,1024,1
69925,323991,402084,-99,12,1021,1
69986,324123,402186,-102,12,1021,1
69993,324263,402271,-108,12,1026,1
70059,324341,402233,-108,10,1037,1
70147,324452,402431,-100,18,1037,1
70226,324553,402478,-108,18,1018,1
70287,324661,402589,-108,11,1014,1
70210,324739,402513,-89,14,1014,1
70365,324729,402642,-100,14,1018,1
70354,324918,402654,-110,12,1018,1
70315,324873,402744,-110,8,1014,1
70387,324953,402667,-86,15,1014,1
70499,325017,402866,-102,15,1013,1
70593,325217,402862,-102,9,1027,1
70602,325169,402813,-99,9,1027,1
70567,325164,402845,-97,9,1008,1
70592,325178,402812,-97,7,1017,1
70431,325206,402951,-93,15,1017,1
70441,324829,402700,-105,15,1032,1
70328,324668,402633,-106,13,1023,1
70199,324490,402666,-106,10,1023,1
70178,324295,402569,-97,12,1023,1
70145,324242,402587,-96,12,1032,1
69941,323831,402359,-96,15,1011,1
69873,323671,402229,-100,18,1011,1
69667,323553,402194,-105,18,1018,1
69683,323406,402149,-105,15,1002,1
69662,323275,402062,-103,11,1015,1
69554,323170,401954,-99,11,1015,1
69594,323044,402057,-99,14,1014,1
69512,323034,402105,-99,13,1013,1
69539,323045,402261,-102,14,1013,1
69580,323137,402316,-103,14,1027,1
69564,323103,402202,-103,13,1020,1
69669,323189,402279,-99,11,1020,1
69692,323297,402305,-105,11,1008,1
69679,323328,402422,-105,18,1004,1
69693,323543,402523,-100,9,1004,1
69797,323543,402662,-100,9,1013,1
69829,323600,402655,-100,18,1020,1
69843,323727,402770,-96,10,1035,1
69828,323805,402869,-102,10,1035,1
69909,323954,402873,-108,13,1024,1
70048,323952,402900,-108,13,1015,1
70011,323995,402922,-96,9,1015,1
70078,324166,402986,-106,9,1030,1
70155,324210,403014,-106,6,1023,1
70138,324392,403054,-103,21,1023,1
70205,324524,403096,-99,21,1017,1
70224,324503,403131,-99,11,1007,1
70205,324611,403226,-101,14,1030,1
70298,324699,403292,-102,14,1030,1
70366,324712,403302,-91,18,1013,1
70243,324826,403194,-91,17,1029,1
70505,324914,403159,-94,15,1029,1
70543,325046,403231,-102,15,1008,1
70527,325119,403246,-102,10,1038,1
70621,325294,403380,-101,13,1038,1
70730,325309,403415,-93,13,1020,1
70690,325369,403435,-93,9,1015,1
70748,325451,403427,-103,18,1015,1
70786,325469,403408,-97,18,1034,1
70810,325635,403523,-97,12,996,1
70868,325763,403572,-98,12,996,1
70837,325833,403523,-107,12,1002,1
70951,326000,403611,-99,15,1026,1
71004,325942,403730,-99,11,1024,1
71049,326111,403859,-96,16,1024,1
70926,326119,403769,-99,16,1021,1
71148,326085,403599,-99,13,1034,1
71135,326064,403624,-93,12,1034,1
71024,325971,403519,-98,12,1032,1
70973,325769,403541,-98,14,1015,1
70914,325468,403247,-96,8,1024,1
70663,325235,403158,-103,22,1024,1
70643,325119,403003,-103,22,1011,1
70481,324855,403009,-98,17,1018,1
70350,324719,402886,-100,15,1018,1
70414,324675,402763,-105,15,1015,1
70139,324207,402698,-105,20,1044,1
70093,324038,402585,-99,18,1044,1
69979,323927,402534,-101,18,1017,1
70003,323842,402461,-101,16,1013,1
69963,323786,402337,-97,15,1013,1
69877,323584,402253,-96,15,1034,1
69855,323514,402256,-96,15,1005,1
69805,323520,402347,-99,18,1027,1
69879,323529,402273,-102,12,1027,1
69776,323506,402221,-96,12,1017,1
69895,323614,402202,-96,18,1030,1
69968,323607,402203,-100,15,1030,1
69963,323671,402272,-108,15,1014,1
69959,323700,402259,-108,12,1013,1
69985,323880,402318,-99,19,1013,1
70116,323850,402322,-105,19,1014,1
70059,323955,402355,-105,12,1008,1
70097,324007,402429,-101,13,1008,1
70095,324016,402361,-100,12,1018,1
70003,324244,402547,-108,12,1024,1
70204,324235,402481,-108,20,1023,1
70269,324409,402644,-105,15,1023,1
70349,324454,402616,-106,15,1024,1
70325,324478,402628,-106,13,1013,1
70468,324571,402799,-105,17,1013,1
70384,324712,402744,-96,17,1029,1
70439,324813,402838,-96,3,1032,1
70513,324960,402903,-100,12,1037,1
70495,324966,402848,-107,12,1037,1
70550,325081,402856,-98,10,1014,1
70675,325165,402913,-98,14,1029,1
70729,325289,402850,-94,13,1029,1
70731,325319,402787,-101,13,1020,1
70761,325368,402909,-101,10,1023,1
70743,325416,402969,-95,16,1023,1
70889,325561,402893,-102,16,1008,1
70931,325630,402979,-102,15,1005,1
70909,325672,403006,-99,19,1005,1
70975,325682,403072,-105,19,1007,1
70999,325968,403416,-105,11,1021,1
71058,326065,403284,-87,15,1024,1
71112,326082,403228,-107,10,1024,1
71129,326104,403232,-98,10,1029,1
71131,326109,403183,-98,8,1043,1
71191,326189,403173,-107,11,1043,1
71204,326123,403155,-96,11,1024,1
71193,326157,403179,-96,19,1032,1
71187,326041,403112,-102,12,1032,1
71133,325934,403079,-93,12,1023,1
71048,325804,403046,-93,6,1027,1
70810,325308,402777,-99,9,1027,1
70692,325068,402536,-99,12,1013,1
70594,324878,402499,-100,12,1017,1
70543,324673,402432,-100,25,996,1
70455,324560,402289,-96,17,996,1
70308,324162,402138,-101,17,1015,1
70153,323943,401951,-101,16,1021,1
70132,323889,401893,-90,12,1021,1
70085,323781,401949,-107,12,1026,1
70027,323750,402046,-107,13,1043,1
70039,323525,401810,-100,12,1010,1
69982,323508,401810,-99,12,1010,1
70028,323461,401772,-99,7,1018,1
69915,323405,401739,-99,9,1013,1
69964,323446,401699,-100,3,1013,1
69976,323569,401733,-105,3,996,1
70010,323461,401626,-105,20,1027,1
70059,323499,401738,-99,6,1027,1
69988,323499,401636,-99,6,1008,1
70044,323621,401731,-99,16,1024,1
70061,323799,401858,-100,18,1024,1
70130,323852,401843,-112,18,1026,1
70126,323916,401929,-112,18,1017,1
70198,324002,401955,-108,8,1029,1
70274,324105,402066,-103,14,1029,1
70369,324292,402171,-97,14,1007,1
70353,324230,402208,-97,12,1040,1
70366,324362,402175,-108,15,1040,1
70421,324401,402225,-95,15,1032,1
70418,324541,402265,-95,17,1010,1
70506,324623,402439,-93,15,1010,1
70553,324799,402404,-102,20,1015,1
70521,324807,402501,-102,20,1017,1
70628,324963,402454,-102,13,1005,1
70618,325013,402507,-111,8,1005,1
70780,325121,402635,-99,8,1018,1
70809,325218,402655,-99,14,1030,1
70802,325230,402542,-101,17,1030,1
70856,325356,402592,-96,17,1024,1
70850,325364,402582,-96,15,1027,1
70887,325477,402766,-103,11,1027,1
71071,325557,402768,-105,11,1011,1
70976,325570,402783,-105,15,1011,1
71022,325640,402923,-97,12,1011,1
71095,325811,402884,-97,12,1030,1
71083,325967,402936,-99,17,1011,1
71222,325983,403079,-99,23,1029,1
71250,326092,403191,-100,14,1029,1
71339,326189,403242,-105,14,1020,1
71334,326160,403206,-105,28,1043,1
71299,326263,403157,-107,14,1043,1
71334,326154,403114,-101,14,1018,1
71273,325972,403060,-101,12,1029,1
71179,325876,403004,-90,9,1023,1
71082,325749,402882,-105,15,1023,1
70960,325492,402881,-105,15,1026,1
70816,325068,402632,-102,16,1026,1
70702,324823,402612,-97,12,1017,1
70691,324682,402477,-98,12,1024,1
70503,324504,402423,-98,8,1029,1
70504,324342,402427,-105,15,1029,1
70301,324038,402185,-96,15,1013,1
70222,323793,402015,-96,16,1015,1
70208,323786,402015,-101,11,1015,1
70136,323625,402067,-105,11,1015,1
70102,323731,402238,-105,14,1021,1
70010,323568,402073,-98,13,1013,1
70071,323568,402078,-93,13,1013,1
70153,323571,402010,-93,12,1026,1
70089,323501,402032,-100,15,1026,1
70141,323700,402135,-108,13,1026,1
70169,323700,402166,-95,13,1007,1
70221,323612,402115,-95,13,1032,1
70139,323699,402147,-97,13,1032,1
70130,323699,402143,-98,13,1011,1
70299,323943,402274,-98,20,1004,1
70259,323978,402270,-108,21,1004,1
70357,324020,402232,-99,11,1015,1
70362,324083,402211,-107,11,1017,1
70315,324105,402186,-107,9,1010,1
70418,324269,402405,-105,12,1010,1
70418,324280,402350,-105,12,1017,1
70528,324445,402489,-105,12,1015,1
70491,324448,402465,-102,7,1015,1
70512,324541,402506,-107,7,1018,1
70601,324683,402601,-107,19,1020,1
70731,324735,402525,-91,11,1020,1
70695,324778,402644,-107,12,1026,1
70754,324806,402595,-107,12,1018,1
70692,324881,402603,-106,6,1008,1
70840,325019,402672,-103,15,1008,1
70896,325087,402684,-96,15,1020,1
70935,325228,402752,-96,5,1030,1
70948,325268,402693,-103,18,1030,1
70958,325310,402684,-93,18,1024,1
70931,325348,402701,-93,12,1017,1
70866,325479,402821,-108,11,1017,1
71109,325504,402693,-101,11,1008,1
71110,325536,402809,-101,15,1021,1
71230,325639,402848,-106,12,1021,1
71229,325709,402971,-102,12,1026,1
71295,325897,403038,-102,17,1020,1
71362,325957,403092,-100,10,1017,1
71434,326023,403075,-93,16,1017,1
71399,326083,403139,-102,16,1014,1
71336,326127,403072,-102,18,1021,1
71436,326096,403033,-93,9,1021,1
71339,325903,402926,-91,9,1002,1
71339,325798,402769,-91,7,1020,1
71268,325651,402774,-105,11,1020,1
71143,325460,402638,-108,11,1021,1
71045,325302,402557,-108,11,1008,1
70816,324802,402374,-100,15,1008,1
70796,324661,402274,-99,12,996,1
70713,324541,402235,-98,12,1015,1
70666,324331,402153,-98,2,1020,1
70495,324189,401938,-99,12,1020,1
70339,323893,401850,-99,12,1017,1
70253,323749,401810,-99,15,1018,1
70335,323610,401833,-116,12,1018,1
70227,323519,401758,-99,12,1020,1
70152,323461,401754,-99,11,1029,1
70149,323406,401659,-102,9,1029,1
70163,323436,401605,-96,9,1029,1
70171,323433,401585,-111,14,1021,1
70172,323400,401638,-111,15,1023,1
70039,323535,401640,-102,19,1023,1
70336,323616,401706,-105,19,1032,1
70355,323654,401754,-105,11,1021,1
70318,323639,401871,-100,13,1021,1
70303,323846,401942,-105,13,1026,1
70469,323870,401992,-105,13,1029,1
70389,324030,402055,-95,13,1023,1
70456,324008,402070,-95,15,1023,1
70417,324201,402096,-95,15,1014,1
70589,324225,402189,-106,12,1020,1
70543,324488,402344,-102,12,1020,1
70630,324421,402276,-97,12,1018,1
70694,324576,402268,-97,10,1023,1
70703,324674,402388,-100,9,1023,1
70782,324751,402448,-101,9,1027,1
70919,324775,402741,-101,15,1034,1
70862,324890,402599,-97,10,1034,1
70954,325047,402679,-105,10,1029,1
71021,325146,402767,-108,6,1001,1
70951,325294,402822,-108,15,1001,1
70934,325464,402992,-102,4,1023,1
71050,325379,402803,-99,4,1029,1
71065,325484,402892,-99,11,1024,1
71083,325407,402795,-107,16,1024,1
71167,325491,402722,-96,16,1023,1
71213,325674,402773,-96,19,1030,1
71216,325693,402766,-101,7,1030,1
71318,325721,402804,-93,7,1021,1
71292,325836,402910,-93,15,1027,1
71379,325940,402971,-99,19,1030,1
71448,326015,403033,-96,19,1030,1
71470,326180,403061,-96,13,1018,1
71545,326221,402982,-102,9,1027,1
71480,326191,402880,-98,17,1027,1
71560,326254,402941,-96,17,1035,1
71624,326338,402950,-96,18,1034,1
71544,326339,402848,-101,15,1034,1
71602,326241,402953,-96,15,1046,1
71515,326142,402845,-96,13,1014,1
71467,326026,402845,-100,9,1024,1
71387,325899,402729,-100,9,1024,1
71302,325509,402545,-100,24,1002,1
71102,325288,402472,-108,12,1008,1
71048,325106,402347,-102,12,1008,1
70920,325000,402382,-102,12,1002,1
70797,324819,402260,-102,12,1020,1
70797,324504,401911,-102,8,1020,1
70556,324388,401912,-99,8,1014,1
70529,324299,401932,-99,15,1030,1
70548,324161,401876,-99,9,1030,1
70541,324196,401835,-106,9,1029,1
70416,323918,401782,-101,13,1024,1
70458,323967,401699,-101,16,1024,1
70445,323946,401715,-99,18,1023,1
70451,323962,401706,-97,18,1010,1
70479,324110,401643,-97,9,1027,1
70566,324110,401734,-99,13,1027,1
70425,324134,401821,-106,13,1020,1
70463,324127,401757,-106,10,1029,1
70566,324195,401844,-99,17,1029,1
70639,324308,401871,-96,17,1034,1
70608,324496,402003,-98,15,1010,1
70601,324486,402047,-98,12,1010,1
70732,324655,402143,-95,12,1010,1
70745,324666,402171,-95,14,1018,1
70784,324675,402163,-96,9,1005,1
70758,324785,402215,-96,14,1005,1
70901,324982,402330,-96,14,1007,1
70896,324960,402248,-96,12,1014,1
70926,325120,402318,-105,12,1014,1
70997,325106,402321,-99,12,1035,1
70977,325282,402432,-99,6,1018,1
71054,325315,402430,-93,13,1018,1
71088,325375,402392,-102,13,1018,1
71156,325439,402461,-94,17,1017,1
71169,325530,402374,-94,16,1018,1
71214,325713,402373,-108,11,1018,1
71232,325665,402360,-102,11,1005,1
71249,325747,402437,-102,20,1024,1
71401,325857,402488,-90,15,1024,1
71394,325959,402509,-111,15,1034,1
71330,326128,402692,-111,16,1004,1
71540,326127,402666,-96,19,1004,1
71450,326246,402658,-90,19,1026,1
71489,326262,402559,-90,12,1021,1
71497,326266,402585,-102,16,1021,1
71554,326342,402600,-105,16,1021,1
71570,326417,402532,-102,9,1032,1
71684,326496,402497,-102,12,1001,1
71675,326484,402513,-98,17,1001,1
71701,326533,402447,-98,17,1024,1
71753,326433,402540,-98,14,1007,1
71574,326432,402599,-90,11,1007,1
71547,326292,402550,-111,11,1001,1
71474,326112,402497,-111,18,1002,1
71260,325835,402299,-100,23,1002,1
71189,325682,402419,-94,23,1018,1
71099,325303,402013,-94,12,1017,1
70950,324997,401809,-105,5,1030,1
70830,324906,401860,-97,7,1030,1
70744,324689,401698,-95,7,1017,1
70724,324682,401723,-95,15,1015,1
70525,324161,401500,-90,18,1015,1
70346,324044,401348,-108,18,1027,1
70329,323910,401327,-108,15,1011,1
70351,323830,401261,-97,13,1011,1
70301,323832,401264,-99,12,1044,1
70308,323733,401127,-99,12,1037,1
70351,323705,401064,-99,13,1020,1
70359,323702,401089,-100,18,1020,1
70348,323789,401111,-99,18,1020,1
70341,323789,401146,-99,6,1032,1
70353,323740,401066,-102,9,1032,1
70341,323850,401139,-99,9,1015,1
70400,323894,401071,-99,17,1015,1
70429,323895,401103,-102,9,1015,1
70464,324016,401216,-94,9,1032,1
70516,324147,401241,-94,14,1027,1
70514,324217,401289,-102,12,1027,1
70510,324232,401258,-102,12,1043,1
70577,324289,401370,-107,9,1038,1
70626,324325,401236,-107,10,1005,1
70685,324457,401167,-100,16,1005,1
70737,324472,401193,-105,16,1026,1
70711,324514,401280,-105,12,1007,1
70770,324635,401298,-110,15,1007,1
70762,324683,401460,-102,15,1029,1
70768,324829,401670,-102,15,1023,1
70826,324947,401639,-106,11,1023,1
70950,324928,401624,-109,11,1011,1
70947,325023,401587,-109,18,1024,1
70963,325171,401551,-100,9,1010,1
70994,325305,401509,-106,12,1010,1
71090,325255,401595,-98,12,999,1
71113,325276,401638,-98,11,1021,1
71126,325375,401692,-107,14,1021,1
71174,325406,401761,-95,14,1023,1
71310,325671,401796,-95,9,1018,1
71237,325689,401787,-105,9,1018,1
71236,325697,401795,-101,9,1032,1
71335,325795,401790,-101,13,1020,1
71375,325798,401941,-102,20,1020,1
71386,325923,401739,-105,15,1024,1
71437,325910,401758,-109,15,1023,1
71421,325947,401686,-109,12,1018,1
71404,325910,401746,-102,12,1018,1
71427,325871,401806,-110,12,1030,1
71370,325910,401679,-110,7,1020,1
71221,325476,401640,-96,16,1020,1
71070,325297,401433,-97,16,1014,1
71000,325094,401339,-97,18,1011,1
70858,324815,401214,-96,18,1030,1
70788,324710,401066,-106,18,1030,1
70555,324258,401016,-106,11,1020,1
70485,324016,400888,-102,12,1018,1
70380,323833,400774,-107,18,1018,1
70309,323710,400717,-103,18,998,1
70184,323624,400734,-103,16,1024,1
70145,323257,400639,-102,15,1024,1
70087,323190,400567,-97,15,1005,1
70026,323146,400425,-97,12,1017,1
70022,323136,400459,-93,18,1037,1
70088,323229,400510,-95,18,1037,1
70093,323073,400456,-95,7,1014,1
70123,323079,400432,-102,13,1002,1
70126,323093,400457,-100,18,1002,1
70066,323105,400346,-99,18,1005,1
70095,323278,400573,-99,10,1029,1
70213,323332,400529,-100,21,1029,1
70190,323343,400551,-106,21,1035,1
70250,323428,400602,-106,12,1030,1
70311,323519,400662,-102,13,1030,1
70281,323775,400807,-100,13,1008,1
70368,323688,400735,-100,12,1005,1
70448,323763,400732,-101,13,1005,1
70413,323733,400679,-99,19,1032,1
70511,323882,400773,-98,19,1029,1
70510,324069,400859,-98,9,1008,1
70579,324041,400906,-102,13,1008,1
70617,324185,400843,-97,13,1049,1
70672,324191,400859,-97,7,1004,1
70728,324294,400857,-99,7,1004,1
70758,324420,400991,-102,7,1032,1
70875,324500,400939,-105,12,1007,1
70891,324587,400951,-105,12,1007,1
70877,324591,400988,-99,12,1029,1
70907,324677,400932,-99,13,1030,1
70968,324774,401027,-102,12,1014,1
71034,324848,401080,-95,11,1014,1
71121,324897,401075,-102,11,1029,1
71022,324949,401064,-102,15,1008,1
71106,324966,400990,-100,20,1008,1
71205,325095,401055,-102,20,1018,1
71018,325208,401181,-102,15,1026,1
71249,325310,401271,-108,15,1023,1
71305,325330,401407,-103,15,1023,1
71351,325428,401405,-96,5,1035,1
71335,325557,401407,-96,13,1015,1
71385,325456,401431,-98,10,1015,1
71444,325529,401422,-109,10,996,1
71378,325514,401314,-109,15,1023,1
71308,325495,401302,-99,16,1023,1
71357,325373,401354,-108,16,1011,1
71233,325121,401211,-108,18,1024,1
71044,324859,401086,-93,15,1024,1
70917,324536,401021,-107,15,1013,1
70826,324456,400869,-98,16,1026,1
70653,324159,400838,-98,18,1026,1
70392,323667,400479,-107,12,1017,1
70329,323428,400276,-100,12,1021,1
70318,323275,400193,-100,15,1021,1
70190,323041,400195,-96,12,1021,1
70100,322939,400111,-102,12,1013,1
70028,322670,400006,-102,12,1032,1
69956,322571,399969,-102,14,1032,1
69865,322537,399979,-108,14,1014,1
69790,322440,399898,-108,15,1023,1
69866,322530,399848,-101,12,1023,1
69893,322567,399895,-103,12,999,1
69939,322511,399910,-103,10,1021,1
69994,322568,400036,-99,14,1010,1
69959,322563,399989,-103,10,1010,1
70045,322605,399990,-108,10,1032,1
70114,322741,400090,-108,16,1023,1
70134,322790,400035,-108,16,1023,1
70143,322866,400005,-99,16,1020,1
70151,322951,400083,-99,21,1026,1
70247,322941,400008,-102,12,1026,1
70140,323049,400093,-105,12,998,1
70278,323096,400156,-105,7,1014,1
70346,323186,400103,-97,9,1021,1
70367,323309,400207,-105,12,1021,1
70445,323351,400281,-102,12,1015,1
70515,323581,400450,-102,19,1026,1
70622,323598,400430,-99,12,1026,1
70604,323653,400464,-98,12,1020,1
70666,323765,400542,-98,9,1008,1
70681,323822,400582,-105,19,1008,1
70539,323967,400617,-106,16,1027,1
70742,324014,400616,-106,16,1017,1
70787,324107,400659,-101,14,1015,1
70773,324144,400659,-98,15,1015,1
70902,324226,400740,-101,15,1020,1
70955,324513,400788,-101,5,1029,1
71005,324436,400731,-96,17,1029,1
70949,324415,400689,-107,17,1015,1
70973,324441,400787,-107,15,1010,1
71026,324462,400786,-103,16,1010,1
71058,324605,400867,-101,16,1026,1
71090,324733,400940,-101,7,1034,1
71159,324814,401004,-107,10,1037,1
71162,324802,400954,-99,15,1037,1
71244,324827,401089,-99,15,1021,1
71240,324952,401139,-108,9,1021,1
71305,324924,401013,-102,9,1021,1
71295,324910,400948,-105,9,1017,1
71202,324784,400949,-105,14,1004,1
