6316,6683,6040,9,-2,4,10240,-1.00,-1.00,3.70,5.74,6331,6719,6055,54,37,9,77,100,0
6306,6671,6035,-4,-22,-6,10240,-1.00,-1.00,3.70,5.74,6330,6718,6055,54,37,9,77,100,0
6300,6663,6031,-16,-37,-14,10240,-1.00,-1.00,3.70,5.74,6329,6716,6054,54,37,9,77,100,0
6303,6666,6033,-23,-46,-19,10240,-1.00,-1.00,3.70,5.74,6328,6714,6053,54,37,9,77,100,0
6311,6675,6039,-23,-46,-19,10240,-1.00,-1.00,3.70,5.74,6328,6713,6053,54,37,9,77,100,0
6321,6687,6046,-19,-41,-16,10240,-1.00,-1.00,3.70,5.74,6328,6712,6053,54,37,9,77,100,0
6323,6689,6047,-13,-33,-11,10240,-1.00,-1.00,3.70,5.74,6328,6711,6052,54,37,9,77,100,0
6326,6696,6050,-7,-25,-7,10240,-1.00,-1.00,3.70,5.74,6327,6711,6052,54,37,9,77,100,0
6334,6704,6056,-1,-17,-2,10240,-1.00,-1.00,3.70,5.74,6328,6710,6052,54,37,9,77,100,0
6336,6709,6062,2,-11,1,10240,-1.00,-1.00,3.70,5.74,6328,6710,6053,54,37,9,77,100,0
6353,6733,6074,9,0,7,10240,-1.00,-1.00,3.70,5.74,6329,6711,6054,54,37,9,77,100,0
6355,6738,6077,15,10,14,10240,-1.00,-1.00,3.70,5.74,6330,6712,6054,54,37,9,77,100,0
6360,6745,6083,21,19,20,10240,-1.00,-1.00,3.70,5.74,6331,6713,6055,54,37,9,77,100,0
6371,6757,6090,29,30,26,10240,-1.00,-1.00,3.70,5.74,6332,6715,6056,54,37,9,77,100,0
6376,6765,6091,34,37,29,10240,-1.00,-1.00,3.70,5.74,6333,6716,6058,54,37,9,77,100,0
6390,6782,6093,41,46,32,10240,-1.00,-1.00,3.70,5.74,6335,6718,6059,54,37,9,77,100,0
6395,6791,6105,48,56,36,10240,-1.00,-1.00,3.70,5.74,6337,6721,6060,54,37,9,77,100,0
6401,6799,6110,54,64,40,10240,-1.00,-1.00,3.70,5.74,6339,6723,6062,54,37,9,77,100,0
6406,6805,6113,59,72,44,10240,-1.00,-1.00,3.70,5.74,6342,6726,6064,54,37,9,77,100,0
6411,6815,6117,62,77,48,10240,-1.00,-1.00,3.70,5.74,6344,6729,6065,54,37,9,77,100,0
6422,6829,6122,67,84,51,10240,-1.00,-1.00,3.70,5.74,6347,6733,6067,54,37,9,77,100,0
6426,6833,6130,70,89,54,10240,-1.00,-1.00,3.70,5.74,6349,6736,6069,54,37,9,77,100,0
6430,6839,6132,74,94,57,10240,-1.00,-1.00,3.70,5.74,6352,6739,6072,54,37,9,77,100,0
6431,6840,6133,76,97,58,10240,-1.00,-1.00,3.70,5.74,6355,6743,6074,54,37,9,77,100,0
6421,6829,6121,73,94,56,10240,-1.00,-1.00,3.70,5.74,6357,6746,6075,65,64,26,75,100,0
6364,6748,6095,56,70,46,10240,-1.00,-1.00,2.22,2.39,6357,6746,6076,65,64,26,75,100,0
6345,6722,6060,33,39,27,10240,-1.00,-1.00,2.22,2.39,6357,6745,6075,65,64,26,75,100,0
6334,6705,6049,9,6,6,10240,-1.00,-1.00,2.22,2.39,6356,6743,6074,65,64,26,75,100,0
6321,6690,6041,-15,-27,-13,10240,-1.00,-1.00,2.22,2.39,6355,6742,6073,65,64,26,75,100,0
6310,6677,6035,-27,-44,-27,10240,-1.00,-1.00,2.22,2.39,6353,6740,6072,65,64,26,75,100,0
6302,6665,6030,-37,-56,-33,10240,-1.00,-1.00,2.22,2.39,6351,6737,6071,65,64,26,75,100,0
6307,6673,6038,-42,-62,-35,10240,-1.00,-1.00,2.22,2.39,6350,6735,6070,65,64,26,75,100,0
6321,6693,6048,-40,-59,-32,10240,-1.00,-1.00,2.22,2.39,6349,6733,6069,65,64,26,75,100,0
6331,6707,6060,-34,-50,-25,10240,-1.00,-1.00,2.22,2.39,6348,6733,6068,65,64,26,75,100,0
6341,6724,6071,-23,-34,-14,10240,-1.00,-1.00,2.22,2.39,6348,6732,6069,65,64,26,75,100,0
6358,6746,6087,-10,-15,-2,10240,-1.00,-1.00,2.22,2.39,6349,6733,6069,65,64,26,75,100,0
6370,6764,6092,1,2,8,10240,-1.00,-1.00,2.22,2.39,6349,6734,6070,65,64,26,75,100,0
6381,6779,6101,13,19,18,10240,-1.00,-1.00,2.22,2.39,6350,6735,6071,65,64,26,75,100,0
6388,6789,6107,24,34,26,10240,-1.00,-1.00,2.22,2.39,6352,6737,6072,65,64,26,75,100,0
6396,6802,6114,32,47,31,10240,-1.00,-1.00,2.22,2.39,6353,6739,6074,65,64,26,75,100,0
6416,6828,6131,42,61,40,10240,-1.00,-1.00,2.22,2.39,6355,6742,6075,65,64,26,75,100,0
6420,6836,6136,50,73,47,10240,-1.00,-1.00,2.22,2.39,6357,6745,6078,65,64,26,75,100,0
6426,6844,6143,58,83,54,10240,-1.00,-1.00,2.22,2.39,6360,6749,6080,65,64,26,75,100,0
6435,6856,6147,65,94,60,10240,-1.00,-1.00,2.22,2.39,6362,6752,6082,65,64,26,75,100,0
6441,6861,6147,69,98,62,10240,-1.00,-1.00,2.22,2.39,6365,6756,6084,65,64,26,75,100,0
6453,6878,6148,75,105,63,10240,-1.00,-1.00,2.22,2.39,6368,6760,6086,65,64,26,75,100,0
6459,6883,6150,80,111,63,10240,-1.00,-1.00,2.22,2.39,6371,6764,6088,65,64,26,75,100,0
6460,6885,6149,83,114,61,10240,-1.00,-1.00,2.22,2.39,6374,6768,6090,65,64,44,77,100,0
6464,6890,6150,86,118,60,10240,-1.00,-1.00,1.31,1.41,6377,6772,6092,65,64,44,77,100,0
6468,6897,6153,87,118,59,10240,-1.00,-1.00,1.31,1.41,6380,6776,6094,65,64,44,77,100,0
6472,6903,6154,87,119,58,10240,-1.00,-1.00,1.31,1.41,6383,6781,6096,65,64,44,77,100,0
6475,6909,6157,88,121,58,10240,-1.00,-1.00,1.31,1.41,6386,6785,6098,65,64,44,77,100,0
6476,6907,6155,88,121,57,10240,-1.00,-1.00,1.31,1.41,6389,6789,6100,65,64,44,77,100,0
6462,6888,6148,84,115,54,10240,-1.00,-1.00,1.31,1.41,6391,6792,6102,81,94,44,77,100,0
6431,6848,6130,71,98,46,10240,-1.00,-1.00,1.31,1.41,6393,6794,6103,81,94,44,77,100,0
6381,6775,6087,46,62,28,10240,-1.00,-1.00,1.31,1.41,6392,6793,6102,81,94,44,77,100,0
6363,6752,6075,17,23,8,10240,-1.00,-1.00,1.31,1.41,6391,6792,6101,81,94,44,77,100,0
6351,6735,6066,-10,-14,-12,10240,-1.00,-1.00,1.31,1.41,6390,6790,6100,81,94,44,77,100,0
6343,6726,6063,-30,-43,-27,10240,-1.00,-1.00,1.31,1.41,6388,6788,6099,81,94,44,77,100,0
6335,6715,6058,-41,-57,-34,10240,-1.00,-1.00,1.31,1.41,6387,6786,6098,81,94,44,77,100,0
6340,6721,6066,-45,-62,-35,10240,-1.00,-1.00,1.31,1.41,6385,6783,6097,81,94,44,77,100,0
6349,6735,6073,-44,-60,-32,10240,-1.00,-1.00,1.31,1.41,6384,6782,6096,81,94,44,77,100,0
6355,6741,6078,-40,-54,-27,10240,-1.00,-1.00,1.31,1.41,6383,6780,6095,81,94,44,77,100,0
6359,6748,6082,-32,-44,-21,10240,-1.00,-1.00,1.31,1.41,6382,6779,6095,81,94,44,77,100,0
6366,6759,6090,-25,-34,-14,10240,-1.00,-1.00,1.31,1.41,6382,6779,6095,81,94,44,77,100,0
6381,6778,6095,-16,-22,-8,10240,-1.00,-1.00,1.31,1.41,6381,6779,6095,81,94,44,77,100,0
6389,6788,6103,-8,-10,-2,10240,-1.00,-1.00,1.31,1.41,6382,6779,6095,81,94,44,77,100,0
6396,6799,6109,1,1,4,10240,-1.00,-1.00,1.31,1.41,6382,6780,6095,81,94,44,77,100,0
6402,6807,6114,10,13,10,10240,-1.00,-1.00,1.31,1.41,6383,6781,6096,81,94,44,77,100,0
6408,6816,6120,16,22,15,10240,-1.00,-1.00,1.31,1.41,6384,6782,6097,81,94,44,77,100,0
6419,6831,6128,22,31,21,10240,-1.00,-1.00,1.31,1.41,6385,6783,6098,81,94,44,77,100,0
6423,6836,6132,28,39,26,10240,-1.00,-1.00,1.31,1.41,6386,6785,6099,81,94,44,77,100,0
6425,6839,6133,33,46,29,10240,-1.00,-1.00,1.31,1.41,6387,6787,6100,81,94,44,77,100,0
6428,6844,6138,37,51,33,10240,-1.00,-1.00,1.31,1.41,6389,6789,6101,81,94,44,77,100,0
6432,6847,6140,39,53,35,10240,-1.00,-1.00,1.31,1.41,6390,6791,6103,81,94,44,77,100,0
6438,6857,6146,41,56,37,10240,-1.00,-1.00,1.31,1.41,6392,6793,6104,81,94,44,77,100,0
6442,6863,6147,43,60,39,10240,-1.00,-1.00,1.31,1.41,6394,6795,6106,81,94,44,77,100,0
6447,6870,6147,47,65,40,10240,-1.00,-1.00,1.31,1.41,6395,6798,6107,81,94,44,77,100,0
6454,6876,6147,50,70,40,10240,-1.00,-1.00,1.31,1.41,6397,6800,6108,81,94,44,77,100,0
6459,6882,6147,54,73,39,10240,-1.00,-1.00,1.31,1.41,6399,6803,6110,81,94,52,77,100,0
6447,6869,6145,53,72,37,10240,-1.00,-1.00,1.62,1.49,6401,6805,6111,86,104,52,77,100,0
6420,6831,6119,45,61,29,10240,-1.00,-1.00,1.62,1.49,6402,6806,6111,86,104,52,74,100,0
6392,6791,6094,28,38,15,10240,-1.00,-1.00,1.62,1.49,6401,6806,6110,86,104,52,74,100,0
6372,6764,6084,6,8,0,10240,-1.00,-1.00,1.62,1.49,6400,6804,6110,86,104,52,74,100,0
6355,6742,6071,-15,-22,-17,10240,-1.00,-1.00,1.62,1.49,6399,6802,6108,86,104,52,74,100,0
6339,6720,6059,-34,-48,-31,10240,-1.00,-1.00,1.62,1.49,6397,6799,6107,86,104,52,74,100,0
6331,6709,6053,-48,-66,-40,10240,-1.00,-1.00,1.62,1.49,6395,6796,6105,86,104,52,74,100,0
6328,6706,6053,-57,-78,-46,10240,-1.00,-1.00,1.62,1.49,6392,6793,6103,86,104,52,74,100,0
6328,6706,6054,-62,-84,-49,10240,-1.00,-1.00,1.62,1.49,6390,6791,6101,86,104,52,74,100,0
6337,6717,6063,-60,-82,-46,10240,-1.00,-1.00,1.62,1.49,6388,6788,6100,86,104,52,74,100,0
6351,6735,6074,-53,-73,-39,10240,-1.00,-1.00,1.62,1.49,6387,6786,6099,86,104,52,74,100,0
6353,6737,6073,-45,-63,-33,10240,-1.00,-1.00,1.62,1.49,6386,6785,6098,86,104,52,74,100,0
6352,6736,6072,-38,-54,-28,10240,-1.00,-1.00,1.62,1.49,6385,6783,6098,86,104,52,74,100,0
6355,6741,6077,-32,-46,-24,10240,-1.00,-1.00,1.62,1.49,6384,6782,6097,86,104,52,74,100,0
6363,6752,6083,-28,-41,-21,10240,-1.00,-1.00,1.62,1.49,6383,6781,6096,86,104,52,74,100,0
6374,6768,6090,-22,-32,-16,10240,-1.00,-1.00,1.62,1.49,6383,6780,6096,86,104,52,74,100,0
6379,6774,6092,-15,-22,-10,10240,-1.00,-1.00,1.62,1.49,6383,6780,6096,86,104,52,74,100,0
6385,6781,6097,-7,-11,-5,10240,-1.00,-1.00,1.62,1.49,6383,6780,6096,86,104,52,74,100,0
6391,6788,6100,0,-2,-1,10240,-1.00,-1.00,1.62,1.49,6383,6780,6096,86,104,52,74,100,0
6393,6792,6103,4,3,2,10240,-1.00,-1.00,1.62,1.49,6383,6781,6096,86,104,52,74,100,0
6404,6806,6112,10,11,6,10240,-1.00,-1.00,1.62,1.49,6384,6782,6097,86,104,52,74,100,0
6408,6812,6115,15,18,10,10240,-1.00,-1.00,1.62,1.49,6385,6783,6098,86,104,52,74,100,0
6413,6817,6118,20,24,14,10240,-1.00,-1.00,1.62,1.49,6386,6784,6098,86,104,52,74,100,0
6417,6823,6121,25,31,18,10240,-1.00,-1.00,1.62,1.49,6387,6785,6099,86,104,52,74,100,0
6421,6829,6124,28,35,20,10240,-1.00,-1.00,1.62,1.49,6388,6786,6100,86,104,52,74,100,0
6426,6835,6130,31,40,23,10240,-1.00,-1.00,1.62,1.49,6389,6788,6101,86,104,52,74,100,0
6429,6837,6130,34,43,25,10240,-1.00,-1.00,1.62,1.49,6391,6790,6102,86,104,52,74,100,0
6434,6845,6136,37,47,28,10240,-1.00,-1.00,1.62,1.49,6392,6792,6103,86,104,52,74,100,0
6436,6851,6141,39,51,31,10240,-1.00,-1.00,1.62,1.49,6394,6794,6104,86,104,52,74,100,0
6431,6843,6132,39,51,31,10240,-1.00,-1.00,1.62,1.49,6395,6795,6105,86,104,52,74,100,0
6375,6765,6081,25,32,18,10240,-1.00,-1.00,1.62,1.49,6394,6794,6104,89,112,59,74,100,0
6350,6731,6062,4,3,0,10240,-1.00,-1.00,1.71,1.44,6393,6792,6103,89,112,59,73,100,0
6333,6708,6048,-21,-30,-22,10240,-1.00,-1.00,1.71,1.44,6391,6789,6101,89,112,59,73,100,0
6321,6690,6036,-46,-66,-45,10240,-1.00,-1.00,1.71,1.44,6388,6786,6099,89,112,59,73,100,0
6307,6672,6028,-61,-87,-56,10240,-1.00,-1.00,1.71,1.44,6386,6782,6097,89,112,59,73,100,0
6287,6646,6017,-74,-104,-65,10240,-1.00,-1.00,1.71,1.44,6382,6778,6094,89,112,59,73,100,0
6285,6642,6016,-83,-117,-71,10240,-1.00,-1.00,1.71,1.44,6379,6773,6091,89,112,59,73,100,0
6290,6649,6019,-88,-123,-72,10240,-1.00,-1.00,1.71,1.44,6376,6769,6089,89,112,59,73,100,0
6298,6660,6027,-87,-122,-70,10240,-1.00,-1.00,1.71,1.44,6374,6765,6087,89,112,59,73,100,0
6306,6666,6030,-80,-113,-65,10240,-1.00,-1.00,1.71,1.44,6371,6762,6085,89,112,59,73,100,0
6308,6673,6034,-72,-101,-58,10240,-1.00,-1.00,1.71,1.44,6369,6759,6083,89,112,59,73,100,0
6311,6678,6036,-64,-91,-52,10240,-1.00,-1.00,1.71,1.44,6367,6756,6082,89,112,59,73,100,0
6319,6687,6043,-57,-81,-46,10240,-1.00,-1.00,1.71,1.44,6366,6754,6080,89,112,59,73,100,0
6328,6699,6048,-50,-71,-40,10240,-1.00,-1.00,1.71,1.44,6364,6752,6079,89,112,59,73,100,0
6332,6709,6053,-42,-60,-34,10240,-1.00,-1.00,1.71,1.44,6363,6751,6078,89,112,59,73,100,0
6342,6720,6064,-33,-48,-26,10240,-1.00,-1.00,1.71,1.44,6363,6750,6078,89,112,59,73,100,0
6350,6731,6069,-25,-35,-19,10240,-1.00,-1.00,1.71,1.44,6362,6749,6078,89,112,59,73,100,0
6353,6735,6072,-18,-26,-13,10240,-1.00,-1.00,1.71,1.44,6362,6749,6077,89,112,59,73,100,0
6360,6745,6078,-11,-16,-7,10240,-1.00,-1.00,1.71,1.44,6362,6749,6078,89,112,59,73,100,0
6376,6770,6090,-2,-3,0,10240,-1.00,-1.00,1.71,1.44,6362,6749,6078,89,112,59,73,100,0
6383,6779,6092,5,8,5,10240,-1.00,-1.00,1.71,1.44,6363,6750,6078,89,112,59,73,100,0
6391,6789,6100,14,20,11,10240,-1.00,-1.00,1.71,1.44,6364,6752,6079,89,112,59,73,100,0
6398,6798,6105,23,33,18,10240,-1.00,-1.00,1.71,1.44,6365,6753,6080,89,112,59,73,100,0
6403,6806,6109,29,40,22,10240,-1.00,-1.00,1.71,1.44,6366,6755,6081,89,112,59,73,100,0
6418,6827,6122,36,50,28,10240,-1.00,-1.00,1.71,1.44,6368,6757,6082,89,112,59,73,100,0
6422,6832,6126,43,59,33,10240,-1.00,-1.00,1.71,1.44,6370,6760,6084,89,112,59,73,100,0
6426,6839,6129,48,67,38,10240,-1.00,-1.00,1.71,1.44,6372,6762,6085,89,112,59,73,100,0
6430,6842,6132,53,74,42,10240,-1.00,-1.00,1.71,1.44,6374,6765,6087,89,112,59,73,100,0
6423,6833,6121,52,73,41,10240,-1.00,-1.00,1.71,1.44,6375,6767,6088,102,133,73,73,100,0
6368,6759,6076,37,53,27,10240,-1.00,-1.00,1.64,1.33,6375,6767,6088,102,133,73,72,100,0
6349,6733,6060,18,25,9,10240,-1.00,-1.00,1.64,1.33,6374,6766,6087,102,133,73,72,100,0
6332,6711,6049,-6,-7,-10,10240,-1.00,-1.00,1.64,1.33,6373,6764,6085,102,133,73,72,100,0
6327,6700,6041,-29,-39,-29,10240,-1.00,-1.00,1.64,1.33,6371,6762,6084,102,133,73,72,100,0
6313,6682,6033,-41,-56,-38,10240,-1.00,-1.00,1.64,1.33,6369,6759,6082,102,133,73,72,100,0
6299,6665,6025,-52,-70,-45,10240,-1.00,-1.00,1.64,1.33,6367,6756,6080,102,133,73,72,100,0
6298,6665,6025,-58,-79,-50,10240,-1.00,-1.00,1.64,1.33,6365,6753,6078,102,133,73,72,100,0
6305,6675,6033,-62,-83,-50,10240,-1.00,-1.00,1.64,1.33,6363,6751,6077,102,133,73,72,100,0
6316,6688,6040,-59,-78,-47,10240,-1.00,-1.00,1.64,1.33,6361,6748,6076,102,133,73,72,100,0
6323,6697,6045,-51,-68,-40,10240,-1.00,-1.00,1.64,1.33,6360,6747,6075,102,133,73,72,100,0
6330,6705,6052,-42,-56,-33,10240,-1.00,-1.00,1.64,1.33,6359,6745,6074,102,133,73,72,100,0
6330,6708,6053,-34,-46,-27,10240,-1.00,-1.00,1.64,1.33,6358,6744,6073,102,133,73,72,100,0
6337,6719,6062,-28,-37,-20,10240,-1.00,-1.00,1.64,1.33,6357,6743,6073,102,133,73,72,100,0
6346,6731,6066,-22,-28,-15,10240,-1.00,-1.00,1.64,1.33,6357,6743,6073,102,133,73,72,100,0
6349,6736,6068,-16,-19,-10,10240,-1.00,-1.00,1.64,1.33,6357,6743,6072,102,133,73,72,100,0
6362,6751,6080,-8,-8,-3,10240,-1.00,-1.00,1.64,1.33,6357,6743,6073,102,133,73,72,100,0
6367,6758,6083,-1,1,1,10240,-1.00,-1.00,1.64,1.33,6357,6743,6073,102,133,73,72,100,0
6371,6763,6087,5,8,6,10240,-1.00,-1.00,1.64,1.33,6357,6744,6074,102,133,73,72,100,0
6377,6773,6089,12,17,11,10240,-1.00,-1.00,1.64,1.33,6358,6745,6074,102,133,73,72,100,0
6381,6779,6090,16,23,13,10240,-1.00,-1.00,1.64,1.33,6359,6746,6075,102,133,73,72,100,0
6391,6791,6098,21,30,16,10240,-1.00,-1.00,1.64,1.33,6360,6748,6075,102,133,73,72,100,0
6395,6795,6101,26,37,19,10240,-1.00,-1.00,1.64,1.33,6361,6749,6076,102,133,73,72,100,0
6398,6801,6104,30,43,22,10240,-1.00,-1.00,1.64,1.33,6362,6751,6077,102,133,73,72,100,0
6404,6809,6109,35,48,26,10240,-1.00,-1.00,1.64,1.33,6364,6753,6078,102,133,73,72,100,0
6409,6816,6112,38,53,29,10240,-1.00,-1.00,1.64,1.33,6365,6755,6079,102,133,73,72,100,0
6422,6830,6124,43,60,33,10240,-1.00,-1.00,1.64,1.33,6367,6757,6081,102,133,73,72,100,0
6421,6832,6122,47,65,36,10240,-1.00,-1.00,1.64,1.33,6369,6760,6082,102,133,73,72,100,0
6409,6816,6108,47,65,35,10240,-1.00,-1.00,1.64,1.33,6370,6762,6083,102,133,76,72,100,0
6379,6774,6083,38,52,27,10240,-1.00,-1.00,1.57,1.28,6371,6762,6083,104,137,76,72,100,0
6340,6740,6065,17,29,12,10240,-1.00,-1.00,1.57,1.28,6370,6762,6082,104,137,76,72,100,0
6330,6705,6046,-5,-2,-6,10240,-1.00,-1.00,1.57,1.28,6368,6760,6081,104,137,76,72,100,0
6322,6694,6037,-26,-32,-23,10240,-1.00,-1.00,1.57,1.28,6367,6757,6080,104,137,76,72,100,0
6310,6678,6030,-42,-54,-35,10240,-1.00,-1.00,1.57,1.28,6365,6755,6078,104,137,76,72,100,0
6301,6667,6024,-50,-70,-44,10240,-1.00,-1.00,1.57,1.28,6363,6752,6076,104,137,76,72,100,0
6301,6665,6022,-55,-77,-49,10240,-1.00,-1.00,1.57,1.28,6361,6749,6075,104,137,76,72,100,0
6307,6672,6029,-57,-80,-49,10240,-1.00,-1.00,1.57,1.28,6359,6746,6073,104,137,76,72,100,0
6310,6676,6031,-55,-77,-47,10240,-1.00,-1.00,1.57,1.28,6357,6744,6072,104,137,76,72,100,0
6312,6678,6034,-50,-72,-43,10240,-1.00,-1.00,1.57,1.28,6356,6742,6070,104,137,76,72,100,0
6318,6685,6037,-44,-65,-38,10240,-1.00,-1.00,1.57,1.28,6354,6740,6069,104,137,76,72,100,0
6333,6702,6047,-37,-56,-32,10240,-1.00,-1.00,1.57,1.28,6354,6739,6069,104,137,76,72,100,0
6335,6709,6053,-29,-46,-26,10240,-1.00,-1.00,1.57,1.28,6353,6738,6068,104,137,76,72,100,0
6344,6720,6061,-21,-34,-19,10240,-1.00,-1.00,1.57,1.28,6353,6737,6068,104,137,76,72,100,0
6352,6732,6067,-12,-22,-11,10240,-1.00,-1.00,1.57,1.28,6353,6737,6068,104,137,76,72,100,0
6356,6734,6068,-6,-13,-5,10240,-1.00,-1.00,1.57,1.28,6353,6737,6068,104,137,76,72,100,0
6369,6749,6075,2,-3,0,10240,-1.00,-1.00,1.57,1.28,6353,6737,6068,104,137,76,72,100,0
6373,6753,6077,9,4,3,10240,-1.00,-1.00,1.57,1.28,6354,6738,6068,104,137,76,72,100,0
6374,6756,6078,14,10,6,10240,-1.00,-1.00,1.57,1.28,6355,6738,6069,104,137,76,72,100,0
6378,6760,6081,19,16,9,10240,-1.00,-1.00,1.57,1.28,6355,6739,6069,104,137,76,72,100,0
6380,6760,6081,21,18,10,10240,-1.00,-1.00,1.57,1.28,6356,6740,6069,104,137,76,72,100,0
6381,6764,6080,22,20,10,10240,-1.00,-1.00,1.57,1.28,6357,6741,6070,104,137,76,72,100,0
6383,6765,6082,24,22,11,10240,-1.00,-1.00,1.57,1.28,6358,6741,6070,104,137,76,72,100,0
6385,6767,6082,24,23,11,10240,-1.00,-1.00,1.57,1.28,6359,6742,6071,104,137,76,72,100,0
6385,6770,6084,25,24,11,10240,-1.00,-1.00,1.57,1.28,6360,6743,6071,104,137,76,72,100,0
6387,6772,6085,25,26,12,10240,-1.00,-1.00,1.57,1.28,6361,6744,6071,104,137,76,72,100,0
6380,6762,6075,24,24,10,10240,-1.00,-1.00,1.57,1.28,6361,6745,6072,99,129,72,72,100,0
6353,6723,6050,15,12,2,10240,-1.00,-1.00,1.61,1.31,6361,6744,6071,99,129,72,72,100,0
6320,6678,6021,0,-10,-13,10240,-1.00,-1.00,1.61,1.31,6360,6742,6069,99,129,72,72,100,0
6293,6641,6001,-23,-41,-33,10240,-1.00,-1.00,1.61,1.31,6357,6738,6067,99,129,72,72,100,0
6272,6613,5987,-48,-75,-53,10240,-1.00,-1.00,1.61,1.31,6355,6734,6064,99,129,72,72,100,0
6248,6583,5971,-72,-107,-70,10240,-1.00,-1.00,1.61,1.31,6351,6729,6061,99,129,72,72,100,0
6237,6569,5964,-90,-129,-81,10240,-1.00,-1.00,1.61,1.31,6347,6724,6058,99,129,72,72,100,0
6227,6557,5958,-103,-145,-89,10240,-1.00,-1.00,1.61,1.31,6343,6718,6055,99,129,72,72,100,0
6223,6553,5956,-111,-155,-94,10240,-1.00,-1.00,1.61,1.31,6339,6713,6051,99,129,72,72,100,0
6227,6558,5961,-112,-156,-93,10240,-1.00,-1.00,1.61,1.31,6336,6708,6048,99,129,72,72,100,0
6245,6579,5974,-107,-148,-87,10240,-1.00,-1.00,1.61,1.31,6332,6703,6046,99,129,72,72,100,0
6247,6584,5976,-98,-137,-80,10240,-1.00,-1.00,1.61,1.31,6330,6699,6043,99,129,72,72,100,0
6251,6588,5979,-88,-124,-72,10240,-1.00,-1.00,1.61,1.31,6327,6696,6041,99,129,72,72,100,0
6255,6595,5983,-79,-111,-64,10240,-1.00,-1.00,1.61,1.31,6325,6692,6039,99,129,72,72,100,0
6260,6601,5986,-72,-102,-59,10240,-1.00,-1.00,1.61,1.31,6322,6689,6038,99,129,72,72,100,0
6265,6606,5992,-66,-93,-53,10240,-1.00,-1.00,1.61,1.31,6321,6687,6036,99,129,72,72,100,0
6270,6612,5994,-59,-84,-48,10240,-1.00,-1.00,1.61,1.31,6319,6684,6035,99,129,72,72,100,0
6273,6620,5999,-52,-75,-43,10240,-1.00,-1.00,1.61,1.31,6317,6682,6034,99,129,72,72,100,0
6279,6623,6000,-46,-68,-38,10240,-1.00,-1.00,1.61,1.31,6316,6680,6032,99,129,72,72,100,0
6284,6628,6003,-40,-60,-34,10240,-1.00,-1.00,1.61,1.31,6315,6678,6031,99,129,72,72,100,0
6292,6640,6009,-33,-51,-29,10240,-1.00,-1.00,1.61,1.31,6314,6677,6031,99,129,72,72,100,0
6296,6644,6010,-27,-44,-25,10240,-1.00,-1.00,1.61,1.31,6314,6676,6030,99,129,72,72,100,0
6300,6650,6014,-21,-36,-21,10240,-1.00,-1.00,1.61,1.31,6313,6675,6029,99,129,72,72,100,0
6304,6655,6016,-15,-28,-17,10240,-1.00,-1.00,1.61,1.31,6313,6674,6029,99,129,72,72,100,0
6310,6663,6019,-10,-21,-14,10240,-1.00,-1.00,1.61,1.31,6313,6674,6029,99,129,72,72,100,0
6320,6676,6027,-4,-13,-10,10240,-1.00,-1.00,1.61,1.31,6313,6674,6029,99,129,72,72,100,0
6322,6680,6027,1,-5,-6,10240,-1.00,-1.00,1.61,1.31,6313,6674,6029,99,129,72,72,100,0
6328,6686,6032,6,2,-2,10240,-1.00,-1.00,1.61,1.31,6314,6675,6029,99,129,72,72,100,0
6332,6692,6034,12,9,1,10240,-1.00,-1.00,1.61,1.31,6314,6675,6029,99,129,72,72,100,0
6334,6693,6035,15,12,3,10240,-1.00,-1.00,1.61,1.31,6315,6676,6029,99,129,72,72,100,0
6292,6638,6002,7,2,-3,10240,-1.00,-1.00,1.61,1.31,6314,6675,6028,106,139,78,72,100,0
6263,6604,5983,-8,-17,-14,10240,-1.00,-1.00,1.61,1.30,6313,6672,6027,106,139,78,72,100,0
6245,6579,5969,-29,-44,-30,10240,-1.00,-1.00,1.61,1.30,6310,6669,6025,106,139,78,72,100,0
6228,6559,5958,-54,-75,-47,10240,-1.00,-1.00,1.61,1.30,6308,6665,6022,106,139,78,72,100,0
6203,6543,5950,-74,-95,-58,10240,-1.00,-1.00,1.61,1.30,6304,6661,6020,106,139,78,72,100,0
6199,6519,5940,-87,-113,-66,10240,-1.00,-1.00,1.61,1.30,6301,6657,6017,106,139,78,72,100,0
6192,6507,5933,-97,-126,-73,10240,-1.00,-1.00,1.61,1.30,6297,6652,6015,106,139,78,72,100,0
6192,6505,5934,-102,-135,-76,10240,-1.00,-1.00,1.61,1.30,6293,6647,6012,106,139,78,72,100,0
6198,6513,5940,-100,-138,-76,10240,-1.00,-1.00,1.61,1.30,6290,6642,6009,106,139,78,72,100,0
6202,6529,5946,-95,-131,-72,10240,-1.00,-1.00,1.61,1.30,6287,6638,6007,106,139,78,72,100,0
6206,6534,5953,-89,-120,-65,10240,-1.00,-1.00,1.61,1.30,6285,6635,6006,106,139,78,72,100,0
6214,6542,5959,-81,-107,-57,10240,-1.00,-1.00,1.61,1.30,6282,6632,6004,106,139,78,72,100,0
6220,6551,5962,-73,-94,-50,10240,-1.00,-1.00,1.61,1.30,6280,6629,6003,106,139,78,72,100,0
6229,6562,5970,-64,-83,-42,10240,-1.00,-1.00,1.61,1.30,6279,6627,6002,106,139,78,72,100,0
6245,6584,5981,-52,-68,-34,10240,-1.00,-1.00,1.61,1.30,6277,6626,6001,106,139,78,72,100,0
6251,6592,5987,-42,-54,-26,10240,-1.00,-1.00,1.61,1.30,6277,6624,6000,106,139,78,72,100,0
6256,6600,5992,-32,-40,-18,10240,-1.00,-1.00,1.61,1.30,6276,6624,6000,106,139,78,72,100,0
6263,6609,5997,-22,-28,-11,10240,-1.00,-1.00,1.61,1.30,6275,6623,6000,106,139,78,72,100,0
6272,6619,6002,-15,-18,-5,10240,-1.00,-1.00,1.61,1.30,6275,6623,6000,106,139,78,72,100,0
6282,6633,6009,-7,-8,0,10240,-1.00,-1.00,1.61,1.30,6276,6623,6000,106,139,78,72,100,0
6288,6639,6012,0,1,4,10240,-1.00,-1.00,1.61,1.30,6276,6624,6001,106,139,78,72,100,0
6292,6645,6014,7,10,8,10240,-1.00,-1.00,1.61,1.30,6276,6625,6001,106,139,78,72,100,0
6296,6651,6019,13,17,12,10240,-1.00,-1.00,1.61,1.30,6277,6625,6002,106,139,78,72,100,0
6300,6657,6021,17,23,15,10240,-1.00,-1.00,1.61,1.30,6278,6626,6002,106,139,78,72,100,0
6311,6672,6030,22,30,19,10240,-1.00,-1.00,1.61,1.30,6279,6628,6003,106,139,78,72,100,0
6318,6680,6034,27,37,23,10240,-1.00,-1.00,1.61,1.30,6280,6630,6004,106,139,78,72,100,0
6323,6688,6039,33,45,27,10240,-1.00,-1.00,1.61,1.30,6282,6632,6006,106,139,78,72,100,0
6332,6700,6044,40,54,31,10240,-1.00,-1.00,1.61,1.30,6283,6634,6007,106,139,78,72,100,0
6337,6705,6046,45,60,34,10240,-1.00,-1.00,1.61,1.30,6285,6636,6008,106,139,78,72,100,0
6301,6661,6019,39,53,29,10240,-1.00,-1.00,1.61,1.30,6286,6637,6008,116,153,86,72,100,0
6269,6620,5998,25,35,19,10240,0.54,-0.09,1.61,1.29,6285,6637,6008,116,153,86,72,100,0
6247,6594,5983,3,8,3,10240,0.54,-0.09,1.61,1.29,6284,6635,6007,116,153,86,72,100,0
6236,6577,5974,-21,-22,-13,10240,0.54,-0.09,1.61,1.29,6282,6633,6006,116,153,86,72,100,0
6223,6562,5967,-39,-45,-26,10240,0.54,-0.09,1.61,1.29,6280,6631,6005,116,153,86,72,100,0
6202,6535,5954,-54,-64,-35,10240,0.54,-0.09,1.61,1.29,6278,6628,6003,116,153,86,72,100,0
6196,6529,5952,-64,-78,-42,10240,0.54,-0.09,1.61,1.29,6275,6624,6002,116,153,86,72,100,0
6197,6530,5952,-71,-87,-46,10240,0.54,-0.09,1.61,1.29,6272,6621,6000,116,153,86,72,100,0
6199,6538,5958,-75,-89,-46,10240,0.54,-0.09,1.61,1.29,6270,6618,5998,116,153,86,72,100,0
6209,6547,5964,-71,-83,-42,10240,0.54,-0.09,1.61,1.29,6268,6616,5997,116,153,86,72,100,0
6217,6556,5970,-63,-74,-36,10240,0.54,-0.09,1.61,1.29,6266,6614,5996,116,153,86,72,100,0
6220,6560,5972,-56,-64,-30,10240,0.54,-0.09,1.61,1.29,6265,6612,5996,116,153,86,72,100,0
6224,6564,5976,-48,-56,-25,10240,0.54,-0.09,1.61,1.29,6263,6611,5995,116,153,86,72,100,0
6230,6572,5981,-41,-48,-20,10240,0.54,-0.09,1.61,1.29,6262,6609,5994,116,153,86,72,100,0
6245,6582,5987,-33,-40,-15,10240,0.54,-0.09,1.61,1.29,6262,6608,5994,116,153,86,72,100,0
6249,6598,5996,-25,-30,-9,10240,0.54,-0.09,1.61,1.29,6261,6608,5994,116,153,86,72,100,0
6250,6601,5997,-18,-20,-3,10240,0.54,-0.09,1.61,1.29,6261,6608,5994,116,153,86,72,100,0
6257,6611,6002,-11,-10,1,10240,0.54,-0.09,1.61,1.29,6261,6608,5995,116,153,86,72,100,0
6262,6616,6007,-6,-1,6,10240,0.54,-0.09,1.61,1.29,6261,6608,5995,116,153,86,72,100,0
6274,6628,6011,0,5,9,10240,0.54,-0.09,1.61,1.29,6261,6609,5996,116,153,86,72,100,0
6279,6633,6014,6,13,13,10240,0.54,-0.09,1.61,1.29,6262,6610,5996,116,153,86,72,100,0
6284,6641,6018,13,20,16,10240,0.54,-0.09,1.61,1.29,6263,6611,5997,116,153,86,72,100,0
6289,6648,6021,19,27,19,10240,0.54,-0.09,1.61,1.29,6263,6612,5998,116,153,86,72,100,0
6295,6656,6025,23,33,22,10240,0.54,-0.09,1.61,1.29,6264,6613,5999,116,153,86,72,100,0
6305,6671,6035,29,41,26,10240,0.54,-0.09,1.61,1.29,6266,6615,6000,116,153,86,72,100,0
6312,6680,6039,35,49,30,10240,0.54,-0.09,1.61,1.29,6267,6618,6001,116,153,86,72,100,0
6317,6687,6042,40,57,34,10240,0.54,-0.09,1.61,1.29,6269,6620,6003,116,153,86,72,100,0
6313,6681,6036,43,61,36,10240,0.54,-0.09,1.61,1.29,6270,6622,6004,116,153,86,72,100,0
6290,6649,6019,38,53,31,10240,0.54,-0.09,1.61,1.29,6271,6623,6004,116,153,85,72,100,0
6236,6583,5981,19,28,16,10240,0.54,-0.09,1.63,1.31,6270,6621,6003,116,153,85,72,100,0
6219,6561,5971,-5,-2,-1,10240,0.54,-0.09,1.63,1.31,6268,6619,6002,116,153,85,72,100,0
6201,6541,5960,-32,-36,-19,10240,0.54,-0.09,1.63,1.31,6266,6617,6001,116,153,85,72,100,0
6195,6528,5956,-54,-64,-34,10240,0.54,-0.09,1.63,1.31,6264,6614,5999,116,153,85,72,100,0
6189,6515,5950,-63,-79,-40,10240,0.54,-0.09,1.63,1.31,6261,6611,5998,116,153,85,72,100,0
6179,6502,5945,-71,-90,-45,10240,0.54,-0.09,1.63,1.31,6258,6607,5996,116,153,85,72,100,0
6184,6507,5949,-73,-96,-46,10240,0.54,-0.09,1.63,1.31,6256,6604,5994,116,153,85,72,100,0
6192,6519,5955,-71,-95,-45,10240,0.54,-0.09,1.63,1.31,6254,6601,5993,116,153,85,72,100,0
6193,6526,5960,-68,-89,-41,10240,0.54,-0.09,1.63,1.31,6252,6598,5992,116,153,85,72,100,0
6194,6529,5961,-62,-79,-36,10240,0.54,-0.09,1.63,1.31,6250,6596,5991,116,153,85,72,100,0
6197,6538,5965,-57,-69,-31,10240,0.54,-0.09,1.63,1.31,6248,6594,5990,116,153,85,72,100,0
6204,6544,5968,-52,-60,-27,10240,0.54,-0.09,1.63,1.31,6247,6592,5989,116,153,85,72,100,0
6210,6552,5971,-46,-52,-23,10240,0.54,-0.09,1.63,1.31,6245,6591,5989,116,153,85,72,100,0
6215,6558,5975,-39,-43,-19,10240,0.54,-0.09,1.63,1.31,6244,6590,5988,116,153,85,72,100,0
6220,6566,5979,-32,-35,-15,10240,0.54,-0.09,1.63,1.31,6244,6589,5988,116,153,85,72,100,0
6232,6579,5987,-24,-26,-10,10240,0.54,-0.09,1.63,1.31,6243,6589,5988,116,153,85,72,100,0
6238,6586,5990,-17,-17,-5,10240,0.54,-0.09,1.63,1.31,6243,6589,5988,116,153,85,72,100,0
6242,6592,5992,-10,-8,-1,10240,0.54,-0.09,1.63,1.31,6243,6589,5988,116,153,85,72,100,0
6244,6596,5996,-4,0,3,10240,0.54,-0.09,1.63,1.31,6243,6589,5988,116,153,85,72,100,0
6253,6600,5999,1,4,6,10240,0.54,-0.09,1.63,1.31,6243,6589,5989,116,153,85,72,100,0
6256,6611,6006,5,10,9,10240,0.54,-0.09,1.63,1.31,6244,6590,5989,116,153,85,72,100,0
6262,6619,6009,10,16,13,10240,0.54,-0.09,1.63,1.31,6244,6591,5990,116,153,85,72,100,0
6267,6624,6011,15,23,16,10240,0.54,-0.09,1.63,1.31,6245,6592,5991,116,153,85,72,100,0
6272,6627,6011,19,28,19,10240,0.54,-0.09,1.63,1.31,6246,6593,5991,116,153,85,72,100,0
6282,6640,6015,25,34,20,10240,0.54,-0.09,1.63,1.31,6247,6595,5992,116,153,85,72,100,0
6281,6641,6018,29,39,22,10240,0.54,-0.09,1.63,1.31,6248,6596,5993,116,153,85,72,100,0
6265,6622,6005,27,37,20,10240,0.54,-0.09,1.63,1.31,6249,6597,5993,113,148,81,72,100,0
6235,6585,5983,17,25,12,10240,0.54,-0.09,1.66,1.34,6249,6597,5993,113,148,81,72,100,0
6203,6544,5961,-2,1,-1,10240,0.54,-0.09,1.66,1.34,6247,6595,5992,113,148,81,72,100,0
6172,6497,5937,-28,-33,-20,10240,0.54,-0.09,1.66,1.34,6244,6592,5990,113,148,81,72,100,0
6157,6480,5930,-53,-66,-38,10240,0.54,-0.09,1.66,1.34,6242,6588,5988,113,148,81,72,100,0
6147,6468,5923,-73,-92,-51,10240,0.54,-0.09,1.66,1.34,6238,6584,5986,113,148,81,72,100,0
6146,6457,5918,-84,-110,-60,10240,0.54,-0.09,1.66,1.34,6235,6580,5984,113,148,81,72,100,0
6142,6450,5916,-88,-118,-63,10240,0.54,-0.09,1.66,1.34,6232,6576,5982,113,148,81,72,100,0
6147,6464,5926,-88,-118,-62,10240,0.54,-0.09,1.66,1.34,6229,6572,5980,113,148,81,72,100,0
6149,6472,5932,-84,-113,-58,10240,0.54,-0.09,1.66,1.34,6227,6569,5978,113,148,81,72,100,0
6153,6478,5934,-80,-104,-52,10240,0.54,-0.09,1.66,1.34,6224,6566,5977,113,148,81,72,100,0
6159,6485,5939,-73,-92,-44,10240,0.54,-0.09,1.66,1.34,6222,6563,5975,113,148,81,72,100,0
6165,6492,5943,-66,-82,-39,10240,0.54,-0.09,1.66,1.34,6220,6560,5974,113,148,81,72,100,0
6180,6506,5954,-57,-71,-32,10240,0.54,-0.09,1.66,1.34,6219,6559,5974,113,148,81,72,100,0
6185,6513,5956,-47,-60,-26,10240,0.54,-0.09,1.66,1.34,6218,6557,5973,113,148,81,72,100,0
6191,6521,5961,-38,-50,-20,10240,0.54,-0.09,1.66,1.34,6217,6556,5973,113,148,81,72,100,0
6192,6527,5964,-30,-40,-14,10240,0.54,-0.09,1.66,1.34,6216,6555,5972,113,148,81,72,100,0
6193,6532,5964,-26,-32,-11,10240,0.54,-0.09,1.66,1.34,6215,6554,5972,113,148,81,72,100,0
6204,6549,5974,-20,-22,-6,10240,0.54,-0.09,1.66,1.34,6215,6554,5972,113,148,81,72,100,0
6211,6554,5977,-15,-13,-2,10240,0.54,-0.09,1.66,1.34,6215,6554,5972,113,148,81,72,100,0
6219,6564,5982,-8,-4,2,10240,0.54,-0.09,1.66,1.34,6215,6554,5973,113,148,81,72,100,0
6223,6569,5984,0,4,6,10240,0.54,-0.09,1.66,1.34,6215,6555,5973,113,148,81,72,100,0
6231,6579,5990,5,11,10,10240,0.54,-0.09,1.66,1.34,6216,6556,5974,113,148,81,72,100,0
6241,6595,5999,12,21,15,10240,0.54,-0.09,1.66,1.34,6217,6557,5974,113,148,81,72,100,0
6245,6600,6003,18,29,20,10240,0.54,-0.09,1.66,1.34,6217,6558,5975,113,148,81,72,100,0
6252,6609,6007,25,38,25,10240,0.54,-0.09,1.66,1.34,6219,6560,5976,113,148,81,72,100,0
6259,6618,6012,31,46,29,10240,0.54,-0.09,1.66,1.34,6220,6562,5978,113,148,81,72,100,0
6268,6624,6015,36,51,32,10240,0.54,-0.09,1.66,1.34,6222,6564,5979,113,148,81,72,100,0
6250,6607,6003,36,51,31,10240,0.54,-0.09,1.66,1.34,6222,6566,5980,113,148,85,72,100,0
6220,6568,5978,27,39,22,10240,0.54,-0.09,1.59,1.28,6222,6566,5980,116,153,85,72,100,0
6195,6534,5961,11,18,9,10240,0.54,-0.09,1.59,1.28,6222,6565,5979,116,153,85,72,100,0
6180,6509,5948,-10,-10,-6,10240,0.54,-0.09,1.59,1.28,6220,6563,5978,116,153,85,72,100,0
6150,6476,5932,-34,-41,-23,10240,0.54,-0.09,1.59,1.28,6218,6560,5976,116,153,85,72,100,0
6147,6466,5926,-50,-65,-35,10240,0.54,-0.09,1.59,1.28,6215,6557,5975,116,153,85,72,100,0
6140,6453,5919,-62,-82,-44,10240,0.54,-0.09,1.59,1.28,6213,6553,5973,116,153,85,72,100,0
6135,6447,5918,-71,-94,-50,10240,0.54,-0.09,1.59,1.28,6210,6550,5971,116,153,85,72,100,0
6140,6451,5923,-71,-97,-50,10240,0.54,-0.09,1.59,1.28,6208,6546,5969,116,153,85,72,100,0
6148,6476,5938,-68,-91,-45,10240,0.54,-0.09,1.59,1.28,6206,6544,5968,116,153,85,72,100,0
6155,6484,5943,-62,-81,-38,10240,0.54,-0.09,1.59,1.28,6204,6542,5968,116,153,85,72,100,0
6161,6489,5946,-54,-68,-30,10240,0.54,-0.09,1.59,1.28,6203,6540,5967,116,153,85,72,100,0
6167,6497,5951,-46,-54,-22,10240,0.54,-0.09,1.59,1.28,6202,6539,5966,116,153,85,72,100,0
6175,6506,5955,-38,-45,-18,10240,0.54,-0.09,1.59,1.28,6201,6538,5966,116,153,85,72,100,0
6191,6525,5965,-28,-34,-12,10240,0.54,-0.09,1.59,1.28,6200,6537,5966,116,153,85,72,100,0
6192,6530,5967,-19,-23,-6,10240,0.54,-0.09,1.59,1.28,6200,6537,5966,116,153,85,72,100,0
6192,6535,5968,-12,-13,-2,10240,0.54,-0.09,1.59,1.28,6200,6537,5966,116,153,85,72,100,0
6197,6544,5974,-7,-3,2,10240,0.54,-0.09,1.59,1.28,6200,6537,5966,116,153,85,72,100,0
6201,6551,5977,-4,2,5,10240,0.54,-0.09,1.59,1.28,6200,6538,5967,116,153,85,72,100,0
6216,6565,5986,1,11,9,10240,0.54,-0.09,1.59,1.28,6200,6539,5967,116,153,85,72,100,0
6221,6573,5988,8,19,14,10240,0.54,-0.09,1.59,1.28,6201,6540,5968,116,153,85,72,100,0
6225,6578,5992,15,27,18,10240,0.54,-0.09,1.59,1.28,6202,6541,5969,116,153,85,72,100,0
6230,6584,5994,21,34,21,10240,0.54,-0.09,1.59,1.28,6203,6542,5970,116,153,85,72,100,0
6235,6592,5999,25,40,23,10240,0.54,-0.09,1.59,1.28,6204,6544,5971,116,153,85,72,100,0
6242,6601,6005,29,45,27,10240,0.54,-0.09,1.59,1.28,6205,6546,5972,116,153,85,72,100,0
6247,6607,6009,33,51,30,10240,0.54,-0.09,1.59,1.28,6207,6548,5973,116,153,85,72,100,0
6250,6610,6010,37,55,33,10240,0.54,-0.09,1.59,1.28,6208,6550,5974,116,153,85,72,100,0
6249,6608,6007,39,57,34,10240,0.54,-0.09,1.59,1.28,6209,6552,5975,116,153,85,72,100,0
6233,6587,5992,36,52,30,10240,0.54,-0.09,1.59,1.28,6210,6553,5976,114,154,84,72,100,0
6176,6508,5951,18,26,15,10240,0.54,-0.09,1.67,1.31,6209,6552,5975,114,154,84,72,100,0
6151,6478,5934,-6,-6,-4,10240,0.54,-0.09,1.67,1.31,6207,6549,5974,114,154,84,72,100,0
6142,6457,5923,-32,-42,-24,10240,0.54,-0.09,1.67,1.31,6205,6546,5972,114,154,84,72,100,0
6123,6436,5912,-57,-77,-42,10240,0.54,-0.09,1.67,1.31,6202,6542,5970,114,154,84,72,100,0
6111,6419,5903,-71,-96,-53,10240,0.54,-0.09,1.67,1.31,6199,6538,5968,114,154,84,72,100,0
6088,6390,5890,-84,-114,-61,10240,0.54,-0.09,1.67,1.31,6195,6533,5965,114,154,84,72,100,0
6090,6392,5892,-94,-126,-67,10240,0.54,-0.09,1.67,1.31,6192,6529,5963,114,154,84,72,100,0
6098,6401,5897,-97,-130,-68,10240,0.54,-0.09,1.67,1.31,6189,6524,5960,114,154,84,72,100,0
6102,6405,5901,-96,-129,-66,10240,0.54,-0.09,1.67,1.31,6186,6520,5958,114,154,84,72,100,0
6103,6408,5902,-89,-121,-61,10240,0.54,-0.09,1.67,1.31,6183,6517,5957,114,154,84,72,100,0
6114,6422,5911,-80,-109,-54,10240,0.54,-0.09,1.67,1.31,6181,6514,5955,114,154,84,72,100,0
6118,6428,5915,-73,-99,-48,10240,0.54,-0.09,1.67,1.31,6179,6511,5954,114,154,84,72,100,0
6124,6437,5921,-65,-88,-42,10240,0.54,-0.09,1.67,1.31,6177,6508,5953,114,154,84,72,100,0
6130,6446,5927,-56,-76,-35,10240,0.54,-0.09,1.67,1.31,6175,6506,5952,114,154,84,72,100,0
6139,6456,5932,-48,-65,-28,10240,0.54,-0.09,1.67,1.31,6174,6505,5951,114,154,84,72,100,0
6147,6474,5941,-39,-52,-21,10240,0.54,-0.09,1.67,1.31,6173,6503,5951,114,154,84,72,100,0
6152,6482,5945,-31,-39,-15,10240,0.54,-0.09,1.67,1.31,6173,6503,5951,114,154,84,72,100,0
6161,6491,5951,-23,-27,-8,10240,0.54,-0.09,1.67,1.31,6172,6502,5951,114,154,84,72,100,0
6168,6498,5955,-15,-16,-3,10240,0.54,-0.09,1.67,1.31,6172,6502,5951,114,154,84,72,100,0
6177,6504,5958,-7,-8,1,10240,0.54,-0.09,1.67,1.31,6172,6502,5951,114,154,84,72,100,0
6186,6520,5967,0,1,6,10240,0.54,-0.09,1.67,1.31,6173,6503,5951,114,154,84,72,100,0
6190,6527,5970,7,9,11,10240,0.54,-0.09,1.67,1.31,6173,6504,5952,114,154,84,72,100,0
6191,6530,5970,13,16,14,10240,0.54,-0.09,1.67,1.31,6174,6505,5953,114,154,84,72,100,0
6191,6535,5972,16,23,17,10240,0.54,-0.09,1.67,1.31,6174,6506,5953,114,154,84,72,100,0
6195,6543,5975,17,28,18,10240,0.54,-0.09,1.67,1.31,6175,6507,5954,114,154,84,72,100,0
6186,6523,5963,16,26,16,10240,0.54,-0.09,1.67,1.31,6175,6507,5954,114,155,85,72,100,0
6151,6479,5938,6,13,8,10240,0.54,-0.09,1.67,1.29,6175,6506,5954,114,155,85,72,100,0
6129,6443,5920,-9,-9,-4,10240,0.54,-0.09,1.67,1.29,6173,6504,5953,114,155,85,72,100,0
6106,6416,5905,-30,-39,-21,10240,0.54,-0.09,1.67,1.29,6171,6501,5951,114,155,85,72,100,0
6080,6381,5895,-55,-72,-37,10240,0.54,-0.09,1.67,1.29,6168,6497,5949,114,155,85,72,100,0
6071,6370,5882,-72,-96,-49,10240,0.54,-0.09,1.67,1.29,6165,6493,5947,114,155,85,72,100,0
6059,6355,5874,-87,-114,-59,10240,0.54,-0.09,1.67,1.29,6161,6489,5945,114,155,85,72,100,0
6052,6346,5871,-97,-127,-65,10240,0.54,-0.09,1.67,1.29,6157,6484,5942,114,155,85,72,100,0
6054,6349,5873,-100,-131,-68,10240,0.54,-0.09,1.67,1.29,6154,6479,5940,114,155,85,72,100,0
6074,6372,5887,-96,-126,-65,10240,0.54,-0.09,1.67,1.29,6151,6476,5938,114,155,85,72,100,0
6078,6378,5890,-88,-116,-58,10240,0.54,-0.09,1.67,1.29,6149,6472,5936,114,155,85,72,100,0
6082,6380,5892,-78,-104,-51,10240,0.54,-0.09,1.67,1.29,6147,6469,5935,114,155,85,72,100,0
6086,6386,5896,-68,-92,-44,10240,0.54,-0.09,1.67,1.29,6145,6467,5934,114,155,85,72,100,0
6086,6390,5898,-63,-84,-40,10240,0.54,-0.09,1.67,1.29,6143,6464,5932,114,155,85,72,100,0
6102,6410,5909,-55,-74,-34,10240,0.54,-0.09,1.67,1.29,6141,6462,5932,114,155,85,72,100,0
6108,6417,5915,-46,-62,-27,10240,0.54,-0.09,1.67,1.29,6140,6461,5931,114,155,85,72,100,0
6115,6425,5917,-38,-51,-21,10240,0.54,-0.09,1.67,1.29,6139,6460,5931,114,155,85,72,100,0
6120,6434,5922,-28,-39,-15,10240,0.54,-0.09,1.67,1.29,6139,6459,5930,114,155,85,72,100,0
6125,6441,5927,-22,-30,-10,10240,0.54,-0.09,1.67,1.29,6138,6458,5930,114,155,85,72,100,0
6140,6455,5935,-13,-20,-5,10240,0.54,-0.09,1.67,1.29,6138,6458,5930,114,155,85,72,100,0
6145,6462,5937,-6,-10,0,10240,0.54,-0.09,1.67,1.29,6139,6458,5931,114,155,85,72,100,0
6146,6465,5938,0,-2,3,10240,0.54,-0.09,1.67,1.29,6139,6458,5931,114,155,85,72,100,0
6147,6471,5942,5,5,7,10240,0.54,-0.09,1.67,1.29,6139,6459,5931,114,155,85,72,100,0
6148,6476,5944,7,10,9,10240,0.54,-0.09,1.67,1.29,6139,6459,5932,114,155,85,72,100,0
6154,6484,5948,9,15,11,10240,0.54,-0.09,1.67,1.29,6140,6460,5932,114,155,85,72,100,0
6160,6491,5952,12,20,14,10240,0.54,-0.09,1.67,1.29,6141,6461,5933,114,155,85,72,100,0
6166,6500,5958,16,27,17,10240,0.54,-0.09,1.67,1.29,6141,6463,5934,114,155,85,72,100,0
6164,6497,5955,20,31,20,10240,0.54,-0.09,1.67,1.29,6142,6464,5934,114,155,85,72,100,0
6147,6474,5938,17,27,16,10240,0.54,-0.09,1.67,1.29,6142,6464,5935,116,156,86,72,100,0
6089,6394,5895,0,3,2,10240,0.54,-0.09,1.67,1.30,6141,6462,5933,116,156,86,72,100,0
6071,6369,5881,-23,-28,-16,10240,0.54,-0.09,1.67,1.30,6138,6459,5932,116,156,86,72,100,0
6051,6346,5869,-49,-64,-36,10240,0.54,-0.09,1.67,1.30,6135,6455,5929,116,156,86,72,100,0
6037,6330,5862,-74,-97,-53,10240,0.54,-0.09,1.67,1.30,6132,6451,5927,116,156,86,72,100,0
6028,6317,5855,-86,-112,-61,10240,0.54,-0.09,1.67,1.30,6129,6446,5925,116,156,86,72,100,0
6018,6302,5850,-96,-124,-66,10240,0.54,-0.09,1.67,1.30,6125,6441,5922,116,156,86,72,100,0
6021,6307,5852,-100,-129,-68,10240,0.54,-0.09,1.67,1.30,6121,6437,5920,116,156,86,72,100,0
6028,6317,5857,-99,-128,-67,10240,0.54,-0.09,1.67,1.30,6118,6433,5918,116,156,86,72,100,0
6036,6328,5864,-94,-121,-63,10240,0.54,-0.09,1.67,1.30,6116,6429,5916,116,156,86,72,100,0
6041,6334,5868,-85,-109,-56,10240,0.54,-0.09,1.67,1.30,6113,6426,5914,116,156,86,72,100,0
6052,6347,5875,-75,-96,-49,10240,0.54,-0.09,1.67,1.30,6111,6424,5913,116,156,86,72,100,0
6056,6352,5879,-66,-84,-42,10240,0.54,-0.09,1.67,1.30,6109,6421,5912,116,156,86,72,100,0
6064,6363,5884,-57,-73,-36,10240,0.54,-0.09,1.67,1.30,6108,6419,5911,116,156,86,72,100,0
6073,6374,5890,-47,-61,-29,10240,0.54,-0.09,1.67,1.30,6107,6418,5910,116,156,86,72,100,0
6086,6391,5895,-37,-48,-23,10240,0.54,-0.09,1.67,1.30,6106,6417,5910,116,156,86,72,100,0
6094,6404,5908,-27,-34,-16,10240,0.54,-0.09,1.67,1.30,6105,6416,5910,116,156,86,72,100,0
6104,6414,5913,-16,-21,-8,10240,0.54,-0.09,1.67,1.30,6105,6416,5910,116,156,86,72,100,0
6112,6426,5919,-6,-7,-1,10240,0.54,-0.09,1.67,1.30,6106,6417,5910,116,156,86,72,100,0
6121,6438,5927,2,4,6,10240,0.54,-0.09,1.67,1.30,6106,6417,5911,116,156,86,72,100,0
6139,6458,5938,13,16,13,10240,0.54,-0.09,1.67,1.30,6107,6419,5912,116,156,86,72,100,0
6145,6466,5941,22,28,19,10240,0.54,-0.09,1.67,1.30,6108,6420,5913,116,156,86,72,100,0
6147,6476,5946,30,40,25,10240,0.54,-0.09,1.67,1.30,6110,6422,5914,116,156,86,72,100,0
6149,6483,5949,36,49,30,10240,0.54,-0.09,1.67,1.30,6111,6424,5915,116,156,86,72,100,0
6156,6494,5956,38,56,33,10240,0.54,-0.09,1.67,1.30,6113,6427,5916,116,156,86,72,100,0
6176,6512,5967,44,65,38,10240,0.54,-0.09,1.67,1.30,6115,6429,5918,116,156,86,72,100,0
6185,6521,5971,52,74,43,10240,0.54,-0.09,1.67,1.30,6117,6432,5920,116,156,86,72,100,0
6176,6514,5965,57,79,46,10240,0.54,-0.09,1.67,1.30,6119,6435,5921,116,156,86,72,100,0
6150,6484,5946,54,74,42,10240,0.54,-0.09,1.67,1.30,6120,6437,5922,126,169,93,72,100,0
6127,6448,5925,40,56,30,10240,0.54,-0.09,1.67,1.31,6120,6437,5922,126,169,93,72,100,0
6090,6400,5902,16,25,12,10240,0.54,-0.09,1.67,1.31,6119,6436,5922,126,169,93,72,100,0
6082,6386,5894,-7,-6,-5,10240,0.54,-0.09,1.67,1.31,6118,6434,5921,126,169,93,72,100,0
6073,6376,5890,-25,-32,-18,10240,0.54,-0.09,1.67,1.31,6117,6432,5920,126,169,93,72,100,0
6063,6364,5884,-40,-51,-27,10240,0.54,-0.09,1.67,1.31,6115,6430,5918,126,169,93,72,100,0
6057,6358,5881,-47,-60,-31,10240,0.54,-0.09,1.67,1.31,6113,6428,5917,126,169,93,72,100,0
6070,6373,5891,-48,-61,-31,10240,0.54,-0.09,1.67,1.31,6111,6426,5916,126,169,93,72,100,0
6082,6386,5899,-44,-57,-28,10240,0.54,-0.09,1.67,1.31,6110,6425,5916,126,169,93,72,100,0
6086,6394,5904,-37,-47,-22,10240,0.54,-0.09,1.67,1.31,6110,6423,5915,126,169,93,72,100,0
6091,6402,5908,-27,-35,-15,10240,0.54,-0.09,1.67,1.31,6109,6423,5915,126,169,93,72,100,0
6097,6410,5912,-20,-25,-9,10240,0.54,-0.09,1.67,1.31,6109,6422,5915,126,169,93,72,100,0
6114,6431,5924,-12,-13,-3,10240,0.54,-0.09,1.67,1.31,6109,6423,5915,126,169,93,72,100,0
6120,6440,5927,-3,-2,2,10240,0.54,-0.09,1.67,1.31,6109,6423,5916,126,169,93,72,100,0
6125,6445,5930,4,8,7,10240,0.54,-0.09,1.67,1.31,6110,6424,5916,126,169,93,72,100,0
6132,6455,5936,13,19,13,10240,0.54,-0.09,1.67,1.31,6110,6425,5917,126,169,93,72,100,0
6142,6462,5940,19,26,16,10240,0.54,-0.09,1.67,1.31,6111,6426,5918,126,169,93,72,100,0
6147,6476,5945,25,33,20,10240,0.54,-0.09,1.67,1.31,6113,6428,5918,126,169,93,72,100,0
6149,6482,5948,30,41,24,10240,0.54,-0.09,1.67,1.31,6114,6430,5919,126,169,93,72,100,0
6154,6490,5952,34,48,27,10240,0.54,-0.09,1.67,1.31,6115,6432,5921,126,169,93,72,100,0
6159,6495,5956,37,54,30,10240,0.54,-0.09,1.67,1.31,6117,6434,5922,126,169,93,72,100,0
6173,6503,5960,42,59,32,10240,0.54,-0.09,1.67,1.31,6118,6436,5923,126,169,93,72,100,0
6181,6519,5968,49,66,36,10240,0.54,-0.09,1.67,1.31,6121,6439,5924,126,169,93,72,100,0
6187,6528,5973,55,73,40,10240,0.54,-0.09,1.67,1.31,6123,6442,5926,126,169,93,72,100,0
6189,6533,5976,60,80,44,10240,0.54,-0.09,1.67,1.31,6125,6445,5928,126,169,93,72,100,0
6191,6542,5980,63,87,47,10240,0.54,-0.09,1.67,1.31,6127,6448,5930,126,169,93,72,100,0
6184,6526,5978,61,85,48,10240,0.54,-0.09,1.67,1.31,6129,6451,5931,122,164,93,72,100,0
6152,6487,5946,51,73,39,10240,0.54,-0.09,1.67,1.31,6130,6452,5932,122,164,89,72,100,0
6130,6453,5927,35,51,26,10240,0.54,-0.09,1.69,1.33,6130,6452,5931,122,164,89,72,100,0
6112,6430,5916,15,22,10,10240,0.54,-0.09,1.69,1.33,6129,6451,5931,122,164,89,72,100,0
6099,6412,5907,-6,-5,-7,10240,0.54,-0.09,1.69,1.33,6128,6450,5930,122,164,89,72,100,0
6082,6388,5895,-22,-29,-19,10240,0.54,-0.09,1.69,1.33,6127,6448,5929,122,164,89,72,100,0
6076,6381,5891,-35,-46,-27,10240,0.54,-0.09,1.69,1.33,6125,6446,5928,122,164,89,72,100,0
6075,6380,5890,-42,-56,-32,10240,0.54,-0.09,1.69,1.33,6123,6443,5926,122,164,89,72,100,0
6082,6389,5895,-45,-60,-34,10240,0.54,-0.09,1.69,1.33,6122,6442,5925,122,164,89,72,100,0
6091,6402,5903,-41,-54,-31,10240,0.54,-0.09,1.69,1.33,6121,6440,5925,122,164,89,72,100,0
6105,6423,5915,-33,-42,-24,10240,0.54,-0.09,1.69,1.33,6120,6440,5924,122,164,89,72,100,0
6112,6431,5921,-23,-29,-16,10240,0.54,-0.09,1.69,1.33,6120,6439,5924,122,164,89,72,100,0
6118,6439,5924,-13,-15,-8,10240,0.54,-0.09,1.69,1.33,6120,6439,5924,122,164,89,72,100,0
6125,6450,5931,-5,-3,-1,10240,0.54,-0.09,1.69,1.33,6120,6440,5924,122,164,89,72,100,0
6139,6463,5937,3,6,4,10240,0.54,-0.09,1.69,1.33,6121,6441,5925,122,164,89,72,100,0
6148,6483,5949,11,18,10,10240,0.54,-0.09,1.69,1.33,6122,6442,5926,122,164,89,72,100,0
6153,6493,5955,19,30,17,10240,0.54,-0.09,1.69,1.33,6123,6444,5927,122,164,89,72,100,0
6164,6503,5960,28,42,23,10240,0.54,-0.09,1.69,1.33,6124,6446,5928,122,164,89,72,100,0
6170,6511,5964,35,52,29,10240,0.54,-0.09,1.69,1.33,6126,6448,5929,122,164,89,72,100,0
6178,6518,5968,41,59,33,10240,0.54,-0.09,1.69,1.33,6127,6450,5930,122,164,89,72,100,0
6189,6532,5973,48,66,36,10240,0.54,-0.09,1.69,1.33,6130,6453,5932,122,164,89,72,100,0
6190,6535,5973,53,72,38,10240,0.54,-0.09,1.69,1.33,6132,6456,5933,122,164,89,72,100,0
6190,6537,5974,56,76,39,10240,0.54,-0.09,1.69,1.33,6133,6458,5934,122,164,89,72,100,0
6191,6543,5978,57,79,40,10240,0.54,-0.09,1.69,1.33,6135,6461,5936,122,164,89,72,100,0
6195,6547,5979,57,80,41,10240,0.54,-0.09,1.69,1.33,6137,6464,5937,122,164,89,72,100,0
6204,6558,5986,58,83,42,10240,0.54,-0.09,1.69,1.33,6140,6467,5939,122,164,89,72,100,0
6209,6565,5989,61,87,44,10240,0.54,-0.09,1.69,1.33,6142,6470,5941,122,164,89,72,100,0
6204,6560,5983,62,89,44,10240,0.54,-0.09,1.69,1.33,6144,6473,5942,122,164,89,72,100,0
6187,6530,5966,58,82,39,10240,0.54,-0.09,1.69,1.33,6145,6475,5943,118,160,86,72,100,0
6153,6487,5942,44,62,27,10240,0.54,-0.09,1.71,1.33,6146,6476,5943,118,160,86,72,100,0
6112,6429,5911,19,27,8,10240,0.54,-0.09,1.71,1.33,6145,6474,5942,118,160,86,72,100,0
6096,6409,5901,-7,-10,-12,10240,0.54,-0.09,1.71,1.33,6143,6472,5940,118,160,86,72,100,0
6085,6394,5895,-32,-43,-28,10240,0.54,-0.09,1.71,1.33,6141,6469,5939,118,160,86,72,100,0
6079,6386,5890,-49,-66,-40,10240,0.54,-0.09,1.71,1.33,6139,6467,5937,118,160,86,72,100,0
6073,6377,5886,-56,-76,-45,10240,0.54,-0.09,1.71,1.33,6137,6464,5936,118,160,86,72,100,0
6075,6380,5891,-60,-81,-46,10240,0.54,-0.09,1.71,1.33,6135,6461,5934,118,160,86,72,100,0
6083,6389,5898,-58,-79,-43,10240,0.54,-0.09,1.71,1.33,6133,6458,5933,118,160,86,72,100,0
6087,6400,5903,-54,-73,-39,10240,0.54,-0.09,1.71,1.33,6131,6456,5932,118,160,86,72,100,0
6091,6405,5904,-48,-64,-33,10240,0.54,-0.09,1.71,1.33,6130,6455,5931,118,160,86,72,100,0
6102,6411,5908,-40,-54,-28,10240,0.54,-0.09,1.71,1.33,6129,6453,5930,118,160,86,72,100,0
6107,6423,5914,-32,-44,-23,10240,0.54,-0.09,1.71,1.33,6128,6452,5930,118,160,86,72,100,0
6110,6426,5916,-26,-36,-19,10240,0.54,-0.09,1.71,1.33,6128,6451,5929,118,160,86,72,100,0
6117,6434,5921,-19,-28,-14,10240,0.54,-0.09,1.71,1.33,6127,6451,5929,118,160,86,72,100,0
6120,6438,5922,-14,-20,-11,10240,0.54,-0.09,1.71,1.33,6127,6450,5929,118,160,86,72,100,0
6127,6450,5926,-8,-13,-7,10240,0.54,-0.09,1.71,1.33,6127,6450,5929,118,160,86,72,100,0
6137,6457,5934,-2,-5,-3,10240,0.54,-0.09,1.71,1.33,6128,6451,5929,118,160,86,72,100,0
6144,6465,5938,4,2,1,10240,0.54,-0.09,1.71,1.33,6128,6451,5929,118,160,86,72,100,0
6147,6474,5942,10,10,6,10240,0.54,-0.09,1.71,1.33,6129,6452,5929,118,160,86,72,100,0
6147,6478,5943,15,16,10,10240,0.54,-0.09,1.71,1.33,6129,6453,5930,118,160,86,72,100,0
6155,6491,5949,19,24,13,10240,0.54,-0.09,1.71,1.33,6130,6454,5931,118,160,86,72,100,0
6164,6499,5957,23,32,17,10240,0.54,-0.09,1.71,1.33,6131,6455,5931,118,160,86,72,100,0
6170,6508,5961,28,39,21,10240,0.54,-0.09,1.71,1.33,6133,6457,5932,118,160,86,72,100,0
6175,6512,5963,34,46,25,10240,0.54,-0.09,1.71,1.33,6134,6459,5933,118,160,86,72,100,0
6181,6519,5967,39,51,29,10240,0.54,-0.09,1.71,1.33,6136,6461,5935,118,160,86,72,100,0
6189,6526,5969,43,56,31,10240,0.54,-0.09,1.71,1.33,6137,6463,5936,118,160,86,72,100,0
6171,6506,5956,42,53,28,10240,0.54,-0.09,1.71,1.33,6138,6465,5936,115,155,84,72,100,0
6143,6467,5932,33,41,20,10240,0.45,-0.08,1.69,1.32,6139,6465,5936,115,155,84,72,100,0
6113,6428,5908,16,17,5,10240,0.45,-0.08,1.69,1.32,6138,6464,5935,115,155,84,72,100,0
6090,6396,5893,-8,-14,-13,10240,0.45,-0.08,1.69,1.32,6136,6461,5934,115,155,84,72,100,0
6062,6359,5873,-34,-49,-32,10240,0.45,-0.08,1.69,1.32,6134,6458,5932,115,155,84,72,100,0
6051,6345,5867,-55,-77,-47,10240,0.45,-0.08,1.69,1.32,6131,6454,5930,115,155,84,72,100,0
6044,6336,5863,-70,-96,-56,10240,0.45,-0.08,1.69,1.32,6128,6450,5927,115,155,84,72,100,0
6038,6331,5860,-80,-109,-62,10240,0.45,-0.08,1.69,1.32,6125,6446,5925,115,155,84,72,100,0
6039,6335,5863,-83,-111,-63,10240,0.45,-0.08,1.69,1.32,6122,6442,5923,115,155,84,72,100,0
6062,6362,5882,-78,-103,-57,10240,0.45,-0.08,1.69,1.32,6120,6440,5922,115,155,84,72,100,0
6069,6373,5887,-69,-91,-49,10240,0.45,-0.08,1.69,1.32,6118,6438,5921,115,155,84,72,100,0
6077,6381,5891,-57,-76,-40,10240,0.45,-0.08,1.69,1.32,6117,6436,5920,115,155,84,72,100,0
6083,6389,5896,-45,-60,-31,10240,0.45,-0.08,1.69,1.32,6116,6434,5919,115,155,84,72,100,0
6087,6397,5902,-37,-50,-25,10240,0.45,-0.08,1.69,1.32,6115,6433,5918,115,155,84,72,100,0
6106,6420,5915,-27,-37,-17,10240,0.45,-0.08,1.69,1.32,6115,6432,5918,115,155,84,72,100,0
6112,6430,5920,-18,-23,-10,10240,0.45,-0.08,1.69,1.32,6115,6432,5918,115,155,84,72,100,0
6119,6439,5926,-9,-11,-2,10240,0.45,-0.08,1.69,1.32,6115,6433,5919,115,155,84,72,100,0
6126,6450,5931,0,2,4,10240,0.45,-0.08,1.69,1.32,6115,6433,5919,115,155,84,72,100,0
6136,6459,5937,8,11,9,10240,0.45,-0.08,1.69,1.32,6116,6434,5920,115,155,84,72,100,0
6146,6475,5942,16,22,14,10240,0.45,-0.08,1.69,1.32,6117,6435,5920,115,155,84,72,100,0
6149,6483,5948,22,32,19,10240,0.45,-0.08,1.69,1.32,6118,6437,5921,115,155,84,72,100,0
6152,6490,5951,28,40,23,10240,0.45,-0.08,1.69,1.32,6119,6439,5922,115,155,84,72,100,0
6157,6495,5954,32,47,27,10240,0.45,-0.08,1.69,1.32,6120,6441,5923,115,155,84,72,100,0
6162,6500,5958,35,52,30,10240,0.45,-0.08,1.69,1.32,6122,6443,5924,115,155,84,72,100,0
6177,6518,5968,41,58,34,10240,0.45,-0.08,1.69,1.32,6123,6445,5926,115,155,84,72,100,0
6185,6527,5971,47,65,37,10240,0.45,-0.08,1.69,1.32,6126,6448,5927,115,155,84,72,100,0
6189,6533,5975,53,72,41,10240,0.45,-0.08,1.69,1.32,6128,6451,5929,115,155,84,72,100,0
6189,6539,5978,58,79,44,10240,0.45,-0.08,1.69,1.32,6130,6454,5931,115,155,84,72,100,0
6189,6536,5974,59,81,44,10240,0.45,-0.08,1.69,1.32,6132,6456,5932,115,155,84,72,100,0
6143,6469,5934,47,64,34,10240,0.45,-0.08,1.69,1.32,6132,6457,5932,121,164,90,72,100,0
6119,6441,5919,28,40,19,10240,0.45,-0.08,1.67,1.30,6132,6456,5932,121,164,90,72,100,0
6101,6419,5907,6,10,1,10240,0.45,-0.08,1.67,1.30,6131,6455,5931,121,164,90,72,100,0
6087,6401,5899,-18,-22,-16,10240,0.45,-0.08,1.67,1.30,6129,6453,5930,121,164,90,72,100,0
6071,6387,5892,-35,-41,-26,10240,0.45,-0.08,1.67,1.30,6127,6451,5929,121,164,90,72,100,0
6063,6368,5883,-47,-58,-34,10240,0.45,-0.08,1.67,1.30,6125,6448,5927,121,164,90,72,100,0
6064,6370,5885,-54,-68,-38,10240,0.45,-0.08,1.67,1.30,6123,6446,5926,121,164,90,72,100,0
6073,6380,5891,-56,-70,-38,10240,0.45,-0.08,1.67,1.30,6121,6443,5924,121,164,90,72,100,0
6081,6388,5896,-52,-68,-36,10240,0.45,-0.08,1.67,1.30,6120,6442,5923,121,164,90,72,100,0
6084,6397,5900,-45,-59,-31,10240,0.45,-0.08,1.67,1.30,6119,6440,5923,121,164,90,72,100,0
6091,6405,5907,-37,-48,-24,10240,0.45,-0.08,1.67,1.30,6118,6439,5922,121,164,90,72,100,0
6096,6411,5911,-30,-39,-19,10240,0.45,-0.08,1.67,1.30,6117,6438,5922,121,164,90,72,100,0
6104,6421,5917,-24,-30,-13,10240,0.45,-0.08,1.67,1.30,6117,6437,5922,121,164,90,72,100,0
6112,6433,5922,-16,-20,-7,10240,0.45,-0.08,1.67,1.30,6117,6437,5922,121,164,90,72,100,0
6127,6452,5934,-7,-8,-1,10240,0.45,-0.08,1.67,1.30,6117,6438,5922,121,164,90,72,100,0
6138,6463,5939,3,4,5,10240,0.45,-0.08,1.67,1.30,6118,6439,5923,121,164,90,72,100,0
6144,6471,5941,12,16,11,10240,0.45,-0.08,1.67,1.30,6118,6440,5923,121,164,90,72,100,0
6147,6477,5944,21,26,16,10240,0.45,-0.08,1.67,1.30,6119,6441,5924,121,164,90,72,100,0
6147,6484,5949,25,33,19,10240,0.45,-0.08,1.67,1.30,6120,6442,5925,121,164,90,72,100,0
6158,6498,5958,29,40,23,10240,0.45,-0.08,1.67,1.30,6122,6444,5926,121,164,90,72,100,0
6164,6504,5962,33,47,27,10240,0.45,-0.08,1.67,1.30,6123,6446,5927,121,164,90,72,100,0
6168,6511,5963,37,54,31,10240,0.45,-0.08,1.67,1.30,6124,6448,5928,121,164,90,72,100,0
6174,6516,5967,42,60,34,10240,0.45,-0.08,1.67,1.30,6126,6451,5930,121,164,90,72,100,0
6179,6522,5969,46,63,36,10240,0.45,-0.08,1.67,1.30,6128,6453,5931,121,164,90,72,100,0
6189,6532,5974,50,68,38,10240,0.45,-0.08,1.67,1.30,6130,6456,5932,121,164,90,72,100,0
6183,6526,5968,52,69,38,10240,0.45,-0.08,1.67,1.30,6132,6458,5933,121,164,90,72,100,0
6154,6492,5948,45,61,32,10240,0.45,-0.08,1.67,1.30,6132,6459,5934,118,158,86,72,100,0
6127,6450,5925,31,42,20,10240,0.45,-0.08,1.69,1.33,6132,6459,5934,118,158,86,72,100,0
6103,6420,5910,10,13,4,10240,0.45,-0.08,1.69,1.33,6131,6458,5933,118,158,86,72,100,0
6081,6388,5894,-15,-20,-14,10240,0.45,-0.08,1.69,1.33,6130,6455,5932,118,158,86,72,100,0
6069,6376,5887,-35,-47,-28,10240,0.45,-0.08,1.69,1.33,6128,6453,5930,118,158,86,72,100,0
6059,6364,5881,-50,-67,-37,10240,0.45,-0.08,1.69,1.33,6125,6450,5928,118,158,86,72,100,0
6054,6357,5878,-60,-80,-44,10240,0.45,-0.08,1.69,1.33,6123,6447,5927,118,158,86,72,100,0
6054,6357,5877,-65,-85,-46,10240,0.45,-0.08,1.69,1.33,6121,6444,5925,118,158,86,72,100,0
6073,6380,5892,-62,-81,-44,10240,0.45,-0.08,1.69,1.33,6119,6441,5924,118,158,86,72,100,0
6078,6385,5896,-55,-73,-39,10240,0.45,-0.08,1.69,1.33,6118,6440,5923,118,158,86,72,100,0
6083,6391,5899,-46,-62,-32,10240,0.45,-0.08,1.69,1.33,6117,6438,5922,118,158,86,72,100,0
6085,6397,5901,-37,-50,-25,10240,0.45,-0.08,1.69,1.33,6115,6437,5922,118,158,86,72,100,0
6095,6406,5906,-31,-42,-21,10240,0.45,-0.08,1.69,1.33,6115,6435,5921,118,158,86,72,100,0
6106,6424,5917,-23,-31,-15,10240,0.45,-0.08,1.69,1.33,6114,6435,5921,118,158,86,72,100,0
6111,6431,5921,-15,-21,-10,10240,0.45,-0.08,1.69,1.33,6114,6435,5921,118,158,86,72,100,0
6115,6438,5925,-7,-10,-3,10240,0.45,-0.08,1.69,1.33,6114,6435,5921,118,158,86,72,100,0
6120,6445,5930,-1,0,2,10240,0.45,-0.08,1.69,1.33,6115,6435,5921,118,158,86,72,100,0
6135,6463,5934,5,9,6,10240,0.45,-0.08,1.69,1.33,6115,6436,5922,118,158,86,72,100,0
6143,6468,5941,13,17,11,10240,0.45,-0.08,1.69,1.33,6116,6437,5922,118,158,86,72,100,0
6146,6477,5944,20,26,15,10240,0.45,-0.08,1.69,1.33,6117,6439,5923,118,158,86,72,100,0
6147,6481,5946,26,34,18,10240,0.45,-0.08,1.69,1.33,6118,6440,5924,118,158,86,72,100,0
6148,6487,5949,28,38,21,10240,0.45,-0.08,1.69,1.33,6119,6442,5925,118,158,86,72,100,0
6157,6498,5957,31,44,24,10240,0.45,-0.08,1.69,1.33,6120,6444,5926,118,158,86,72,100,0
6163,6505,5960,34,49,27,10240,0.45,-0.08,1.69,1.33,6122,6446,5927,118,158,86,72,100,0
6169,6512,5963,38,55,30,10240,0.45,-0.08,1.69,1.33,6123,6448,5928,118,158,86,72,100,0
6176,6518,5966,43,61,34,10240,0.45,-0.08,1.69,1.33,6125,6450,5929,118,158,86,72,100,0
6175,6517,5964,46,64,34,10240,0.45,-0.08,1.69,1.33,6127,6452,5931,118,158,86,72,100,0
6127,6452,5924,36,49,24,10240,0.45,-0.08,1.69,1.33,6127,6452,5930,116,155,85,72,100,0
6096,6412,5903,17,23,9,10240,0.45,-0.08,1.68,1.32,6126,6451,5929,116,155,85,72,100,0
6078,6387,5889,-7,-9,-9,10240,0.45,-0.08,1.68,1.32,6124,6449,5928,116,155,85,72,100,0
6060,6367,5878,-34,-45,-29,10240,0.45,-0.08,1.68,1.32,6122,6446,5926,116,155,85,72,100,0
6048,6349,5871,-52,-68,-41,10240,0.45,-0.08,1.68,1.32,6120,6443,5925,116,155,85,72,100,0
6026,6324,5856,-67,-87,-51,10240,0.45,-0.08,1.68,1.32,6117,6439,5922,116,155,85,72,100,0
6023,6318,5854,-78,-101,-58,10240,0.45,-0.08,1.68,1.32,6113,6435,5920,116,155,85,72,100,0
6023,6319,5855,-85,-109,-62,10240,0.45,-0.08,1.68,1.32,6110,6431,5918,116,155,85,72,100,0
6033,6330,5863,-85,-110,-62,10240,0.45,-0.08,1.68,1.32,6108,6428,5916,116,155,85,72,100,0
6040,6338,5869,-79,-103,-56,10240,0.45,-0.08,1.68,1.32,6106,6425,5914,116,155,85,72,100,0
6048,6348,5874,-71,-92,-50,10240,0.45,-0.08,1.68,1.32,6104,6422,5913,116,155,85,72,100,0
6051,6352,5877,-62,-81,-43,10240,0.45,-0.08,1.68,1.32,6102,6420,5912,116,155,85,72,100,0
6058,6361,5881,-53,-71,-37,10240,0.45,-0.08,1.68,1.32,6100,6418,5911,116,155,85,72,100,0
6065,6371,5885,-45,-61,-32,10240,0.45,-0.08,1.68,1.32,6099,6416,5910,116,155,85,72,100,0
6076,6383,5893,-37,-50,-26,10240,0.45,-0.08,1.68,1.32,6098,6415,5909,116,155,85,72,100,0
6089,6405,5906,-26,-36,-18,10240,0.45,-0.08,1.68,1.32,6098,6415,5909,116,155,85,72,100,0
6097,6414,5911,-16,-22,-10,10240,0.45,-0.08,1.68,1.32,6098,6415,5909,116,155,85,72,100,0
6106,6423,5917,-6,-8,-2,10240,0.45,-0.08,1.68,1.32,6098,6415,5910,116,155,85,72,100,0
6114,6435,5923,3,4,4,10240,0.45,-0.08,1.68,1.32,6099,6416,5910,116,155,85,72,100,0
6120,6444,5928,10,13,9,10240,0.45,-0.08,1.68,1.32,6100,6417,5911,116,155,85,72,100,0
6133,6458,5935,18,23,15,10240,0.45,-0.08,1.68,1.32,6101,6418,5912,116,155,85,72,100,0
6140,6466,5939,26,33,20,10240,0.45,-0.08,1.68,1.32,6102,6420,5912,116,155,85,72,100,0
6146,6474,5943,33,41,24,10240,0.45,-0.08,1.68,1.32,6104,6421,5913,116,155,85,72,100,0
6147,6482,5946,38,49,27,10240,0.45,-0.08,1.68,1.32,6105,6423,5915,116,155,85,72,100,0
6150,6491,5952,41,55,31,10240,0.45,-0.08,1.68,1.32,6106,6426,5916,116,155,85,72,100,0
6165,6507,5961,46,64,35,10240,0.45,-0.08,1.68,1.32,6108,6428,5917,116,155,85,72,100,0
6166,6509,5961,49,70,38,10240,0.45,-0.08,1.68,1.32,6110,6431,5919,116,155,85,72,100,0
6152,6492,5948,49,70,37,10240,0.45,-0.08,1.68,1.32,6112,6433,5920,116,155,89,72,100,0
6125,6454,5927,41,59,30,10240,0.45,-0.08,1.60,1.26,6112,6434,5920,121,162,89,72,100,0
6086,6421,5909,21,36,16,10240,0.45,-0.08,1.60,1.26,6111,6433,5920,121,162,89,72,100,0
6073,6383,5889,-2,4,-1,10240,0.45,-0.08,1.60,1.26,6110,6432,5919,121,162,89,72,100,0
6062,6371,5883,-23,-25,-17,10240,0.45,-0.08,1.60,1.26,6108,6430,5917,121,162,89,72,100,0
6053,6358,5876,-40,-47,-28,10240,0.45,-0.08,1.60,1.26,6107,6427,5916,121,162,89,72,100,0
6043,6346,5870,-49,-64,-37,10240,0.45,-0.08,1.60,1.26,6104,6425,5914,121,162,89,72,100,0
6041,6343,5866,-55,-71,-41,10240,0.45,-0.08,1.60,1.26,6102,6422,5913,121,162,89,72,100,0
6050,6354,5877,-56,-73,-41,10240,0.45,-0.08,1.60,1.26,6101,6420,5912,121,162,89,72,100,0
6056,6362,5882,-54,-70,-38,10240,0.45,-0.08,1.60,1.26,6099,6418,5911,121,162,89,72,100,0
6059,6367,5884,-48,-62,-34,10240,0.45,-0.08,1.60,1.26,6098,6416,5910,121,162,89,72,100,0
6064,6373,5888,-41,-53,-27,10240,0.45,-0.08,1.60,1.26,6097,6415,5909,121,162,89,72,100,0
6074,6383,5894,-34,-44,-22,10240,0.45,-0.08,1.60,1.26,6096,6414,5909,121,162,89,72,100,0
6082,6392,5900,-26,-35,-17,10240,0.45,-0.08,1.60,1.26,6095,6413,5908,121,162,89,72,100,0
6084,6399,5903,-19,-26,-12,10240,0.45,-0.08,1.60,1.26,6095,6412,5908,121,162,89,72,100,0
6087,6407,5908,-13,-17,-7,10240,0.45,-0.08,1.60,1.26,6095,6412,5908,121,162,89,72,100,0
6097,6415,5912,-7,-9,-2,10240,0.45,-0.08,1.60,1.26,6095,6412,5908,121,162,89,72,100,0
6108,6431,5920,-1,0,2,10240,0.45,-0.08,1.60,1.26,6095,6413,5909,121,162,89,72,100,0
6114,6440,5926,6,10,8,10240,0.45,-0.08,1.60,1.26,6096,6414,5909,121,162,89,72,100,0
6119,6446,5929,13,19,12,10240,0.45,-0.08,1.60,1.26,6097,6415,5910,121,162,89,72,100,0
6122,6452,5932,19,27,17,10240,0.45,-0.08,1.60,1.26,6098,6416,5911,121,162,89,72,100,0
6129,6459,5935,23,33,20,10240,0.45,-0.08,1.60,1.26,6099,6418,5911,121,162,89,72,100,0
6145,6473,5942,30,40,23,10240,0.45,-0.08,1.60,1.26,6100,6419,5912,121,162,89,72,100,0
6147,6479,5945,36,47,26,10240,0.45,-0.08,1.60,1.26,6102,6421,5914,121,162,89,72,100,0
6147,6488,5950,41,54,30,10240,0.45,-0.08,1.60,1.26,6103,6424,5915,121,162,89,72,100,0
6152,6497,5956,45,61,34,10240,0.45,-0.08,1.60,1.26,6105,6426,5916,121,162,89,72,100,0
6154,6499,5956,46,66,36,10240,0.45,-0.08,1.60,1.26,6106,6428,5917,121,162,89,72,100,0
6115,6438,5920,36,53,29,10240,0.45,-0.08,1.60,1.26,6107,6429,5918,116,156,86,72,100,0
6087,6404,5900,21,31,16,10240,0.45,-0.08,1.67,1.31,6106,6428,5917,116,156,86,72,100,0
6073,6382,5889,1,3,0,10240,0.45,-0.08,1.67,1.31,6105,6426,5916,116,156,86,72,100,0
6060,6366,5881,-21,-29,-19,10240,0.45,-0.08,1.67,1.31,6103,6424,5915,116,156,86,72,100,0
6050,6352,5875,-36,-49,-29,10240,0.45,-0.08,1.67,1.31,6102,6422,5913,116,156,86,72,100,0
6034,6335,5867,-48,-64,-36,10240,0.45,-0.08,1.67,1.31,6099,6419,5912,116,156,86,72,100,0
6032,6332,5866,-56,-74,-40,10240,0.45,-0.08,1.67,1.31,6097,6416,5910,116,156,86,72,100,0
6037,6338,5870,-60,-78,-41,10240,0.45,-0.08,1.67,1.31,6095,6414,5909,116,156,86,72,100,0
6048,6349,5878,-58,-76,-39,10240,0.45,-0.08,1.67,1.31,6094,6411,5908,116,156,86,72,100,0
6054,6360,5884,-51,-68,-34,10240,0.45,-0.08,1.67,1.31,6092,6410,5907,116,156,86,72,100,0
6065,6375,5890,-42,-55,-27,10240,0.45,-0.08,1.67,1.31,6091,6409,5907,116,156,86,72,100,0
6071,6382,5894,-32,-43,-20,10240,0.45,-0.08,1.67,1.31,6091,6408,5906,116,156,86,72,100,0
6078,6388,5899,-24,-32,-14,10240,0.45,-0.08,1.67,1.31,6090,6407,5906,116,156,86,72,100,0
6082,6395,5901,-16,-22,-10,10240,0.45,-0.08,1.67,1.31,6090,6407,5906,116,156,86,72,100,0
6087,6404,5908,-10,-15,-5,10240,0.45,-0.08,1.67,1.31,6090,6407,5906,116,156,86,72,100,0
6103,6421,5918,-2,-5,0,10240,0.45,-0.08,1.67,1.31,6090,6407,5906,116,156,86,72,100,0
6109,6430,5922,5,5,6,10240,0.45,-0.08,1.67,1.31,6091,6408,5907,116,156,86,72,100,0
6113,6436,5924,12,15,11,10240,0.45,-0.08,1.67,1.31,6092,6409,5907,116,156,86,72,100,0
6117,6441,5927,19,23,15,10240,0.45,-0.08,1.67,1.31,6093,6410,5908,116,156,86,72,100,0
6120,6447,5929,22,29,17,10240,0.45,-0.08,1.67,1.31,6093,6411,5909,116,156,86,72,100,0
6127,6455,5933,26,34,19,10240,0.45,-0.08,1.67,1.31,6095,6412,5910,116,156,86,72,100,0
6131,6462,5936,29,39,22,10240,0.45,-0.08,1.67,1.31,6096,6414,5910,116,156,86,72,100,0
6141,6466,5939,34,44,24,10240,0.45,-0.08,1.67,1.31,6097,6416,5911,116,156,86,72,100,0
6144,6473,5942,39,49,26,10240,0.45,-0.08,1.67,1.31,6099,6418,5912,116,156,86,72,100,0
6147,6476,5943,42,52,28,10240,0.45,-0.08,1.67,1.31,6100,6420,5913,116,156,86,72,100,0
6147,6484,5946,45,55,29,10240,0.45,-0.08,1.67,1.31,6102,6422,5915,116,156,86,72,100,0
6131,6459,5930,41,52,26,10240,0.45,-0.08,1.67,1.31,6103,6423,5915,113,150,82,72,100,0
6098,6417,5907,28,37,17,10240,0.45,-0.08,1.68,1.34,6103,6423,5915,113,150,82,72,100,0
6074,6382,5887,10,13,2,10240,0.45,-0.08,1.68,1.34,6102,6421,5914,113,150,82,72,100,0
6038,6339,5865,-16,-22,-16,10240,0.45,-0.08,1.68,1.34,6100,6419,5912,113,150,82,72,100,0
6024,6323,5855,-42,-54,-34,10240,0.45,-0.08,1.68,1.34,6097,6416,5910,113,150,82,72,100,0
6014,6307,5849,-60,-79,-47,10240,0.45,-0.08,1.68,1.34,6094,6412,5908,113,150,82,72,100,0
6007,6297,5846,-75,-97,-55,10240,0.45,-0.08,1.68,1.34,6092,6408,5906,113,150,82,72,100,0
6003,6292,5843,-81,-105,-58,10240,0.45,-0.08,1.68,1.34,6089,6404,5904,113,150,82,72,100,0
6016,6311,5854,-80,-104,-57,10240,0.45,-0.08,1.68,1.34,6086,6401,5902,113,150,82,72,100,0
6023,6321,5860,-75,-97,-52,10240,0.45,-0.08,1.68,1.34,6084,6398,5901,113,150,82,72,100,0
6028,6329,5864,-67,-86,-46,10240,0.45,-0.08,1.68,1.34,6082,6396,5900,113,150,82,72,100,0
6034,6334,5869,-58,-73,-38,10240,0.45,-0.08,1.68,1.34,6081,6394,5899,113,150,82,72,100,0
6043,6344,5875,-49,-63,-32,10240,0.45,-0.08,1.68,1.34,6079,6392,5898,113,150,82,72,100,0
6058,6368,5886,-39,-49,-25,10240,0.45,-0.08,1.68,1.34,6079,6392,5898,113,150,82,72,100,0
6067,6376,5892,-28,-36,-17,10240,0.45,-0.08,1.68,1.34,6078,6391,5897,113,150,82,72,100,0
6074,6384,5897,-18,-23,-10,10240,0.45,-0.08,1.68,1.34,6078,6391,5897,113,150,82,72,100,0
6083,6394,5901,-7,-10,-3,10240,0.45,-0.08,1.68,1.34,6078,6391,5898,113,150,82,72,100,0
6085,6402,5905,0,-2,1,10240,0.45,-0.08,1.68,1.34,6078,6391,5898,113,150,82,72,100,0
6097,6416,5913,6,7,6,10240,0.45,-0.08,1.68,1.34,6079,6392,5898,113,150,82,72,100,0
6104,6424,5916,13,17,10,10240,0.45,-0.08,1.68,1.34,6080,6393,5899,113,150,82,72,100,0
6107,6430,5919,18,25,14,10240,0.45,-0.08,1.68,1.34,6081,6394,5900,113,150,82,72,100,0
6112,6435,5922,24,32,18,10240,0.45,-0.08,1.68,1.34,6082,6396,5900,113,150,82,72,100,0
6113,6437,5923,27,36,20,10240,0.45,-0.08,1.68,1.34,6083,6397,5901,113,150,82,72,100,0
6122,6450,5931,31,41,23,10240,0.45,-0.08,1.68,1.34,6084,6399,5902,113,150,82,72,100,0
6130,6458,5936,35,46,26,10240,0.45,-0.08,1.68,1.34,6086,6401,5903,113,150,82,72,100,0
6141,6468,5941,41,53,30,10240,0.45,-0.08,1.68,1.34,6088,6403,5904,113,150,82,72,100,0
6145,6472,5942,47,60,33,10240,0.45,-0.08,1.68,1.34,6089,6405,5906,113,150,82,72,100,0
6126,6453,5929,47,58,32,10240,0.45,-0.08,1.68,1.34,6091,6407,5906,113,154,84,72,100,0
6070,6379,5887,31,37,19,10240,0.45,-0.08,1.69,1.30,6090,6406,5906,117,154,84,72,100,0
6050,6355,5874,8,9,2,10240,0.45,-0.08,1.69,1.30,6089,6404,5905,117,154,84,72,100,0
6037,6339,5866,-18,-23,-16,10240,0.45,-0.08,1.69,1.30,6087,6402,5903,117,154,84,72,100,0
6027,6328,5859,-41,-52,-32,10240,0.45,-0.08,1.69,1.30,6085,6400,5902,117,154,84,72,100,0
6020,6317,5854,-52,-66,-39,10240,0.45,-0.08,1.69,1.30,6083,6397,5900,117,154,84,72,100,0
6010,6302,5849,-60,-76,-44,10240,0.45,-0.08,1.69,1.30,6080,6394,5899,117,154,84,72,100,0
6014,6308,5854,-63,-81,-45,10240,0.45,-0.08,1.69,1.30,6078,6391,5897,117,154,84,72,100,0
6020,6319,5859,-63,-81,-44,10240,0.45,-0.08,1.69,1.30,6076,6389,5896,117,154,84,72,100,0
6031,6333,5867,-58,-74,-39,10240,0.45,-0.08,1.69,1.30,6075,6387,5895,117,154,84,72,100,0
6039,6339,5872,-49,-63,-32,10240,0.45,-0.08,1.69,1.30,6074,6385,5894,117,154,84,72,100,0
6053,6358,5884,-38,-49,-24,10240,0.45,-0.08,1.69,1.30,6073,6384,5894,117,154,84,72,100,0
6061,6371,5889,-27,-34,-16,10240,0.45,-0.08,1.69,1.30,6072,6384,5894,117,154,84,72,100,0
6071,6382,5897,-16,-21,-8,10240,0.45,-0.08,1.69,1.30,6072,6384,5894,117,154,84,72,100,0
6081,6393,5903,-6,-8,0,10240,0.45,-0.08,1.69,1.30,6073,6384,5894,117,154,84,72,100,0
6086,6405,5909,2,3,5,10240,0.45,-0.08,1.69,1.30,6073,6385,5895,117,154,84,72,100,0
6105,6426,5921,12,16,13,10240,0.45,-0.08,1.69,1.30,6074,6386,5895,117,154,84,72,100,0
6111,6436,5926,22,29,19,10240,0.45,-0.08,1.69,1.30,6075,6388,5897,117,154,84,72,100,0
6117,6447,5932,30,41,25,10240,0.45,-0.08,1.69,1.30,6077,6390,5898,117,154,84,72,100,0
6123,6456,5937,38,52,31,10240,0.45,-0.08,1.69,1.30,6078,6392,5899,117,154,84,72,100,0
6131,6463,5942,43,59,35,10240,0.45,-0.08,1.69,1.30,6080,6394,5900,117,154,84,72,100,0
6146,6480,5948,50,68,40,10240,0.45,-0.08,1.69,1.30,6082,6397,5902,117,154,84,72,100,0
6146,6486,5950,55,75,43,10240,0.45,-0.08,1.69,1.30,6084,6400,5904,117,154,84,72,100,0
6148,6493,5957,59,82,46,10240,0.45,-0.08,1.69,1.30,6087,6403,5905,117,154,84,72,100,0
6155,6503,5962,63,88,49,10240,0.45,-0.08,1.69,1.30,6089,6407,5907,117,154,84,72,100,0
6162,6511,5965,65,93,52,10240,0.45,-0.08,1.69,1.30,6091,6410,5909,117,154,84,73,100,0
6149,6492,5951,63,91,50,10240,0.45,-0.08,1.69,1.30,6093,6413,5911,120,159,87,73,100,0
6120,6455,5930,54,79,42,10240,0.45,-0.08,1.68,1.34,6094,6414,5911,120,159,87,73,100,0
6096,6420,5911,38,56,28,10240,0.45,-0.08,1.68,1.34,6094,6414,5911,120,159,87,73,100,0
6080,6397,5900,17,27,12,10240,0.45,-0.08,1.68,1.34,6094,6414,5911,120,159,87,73,100,0
6056,6369,5891,-5,-3,-2,10240,0.45,-0.08,1.68,1.34,6092,6412,5910,120,159,87,73,100,0
6048,6355,5878,-22,-27,-15,10240,0.45,-0.08,1.68,1.34,6091,6410,5909,120,159,87,73,100,0
6040,6344,5874,-35,-44,-23,10240,0.45,-0.08,1.68,1.34,6089,6408,5908,120,159,87,73,100,0
6038,6343,5874,-44,-56,-29,10240,0.45,-0.08,1.68,1.34,6088,6406,5907,120,159,87,73,100,0
6045,6353,5880,-45,-58,-31,10240,0.45,-0.08,1.68,1.34,6086,6404,5906,120,159,87,73,100,0
6060,6375,5893,-41,-51,-26,10240,0.45,-0.08,1.68,1.34,6085,6403,5906,120,159,87,73,100,0
6067,6381,5897,-33,-41,-20,10240,0.45,-0.08,1.68,1.34,6085,6403,5905,120,159,87,73,100,0
6071,6386,5900,-24,-29,-13,10240,0.45,-0.08,1.68,1.34,6084,6402,5905,120,159,87,73,100,0
6078,6394,5905,-15,-18,-6,10240,0.45,-0.08,1.68,1.34,6084,6402,5905,120,159,87,73,100,0
6083,6404,5910,-9,-11,-2,10240,0.45,-0.08,1.68,1.34,6084,6402,5905,120,159,87,73,100,0
6098,6423,5922,-1,0,4,10240,0.45,-0.08,1.68,1.34,6084,6402,5906,120,159,87,73,100,0
6105,6432,5925,6,11,10,10240,0.45,-0.08,1.68,1.34,6085,6403,5906,120,159,87,73,100,0
6111,6440,5930,14,21,15,10240,0.45,-0.08,1.68,1.34,6086,6405,5907,120,159,87,73,100,0
6114,6448,5934,21,31,21,10240,0.45,-0.08,1.68,1.34,6087,6406,5908,120,159,87,73,100,0
6119,6455,5938,25,38,24,10240,0.45,-0.08,1.68,1.34,6088,6408,5909,120,159,87,73,100,0
6135,6469,5946,32,45,28,10240,0.45,-0.08,1.68,1.34,6090,6410,5910,120,159,87,73,100,0
6142,6475,5950,38,52,32,10240,0.45,-0.08,1.68,1.34,6091,6412,5912,120,159,87,73,100,0
6145,6484,5952,44,59,35,10240,0.45,-0.08,1.68,1.34,6093,6414,5913,120,159,87,73,100,0
6148,6494,5958,50,67,39,10240,0.45,-0.08,1.68,1.34,6095,6417,5915,120,159,87,73,100,0
6152,6503,5964,52,73,42,10240,0.45,-0.08,1.68,1.34,6097,6420,5916,120,159,87,73,100,0
6167,6517,5972,57,81,46,10240,0.45,-0.08,1.68,1.34,6099,6423,5918,120,159,87,73,100,0
6164,6514,5969,59,85,48,10240,0.45,-0.08,1.68,1.34,6101,6426,5920,120,159,87,73,100,0
6147,6488,5950,57,81,45,10240,0.45,-0.08,1.68,1.34,6103,6428,5921,116,155,85,73,100,0
6113,6445,5927,46,64,34,10240,0.45,-0.08,1.68,1.32,6103,6429,5921,116,155,85,73,100,0
6089,6413,5910,25,37,18,10240,0.45,-0.08,1.68,1.32,6103,6428,5921,116,155,85,73,100,0
6059,6374,5890,0,2,-1,10240,0.45,-0.08,1.68,1.32,6101,6426,5920,116,155,85,73,100,0
6045,6356,5881,-25,-29,-18,10240,0.45,-0.08,1.68,1.32,6099,6424,5918,116,155,85,73,100,0
6034,6342,5876,-43,-53,-29,10240,0.45,-0.08,1.68,1.32,6097,6421,5917,116,155,85,73,100,0
6026,6332,5870,-57,-71,-38,10240,0.45,-0.08,1.68,1.32,6095,6418,5915,116,155,85,73,100,0
6024,6330,5870,-63,-79,-41,10240,0.45,-0.08,1.68,1.32,6093,6416,5914,116,155,85,73,100,0
6043,6353,5884,-62,-77,-39,10240,0.45,-0.08,1.68,1.32,6091,6413,5913,116,155,85,73,100,0
6049,6360,5888,-56,-71,-35,10240,0.45,-0.08,1.68,1.32,6089,6412,5912,116,155,85,73,100,0
6052,6365,5891,-48,-60,-29,10240,0.45,-0.08,1.68,1.32,6088,6410,5911,116,155,85,73,100,0
6057,6370,5894,-38,-49,-22,10240,0.45,-0.08,1.68,1.32,6087,6409,5911,116,155,85,73,100,0
6071,6380,5899,-30,-41,-18,10240,0.45,-0.08,1.68,1.32,6087,6408,5910,116,155,85,73,100,0
6080,6397,5910,-22,-30,-12,10240,0.45,-0.08,1.68,1.32,6086,6407,5910,116,155,85,73,100,0
6082,6406,5915,-14,-19,-5,10240,0.45,-0.08,1.68,1.32,6086,6407,5910,116,155,85,73,100,0
6089,6415,5919,-5,-8,0,10240,0.45,-0.08,1.68,1.32,6086,6408,5911,116,155,85,73,100,0
6098,6427,5924,1,3,6,10240,0.45,-0.08,1.68,1.32,6087,6408,5911,116,155,85,73,100,0
6111,6442,5928,8,14,10,10240,0.45,-0.08,1.68,1.32,6088,6409,5912,116,155,85,73,100,0
6113,6447,5936,15,23,15,10240,0.45,-0.08,1.68,1.32,6088,6411,5913,116,155,85,73,100,0
6117,6452,5940,21,32,19,10240,0.45,-0.08,1.68,1.32,6089,6412,5913,116,155,85,73,100,0
6119,6455,5940,26,37,23,10240,0.45,-0.08,1.68,1.32,6090,6413,5914,116,155,85,73,100,0
6125,6462,5943,28,41,26,10240,0.45,-0.08,1.68,1.32,6092,6415,5915,116,155,85,73,100,0
6140,6476,5947,34,47,28,10240,0.45,-0.08,1.68,1.32,6093,6417,5916,116,155,85,73,100,0
6145,6482,5953,39,52,30,10240,0.45,-0.08,1.68,1.32,6095,6419,5918,116,155,85,73,100,0
6146,6487,5955,44,58,32,10240,0.45,-0.08,1.68,1.32,6097,6422,5919,116,155,85,73,100,0
6147,6492,5958,48,63,35,10240,0.45,-0.08,1.68,1.32,6098,6424,5920,116,155,85,73,100,0
6140,6478,5948,47,62,34,10240,0.45,-0.08,1.68,1.32,6100,6426,5921,115,152,83,73,100,0
6079,6400,5904,29,40,21,10240,0.46,-0.08,1.69,1.34,6099,6425,5920,115,152,83,73,100,0
6054,6371,5887,6,10,4,10240,0.46,-0.08,1.69,1.34,6097,6423,5919,115,152,83,73,100,0
6038,6347,5877,-20,-24,-15,10240,0.46,-0.08,1.69,1.34,6095,6421,5918,115,152,83,72,100,0
6024,6330,5867,-47,-59,-34,10240,0.46,-0.08,1.69,1.34,6093,6417,5916,115,152,83,72,100,0
6013,6316,5861,-61,-77,-43,10240,0.46,-0.08,1.69,1.34,6090,6414,5914,115,152,83,72,100,0
5998,6295,5853,-73,-93,-50,10240,0.46,-0.08,1.69,1.34,6087,6410,5912,115,152,83,72,100,0
5998,6296,5853,-80,-102,-54,10240,0.46,-0.08,1.69,1.34,6084,6406,5910,115,152,83,72,100,0
6005,6305,5859,-82,-105,-54,10240,0.46,-0.08,1.69,1.34,6082,6403,5909,115,152,83,72,100,0
6014,6317,5865,-79,-101,-52,10240,0.46,-0.08,1.69,1.34,6080,6400,5907,115,152,83,72,100,0
6020,6323,5867,-71,-91,-47,10240,0.46,-0.08,1.69,1.34,6078,6398,5906,115,152,83,72,100,0
6030,6335,5877,-61,-79,-39,10240,0.46,-0.08,1.69,1.34,6076,6395,5905,115,152,83,72,100,0
6037,6345,5882,-52,-66,-32,10240,0.46,-0.08,1.69,1.34,6075,6394,5904,115,152,83,72,100,0
6045,6355,5887,-42,-55,-26,10240,0.46,-0.08,1.69,1.34,6074,6392,5904,115,152,83,72,100,0
6054,6367,5894,-33,-42,-19,10240,0.46,-0.08,1.69,1.34,6073,6392,5903,115,152,83,72,100,0
6063,6379,5900,-24,-30,-12,10240,0.46,-0.08,1.69,1.34,6073,6391,5903,115,152,83,72,100,0
6080,6399,5912,-12,-16,-5,10240,0.46,-0.08,1.69,1.34,6073,6391,5904,115,152,83,72,100,0
6082,6406,5916,-3,-3,2,10240,0.46,-0.08,1.69,1.34,6073,6392,5904,115,152,83,72,100,0
6089,6414,5921,5,7,8,10240,0.46,-0.08,1.69,1.34,6074,6393,5904,115,152,83,72,100,0
6098,6427,5926,13,19,14,10240,0.46,-0.08,1.69,1.34,6074,6394,5905,115,152,83,72,100,0
6106,6436,5931,19,27,18,10240,0.46,-0.08,1.69,1.34,6076,6395,5906,115,152,83,72,100,0
6114,6453,5942,26,37,24,10240,0.46,-0.08,1.69,1.34,6077,6397,5907,115,152,83,72,100,0
6122,6460,5946,33,47,29,10240,0.46,-0.08,1.69,1.34,6078,6399,5909,115,152,83,72,100,0
6131,6469,5949,40,56,34,10240,0.46,-0.08,1.69,1.34,6080,6402,5910,115,152,83,72,100,0
6140,6476,5953,47,64,38,10240,0.46,-0.08,1.69,1.34,6082,6404,5911,115,152,83,72,100,0
6147,6484,5956,54,69,40,10240,0.46,-0.08,1.69,1.34,6084,6407,5913,115,152,83,72,100,0
6147,6487,5956,58,73,41,10240,0.46,-0.08,1.69,1.34,6086,6409,5914,115,152,83,72,100,0
6127,6462,5942,55,69,38,10240,0.46,-0.08,1.69,1.34,6088,6411,5915,121,158,86,72,100,0
6094,6421,5919,42,53,29,10240,0.46,-0.08,1.70,1.37,6088,6412,5915,121,158,86,73,100,0
6068,6385,5899,21,28,14,10240,0.46,-0.08,1.70,1.37,6087,6411,5915,121,158,86,73,100,0
6035,6343,5878,-6,-7,-5,10240,0.46,-0.08,1.70,1.37,6086,6408,5914,121,158,86,73,100,0
6022,6328,5871,-31,-40,-22,10240,0.46,-0.08,1.70,1.37,6083,6406,5912,121,158,86,73,100,0
6012,6316,5863,-50,-64,-35,10240,0.46,-0.08,1.70,1.37,6081,6403,5911,121,158,86,73,100,0
6003,6305,5857,-64,-81,-44,10240,0.46,-0.08,1.70,1.37,6078,6399,5909,121,158,86,73,100,0
6001,6303,5858,-70,-88,-47,10240,0.46,-0.08,1.70,1.37,6076,6396,5907,121,158,86,73,100,0
6020,6326,5874,-68,-85,-45,10240,0.46,-0.08,1.70,1.37,6074,6394,5906,121,158,86,73,100,0
6026,6333,5877,-62,-78,-40,10240,0.46,-0.08,1.70,1.37,6072,6392,5905,121,158,86,73,100,0
6030,6340,5882,-54,-67,-32,10240,0.46,-0.08,1.70,1.37,6071,6390,5904,121,158,86,73,100,0
6035,6346,5884,-44,-55,-25,10240,0.46,-0.08,1.70,1.37,6070,6389,5904,121,158,86,73,100,0
6042,6355,5888,-37,-46,-21,10240,0.46,-0.08,1.70,1.37,6069,6388,5903,121,158,86,73,100,0
6053,6372,5898,-29,-35,-15,10240,0.46,-0.08,1.70,1.37,6068,6387,5903,121,158,86,73,100,0
6060,6379,5902,-21,-24,-10,10240,0.46,-0.08,1.70,1.37,6068,6387,5903,121,158,86,73,100,0
6066,6385,5906,-13,-14,-4,10240,0.46,-0.08,1.70,1.37,6068,6387,5903,121,158,86,73,100,0
6070,6389,5908,-5,-5,0,10240,0.46,-0.08,1.70,1.37,6068,6387,5903,121,158,86,73,100,0
6077,6396,5912,0,0,4,10240,0.46,-0.08,1.70,1.37,6068,6387,5903,121,158,86,73,100,0
6083,6408,5918,5,7,7,10240,0.46,-0.08,1.70,1.37,6069,6388,5904,121,158,86,73,100,0
6086,6412,5920,10,13,11,10240,0.46,-0.08,1.70,1.37,6069,6389,5904,121,158,86,73,100,0
6089,6418,5923,14,20,14,10240,0.46,-0.08,1.70,1.37,6070,6389,5905,121,158,86,73,100,0
6092,6423,5925,17,26,16,10240,0.46,-0.08,1.70,1.37,6071,6391,5906,121,158,86,73,100,0
6099,6431,5929,21,30,19,10240,0.46,-0.08,1.70,1.37,6072,6392,5906,121,158,86,73,100,0
6111,6444,5937,26,37,22,10240,0.46,-0.08,1.70,1.37,6073,6394,5907,121,158,86,73,100,0
6115,6451,5941,31,44,26,10240,0.46,-0.08,1.70,1.37,6074,6396,5909,121,158,86,73,100,0
6118,6456,5942,37,50,29,10240,0.46,-0.08,1.70,1.37,6076,6398,5910,121,158,86,73,100,0
6111,6445,5935,38,52,29,10240,0.46,-0.08,1.70,1.37,6077,6399,5911,121,158,86,73,100,0
6084,6409,5915,31,42,23,10240,0.46,-0.08,1.70,1.37,6077,6399,5911,118,154,83,73,100,0
6032,6339,5878,9,14,7,10240,0.46,-0.08,1.71,1.38,6076,6397,5910,118,154,83,73,100,0
6015,6318,5864,-15,-19,-12,10240,0.46,-0.08,1.71,1.38,6074,6395,5908,118,154,83,73,100,0
6002,6302,5856,-41,-53,-30,10240,0.46,-0.08,1.71,1.38,6071,6392,5906,118,154,83,73,100,0
5993,6291,5852,-62,-80,-44,10240,0.46,-0.08,1.71,1.38,6069,6388,5905,118,154,83,73,100,0
5983,6279,5846,-71,-92,-51,10240,0.46,-0.08,1.71,1.38,6066,6385,5903,118,154,83,73,100,0
5984,6280,5848,-76,-98,-53,10240,0.46,-0.08,1.71,1.38,6063,6381,5901,118,154,83,73,100,0
5992,6294,5854,-76,-97,-52,10240,0.46,-0.08,1.71,1.38,6061,6378,5899,118,154,83,73,100,0
6000,6302,5859,-72,-91,-48,10240,0.46,-0.08,1.71,1.38,6059,6376,5898,118,154,83,73,100,0
6006,6309,5862,-64,-81,-43,10240,0.46,-0.08,1.71,1.38,6057,6374,5897,118,154,83,73,100,0
6013,6316,5867,-55,-69,-37,10240,0.46,-0.08,1.71,1.38,6056,6372,5896,118,154,83,73,100,0
6025,6328,5876,-45,-59,-30,10240,0.46,-0.08,1.71,1.38,6055,6370,5895,118,154,83,73,100,0
6031,6338,5880,-36,-48,-24,10240,0.46,-0.08,1.71,1.38,6054,6369,5894,118,154,83,73,100,0
6037,6348,5884,-28,-37,-18,10240,0.46,-0.08,1.71,1.38,6053,6368,5894,118,154,83,73,100,0
6043,6357,5889,-19,-26,-12,10240,0.46,-0.08,1.71,1.38,6053,6368,5894,118,154,83,73,100,0
6051,6368,5894,-12,-15,-7,10240,0.46,-0.08,1.71,1.38,6053,6368,5894,118,154,83,73,100,0
6063,6382,5901,-4,-4,-2,10240,0.46,-0.08,1.71,1.38,6053,6369,5894,118,154,83,73,100,0
6067,6387,5905,2,5,3,10240,0.46,-0.08,1.71,1.38,6054,6369,5895,118,154,83,73,100,0
6073,6392,5907,10,13,7,10240,0.46,-0.08,1.71,1.38,6054,6370,5895,118,154,83,73,100,0
6077,6397,5911,16,19,11,10240,0.46,-0.08,1.71,1.38,6055,6371,5895,118,154,83,73,100,0
6081,6401,5912,19,23,13,10240,0.46,-0.08,1.71,1.38,6056,6372,5896,118,154,83,73,100,0
6085,6411,5918,23,28,16,10240,0.46,-0.08,1.71,1.38,6057,6373,5897,118,154,83,73,100,0
6087,6416,5919,26,33,18,10240,0.46,-0.08,1.71,1.38,6058,6375,5898,118,154,83,73,100,0
6093,6420,5920,29,38,20,10240,0.46,-0.08,1.71,1.38,6059,6376,5898,118,154,83,73,100,0
6096,6424,5923,31,42,22,10240,0.46,-0.08,1.71,1.38,6060,6378,5899,118,154,83,73,100,0
6098,6425,5923,34,44,22,10240,0.46,-0.08,1.71,1.38,6061,6379,5900,118,154,83,73,100,0
6052,6364,5885,24,30,13,10240,0.46,-0.08,1.71,1.38,6061,6379,5899,116,151,81,73,100,0
6017,6322,5861,5,5,-1,10240,0.46,-0.08,1.72,1.39,6060,6377,5898,116,151,81,73,100,0
5998,6294,5848,-18,-26,-19,10240,0.46,-0.08,1.72,1.39,6058,6374,5896,116,151,81,73,100,0
5978,6269,5836,-47,-63,-39,10240,0.46,-0.08,1.72,1.39,6055,6371,5894,116,151,81,73,100,0
5956,6250,5828,-69,-88,-51,10240,0.46,-0.08,1.72,1.39,6052,6366,5892,116,151,81,73,100,0
5947,6228,5815,-83,-108,-61,10240,0.46,-0.08,1.72,1.39,6048,6362,5890,116,151,81,73,100,0
5939,6218,5812,-95,-122,-68,10240,0.46,-0.08,1.72,1.39,6045,6357,5887,116,151,81,73,100,0
5940,6219,5812,-101,-130,-71,10240,0.46,-0.08,1.72,1.39,6041,6352,5885,116,151,81,73,100,0
5949,6229,5817,-99,-131,-72,10240,0.46,-0.08,1.72,1.39,6038,6348,5882,116,151,81,73,100,0
5964,6246,5824,-91,-122,-67,10240,0.46,-0.08,1.72,1.39,6035,6345,5880,116,151,81,73,100,0
5967,6250,5831,-81,-110,-60,10240,0.46,-0.08,1.72,1.39,6033,6342,5879,116,151,81,73,100,0
5971,6256,5832,-71,-98,-53,10240,0.46,-0.08,1.72,1.39,6031,6339,5877,116,151,81,73,100,0
5976,6262,5837,-62,-87,-47,10240,0.46,-0.08,1.72,1.39,6029,6336,5876,116,151,81,73,100,0
5983,6274,5842,-56,-77,-41,10240,0.46,-0.08,1.72,1.39,6028,6334,5875,116,151,81,73,100,0
5999,6293,5852,-46,-64,-34,10240,0.46,-0.08,1.72,1.39,6027,6333,5874,116,151,81,73,100,0
6003,6299,5855,-37,-51,-28,10240,0.46,-0.08,1.72,1.39,6026,6332,5873,116,151,81,73,100,0
6009,6308,5858,-28,-39,-22,10240,0.46,-0.08,1.72,1.39,6025,6331,5873,116,151,81,73,100,0
6015,6316,5863,-19,-27,-16,10240,0.46,-0.08,1.72,1.39,6025,6331,5872,116,151,81,73,100,0
6022,6323,5867,-13,-19,-11,10240,0.46,-0.08,1.72,1.39,6025,6330,5872,116,151,81,73,100,0
6031,6335,5874,-5,-10,-6,10240,0.46,-0.08,1.72,1.39,6025,6330,5872,116,151,81,73,100,0
6037,6341,5876,1,-1,-2,10240,0.46,-0.08,1.72,1.39,6026,6331,5873,116,151,81,73,100,0
6041,6347,5878,7,6,1,10240,0.46,-0.08,1.72,1.39,6026,6331,5873,116,151,81,73,100,0
6045,6353,5881,12,13,4,10240,0.46,-0.08,1.72,1.39,6027,6332,5873,116,151,81,73,100,0
6050,6358,5885,16,18,7,10240,0.46,-0.08,1.72,1.39,6028,6333,5873,116,151,81,73,100,0
6060,6373,5892,21,25,10,10240,0.46,-0.08,1.72,1.39,6029,6334,5874,116,151,81,73,100,0
6064,6379,5895,26,32,14,10240,0.46,-0.08,1.72,1.39,6030,6336,5875,116,151,81,73,100,0
6066,6379,5895,30,37,17,10240,0.46,-0.08,1.72,1.39,6031,6337,5875,116,151,81,73,100,0
6049,6357,5880,29,35,15,10240,0.46,-0.08,1.72,1.39,6032,6338,5876,119,155,83,73,100,0
6016,6315,5856,17,20,6,10240,0.46,-0.08,1.73,1.40,6031,6337,5875,119,155,83,73,100,0
5971,6251,5825,-5,-11,-10,10240,0.46,-0.08,1.73,1.40,6029,6334,5873,119,155,83,73,100,0
5957,6234,5817,-31,-45,-29,10240,0.46,-0.08,1.73,1.40,6027,6331,5871,119,155,83,73,100,0
5948,6227,5812,-54,-75,-44,10240,0.46,-0.08,1.73,1.40,6024,6327,5869,119,155,83,73,100,0
5941,6216,5808,-71,-97,-54,10240,0.46,-0.08,1.73,1.40,6021,6324,5867,119,155,83,73,100,0
5931,6205,5802,-78,-105,-58,10240,0.46,-0.08,1.73,1.40,6018,6320,5865,119,155,83,73,100,0
5933,6208,5806,-81,-107,-59,10240,0.46,-0.08,1.73,1.40,6015,6316,5863,119,155,83,73,100,0
5946,6223,5814,-79,-105,-56,10240,0.46,-0.08,1.73,1.40,6013,6313,5862,119,155,83,73,100,0
5957,6234,5822,-72,-97,-51,10240,0.46,-0.08,1.73,1.40,6011,6310,5860,119,155,83,73,100,0
5964,6243,5825,-62,-84,-44,10240,0.46,-0.08,1.73,1.40,6010,6308,5859,119,155,83,73,100,0
5971,6254,5830,-51,-70,-37,10240,0.46,-0.08,1.73,1.40,6008,6306,5858,119,155,83,73,100,0
5983,6271,5839,-40,-56,-29,10240,0.46,-0.08,1.73,1.40,6008,6305,5857,119,155,83,73,100,0
5993,6284,5846,-30,-42,-22,10240,0.46,-0.08,1.73,1.40,6007,6304,5857,119,155,83,73,100,0
6000,6296,5853,-20,-28,-15,10240,0.46,-0.08,1.73,1.40,6007,6304,5857,119,155,83,73,100,0
6008,6304,5856,-11,-15,-8,10240,0.46,-0.08,1.73,1.40,6007,6304,5857,119,155,83,73,100,0
6014,6312,5859,-3,-5,-3,10240,0.46,-0.08,1.73,1.40,6007,6304,5857,119,155,83,73,100,0
6029,6331,5871,5,6,2,10240,0.46,-0.08,1.73,1.40,6008,6305,5857,119,155,83,73,100,0
6036,6340,5875,14,17,8,10240,0.46,-0.08,1.73,1.40,6009,6306,5858,119,155,83,73,100,0
6043,6349,5880,22,27,13,10240,0.46,-0.08,1.73,1.40,6010,6308,5859,119,155,83,73,100,0
6048,6354,5882,29,36,18,10240,0.46,-0.08,1.73,1.40,6011,6309,5860,119,155,83,73,100,0
6052,6361,5884,34,42,21,10240,0.46,-0.08,1.73,1.40,6012,6311,5860,119,155,83,73,100,0
6064,6377,5892,40,50,24,10240,0.46,-0.08,1.73,1.40,6014,6313,5861,119,155,83,73,100,0
6069,6382,5897,45,56,27,10240,0.46,-0.08,1.73,1.40,6016,6316,5863,119,155,83,73,100,0
6074,6386,5899,49,62,31,10240,0.46,-0.08,1.73,1.40,6018,6318,5864,119,155,83,73,100,0
6079,6394,5903,54,67,34,10240,0.46,-0.08,1.73,1.40,6020,6321,5865,119,155,83,73,100,0
6084,6400,5906,57,71,36,10240,0.46,-0.08,1.73,1.40,6022,6323,5866,119,155,83,74,100,0
6071,6385,5895,56,69,35,10240,0.46,-0.08,1.73,1.40,6024,6325,5867,124,161,86,74,100,0
6041,6348,5873,46,58,27,10240,0.46,-0.08,1.74,1.40,6024,6326,5868,124,161,86,74,100,0
6014,6312,5852,29,36,14,10240,0.46,-0.08,1.74,1.40,6024,6326,5867,124,161,86,74,100,0
5997,6289,5842,7,8,-1,10240,0.46,-0.08,1.74,1.40,6023,6324,5866,124,161,86,74,100,0
5981,6270,5831,-15,-19,-17,10240,0.46,-0.08,1.74,1.40,6022,6322,5865,124,161,86,74,100,0
5965,6245,5820,-33,-44,-29,10240,0.46,-0.08,1.74,1.40,6020,6320,5864,124,161,86,74,100,0
5957,6235,5816,-45,-61,-37,10240,0.46,-0.08,1.74,1.40,6018,6317,5862,124,161,86,74,100,0
5957,6232,5815,-54,-72,-42,10240,0.46,-0.08,1.74,1.40,6016,6314,5860,124,161,86,74,100,0
5960,6240,5819,-57,-77,-43,10240,0.46,-0.08,1.74,1.40,6014,6312,5859,124,161,86,74,100,0
5970,6253,5825,-54,-73,-41,10240,0.46,-0.08,1.74,1.40,6012,6310,5858,124,161,86,74,100,0
5981,6268,5833,-46,-62,-35,10240,0.46,-0.08,1.74,1.40,6011,6308,5857,124,161,86,74,100,0
5986,6276,5836,-37,-50,-29,10240,0.46,-0.08,1.74,1.40,6010,6307,5856,124,161,86,74,100,0
5994,6287,5844,-28,-37,-22,10240,0.46,-0.08,1.74,1.40,6010,6307,5856,124,161,86,74,100,0
6002,6297,5849,-19,-25,-15,10240,0.46,-0.08,1.74,1.40,6010,6306,5856,124,161,86,74,100,0
6010,6308,5855,-12,-14,-10,10240,0.46,-0.08,1.74,1.40,6010,6306,5856,124,161,86,74,100,0
6026,6329,5866,-2,-1,-2,10240,0.46,-0.08,1.74,1.40,6010,6307,5856,124,161,86,74,100,0
6033,6338,5871,7,11,4,10240,0.46,-0.08,1.74,1.40,6011,6308,5857,124,161,86,74,100,0
6041,6347,5876,16,22,10,10240,0.46,-0.08,1.74,1.40,6012,6310,5857,124,161,86,74,100,0
6046,6351,5878,25,32,15,10240,0.46,-0.08,1.74,1.40,6013,6311,5858,124,161,86,74,100,0
6050,6356,5880,30,37,18,10240,0.46,-0.08,1.74,1.40,6014,6312,5859,124,161,86,74,100,0
6060,6371,5888,35,44,22,10240,0.46,-0.08,1.74,1.40,6016,6314,5860,124,161,86,74,100,0
6064,6375,5890,40,50,24,10240,0.46,-0.08,1.74,1.40,6017,6316,5861,124,161,86,74,100,0
6070,6381,5893,44,55,27,10240,0.46,-0.08,1.74,1.40,6019,6319,5862,124,161,86,74,100,0
6074,6384,5896,48,60,30,10240,0.46,-0.08,1.74,1.40,6021,6321,5863,124,161,86,74,100,0
6083,6390,5899,52,62,32,10240,0.46,-0.08,1.74,1.40,6023,6323,5864,124,161,86,74,100,0
6085,6401,5903,56,66,34,10240,0.46,-0.08,1.74,1.40,6025,6326,5865,124,161,86,74,100,0
6084,6402,5903,57,69,35,10240,0.46,-0.08,1.74,1.40,6027,6328,5867,124,161,86,74,100,0
6072,6383,5890,55,67,33,10240,0.46,-0.08,1.74,1.40,6029,6330,5867,122,157,84,74,100,0
6039,6341,5864,42,53,23,10240,0.46,-0.08,1.73,1.41,6029,6330,5867,122,157,84,74,100,0
5992,6279,5846,18,22,8,10240,0.46,-0.08,1.73,1.41,6028,6329,5867,122,157,84,74,100,0
5980,6261,5824,-7,-12,-10,10240,0.46,-0.08,1.73,1.41,6026,6326,5865,122,157,84,74,100,0
5968,6243,5815,-32,-46,-28,10240,0.46,-0.08,1.73,1.41,6024,6324,5863,122,157,84,74,100,0
5959,6233,5810,-50,-71,-40,10240,0.46,-0.08,1.73,1.41,6022,6321,5862,122,157,84,74,100,0
5950,6226,5803,-58,-81,-49,10240,0.46,-0.08,1.73,1.41,6020,6317,5860,122,157,84,74,100,0
5949,6220,5803,-64,-88,-53,10240,0.46,-0.08,1.73,1.41,6017,6314,5858,122,157,84,74,100,0
5956,6229,5808,-65,-88,-53,10240,0.46,-0.08,1.73,1.41,6015,6311,5856,122,157,84,74,100,0
5958,6232,5809,-63,-86,-51,10240,0.46,-0.08,1.73,1.41,6013,6309,5855,122,157,84,74,100,0
5960,6232,5808,-58,-81,-48,10240,0.46,-0.08,1.73,1.41,6012,6306,5853,122,157,84,74,100,0
5963,6233,5811,-53,-76,-45,10240,0.46,-0.08,1.73,1.41,6010,6304,5852,122,157,84,74,100,0
5969,6238,5812,-48,-71,-42,10240,0.46,-0.08,1.73,1.41,6009,6302,5850,122,157,84,74,100,0
5972,6243,5814,-43,-66,-39,10240,0.46,-0.08,1.73,1.41,6007,6300,5849,122,157,84,74,100,0
5974,6246,5815,-38,-61,-36,10240,0.46,-0.08,1.73,1.41,6006,6298,5848,122,157,84,74,100,0
5978,6251,5816,-33,-54,-34,10240,0.46,-0.08,1.73,1.41,6005,6296,5847,122,157,84,74,100,0
5981,6255,5817,-29,-48,-32,10240,0.46,-0.08,1.73,1.41,6005,6295,5846,122,157,84,74,100,0
5983,6255,5815,-26,-43,-30,10240,0.46,-0.08,1.73,1.41,6004,6293,5845,122,157,84,74,100,0
5984,6256,5815,-22,-39,-29,10240,0.46,-0.08,1.73,1.41,6003,6292,5844,122,157,84,74,100,0
5985,6257,5816,-20,-37,-28,10240,0.46,-0.08,1.73,1.41,6003,6291,5843,122,157,84,74,100,0
5989,6263,5817,-17,-33,-27,10240,0.46,-0.08,1.73,1.41,6002,6290,5842,122,157,84,74,100,0
5993,6267,5818,-14,-29,-26,10240,0.46,-0.08,1.73,1.41,6002,6289,5841,122,157,84,74,100,0
6001,6275,5823,-10,-24,-23,10240,0.46,-0.08,1.73,1.41,6002,6289,5841,122,157,84,74,100,0
6002,6278,5823,-5,-18,-20,10240,0.46,-0.08,1.73,1.41,6002,6289,5840,122,157,84,74,100,0
6005,6280,5825,-1,-13,-18,10240,0.46,-0.08,1.73,1.41,6002,6288,5840,122,157,84,74,100,0
6008,6286,5826,2,-8,-15,10240,0.46,-0.08,1.73,1.41,6002,6288,5839,122,157,84,74,100,0
6009,6290,5827,4,-4,-14,10240,0.46,-0.08,1.73,1.41,6002,6288,5839,122,157,84,74,100,0
5989,6261,5811,0,-8,-16,10240,0.46,-0.08,1.73,1.41,6002,6287,5838,108,139,73,74,100,0
5959,6225,5788,-10,-21,-25,10240,0.46,-0.08,1.77,1.44,6000,6285,5836,108,139,73,74,100,0
5936,6195,5773,-27,-42,-37,10240,0.46,-0.08,1.77,1.44,5998,6282,5834,108,139,73,74,100,0
5920,6175,5763,-48,-69,-51,10240,0.46,-0.08,1.77,1.44,5996,6279,5832,108,139,73,74,100,0
5902,6151,5756,-67,-93,-62,10240,0.46,-0.08,1.77,1.44,5993,6274,5829,108,139,73,74,100,0
5896,6144,5748,-80,-110,-70,10240,0.46,-0.08,1.77,1.44,5989,6270,5826,108,139,73,74,100,0
5890,6140,5744,-89,-119,-75,10240,0.46,-0.08,1.77,1.44,5986,6266,5824,108,139,73,74,100,0
5891,6140,5746,-93,-124,-76,10240,0.46,-0.08,1.77,1.44,5983,6262,5821,108,139,73,74,100,0
5898,6146,5752,-90,-121,-75,10240,0.46,-0.08,1.77,1.44,5980,6258,5819,108,139,73,74,100,0
5916,6169,5765,-83,-111,-68,10240,0.46,-0.08,1.77,1.44,5978,6255,5817,108,139,73,74,100,0
5922,6177,5770,-72,-98,-59,10240,0.46,-0.08,1.77,1.44,5976,6252,5815,108,139,73,74,100,0
5928,6184,5772,-61,-84,-51,10240,0.46,-0.08,1.77,1.44,5974,6250,5814,108,139,73,74,100,0
5931,6188,5773,-51,-71,-44,10240,0.46,-0.08,1.77,1.44,5973,6248,5813,108,139,73,74,100,0
5937,6196,5778,-44,-62,-40,10240,0.46,-0.08,1.77,1.44,5972,6246,5811,108,139,73,74,100,0
5947,6206,5785,-36,-53,-35,10240,0.46,-0.08,1.77,1.44,5971,6245,5811,108,139,73,74,100,0
5950,6213,5787,-30,-45,-30,10240,0.46,-0.08,1.77,1.44,5970,6244,5810,108,139,73,74,100,0
5954,6220,5791,-23,-35,-25,10240,0.46,-0.08,1.77,1.44,5970,6243,5809,108,139,73,74,100,0
5962,6230,5797,-16,-26,-19,10240,0.46,-0.08,1.77,1.44,5969,6242,5809,108,139,73,74,100,0
5971,6236,5802,-10,-18,-14,10240,0.46,-0.08,1.77,1.44,5970,6242,5808,108,139,73,74,100,0
5985,6258,5813,-1,-6,-8,10240,0.46,-0.08,1.77,1.44,5970,6243,5809,108,139,73,74,100,0
5993,6269,5819,7,5,-1,10240,0.46,-0.08,1.77,1.44,5971,6244,5809,108,139,73,74,100,0
5999,6275,5821,16,16,5,10240,0.46,-0.08,1.77,1.44,5972,6245,5809,108,139,73,74,100,0
6004,6281,5824,23,26,10,10240,0.46,-0.08,1.77,1.44,5973,6246,5810,108,139,73,74,100,0
6009,6287,5827,28,32,13,10240,0.46,-0.08,1.77,1.44,5974,6247,5810,108,139,73,74,100,0
6021,6303,5836,34,39,17,10240,0.46,-0.08,1.77,1.44,5976,6249,5811,108,139,73,74,100,0
6027,6312,5841,40,47,21,10240,0.46,-0.08,1.77,1.44,5977,6251,5812,108,139,73,74,100,0
6034,6324,5849,46,56,26,10240,0.46,-0.08,1.77,1.44,5979,6254,5814,108,139,73,74,100,0
6044,6340,5856,53,67,32,10240,0.46,-0.08,1.77,1.44,5981,6257,5815,108,139,73,74,100,0
6049,6345,5859,58,75,37,10240,0.46,-0.08,1.77,1.44,5984,6259,5816,108,139,73,74,100,0
6015,6302,5831,53,70,33,10240,0.46,-0.08,1.77,1.44,5985,6261,5817,119,154,83,74,100,0
6000,6282,5821,43,57,25,10240,0.46,-0.08,1.72,1.39,5985,6262,5817,119,154,83,74,100,0
5990,6270,5814,28,38,14,10240,0.46,-0.08,1.72,1.39,5985,6262,5817,119,154,83,74,100,0
5982,6258,5810,11,16,2,10240,0.46,-0.08,1.72,1.39,5985,6262,5817,119,154,83,74,100,0
5977,6251,5807,2,3,-3,10240,0.46,-0.08,1.72,1.39,5985,6261,5816,119,154,83,74,100,0
5966,6236,5800,-6,-7,-8,10240,0.46,-0.08,1.72,1.39,5984,6261,5816,119,154,83,74,100,0
5969,6238,5802,-11,-15,-11,10240,0.46,-0.08,1.72,1.39,5984,6260,5815,119,154,83,74,100,0
5977,6252,5811,-12,-16,-10,10240,0.46,-0.08,1.72,1.39,5984,6259,5815,119,154,83,74,100,0
5987,6267,5818,-9,-11,-7,10240,0.46,-0.08,1.72,1.39,5984,6260,5815,119,154,83,74,100,0
5996,6279,5824,-1,0,-1,10240,0.46,-0.08,1.72,1.39,5984,6260,5816,119,154,83,74,100,0
6011,6299,5835,8,14,6,10240,0.46,-0.08,1.72,1.39,5985,6262,5816,119,154,83,74,100,0
6019,6306,5842,18,26,13,10240,0.46,-0.08,1.72,1.39,5986,6263,5817,119,154,83,74,100,0
6024,6312,5842,27,36,19,10240,0.46,-0.08,1.72,1.39,5987,6265,5818,119,154,83,74,100,0
6028,6318,5846,33,44,23,10240,0.46,-0.08,1.72,1.39,5989,6267,5819,119,154,83,74,100,0
6032,6326,5848,37,49,26,10240,0.46,-0.08,1.72,1.39,5990,6269,5820,119,154,83,74,100,0
6042,6339,5854,42,55,28,10240,0.46,-0.08,1.72,1.39,5992,6271,5821,119,154,83,74,100,0
6046,6342,5857,45,61,30,10240,0.46,-0.08,1.72,1.39,5994,6273,5822,119,154,83,74,100,0
6050,6348,5859,49,66,33,10240,0.46,-0.08,1.72,1.39,5996,6276,5823,119,154,83,74,100,0
6054,6353,5861,53,71,35,10240,0.46,-0.08,1.72,1.39,5997,6278,5825,119,154,83,74,100,0
6059,6359,5864,55,73,36,10240,0.46,-0.08,1.72,1.39,6000,6281,5826,119,154,83,74,100,0
6065,6367,5867,58,77,37,10240,0.46,-0.08,1.72,1.39,6002,6284,5827,119,154,83,74,100,0
6069,6371,5870,61,80,38,10240,0.46,-0.08,1.72,1.39,6004,6287,5829,119,154,83,74,100,0
6075,6378,5874,64,83,40,10240,0.46,-0.08,1.72,1.39,6006,6290,5830,119,154,83,74,100,0
6082,6385,5878,67,86,42,10240,0.46,-0.08,1.72,1.39,6009,6293,5832,119,154,83,74,100,0
6085,6388,5881,70,89,44,10240,0.46,-0.08,1.72,1.39,6011,6296,5834,119,154,83,74,100,0
6091,6402,5886,73,93,47,10240,0.46,-0.08,1.72,1.39,6014,6300,5835,119,154,83,74,100,0
6083,6392,5878,72,93,46,10240,0.46,-0.08,1.72,1.39,6016,6303,5837,111,154,77,74,100,0
6060,6362,5859,65,85,40,10240,0.46,-0.08,1.85,1.40,6018,6305,5837,111,142,77,74,100,0
6037,6330,5843,51,68,29,10240,0.46,-0.08,1.85,1.40,6018,6306,5838,111,142,77,74,100,0
6021,6309,5831,32,43,15,10240,0.46,-0.08,1.85,1.40,6019,6306,5837,111,142,77,74,100,0
6000,6281,5817,11,15,0,10240,0.46,-0.08,1.85,1.40,6018,6305,5837,111,142,77,74,100,0
5992,6271,5812,-5,-7,-11,10240,0.46,-0.08,1.85,1.40,6017,6304,5836,111,142,77,74,100,0
5987,6265,5811,-17,-22,-18,10240,0.46,-0.08,1.85,1.40,6016,6302,5835,111,142,77,74,100,0
5986,6263,5810,-25,-33,-23,10240,0.46,-0.08,1.85,1.40,6015,6301,5834,111,142,77,74,100,0
5988,6267,5813,-27,-35,-23,10240,0.46,-0.08,1.85,1.40,6014,6300,5834,111,142,77,74,100,0
6005,6288,5824,-23,-30,-19,10240,0.46,-0.08,1.85,1.40,6014,6300,5833,111,142,77,74,100,0
6010,6296,5827,-17,-21,-15,10240,0.46,-0.08,1.85,1.40,6014,6299,5833,111,142,77,74,100,0
6015,6300,5831,-9,-11,-9,10240,0.46,-0.08,1.85,1.40,6014,6299,5833,111,142,77,74,100,0
6020,6308,5836,-1,-1,-3,10240,0.46,-0.08,1.85,1.40,6014,6300,5833,111,142,77,74,100,0
6026,6316,5842,3,5,1,10240,0.46,-0.08,1.85,1.40,6014,6300,5833,111,142,77,74,100,0
6041,6338,5852,11,15,7,10240,0.46,-0.08,1.85,1.40,6015,6302,5834,111,142,77,74,100,0
6047,6345,5856,18,25,12,10240,0.46,-0.08,1.85,1.40,6016,6303,5835,111,142,77,74,100,0
6056,6356,5861,26,36,18,10240,0.46,-0.08,1.85,1.40,6018,6305,5836,111,142,77,74,100,0
6064,6365,5867,35,46,23,10240,0.46,-0.08,1.85,1.40,6019,6307,5837,111,142,77,74,100,0
6071,6372,5870,41,53,27,10240,0.46,-0.08,1.85,1.40,6021,6309,5838,111,142,77,74,100,0
6082,6383,5877,48,61,31,10240,0.46,-0.08,1.85,1.40,6023,6311,5839,111,142,77,74,100,0
6085,6388,5880,53,66,35,10240,0.46,-0.08,1.85,1.40,6025,6314,5840,111,142,77,74,100,0
6087,6394,5882,57,71,37,10240,0.46,-0.08,1.85,1.40,6027,6317,5842,111,142,77,74,100,0
6091,6399,5885,60,75,40,10240,0.46,-0.08,1.85,1.40,6029,6319,5843,111,142,77,74,100,0
6097,6407,5888,62,79,41,10240,0.46,-0.08,1.85,1.40,6031,6322,5845,111,142,77,74,100,0
6108,6420,5897,65,84,44,10240,0.46,-0.08,1.85,1.40,6034,6326,5846,111,142,77,74,100,0
6114,6425,5899,69,88,46,10240,0.46,-0.08,1.85,1.40,6037,6329,5848,111,142,77,74,100,0
6119,6434,5902,74,94,49,10240,0.46,-0.08,1.85,1.40,6039,6332,5850,111,142,77,74,100,0
6111,6424,5896,75,95,49,10240,0.46,-0.08,1.85,1.40,6042,6335,5852,111,142,77,74,100,0
6059,6393,5875,60,85,42,10240,0.46,-0.08,1.85,1.40,6042,6337,5852,108,139,76,74,100,0
6042,6333,5841,41,60,27,10240,0.49,-0.08,1.69,1.38,6042,6337,5852,108,139,76,74,100,0
6027,6314,5831,17,29,9,10240,0.49,-0.08,1.69,1.38,6042,6336,5851,108,139,76,74,100,0
6017,6300,5824,-5,-1,-8,10240,0.49,-0.08,1.69,1.38,6041,6335,5850,108,139,76,74,100,0
6009,6290,5818,-17,-26,-22,10240,0.49,-0.08,1.69,1.38,6040,6334,5849,108,139,76,74,100,0
5998,6276,5815,-27,-39,-27,10240,0.49,-0.08,1.69,1.38,6039,6332,5848,108,139,76,74,100,0
5997,6275,5815,-34,-47,-30,10240,0.49,-0.08,1.69,1.38,6037,6330,5847,108,139,76,74,100,0
6003,6284,5820,-36,-49,-30,10240,0.49,-0.08,1.69,1.38,6036,6328,5846,108,139,76,74,100,0
6013,6297,5827,-34,-46,-27,10240,0.49,-0.08,1.69,1.38,6035,6327,5846,108,139,76,74,100,0
6019,6304,5832,-27,-38,-22,10240,0.49,-0.08,1.69,1.38,6035,6327,5845,108,139,76,74,100,0
6029,6315,5840,-19,-27,-15,10240,0.49,-0.08,1.69,1.38,6035,6326,5845,108,139,76,74,100,0
6034,6322,5843,-11,-17,-9,10240,0.49,-0.08,1.69,1.38,6035,6326,5845,108,139,76,74,100,0
6040,6331,5847,-4,-8,-4,10240,0.49,-0.08,1.69,1.38,6035,6326,5845,108,139,76,74,100,0
6047,6339,5853,2,0,0,10240,0.49,-0.08,1.69,1.38,6035,6327,5845,108,139,76,74,100,0
6051,6345,5856,7,7,4,10240,0.49,-0.08,1.69,1.38,6036,6327,5846,108,139,76,74,100,0
6068,6364,5867,15,17,10,10240,0.49,-0.08,1.69,1.38,6037,6328,5846,108,139,76,74,100,0
6074,6373,5870,23,27,15,10240,0.49,-0.08,1.69,1.38,6038,6330,5847,108,139,76,74,100,0
6080,6380,5876,30,36,20,10240,0.49,-0.08,1.69,1.38,6039,6332,5848,108,139,76,74,100,0
6084,6386,5878,37,45,25,10240,0.49,-0.08,1.69,1.38,6041,6333,5849,108,139,76,74,100,0
6088,6394,5883,41,50,28,10240,0.49,-0.08,1.69,1.38,6042,6335,5850,108,139,76,74,100,0
6098,6406,5888,46,57,31,10240,0.49,-0.08,1.69,1.38,6044,6338,5851,108,139,76,74,100,0
6101,6410,5890,49,62,34,10240,0.49,-0.08,1.69,1.38,6046,6340,5853,108,139,76,74,100,0
6105,6417,5894,53,67,36,10240,0.49,-0.08,1.69,1.38,6048,6343,5854,108,139,76,74,100,0
6111,6422,5896,56,72,38,10240,0.49,-0.08,1.69,1.38,6050,6345,5855,108,139,76,74,100,0
6115,6427,5899,59,75,40,10240,0.49,-0.08,1.69,1.38,6052,6348,5857,108,139,76,74,100,0
6124,6437,5905,62,79,42,10240,0.49,-0.08,1.69,1.38,6055,6351,5859,108,139,76,74,100,0
6120,6433,5900,64,80,42,10240,0.49,-0.08,1.69,1.38,6057,6354,5860,108,139,76,75,100,0
6098,6407,5883,58,73,37,10240,0.49,-0.08,1.69,1.38,6058,6356,5861,106,137,75,75,100,0
6072,6371,5859,46,57,26,10240,0.49,-0.08,1.68,1.37,6059,6356,5861,106,137,75,75,100,0
6049,6340,5843,26,32,10,10240,0.49,-0.08,1.68,1.37,6058,6356,5860,106,137,75,75,100,0
6020,6303,5824,1,0,-8,10240,0.49,-0.08,1.68,1.37,6057,6354,5859,106,137,75,75,100,0
6010,6290,5817,-19,-28,-23,10240,0.49,-0.08,1.68,1.37,6056,6352,5857,106,137,75,75,100,0
6001,6281,5813,-36,-49,-33,10240,0.49,-0.08,1.68,1.37,6054,6349,5856,106,137,75,75,100,0
5996,6274,5810,-48,-63,-40,10240,0.49,-0.08,1.68,1.37,6052,6347,5854,106,137,75,75,100,0
5992,6267,5809,-53,-70,-42,10240,0.49,-0.08,1.68,1.37,6050,6344,5853,106,137,75,75,100,0
6005,6284,5818,-52,-69,-41,10240,0.49,-0.08,1.68,1.37,6048,6342,5852,106,137,75,75,100,0
6012,6295,5822,-48,-63,-37,10240,0.49,-0.08,1.68,1.37,6047,6341,5851,106,137,75,75,100,0
6016,6299,5826,-41,-55,-32,10240,0.49,-0.08,1.68,1.37,6046,6339,5850,106,137,75,75,100,0
6020,6304,5829,-33,-44,-26,10240,0.49,-0.08,1.68,1.37,6045,6338,5849,106,137,75,75,100,0
6027,6314,5836,-27,-35,-21,10240,0.49,-0.08,1.68,1.37,6045,6337,5849,106,137,75,75,100,0
6042,6334,5847,-19,-25,-14,10240,0.49,-0.08,1.68,1.37,6045,6337,5849,106,137,75,75,100,0
6049,6342,5852,-10,-13,-8,10240,0.49,-0.08,1.68,1.37,6045,6337,5849,106,137,75,75,100,0
6054,6350,5856,-2,-2,-1,10240,0.49,-0.08,1.68,1.37,6045,6338,5849,106,137,75,75,100,0
6062,6361,5861,6,9,5,10240,0.49,-0.08,1.68,1.37,6046,6338,5849,106,137,75,75,100,0
6070,6370,5865,13,17,9,10240,0.49,-0.08,1.68,1.37,6046,6340,5850,106,137,75,75,100,0
6086,6387,5877,21,27,15,10240,0.49,-0.08,1.68,1.37,6048,6341,5851,106,137,75,75,100,0
6087,6395,5881,29,37,20,10240,0.49,-0.08,1.68,1.37,6049,6343,5852,106,137,75,75,100,0
6094,6403,5885,35,46,25,10240,0.49,-0.08,1.68,1.37,6051,6345,5853,106,137,75,75,100,0
6100,6411,5888,41,55,30,10240,0.49,-0.08,1.68,1.37,6052,6347,5854,106,137,75,75,100,0
6106,6419,5892,45,60,33,10240,0.49,-0.08,1.68,1.37,6054,6350,5855,106,137,75,75,100,0
6121,6435,5902,52,68,37,10240,0.49,-0.08,1.68,1.37,6056,6352,5857,106,137,75,75,100,0
6126,6442,5906,58,75,40,10240,0.49,-0.08,1.68,1.37,6059,6355,5859,106,137,75,75,100,0
6131,6448,5910,63,82,44,10240,0.49,-0.08,1.68,1.37,6061,6358,5860,106,137,75,75,100,0
6139,6457,5914,69,88,48,10240,0.49,-0.08,1.68,1.37,6064,6362,5862,106,137,75,75,100,0
6145,6465,5917,72,93,50,10240,0.49,-0.08,1.68,1.37,6066,6365,5864,106,137,75,73,100,0
6122,6437,5898,69,88,47,10240,0.49,-0.08,1.68,1.37,6068,6368,5865,111,143,79,73,100,0
6092,6400,5875,57,73,37,10240,0.49,-0.08,1.67,1.36,6069,6369,5865,111,143,79,73,100,0
6072,6374,5860,39,51,22,10240,0.49,-0.08,1.67,1.36,6069,6369,5865,111,143,79,73,100,0
6057,6356,5851,17,23,6,10240,0.49,-0.08,1.67,1.36,6069,6368,5865,111,143,79,73,100,0
6040,6343,5845,-3,0,-7,10240,0.49,-0.08,1.67,1.36,6068,6368,5864,111,143,79,73,100,0
6032,6320,5834,-17,-19,-16,10240,0.49,-0.08,1.67,1.36,6066,6366,5863,111,143,79,73,100,0
6026,6310,5828,-28,-34,-24,10240,0.49,-0.08,1.67,1.36,6065,6364,5862,111,143,79,73,100,0
6023,6310,5829,-35,-44,-28,10240,0.49,-0.08,1.67,1.36,6064,6362,5861,111,143,79,73,100,0
6032,6321,5836,-36,-48,-29,10240,0.49,-0.08,1.67,1.36,6063,6361,5860,111,143,79,73,100,0
6046,6339,5843,-31,-41,-26,10240,0.49,-0.08,1.67,1.36,6062,6360,5859,111,143,79,73,100,0
6049,6343,5850,-25,-32,-20,10240,0.49,-0.08,1.67,1.36,6062,6360,5859,111,143,79,73,100,0
6053,6347,5852,-17,-22,-14,10240,0.49,-0.08,1.67,1.36,6061,6359,5859,111,143,79,73,100,0
6057,6355,5854,-10,-13,-9,10240,0.49,-0.08,1.67,1.36,6061,6359,5859,111,143,79,73,100,0
6065,6364,5861,-5,-7,-4,10240,0.49,-0.08,1.67,1.36,6061,6359,5859,111,143,79,73,100,0
6078,6377,5868,2,1,0,10240,0.49,-0.08,1.67,1.36,6062,6360,5859,111,143,79,73,100,0
6084,6382,5871,9,9,4,10240,0.49,-0.08,1.67,1.36,6063,6361,5859,111,143,79,73,100,0
6085,6387,5873,15,17,9,10240,0.49,-0.08,1.67,1.36,6063,6361,5860,111,143,79,73,100,0
6086,6392,5875,20,23,12,10240,0.49,-0.08,1.67,1.36,6064,6362,5860,111,143,79,73,100,0
6088,6395,5877,22,27,14,10240,0.49,-0.08,1.67,1.36,6065,6364,5861,111,143,79,73,100,0
6099,6406,5883,25,32,16,10240,0.49,-0.08,1.67,1.36,6066,6365,5862,111,143,79,73,100,0
6102,6414,5886,28,37,18,10240,0.49,-0.08,1.67,1.36,6067,6367,5863,111,143,79,73,100,0
6106,6418,5888,32,42,21,10240,0.49,-0.08,1.67,1.36,6069,6368,5863,111,143,79,73,100,0
6111,6424,5893,36,48,24,10240,0.49,-0.08,1.67,1.36,6070,6370,5864,111,143,79,73,100,0
6117,6431,5897,39,52,27,10240,0.49,-0.08,1.67,1.36,6072,6372,5865,111,143,79,73,100,0
6131,6445,5905,45,58,31,10240,0.49,-0.08,1.67,1.36,6073,6375,5867,111,143,79,73,100,0
6135,6452,5908,50,64,34,10240,0.49,-0.08,1.67,1.36,6076,6377,5868,111,143,79,73,100,0
6140,6457,5911,56,70,37,10240,0.49,-0.08,1.67,1.36,6078,6380,5870,111,143,79,73,100,0
6129,6444,5900,57,71,37,10240,0.49,-0.08,1.67,1.36,6079,6382,5871,111,143,79,73,100,0
6102,6412,5882,48,60,30,10240,0.49,-0.08,1.67,1.36,6080,6383,5871,107,137,76,73,100,0
6064,6362,5852,29,37,15,10240,0.49,-0.08,1.66,1.36,6080,6382,5870,107,137,76,73,100,0
6054,6349,5846,7,9,0,10240,0.49,-0.08,1.66,1.36,6079,6381,5870,107,137,76,73,100,0
6046,6338,5840,-12,-16,-15,10240,0.49,-0.08,1.66,1.36,6078,6380,5869,107,137,76,73,100,0
6038,6327,5835,-27,-36,-25,10240,0.49,-0.08,1.66,1.36,6076,6378,5867,107,137,76,73,100,0
6032,6318,5832,-34,-45,-29,10240,0.49,-0.08,1.66,1.36,6075,6376,5866,107,137,76,73,100,0
6030,6316,5831,-39,-52,-32,10240,0.49,-0.08,1.66,1.36,6073,6374,5865,107,137,76,73,100,0
6036,6326,5838,-40,-53,-31,10240,0.49,-0.08,1.66,1.36,6072,6372,5864,107,137,76,73,100,0
6044,6336,5844,-37,-49,-28,10240,0.49,-0.08,1.66,1.36,6071,6371,5864,107,137,76,73,100,0
6048,6341,5845,-32,-42,-24,10240,0.49,-0.08,1.66,1.36,6070,6370,5863,107,137,76,73,100,0
6052,6345,5848,-25,-33,-19,10240,0.49,-0.08,1.66,1.36,6070,6369,5862,107,137,76,73,100,0
6061,6357,5853,-19,-25,-15,10240,0.49,-0.08,1.66,1.36,6070,6369,5862,107,137,76,73,100,0
6068,6367,5858,-12,-16,-11,10240,0.49,-0.08,1.66,1.36,6069,6369,5862,107,137,76,73,100,0
6078,6376,5865,-5,-7,-6,10240,0.49,-0.08,1.66,1.36,6070,6369,5862,107,137,76,73,100,0
6085,6385,5870,3,2,0,10240,0.49,-0.08,1.66,1.36,6070,6370,5862,107,137,76,73,100,0
6087,6392,5874,9,10,4,10240,0.49,-0.08,1.66,1.36,6071,6370,5863,107,137,76,73,100,0
6102,6409,5884,17,20,10,10240,0.49,-0.08,1.66,1.36,6072,6372,5863,107,137,76,73,100,0
6106,6416,5888,23,29,16,10240,0.49,-0.08,1.66,1.36,6073,6373,5864,107,137,76,73,100,0
6112,6423,5892,29,37,20,10240,0.49,-0.08,1.66,1.36,6074,6375,5865,107,137,76,73,100,0
6116,6430,5893,35,45,24,10240,0.49,-0.08,1.66,1.36,6076,6377,5866,107,137,76,73,100,0
6123,6435,5897,39,50,27,10240,0.49,-0.08,1.66,1.36,6077,6379,5867,107,137,76,73,100,0
6131,6444,5902,44,55,29,10240,0.49,-0.08,1.66,1.36,6079,6381,5868,107,137,76,73,100,0
6135,6450,5904,48,59,31,10240,0.49,-0.08,1.66,1.36,6081,6383,5870,107,137,76,73,100,0
6139,6455,5906,52,64,33,10240,0.49,-0.08,1.66,1.36,6083,6385,5871,107,137,76,73,100,0
6143,6460,5909,55,68,35,10240,0.49,-0.08,1.66,1.36,6085,6388,5872,107,137,76,73,100,0
6147,6466,5911,57,71,36,10240,0.49,-0.08,1.66,1.36,6087,6391,5873,107,137,76,73,100,0
6136,6451,5902,55,68,34,10240,0.49,-0.08,1.66,1.36,6089,6393,5874,104,134,74,73,100,0
6105,6413,5877,45,56,26,10240,0.49,-0.08,1.66,1.36,6089,6393,5874,104,134,74,73,100,0
6079,6377,5856,28,34,12,10240,0.49,-0.08,1.66,1.36,6089,6393,5874,104,134,74,73,100,0
6060,6355,5844,6,6,-4,10240,0.49,-0.08,1.66,1.36,6088,6391,5873,104,134,74,73,100,0
6035,6323,5837,-18,-24,-19,10240,0.49,-0.08,1.66,1.36,6086,6389,5872,104,134,74,73,100,0
6026,6310,5823,-36,-48,-32,10240,0.49,-0.08,1.66,1.36,6084,6387,5870,104,134,74,73,100,0
6017,6301,5817,-50,-65,-40,10240,0.49,-0.08,1.66,1.36,6082,6384,5868,104,134,74,73,100,0
6013,6293,5814,-60,-78,-46,10240,0.49,-0.08,1.66,1.36,6079,6381,5866,104,134,74,73,100,0
6014,6294,5816,-63,-83,-49,10240,0.49,-0.08,1.66,1.36,6077,6378,5865,104,134,74,73,100,0
6030,6316,5830,-60,-78,-46,10240,0.49,-0.08,1.66,1.36,6076,6376,5864,104,134,74,73,100,0
6036,6323,5836,-53,-70,-40,10240,0.49,-0.08,1.66,1.36,6074,6374,5863,104,134,74,73,100,0
6039,6328,5838,-45,-59,-33,10240,0.49,-0.08,1.66,1.36,6073,6372,5862,104,134,74,73,100,0
6044,6334,5840,-36,-48,-26,10240,0.49,-0.08,1.66,1.36,6072,6371,5861,104,134,74,73,100,0
6048,6339,5842,-30,-40,-22,10240,0.49,-0.08,1.66,1.36,6071,6370,5860,104,134,74,73,100,0
6059,6354,5852,-24,-31,-17,10240,0.49,-0.08,1.66,1.36,6071,6369,5860,104,134,74,73,100,0
6065,6361,5855,-17,-22,-13,10240,0.49,-0.08,1.66,1.36,6071,6369,5860,104,134,74,73,100,0
6072,6369,5857,-10,-13,-8,10240,0.49,-0.08,1.66,1.36,6071,6369,5860,104,134,74,73,100,0
6077,6376,5861,-2,-4,-3,10240,0.49,-0.08,1.66,1.36,6071,6369,5860,104,134,74,73,100,0
6084,6383,5865,3,3,0,10240,0.49,-0.08,1.66,1.36,6072,6370,5860,104,134,74,73,100,0
6086,6392,5871,8,10,3,10240,0.49,-0.08,1.66,1.36,6072,6371,5860,104,134,74,73,100,0
6091,6397,5873,12,16,7,10240,0.49,-0.08,1.66,1.36,6073,6372,5861,104,134,74,73,100,0
6095,6401,5875,16,22,10,10240,0.49,-0.08,1.66,1.36,6073,6372,5861,104,134,74,73,100,0
6099,6404,5877,19,26,13,10240,0.49,-0.08,1.66,1.36,6074,6374,5862,104,134,74,73,100,0
6102,6411,5881,23,30,15,10240,0.49,-0.08,1.66,1.36,6075,6375,5862,104,134,74,73,100,0
6114,6424,5889,28,35,18,10240,0.49,-0.08,1.66,1.36,6076,6376,5863,104,134,74,73,100,0
6120,6432,5893,33,42,22,10240,0.49,-0.08,1.66,1.36,6078,6378,5864,104,134,74,73,100,0
6127,6440,5897,38,49,26,10240,0.49,-0.08,1.66,1.36,6080,6380,5865,104,134,74,73,100,0
6131,6444,5900,44,56,30,10240,0.49,-0.08,1.66,1.36,6081,6382,5867,104,134,74,73,100,0
6124,6435,5892,45,56,29,10240,0.49,-0.08,1.66,1.36,6083,6384,5867,104,134,75,73,100,0
6077,6373,5853,33,40,19,10240,0.49,-0.08,1.64,1.34,6083,6384,5867,105,135,75,73,100,0
6059,6354,5842,15,18,5,10240,0.49,-0.08,1.64,1.34,6082,6383,5866,105,135,75,73,100,0
6047,6338,5836,-5,-8,-10,10240,0.49,-0.08,1.64,1.34,6081,6381,5865,105,135,75,72,100,0
6037,6326,5829,-26,-34,-25,10240,0.49,-0.08,1.64,1.34,6079,6380,5864,105,135,75,72,100,0
6030,6315,5822,-36,-47,-32,10240,0.49,-0.08,1.64,1.34,6077,6377,5863,105,135,75,72,100,0
6020,6303,5818,-44,-57,-37,10240,0.49,-0.08,1.64,1.34,6076,6375,5861,105,135,75,72,100,0
6022,6306,5820,-49,-63,-39,10240,0.49,-0.08,1.64,1.34,6074,6373,5860,105,135,75,72,100,0
6030,6318,5827,-49,-63,-39,10240,0.49,-0.08,1.64,1.34,6072,6371,5859,105,135,75,72,100,0
6038,6328,5835,-45,-58,-34,10240,0.49,-0.08,1.64,1.34,6071,6369,5858,105,135,75,72,100,0
6044,6337,5838,-38,-48,-28,10240,0.49,-0.08,1.64,1.34,6070,6368,5857,105,135,75,72,100,0
6054,6347,5845,-29,-36,-21,10240,0.49,-0.08,1.64,1.34,6070,6368,5857,105,135,75,72,100,0
6058,6354,5848,-21,-26,-15,10240,0.49,-0.08,1.64,1.34,6069,6367,5856,105,135,75,72,100,0
6064,6361,5852,-14,-17,-10,10240,0.49,-0.08,1.64,1.34,6069,6367,5856,105,135,75,72,100,0
6069,6369,5855,-8,-9,-6,10240,0.49,-0.08,1.64,1.34,6069,6367,5856,105,135,75,72,100,0
6074,6376,5859,-2,-2,-2,10240,0.49,-0.08,1.64,1.34,6069,6367,5856,105,135,75,72,100,0
6086,6387,5867,4,6,2,10240,0.49,-0.08,1.64,1.34,6070,6368,5857,105,135,75,72,100,0
6087,6393,5870,9,13,6,10240,0.49,-0.08,1.64,1.34,6070,6369,5857,105,135,75,72,100,0
6092,6400,5873,14,20,10,10240,0.49,-0.08,1.64,1.34,6071,6370,5858,105,135,75,72,100,0
6097,6405,5876,19,26,14,10240,0.49,-0.08,1.64,1.34,6072,6371,5858,105,135,75,72,100,0
6105,6411,5879,23,31,16,10240,0.49,-0.08,1.64,1.34,6073,6372,5859,105,135,75,72,100,0
6109,6421,5884,28,37,19,10240,0.49,-0.08,1.64,1.34,6074,6374,5860,105,135,75,72,100,0
6114,6426,5888,32,42,22,10240,0.49,-0.08,1.64,1.34,6076,6376,5861,105,135,75,72,100,0
6118,6432,5890,36,47,24,10240,0.49,-0.08,1.64,1.34,6077,6378,5862,105,135,75,72,100,0
6124,6438,5892,39,52,27,10240,0.49,-0.08,1.64,1.34,6079,6380,5863,105,135,75,72,100,0
6132,6448,5896,44,57,29,10240,0.49,-0.08,1.64,1.34,6080,6382,5864,105,135,75,72,100,0
6131,6447,5897,46,60,30,10240,0.49,-0.08,1.64,1.34,6082,6384,5865,105,135,75,73,100,0
6112,6425,5882,43,56,27,10240,0.49,-0.08,1.64,1.34,6083,6385,5866,103,132,73,73,100,0
6086,6389,5858,33,43,18,10240,0.49,-0.08,1.66,1.36,6083,6385,5865,103,132,73,73,100,0
6067,6364,5845,16,21,5,10240,0.49,-0.08,1.66,1.36,6083,6385,5865,103,132,73,73,100,0
6042,6334,5830,-5,-6,-11,10240,0.49,-0.08,1.66,1.36,6081,6383,5863,103,132,73,73,100,0
6033,6322,5825,-24,-31,-24,10240,0.49,-0.08,1.66,1.36,6080,6381,5862,103,132,73,73,100,0
6026,6311,5817,-38,-49,-33,10240,0.49,-0.08,1.66,1.36,6078,6379,5861,103,132,73,73,100,0
6020,6304,5814,-48,-62,-39,10240,0.49,-0.08,1.66,1.36,6076,6376,5859,103,132,73,73,100,0
6019,6303,5815,-52,-67,-42,10240,0.49,-0.08,1.66,1.36,6074,6374,5858,103,132,73,73,100,0
6035,6325,5830,-50,-64,-39,10240,0.49,-0.08,1.66,1.36,6073,6372,5857,103,132,73,73,100,0
6040,6331,5835,-45,-57,-34,10240,0.49,-0.08,1.66,1.36,6072,6371,5856,103,132,73,73,100,0
6044,6336,5835,-38,-48,-27,10240,0.49,-0.08,1.66,1.36,6071,6370,5855,103,132,73,73,100,0
6048,6341,5839,-29,-37,-21,10240,0.49,-0.08,1.66,1.36,6070,6369,5855,103,132,73,73,100,0
6052,6348,5842,-24,-30,-17,10240,0.49,-0.08,1.66,1.36,6069,6368,5854,103,132,73,73,100,0
6064,6364,5851,-17,-21,-12,10240,0.49,-0.08,1.66,1.36,6069,6368,5854,103,132,73,73,100,0
6071,6371,5855,-10,-12,-7,10240,0.49,-0.08,1.66,1.36,6069,6368,5854,103,132,73,73,100,0
6075,6376,5858,-3,-3,-2,10240,0.49,-0.08,1.66,1.36,6069,6368,5854,103,132,73,73,100,0
6081,6381,5862,3,4,2,10240,0.49,-0.08,1.66,1.36,6070,6369,5855,103,132,73,73,100,0
6085,6388,5866,8,10,5,10240,0.49,-0.08,1.66,1.36,6070,6369,5855,103,132,73,73,100,0
6093,6401,5873,13,17,9,10240,0.49,-0.08,1.66,1.36,6071,6370,5856,103,132,73,73,100,0
6098,6405,5874,18,24,13,10240,0.49,-0.08,1.66,1.36,6072,6371,5856,103,132,73,73,100,0
6101,6410,5877,22,30,16,10240,0.49,-0.08,1.66,1.36,6073,6373,5857,103,132,73,73,100,0
6105,6416,5881,26,36,19,10240,0.49,-0.08,1.66,1.36,6074,6374,5858,103,132,73,73,100,0
6111,6422,5884,30,39,21,10240,0.49,-0.08,1.66,1.36,6075,6376,5859,103,132,73,73,100,0
6122,6436,5891,35,45,24,10240,0.49,-0.08,1.66,1.36,6077,6378,5860,103,132,73,73,100,0
6129,6443,5897,40,52,28,10240,0.49,-0.08,1.66,1.36,6079,6380,5861,103,132,73,73,100,0
6131,6447,5897,45,58,31,10240,0.49,-0.08,1.66,1.36,6080,6382,5862,103,132,73,73,100,0
6124,6437,5890,47,59,32,10240,0.49,-0.08,1.66,1.36,6082,6384,5863,103,132,73,73,100,0
6096,6404,5867,39,50,25,10240,0.49,-0.08,1.66,1.36,6082,6385,5863,102,131,74,74,100,0
6051,6345,5835,19,24,9,10240,0.49,-0.08,1.63,1.33,6081,6383,5862,102,131,74,74,100,0
6037,6327,5825,-4,-5,-8,10240,0.49,-0.08,1.63,1.33,6080,6382,5861,102,131,74,74,100,0
6027,6312,5816,-27,-35,-25,10240,0.49,-0.08,1.63,1.33,6078,6379,5859,102,131,74,74,100,0
6017,6301,5813,-45,-59,-37,10240,0.49,-0.08,1.63,1.33,6076,6377,5858,102,131,74,74,100,0
6010,6293,5808,-54,-69,-43,10240,0.49,-0.08,1.63,1.33,6074,6374,5856,102,131,74,74,100,0
6006,6287,5809,-60,-77,-45,10240,0.49,-0.08,1.63,1.33,6072,6371,5855,102,131,74,74,100,0
6012,6295,5812,-61,-78,-45,10240,0.49,-0.08,1.63,1.33,6070,6368,5853,102,131,74,74,100,0
6019,6303,5818,-59,-75,-42,10240,0.49,-0.08,1.63,1.33,6068,6366,5852,102,131,74,74,100,0
6025,6311,5822,-53,-68,-37,10240,0.49,-0.08,1.63,1.33,6066,6364,5851,102,131,74,74,100,0
6029,6317,5826,-46,-58,-32,10240,0.49,-0.08,1.63,1.33,6065,6363,5850,102,131,74,74,100,0
6037,6328,5834,-38,-49,-25,10240,0.49,-0.08,1.63,1.33,6064,6362,5850,102,131,74,74,100,0
6043,6335,5837,-31,-39,-20,10240,0.49,-0.08,1.63,1.33,6064,6361,5849,102,131,74,74,100,0
6052,6346,5844,-23,-30,-14,10240,0.49,-0.08,1.63,1.33,6063,6360,5849,102,131,74,74,100,0
6058,6355,5849,-16,-19,-8,10240,0.49,-0.08,1.63,1.33,6063,6360,5849,102,131,74,74,100,0
6069,6364,5853,-7,-10,-3,10240,0.49,-0.08,1.63,1.33,6063,6360,5849,102,131,74,74,100,0
6077,6378,5861,0,0,2,10240,0.49,-0.08,1.63,1.33,6064,6361,5850,102,131,74,74,100,0
6082,6383,5864,8,9,7,10240,0.49,-0.08,1.63,1.33,6064,6362,5850,102,131,74,74,100,0
6085,6388,5867,14,17,11,10240,0.49,-0.08,1.63,1.33,6065,6362,5851,102,131,74,74,100,0
6087,6395,5871,18,24,15,10240,0.49,-0.08,1.63,1.33,6066,6363,5851,102,131,74,74,100,0
6096,6400,5871,22,28,17,10240,0.49,-0.08,1.63,1.33,6067,6365,5852,102,131,74,74,100,0
6101,6408,5878,25,33,20,10240,0.49,-0.08,1.63,1.33,6068,6366,5853,102,131,74,74,100,0
6102,6413,5879,29,38,22,10240,0.49,-0.08,1.63,1.33,6069,6368,5854,102,131,74,74,100,0
6106,6419,5882,32,43,24,10240,0.49,-0.08,1.63,1.33,6070,6369,5855,102,131,74,74,100,0
6112,6424,5886,35,47,26,10240,0.49,-0.08,1.63,1.33,6072,6371,5856,102,131,74,74,100,0
6111,6425,5889,36,50,28,10240,0.49,-0.08,1.63,1.33,6073,6373,5857,102,131,74,74,100,0
6091,6399,5866,33,45,24,10240,0.49,-0.08,1.63,1.33,6073,6374,5857,100,130,73,74,100,0
6062,6361,5843,21,29,14,10240,0.49,-0.08,1.64,1.32,6073,6373,5857,100,130,73,74,100,0
6038,6328,5825,2,5,-1,10240,0.49,-0.08,1.64,1.32,6072,6372,5856,100,130,73,74,100,0
6021,6305,5813,-19,-24,-19,10240,0.49,-0.08,1.64,1.32,6070,6370,5854,100,130,73,74,100,0
5997,6277,5801,-41,-52,-34,10240,0.49,-0.08,1.64,1.32,6068,6367,5852,100,130,73,74,100,0
5989,6264,5795,-57,-74,-44,10240,0.49,-0.08,1.64,1.32,6065,6363,5850,100,130,73,74,100,0
5983,6256,5792,-68,-89,-51,10240,0.49,-0.08,1.64,1.32,6062,6360,5849,100,130,73,74,100,0
5979,6255,5791,-76,-98,-54,10240,0.49,-0.08,1.64,1.32,6060,6356,5847,100,130,73,74,100,0
5987,6261,5797,-76,-99,-54,10240,0.49,-0.08,1.64,1.32,6057,6353,5845,100,130,73,74,100,0
6003,6286,5811,-70,-90,-48,10240,0.49,-0.08,1.64,1.32,6055,6351,5844,100,130,73,74,100,0
6009,6293,5814,-62,-78,-41,10240,0.49,-0.08,1.64,1.32,6054,6349,5843,100,130,73,74,100,0
6013,6298,5817,-51,-65,-33,10240,0.49,-0.08,1.64,1.32,6053,6347,5842,100,130,73,74,100,0
6019,6305,5821,-42,-52,-26,10240,0.49,-0.08,1.64,1.32,6051,6346,5841,100,130,73,74,100,0
6026,6316,5828,-35,-43,-21,10240,0.49,-0.08,1.64,1.32,6051,6345,5841,100,130,73,74,100,0
6041,6335,5839,-26,-32,-15,10240,0.49,-0.08,1.64,1.32,6050,6344,5841,100,130,73,74,100,0
6045,6343,5843,-17,-20,-8,10240,0.49,-0.08,1.64,1.32,6050,6344,5841,100,130,73,74,100,0
6050,6351,5848,-9,-8,-1,10240,0.49,-0.08,1.64,1.32,6050,6345,5841,100,130,73,74,100,0
6058,6358,5852,-1,2,4,10240,0.49,-0.08,1.64,1.32,6050,6345,5841,100,130,73,74,100,0
6063,6369,5855,3,10,8,10240,0.49,-0.08,1.64,1.32,6051,6346,5842,100,130,73,74,100,0
6079,6381,5865,11,19,13,10240,0.49,-0.08,1.64,1.32,6052,6347,5843,100,130,73,74,100,0
6083,6389,5868,19,27,17,10240,0.49,-0.08,1.64,1.32,6053,6348,5843,100,130,73,74,100,0
6085,6395,5872,25,35,22,10240,0.49,-0.08,1.64,1.32,6054,6350,5844,100,130,73,74,100,0
6087,6399,5875,30,41,26,10240,0.49,-0.08,1.64,1.32,6055,6352,5845,100,130,73,74,100,0
6094,6408,5879,32,47,28,10240,0.49,-0.08,1.64,1.32,6056,6353,5847,100,130,73,74,100,0
6105,6424,5888,37,53,32,10240,0.49,-0.08,1.64,1.32,6058,6356,5848,100,130,73,74,100,0
6109,6432,5891,41,61,36,10240,0.49,-0.08,1.64,1.32,6060,6358,5849,100,130,73,74,100,0
6115,6439,5896,47,68,39,10240,0.49,-0.08,1.64,1.32,6061,6361,5851,100,130,73,74,100,0
6115,6436,5894,50,73,42,10240,0.49,-0.08,1.64,1.32,6063,6364,5852,100,130,73,74,100,0
6095,6413,5878,46,68,38,10240,0.49,-0.08,1.64,1.32,6064,6365,5853,107,141,79,74,100,0
6049,6350,5842,30,45,25,10240,0.49,-0.08,1.64,1.31,6064,6365,5853,107,141,79,74,100,0
6033,6333,5833,9,18,9,10240,0.49,-0.08,1.64,1.31,6063,6364,5852,107,141,79,74,100,0
6021,6318,5823,-13,-10,-8,10240,0.49,-0.08,1.64,1.31,6061,6362,5851,107,141,79,74,100,0
6013,6306,5819,-33,-36,-22,10240,0.49,-0.08,1.64,1.31,6060,6360,5850,107,141,79,74,100,0
6001,6291,5814,-43,-49,-28,10240,0.49,-0.08,1.64,1.31,6058,6358,5849,107,141,79,74,100,0
6001,6292,5814,-49,-57,-32,10240,0.49,-0.08,1.64,1.31,6056,6356,5848,107,141,79,74,100,0
6008,6302,5821,-51,-59,-31,10240,0.49,-0.08,1.64,1.31,6054,6354,5847,107,141,79,74,100,0
6017,6312,5829,-48,-56,-28,10240,0.49,-0.08,1.64,1.31,6053,6353,5846,107,141,79,74,100,0
6021,6320,5833,-42,-47,-22,10240,0.49,-0.08,1.64,1.31,6052,6351,5846,107,141,79,74,100,0
6027,6328,5837,-34,-36,-16,10240,0.49,-0.08,1.64,1.31,6051,6351,5846,107,141,79,74,100,0
6032,6332,5840,-27,-28,-11,10240,0.49,-0.08,1.64,1.31,6050,6350,5845,107,141,79,74,100,0
6036,6336,5843,-21,-21,-7,10240,0.49,-0.08,1.64,1.31,6050,6350,5845,107,141,79,74,100,0
6042,6344,5847,-16,-15,-3,10240,0.49,-0.08,1.64,1.31,6050,6349,5845,107,141,79,74,100,0
6046,6348,5848,-11,-9,0,10240,0.49,-0.08,1.64,1.31,6050,6349,5846,107,141,79,74,100,0
6051,6356,5852,-6,-3,2,10240,0.49,-0.08,1.64,1.31,6050,6350,5846,107,141,79,74,100,0
6055,6361,5854,-1,2,4,10240,0.49,-0.08,1.64,1.31,6050,6350,5846,107,141,79,74,100,0
6057,6367,5856,2,8,6,10240,0.49,-0.08,1.64,1.31,6050,6350,5846,107,141,79,74,100,0
6062,6373,5857,6,14,8,10240,0.49,-0.08,1.64,1.31,6050,6351,5847,107,141,79,74,100,0
6066,6375,5860,9,18,10,10240,0.49,-0.08,1.64,1.31,6051,6352,5847,107,141,79,74,100,0
6072,6381,5864,13,22,12,10240,0.49,-0.08,1.64,1.31,6052,6353,5848,107,141,79,74,100,0
6075,6386,5868,17,26,14,10240,0.49,-0.08,1.64,1.31,6052,6354,5848,107,141,79,74,100,0
6082,6393,5871,21,30,17,10240,0.49,-0.08,1.64,1.31,6053,6355,5849,107,141,79,74,100,0
6084,6396,5873,25,34,20,10240,0.49,-0.08,1.64,1.31,6054,6357,5850,107,141,79,74,100,0
6086,6403,5877,28,38,22,10240,0.49,-0.08,1.64,1.31,6056,6358,5851,107,141,79,74,100,0
6099,6419,5886,32,45,26,10240,0.49,-0.08,1.64,1.31,6057,6360,5852,107,141,79,74,100,0
6089,6404,5877,33,46,26,10240,0.49,-0.08,1.64,1.31,6058,6362,5853,107,141,79,74,100,0
6061,6371,5854,26,38,21,10240,0.49,-0.08,1.64,1.31,6058,6362,5853,101,132,74,74,100,0
6035,6337,5837,13,21,11,10240,0.45,-0.08,1.64,1.32,6057,6361,5852,101,132,74,74,100,0
6018,6315,5825,-6,-4,-4,10240,0.45,-0.08,1.64,1.32,6056,6360,5851,101,132,74,74,100,0
5995,6286,5812,-29,-32,-19,10240,0.45,-0.08,1.64,1.32,6054,6357,5850,101,132,74,74,100,0
5986,6276,5808,-46,-54,-30,10240,0.45,-0.08,1.64,1.32,6052,6355,5849,101,132,74,74,100,0
5978,6265,5803,-58,-70,-37,10240,0.45,-0.08,1.64,1.32,6049,6352,5847,101,132,74,74,100,0
5975,6260,5802,-67,-81,-41,10240,0.45,-0.08,1.64,1.32,6047,6349,5846,101,132,74,74,100,0
5977,6264,5806,-69,-84,-41,10240,0.45,-0.08,1.64,1.32,6044,6346,5844,101,132,74,74,100,0
5991,6283,5815,-65,-79,-38,10240,0.45,-0.08,1.64,1.32,6043,6344,5843,101,132,74,74,100,0
5995,6289,5817,-59,-71,-34,10240,0.45,-0.08,1.64,1.32,6041,6342,5843,101,132,74,74,100,0
6000,6293,5820,-51,-60,-28,10240,0.45,-0.08,1.64,1.32,6040,6340,5842,101,132,74,74,100,0
6003,6299,5822,-43,-50,-23,10240,0.45,-0.08,1.64,1.32,6039,6339,5841,101,132,74,74,100,0
6009,6305,5827,-37,-43,-20,10240,0.45,-0.08,1.64,1.32,6038,6338,5841,101,132,74,74,100,0
6023,6326,5841,-29,-32,-13,10240,0.45,-0.08,1.64,1.32,6037,6337,5841,101,132,74,74,100,0
6029,6335,5845,-21,-21,-7,10240,0.45,-0.08,1.64,1.32,6037,6337,5841,101,132,74,74,100,0
6037,6343,5849,-12,-10,0,10240,0.45,-0.08,1.64,1.32,6037,6337,5841,101,132,74,74,100,0
6042,6350,5853,-4,1,6,10240,0.45,-0.08,1.64,1.32,6037,6338,5841,101,132,74,74,100,0
6046,6359,5855,1,9,9,10240,0.45,-0.08,1.64,1.32,6037,6338,5842,101,132,74,74,100,0
6057,6371,5864,8,17,13,10240,0.45,-0.08,1.64,1.32,6038,6340,5843,101,132,74,74,100,0
6061,6377,5867,13,25,17,10240,0.45,-0.08,1.64,1.32,6039,6341,5843,101,132,74,74,100,0
6067,6381,5869,19,31,20,10240,0.45,-0.08,1.64,1.32,6040,6342,5844,101,132,74,74,100,0
6069,6385,5872,24,36,24,10240,0.45,-0.08,1.64,1.32,6041,6344,5845,101,132,74,74,100,0
6073,6389,5873,27,40,25,10240,0.45,-0.08,1.64,1.32,6042,6345,5846,101,132,74,74,100,0
6082,6398,5878,31,43,27,10240,0.45,-0.08,1.64,1.32,6043,6347,5847,101,132,74,74,100,0
6083,6402,5880,34,47,29,10240,0.45,-0.08,1.64,1.32,6044,6349,5848,101,132,74,74,100,0
6083,6407,5882,36,51,30,10240,0.45,-0.08,1.64,1.32,6046,6351,5849,101,132,74,74,100,0
6084,6408,5882,38,53,31,10240,0.45,-0.08,1.64,1.32,6047,6353,5851,101,132,74,74,100,0
6071,6386,5866,34,49,27,10240,0.45,-0.08,1.64,1.32,6048,6354,5851,103,133,73,74,100,0
6010,6310,5823,15,25,13,10240,0.45,-0.08,1.68,1.37,6046,6352,5850,103,133,73,74,100,0
5993,6286,5812,-7,-4,-4,10240,0.45,-0.08,1.68,1.37,6045,6350,5849,103,133,73,74,100,0
5981,6270,5806,-31,-37,-22,10240,0.45,-0.08,1.68,1.37,6042,6347,5847,103,133,73,74,100,0
5971,6256,5799,-54,-67,-38,10240,0.45,-0.08,1.68,1.37,6040,6344,5846,103,133,73,74,100,0
5948,6241,5790,-67,-82,-44,10240,0.45,-0.08,1.68,1.37,6037,6341,5844,103,133,73,74,100,0
5945,6225,5783,-77,-94,-50,10240,0.45,-0.08,1.68,1.37,6034,6337,5842,103,133,73,74,100,0
5947,6229,5785,-82,-101,-53,10240,0.45,-0.08,1.68,1.37,6031,6333,5840,103,133,73,74,100,0
5953,6237,5790,-84,-102,-54,10240,0.45,-0.08,1.68,1.37,6028,6330,5838,103,133,73,74,100,0
5961,6244,5796,-78,-98,-50,10240,0.45,-0.08,1.68,1.37,6026,6327,5837,103,133,73,74,100,0
5969,6253,5802,-69,-88,-44,10240,0.45,-0.08,1.68,1.37,6024,6325,5836,103,133,73,74,100,0
5973,6257,5805,-61,-78,-38,10240,0.45,-0.08,1.68,1.37,6023,6323,5835,103,133,73,74,100,0
5977,6264,5808,-53,-69,-32,10240,0.45,-0.08,1.68,1.37,6021,6321,5834,103,133,73,74,100,0
