6853,7479,6148,80,92,52,10240,-1.00,-1.00,0.00,0.00,6774,7388,6097,0,0,0,53,0,0
6854,7481,6147,79,92,50,10240,-1.00,-1.00,0.00,0.00,6777,7391,6099,0,0,0,53,0,0
6856,7487,6147,77,91,49,10240,-1.00,-1.00,0.00,0.00,6780,7394,6101,0,0,0,53,0,0
6859,7491,6149,77,92,48,10240,-1.00,-1.00,0.00,0.00,6782,7397,6102,0,0,0,53,0,0
6860,7493,6150,76,92,46,10240,-1.00,-1.00,0.00,0.00,6785,7400,6104,0,0,0,53,0,0
6863,7496,6154,76,93,47,10240,-1.00,-1.00,0.00,0.00,6787,7404,6105,0,0,0,53,0,0
6865,7501,6155,75,93,47,10240,-1.00,-1.00,0.00,0.00,6790,7407,6107,0,0,0,53,0,0
6869,7507,6158,75,94,48,10240,-1.00,-1.00,0.00,0.00,6793,7410,6109,0,0,0,53,0,0
6871,7509,6160,75,94,48,10240,-1.00,-1.00,0.00,0.00,6795,7413,6111,0,0,0,53,0,0
6869,7506,6157,74,94,47,10240,-1.00,-1.00,0.00,0.00,6798,7417,6112,0,0,0,53,0,0
6867,7505,6157,72,92,46,10240,-1.00,-1.00,0.00,0.00,6800,7419,6114,0,0,0,53,0,0
6867,7503,6156,69,88,44,10240,-1.00,-1.00,0.00,0.00,6802,7422,6115,0,0,0,53,0,0
6864,7500,6156,65,82,42,10240,-1.00,-1.00,0.00,0.00,6804,7425,6116,0,0,0,53,0,0
6866,7499,6155,63,78,40,10240,-1.00,-1.00,0.00,0.00,6806,7427,6118,0,0,0,53,0,0
6865,7500,6154,60,74,38,10240,-1.00,-1.00,0.00,0.00,6808,7430,6119,0,0,0,53,0,0
6865,7501,6155,58,71,36,10240,-1.00,-1.00,0.00,0.00,6810,7432,6120,0,0,0,53,0,0
6866,7501,6156,56,69,35,10240,-1.00,-1.00,0.00,0.00,6812,7434,6121,0,0,0,53,0,0
6868,7503,6156,55,68,34,10240,-1.00,-1.00,0.00,0.00,6814,7437,6122,0,0,0,53,0,0
6872,7508,6158,54,67,34,10240,-1.00,-1.00,0.00,0.00,6816,7439,6124,0,0,0,53,0,0
6872,7510,6162,54,67,35,10240,-1.00,-1.00,0.00,0.00,6818,7441,6125,0,0,0,53,0,0
6873,7509,6162,54,67,35,10240,-1.00,-1.00,0.00,0.00,6820,7444,6126,0,0,0,53,0,0
6875,7512,6161,54,67,35,10240,-1.00,-1.00,0.00,0.00,6821,7446,6127,0,0,0,53,0,0
6878,7516,6163,54,67,35,10240,-1.00,-1.00,0.00,0.00,6823,7448,6128,0,0,0,53,0,0
6881,7520,6166,54,67,35,10240,-1.00,-1.00,0.00,0.00,6825,7451,6130,0,0,0,53,0,0
6883,7523,6169,55,68,35,10240,-1.00,-1.00,0.00,0.00,6827,7453,6131,0,0,0,53,0,0
6884,7526,6172,55,69,37,10240,-1.00,-1.00,0.00,0.00,6829,7456,6132,0,0,0,53,0,0
6887,7529,6174,55,70,38,10240,-1.00,-1.00,0.00,0.00,6831,7458,6134,0,0,0,53,0,0
6890,7531,6175,56,70,39,10240,-1.00,-1.00,0.00,0.00,6833,7460,6135,0,0,0,53,0,0
6891,7534,6178,56,70,40,10240,-1.00,-1.00,0.00,0.00,6835,7463,6137,0,0,0,53,0,0
6893,7536,6180,56,71,40,10240,-1.00,-1.00,0.00,0.00,6837,7465,6138,0,0,0,53,0,0
6892,7535,6178,55,70,40,10240,-1.00,-1.00,0.00,0.00,6839,7468,6139,0,0,0,53,0,0
6890,7534,6178,53,68,39,10240,-1.00,-1.00,0.00,0.00,6840,7470,6141,0,0,0,53,0,0
6889,7532,6176,51,65,38,10240,-1.00,-1.00,0.00,0.00,6842,7472,6142,0,0,0,53,0,0
6886,7529,6172,48,61,34,10240,-1.00,-1.00,0.00,0.00,6844,7474,6143,0,0,0,53,0,0
6886,7529,6174,45,58,32,10240,-1.00,-1.00,0.00,0.00,6845,7476,6144,0,0,0,53,0,0
6886,7530,6173,42,55,30,10240,-1.00,-1.00,0.00,0.00,6846,7477,6145,0,0,0,53,0,0
6887,7529,6172,40,52,28,10240,-1.00,-1.00,0.00,0.00,6848,7479,6146,0,0,0,53,0,0
6885,7529,6172,39,51,27,10240,-1.00,-1.00,0.00,0.00,6849,7481,6147,0,0,0,53,0,0
6888,7530,6173,38,49,26,10240,-1.00,-1.00,0.00,0.00,6850,7483,6147,0,0,0,53,0,0
6889,7533,6177,37,48,26,10240,-1.00,-1.00,0.00,0.00,6852,7484,6148,0,0,0,53,0,0
6892,7536,6176,37,48,26,10240,-1.00,-1.00,0.00,0.00,6853,7486,6149,0,0,0,53,0,0
6894,7538,6178,38,49,27,10240,-1.00,-1.00,0.00,0.00,6854,7488,6150,0,0,0,53,0,0
6897,7540,6181,39,50,28,10240,-1.00,-1.00,0.00,0.00,6856,7489,6151,0,0,0,53,0,0
6898,7540,6181,40,50,28,10240,-1.00,-1.00,0.00,0.00,6857,7491,6152,0,0,0,53,0,0
6900,7547,6181,41,51,28,10240,-1.00,-1.00,0.00,0.00,6858,7493,6153,0,0,0,53,0,0
6901,7550,6185,41,52,29,10240,-1.00,-1.00,0.00,0.00,6860,7495,6154,0,0,0,53,0,0
6904,7553,6186,41,53,29,10240,-1.00,-1.00,0.00,0.00,6861,7497,6156,0,0,0,53,0,0
6905,7553,6186,42,54,29,10240,-1.00,-1.00,0.00,0.00,6863,7499,6157,0,0,0,53,0,0
6906,7554,6188,42,54,30,10240,-1.00,-1.00,0.00,0.00,6864,7500,6158,0,0,0,53,0,0
6908,7558,6189,42,55,29,10240,-1.00,-1.00,0.00,0.00,6866,7502,6159,0,0,0,53,0,0
6910,7560,6189,42,55,29,10240,-1.00,-1.00,0.00,0.00,6867,7504,6160,0,0,0,53,0,0
6907,7556,6185,41,54,28,10240,-1.00,-1.00,0.00,0.00,6869,7506,6160,0,0,0,53,0,0
6906,7552,6185,39,51,27,10240,-1.00,-1.00,0.00,0.00,6870,7508,6161,0,0,0,53,0,0
6905,7552,6185,37,48,25,10240,-1.00,-1.00,0.00,0.00,6871,7509,6162,0,0,0,53,0,0
6902,7549,6183,34,44,23,10240,-1.00,-1.00,0.00,0.00,6872,7510,6163,0,0,0,53,0,0
6903,7548,6184,32,40,22,10240,-1.00,-1.00,0.00,0.00,6873,7512,6163,0,0,0,53,0,0
6905,7550,6185,31,38,21,10240,-1.00,-1.00,0.00,0.00,6874,7513,6164,0,0,0,53,0,0
6905,7553,6186,30,37,20,10240,-1.00,-1.00,0.00,0.00,6875,7514,6165,0,0,0,53,0,0
6907,7558,6192,30,38,22,10240,-1.00,-1.00,0.00,0.00,6876,7516,6166,0,0,0,53,100,0
6909,7562,6193,31,40,23,10240,-1.00,-1.00,0.00,0.00,6877,7517,6167,0,0,0,53,100,0
6919,7578,6205,33,46,27,10240,-1.00,-1.00,0.00,0.00,6879,7519,6168,0,0,0,53,100,0
6926,7588,6212,37,53,33,10240,-1.00,-1.00,0.00,0.00,6880,7522,6169,0,0,0,53,100,0
6930,7596,6217,41,60,38,10240,-1.00,-1.00,0.00,0.00,6882,7524,6171,0,0,0,53,100,0
6936,7605,6226,46,68,44,10240,-1.00,-1.00,0.00,0.00,6884,7527,6173,0,0,0,53,100,0
6942,7616,6235,50,75,50,10240,-1.00,-1.00,0.00,0.00,6886,7530,6175,0,0,0,53,100,0
6948,7634,6244,54,84,56,10240,-1.00,-1.00,0.00,0.00,6888,7533,6177,0,0,0,53,100,0
6949,7637,6249,56,91,62,10240,-1.00,-1.00,0.00,0.00,6890,7537,6180,0,0,0,53,100,0
6950,7642,6248,58,97,65,10240,-1.00,-1.00,0.00,0.00,6892,7540,6182,0,0,0,53,100,0
6954,7648,6252,59,101,67,10240,-1.00,-1.00,0.00,0.00,6894,7544,6184,0,0,0,53,100,0
6957,7654,6254,59,103,67,10240,-1.00,-1.00,0.00,0.00,6896,7547,6187,0,0,0,53,100,0
6966,7674,6266,61,108,69,10240,-1.00,-1.00,0.00,0.00,6898,7552,6189,0,0,0,53,100,0
6965,7672,6267,63,112,71,10240,-1.00,-1.00,0.00,0.00,6900,7556,6192,0,0,0,53,100,0
6962,7669,6264,63,113,72,10240,-1.00,-1.00,0.00,0.00,6903,7559,6194,0,0,0,53,100,0
6956,7659,6254,61,111,70,10240,-1.00,-1.00,0.00,0.00,6904,7563,6196,8,19,13,53,100,0
6951,7647,6250,55,100,63,10240,-1.00,-1.00,1.20,0.55,6906,7566,6198,8,19,13,53,100,0
6949,7642,6249,49,90,57,10240,-1.00,-1.00,1.20,0.55,6907,7568,6200,8,19,13,53,100,0
6948,7641,6250,44,80,52,10240,-1.00,-1.00,1.20,0.55,6909,7571,6201,8,19,13,53,100,0
6947,7642,6249,40,73,49,10240,-1.00,-1.00,1.20,0.55,6910,7573,6203,8,19,13,53,100,0
6948,7642,6248,38,70,47,10240,-1.00,-1.00,1.20,0.55,6911,7575,6204,8,19,13,53,100,0
6949,7640,6246,37,67,44,10240,-1.00,-1.00,1.20,0.55,6912,7577,6206,8,19,13,53,100,0
6949,7639,6245,36,64,42,10240,-1.00,-1.00,1.20,0.55,6914,7579,6207,8,19,13,53,100,0
6949,7639,6245,35,62,39,10240,-1.00,-1.00,1.20,0.55,6915,7581,6208,8,19,13,53,100,0
6949,7640,6245,34,59,37,10240,-1.00,-1.00,1.20,0.55,6916,7583,6210,8,19,13,53,100,0
6951,7643,6245,34,58,36,10240,-1.00,-1.00,1.20,0.55,6917,7585,6211,8,19,13,53,100,0
6951,7645,6247,33,57,35,10240,-1.00,-1.00,1.20,0.55,6918,7587,6212,8,19,13,53,100,0
6954,7650,6248,33,58,34,10240,-1.00,-1.00,1.20,0.55,6920,7590,6213,8,19,13,53,100,0
6955,7651,6248,33,58,34,10240,-1.00,-1.00,1.20,0.55,6921,7592,6214,8,19,13,53,100,0
6957,7653,6250,34,59,34,10240,-1.00,-1.00,1.20,0.55,6922,7594,6216,8,19,13,53,100,0
6958,7657,6251,34,59,34,10240,-1.00,-1.00,1.20,0.55,6923,7596,6217,8,19,13,53,100,0
6961,7663,6253,35,61,34,10240,-1.00,-1.00,1.20,0.55,6924,7598,6218,8,19,13,53,100,0
6966,7667,6255,36,63,34,10240,-1.00,-1.00,1.20,0.55,6926,7600,6219,8,19,13,53,100,0
6966,7671,6256,37,65,35,10240,-1.00,-1.00,1.20,0.55,6927,7603,6220,8,19,13,53,100,0
6965,7668,6254,38,65,34,10240,-1.00,-1.00,1.20,0.55,6928,7605,6222,8,19,13,53,100,0
6966,7668,6255,38,64,34,10240,-1.00,-1.00,1.20,0.55,6930,7607,6223,8,19,13,53,100,0
6960,7661,6249,35,61,31,10240,-1.00,-1.00,1.20,0.55,6931,7609,6224,8,19,13,53,100,0
6958,7656,6249,32,55,28,10240,-1.00,-1.00,1.20,0.55,6932,7610,6224,8,19,13,53,100,0
6956,7653,6247,28,50,26,10240,-1.00,-1.00,1.20,0.55,6932,7612,6225,8,19,13,53,100,0
6958,7654,6248,26,45,23,10240,-1.00,-1.00,1.20,0.55,6933,7613,6226,8,19,13,53,100,0
6957,7654,6247,24,42,22,10240,-1.00,-1.00,1.20,0.55,6934,7614,6227,8,19,13,53,100,0
6958,7657,6249,23,40,21,10240,-1.00,-1.00,1.20,0.55,6935,7616,6227,8,19,13,53,100,0
6959,7659,6250,23,41,21,10240,-1.00,-1.00,1.20,0.55,6936,7617,6228,8,19,13,53,100,0
6963,7666,6254,24,42,22,10240,-1.00,-1.00,1.20,0.55,6936,7619,6229,8,19,13,53,100,0
6965,7668,6254,25,44,23,10240,-1.00,-1.00,1.20,0.55,6937,7621,6230,8,19,13,53,100,0
6967,7671,6256,26,46,24,10240,-1.00,-1.00,1.20,0.55,6938,7622,6231,8,19,13,53,100,0
6970,7675,6255,28,48,24,10240,-1.00,-1.00,1.20,0.55,6940,7624,6231,8,19,13,53,100,0
6972,7679,6258,29,50,24,10240,-1.00,-1.00,1.20,0.55,6941,7626,6232,8,19,13,53,100,0
6974,7681,6259,30,51,25,10240,-1.00,-1.00,1.20,0.55,6942,7628,6233,8,19,13,53,100,0
6976,7683,6261,31,52,25,10240,-1.00,-1.00,1.20,0.55,6943,7629,6234,8,19,13,53,100,0
6976,7683,6262,32,53,26,10240,-1.00,-1.00,1.20,0.55,6944,7631,6235,8,19,13,53,100,0
6978,7682,6263,32,52,26,10240,-1.00,-1.00,1.20,0.55,6945,7633,6236,8,19,13,53,100,0
6979,7683,6263,32,50,26,10240,-1.00,-1.00,1.20,0.55,6946,7635,6237,8,19,13,53,100,0
6983,7683,6269,33,49,27,10240,-1.00,-1.00,1.20,0.55,6947,7636,6238,8,19,13,53,100,0
6985,7683,6269,34,47,28,10240,-1.00,-1.00,1.20,0.55,6949,7638,6239,8,19,13,53,100,0
6982,7683,6266,34,46,28,10240,-1.00,-1.00,1.20,0.55,6950,7639,6240,8,19,13,53,100,0
6982,7683,6264,33,44,27,10240,-1.00,-1.00,1.20,0.55,6951,7641,6241,8,19,13,53,100,0
6979,7683,6262,31,43,25,10240,-1.00,-1.00,1.20,0.55,6952,7642,6241,8,19,13,53,100,0
6977,7681,6261,28,41,22,10240,-1.00,-1.00,1.20,0.55,6953,7643,6242,8,19,13,53,100,0
6975,7681,6258,26,39,19,10240,-1.00,-1.00,1.20,0.55,6953,7645,6243,8,19,13,53,100,0
6975,7679,6258,23,37,17,10240,-1.00,-1.00,1.20,0.55,6954,7646,6243,8,19,13,53,100,0
6973,7680,6256,21,35,15,10240,-1.00,-1.00,1.20,0.55,6955,7647,6244,8,19,13,53,100,0
6975,7680,6257,20,33,13,10240,-1.00,-1.00,1.20,0.55,6955,7648,6244,8,19,13,53,100,0
6977,7682,6260,20,32,13,10240,-1.00,-1.00,1.20,0.55,6956,7649,6245,8,19,13,53,100,0
6977,7682,6261,19,32,14,10240,-1.00,-1.00,1.20,0.55,6957,7650,6245,8,19,13,53,100,0
6979,7683,6262,20,32,15,10240,-1.00,-1.00,1.20,0.55,6958,7651,6246,8,19,13,53,100,0
6981,7683,6264,21,31,16,10240,-1.00,-1.00,1.20,0.55,6958,7653,6246,8,19,13,53,100,0
6981,7683,6266,21,30,17,10240,-1.00,-1.00,1.20,0.55,6959,7654,6247,8,19,13,53,100,0
6986,7683,6266,23,30,17,10240,-1.00,-1.00,1.20,0.55,6960,7654,6248,8,19,13,53,100,0
6986,7683,6266,24,29,18,10240,-1.00,-1.00,1.20,0.55,6961,7655,6248,8,19,13,53,100,0
6985,7683,6265,24,28,17,10240,-1.00,-1.00,1.20,0.55,6962,7656,6249,8,19,13,53,100,0
6988,7683,6267,24,27,17,10240,-1.00,-1.00,1.20,0.55,6963,7657,6249,8,19,13,53,100,0
6991,7684,6270,25,26,18,10240,-1.00,-1.00,1.20,0.55,6963,7658,6250,8,19,13,53,100,0
6994,7686,6274,26,26,19,10240,-1.00,-1.00,1.20,0.55,6964,7659,6251,8,19,13,53,100,0
6996,7685,6274,28,26,20,10240,-1.00,-1.00,1.20,0.55,6966,7660,6252,8,19,13,53,100,0
6998,7688,6276,29,26,22,10240,-1.00,-1.00,1.20,0.55,6967,7661,6252,8,19,13,53,100,0
6996,7687,6275,29,26,22,10240,-1.00,-1.00,1.20,0.55,6968,7662,6253,8,19,13,53,100,0
6994,7683,6272,28,24,21,10240,-1.00,-1.00,1.20,0.55,6968,7662,6254,8,19,15,53,100,0
6990,7683,6269,26,23,19,10240,-1.00,-1.00,1.03,0.48,6969,7663,6254,8,19,15,53,100,0
6987,7683,6265,23,21,16,10240,-1.00,-1.00,1.03,0.48,6970,7664,6255,8,19,15,53,100,0
6984,7683,6264,19,19,13,10240,-1.00,-1.00,1.03,0.48,6970,7664,6255,8,19,15,53,100,0
6984,7683,6264,16,19,10,10240,-1.00,-1.00,1.03,0.48,6971,7665,6255,8,19,15,53,100,0
6984,7683,6263,14,18,8,10240,-1.00,-1.00,1.03,0.48,6971,7666,6256,8,19,15,53,100,0
6985,7683,6263,13,17,8,10240,-1.00,-1.00,1.03,0.48,6972,7666,6256,8,19,15,53,100,0
6986,7683,6263,13,17,7,10240,-1.00,-1.00,1.03,0.48,6972,7667,6256,8,19,15,53,100,0
6987,7683,6264,13,16,7,10240,-1.00,-1.00,1.03,0.48,6973,7667,6256,8,19,15,53,100,0
6987,7683,6264,13,16,7,10240,-1.00,-1.00,1.03,0.48,6973,7668,6257,8,19,15,53,100,0
6988,7683,6264,14,15,7,10240,-1.00,-1.00,1.03,0.48,6974,7668,6257,8,19,15,53,100,0
6990,7683,6266,14,15,7,10240,-1.00,-1.00,1.03,0.48,6974,7669,6257,8,19,15,53,100,0
6992,7683,6266,15,14,8,10240,-1.00,-1.00,1.03,0.48,6975,7669,6257,8,19,15,53,100,0
6991,7683,6267,15,14,8,10240,-1.00,-1.00,1.03,0.48,6975,7670,6258,8,19,15,53,100,0
6992,7683,6268,16,13,9,10240,-1.00,-1.00,1.03,0.48,6976,7670,6258,8,19,15,53,100,0
6995,7684,6270,17,13,10,10240,-1.00,-1.00,1.03,0.48,6976,7671,6258,8,19,15,53,100,0
6999,7687,6274,18,13,11,10240,-1.00,-1.00,1.03,0.48,6977,7671,6259,8,19,15,53,100,0
7000,7688,6273,19,14,12,10240,-1.00,-1.00,1.03,0.48,6978,7672,6259,8,19,15,53,100,0
7002,7689,6274,21,15,13,10240,-1.00,-1.00,1.03,0.48,6979,7672,6260,8,19,15,53,100,0
7003,7692,6276,22,17,14,10240,-1.00,-1.00,1.03,0.48,6980,7673,6260,8,19,15,53,100,0
7003,7693,6275,22,17,14,10240,-1.00,-1.00,1.03,0.48,6980,7674,6261,8,19,15,53,100,0
6995,7683,6267,20,16,12,10240,-1.00,-1.00,1.03,0.48,6981,7674,6261,8,19,15,53,100,0
6991,7683,6263,17,14,9,10240,-1.00,-1.00,1.03,0.48,6981,7674,6261,8,19,15,53,100,0
6987,7683,6259,13,11,5,10240,-1.00,-1.00,1.03,0.48,6981,7675,6261,8,19,15,53,100,0
6985,7683,6258,8,8,0,10240,-1.00,-1.00,1.03,0.48,6981,7675,6261,8,19,15,53,100,0
6982,7682,6256,5,8,-2,10240,-1.00,-1.00,1.03,0.48,6982,7675,6261,8,19,15,53,100,0
6983,7681,6255,2,7,-4,10240,-1.00,-1.00,1.03,0.48,6982,7675,6261,8,19,15,53,100,0
6984,7680,6256,1,6,-4,10240,-1.00,-1.00,1.03,0.48,6982,7676,6261,8,19,15,53,100,0
6982,7679,6254,0,5,-5,10240,-1.00,-1.00,1.03,0.48,6982,7676,6260,8,19,15,53,100,0
6983,7679,6254,1,4,-5,10240,-1.00,-1.00,1.03,0.48,6982,7676,6260,8,19,15,53,100,0
6983,7681,6256,1,3,-5,10240,-1.00,-1.00,1.03,0.48,6982,7676,6260,8,19,15,53,100,0
6984,7682,6256,1,4,-5,10240,-1.00,-1.00,1.03,0.48,6982,7676,6260,8,19,15,53,100,0
6987,7683,6258,2,5,-4,10240,-1.00,-1.00,1.03,0.48,6982,7676,6260,8,19,15,53,100,0
6988,7683,6259,3,6,-2,10240,-1.00,-1.00,1.03,0.48,6982,7677,6260,8,19,15,53,100,0
6988,7683,6259,4,6,-2,10240,-1.00,-1.00,1.03,0.48,6982,7677,6260,8,19,15,53,100,0
6990,7683,6260,6,6,-1,10240,-1.00,-1.00,1.03,0.48,6983,7677,6260,8,19,15,53,100,0
6993,7683,6263,7,6,0,10240,-1.00,-1.00,1.03,0.48,6983,7677,6260,8,19,15,53,100,0
6995,7684,6266,8,6,2,10240,-1.00,-1.00,1.03,0.48,6983,7677,6260,8,19,15,53,100,0
6997,7683,6266,10,6,3,10240,-1.00,-1.00,1.03,0.48,6984,7678,6260,8,19,15,53,100,0
6999,7683,6266,12,5,5,10240,-1.00,-1.00,1.03,0.48,6984,7678,6260,8,19,15,53,100,0
7002,7686,6270,14,6,6,10240,-1.00,-1.00,1.03,0.48,6985,7678,6261,8,19,15,53,100,0
7001,7685,6268,15,6,7,10240,-1.00,-1.00,1.03,0.48,6985,7678,6261,8,19,15,53,100,0
6991,7683,6258,13,6,4,10240,-1.00,-1.00,1.03,0.48,6986,7678,6261,8,19,15,53,100,0
6985,7681,6254,9,5,1,10240,-1.00,-1.00,1.03,0.48,6986,7679,6261,8,19,15,53,100,0
6980,7674,6249,3,2,-3,10240,-1.00,-1.00,1.03,0.48,6985,7678,6260,8,19,15,53,100,0
6977,7670,6248,-2,-1,-8,10240,-1.00,-1.00,1.03,0.48,6985,7678,6260,8,19,15,53,100,0
6976,7662,6245,-5,-6,-11,10240,-1.00,-1.00,1.03,0.48,6985,7678,6259,8,19,15,53,100,0
6976,7666,6246,-7,-9,-12,10240,-1.00,-1.00,1.03,0.48,6985,7677,6259,8,19,15,53,100,0
6977,7670,6247,-8,-10,-12,10240,-1.00,-1.00,1.03,0.48,6984,7677,6259,8,19,15,53,100,0
6977,7668,6246,-8,-10,-12,10240,-1.00,-1.00,1.03,0.48,6984,7677,6258,8,19,15,53,100,0
6977,7667,6246,-7,-9,-12,10240,-1.00,-1.00,1.03,0.48,6984,7676,6258,8,19,15,53,100,0
6979,7675,6248,-6,-6,-11,10240,-1.00,-1.00,1.03,0.48,6984,7676,6257,8,19,15,53,100,0
6984,7680,6253,-4,-3,-9,10240,-1.00,-1.00,1.03,0.48,6984,7676,6257,8,19,15,53,100,0
6984,7681,6254,-3,0,-7,10240,-1.00,-1.00,1.03,0.48,6984,7677,6257,8,19,15,53,100,0
6986,7682,6255,0,3,-4,10240,-1.00,-1.00,1.03,0.48,6984,7677,6257,8,19,15,53,100,0
6987,7683,6255,1,4,-2,10240,-1.00,-1.00,1.03,0.48,6984,7677,6257,8,19,15,53,100,0
6990,7683,6257,2,5,-1,10240,-1.00,-1.00,1.03,0.48,6984,7677,6257,8,19,15,53,100,0
6993,7683,6261,5,5,0,10240,-1.00,-1.00,1.03,0.48,6984,7677,6257,8,19,15,53,100,0
6995,7683,6263,7,5,2,10240,-1.00,-1.00,1.03,0.48,6985,7678,6257,8,19,15,53,100,0
6998,7683,6264,9,5,4,10240,-1.00,-1.00,1.03,0.48,6985,7678,6258,8,19,15,53,100,0
7001,7685,6267,11,5,6,10240,-1.00,-1.00,1.03,0.48,6986,7678,6258,8,19,15,53,100,0
7000,7685,6266,13,6,7,10240,-1.00,-1.00,1.03,0.48,6986,7678,6258,8,19,15,53,100,0
6986,7683,6252,10,6,4,10240,-1.00,-1.00,1.03,0.48,6986,7678,6258,11,19,15,53,100,0
6976,7665,6241,4,1,-1,10240,-1.00,-1.00,1.03,0.48,6986,7678,6257,11,19,15,53,100,0
6962,7646,6232,-4,-8,-9,10240,-1.00,-1.00,1.03,0.48,6985,7677,6257,11,19,15,53,100,0
6956,7637,6229,-15,-19,-18,10240,-1.00,-1.00,1.03,0.48,6984,7675,6256,11,19,15,53,100,0
6956,7637,6229,-22,-29,-23,10240,-1.00,-1.00,1.03,0.48,6983,7674,6255,11,19,15,53,100,0
6957,7638,6228,-25,-35,-26,10240,-1.00,-1.00,1.03,0.48,6982,7673,6254,11,19,15,53,100,0
6959,7641,6230,-25,-35,-25,10240,-1.00,-1.00,1.03,0.48,6981,7672,6253,11,19,15,53,100,0
6959,7643,6231,-24,-32,-24,10240,-1.00,-1.00,1.03,0.48,6981,7671,6252,11,19,15,53,100,0
6962,7647,6235,-21,-29,-21,10240,-1.00,-1.00,1.03,0.48,6980,7670,6252,11,19,15,53,100,0
6964,7650,6235,-19,-25,-19,10240,-1.00,-1.00,1.03,0.48,6980,7670,6251,11,19,15,53,100,0
6969,7657,6240,-16,-20,-16,10240,-1.00,-1.00,1.03,0.48,6979,7669,6251,11,19,15,53,100,0
6972,7663,6241,-12,-15,-13,10240,-1.00,-1.00,1.03,0.48,6979,7669,6250,11,19,15,53,100,0
6977,7670,6245,-8,-9,-10,10240,-1.00,-1.00,1.03,0.48,6979,7669,6250,11,19,15,53,100,0
6979,7674,6248,-4,-3,-6,10240,-1.00,-1.00,1.03,0.48,6979,7669,6250,11,19,15,53,100,0
6982,7679,6250,-1,2,-4,10240,-1.00,-1.00,1.03,0.48,6979,7669,6250,11,19,15,53,100,0
6987,7683,6254,2,7,0,10240,-1.00,-1.00,1.03,0.48,6979,7670,6250,11,19,15,53,100,0
6988,7683,6257,4,10,2,10240,-1.00,-1.00,1.03,0.48,6980,7670,6251,11,19,15,53,100,0
6992,7683,6259,7,12,4,10240,-1.00,-1.00,1.03,0.48,6980,7671,6251,11,19,15,53,100,0
6992,7683,6258,10,12,6,10240,-1.00,-1.00,1.03,0.48,6980,7671,6251,11,19,15,53,100,0
6992,7683,6259,10,12,7,10240,-1.00,-1.00,1.03,0.48,6981,7672,6251,11,19,15,53,100,0
6977,7673,6244,7,9,4,10240,-1.00,-1.00,1.03,0.48,6981,7672,6251,17,26,19,53,100,0
6959,7643,6229,0,-1,-3,10240,-1.00,-1.00,1.11,0.80,6980,7671,6250,17,26,19,53,100,0
6948,7618,6222,-11,-16,-11,10240,-1.00,-1.00,1.11,0.80,6979,7669,6249,17,26,19,53,100,0
6938,7602,6213,-23,-35,-22,10240,-1.00,-1.00,1.11,0.80,6977,7667,6248,17,26,19,53,100,0
6933,7595,6209,-33,-53,-30,10240,-1.00,-1.00,1.11,0.80,6976,7664,6247,17,26,19,53,100,0
6931,7595,6211,-39,-63,-33,10240,-1.00,-1.00,1.11,0.80,6974,7662,6246,17,26,19,53,100,0
6934,7600,6214,-41,-65,-34,10240,-1.00,-1.00,1.11,0.80,6973,7660,6245,17,26,19,53,100,0
6937,7602,6215,-40,-63,-33,10240,-1.00,-1.00,1.11,0.80,6972,7658,6244,17,26,19,53,100,0
6937,7604,6217,-37,-58,-30,10240,-1.00,-1.00,1.11,0.80,6971,7656,6243,17,26,19,53,100,0
6940,7608,6220,-34,-53,-27,10240,-1.00,-1.00,1.11,0.80,6970,7655,6242,17,26,19,53,100,0
6946,7619,6227,-30,-47,-22,10240,-1.00,-1.00,1.11,0.80,6969,7653,6241,17,26,19,53,100,0
6947,7623,6227,-27,-40,-19,10240,-1.00,-1.00,1.11,0.80,6968,7652,6241,17,26,19,53,100,0
6950,7627,6230,-23,-33,-15,10240,-1.00,-1.00,1.11,0.80,6968,7651,6241,17,26,19,53,100,0
6951,7632,6231,-19,-26,-12,10240,-1.00,-1.00,1.11,0.80,6967,7651,6240,17,26,19,53,100,0
6952,7638,6233,-17,-21,-10,10240,-1.00,-1.00,1.11,0.80,6967,7650,6240,17,26,19,53,100,0
6957,7646,6234,-14,-14,-8,10240,-1.00,-1.00,1.11,0.80,6966,7650,6240,17,26,19,53,100,0
6960,7648,6238,-11,-9,-6,10240,-1.00,-1.00,1.11,0.80,6966,7650,6240,17,26,19,53,100,0
6964,7654,6241,-8,-3,-3,10240,-1.00,-1.00,1.11,0.80,6966,7650,6240,17,26,19,53,100,0
6967,7661,6244,-4,2,0,10240,-1.00,-1.00,1.11,0.80,6966,7651,6240,17,26,19,53,100,0
6970,7665,6246,0,6,2,10240,-1.00,-1.00,1.11,0.80,6966,7651,6240,17,26,19,53,100,0
6949,7626,6228,-3,1,0,10240,-1.00,-1.00,1.11,0.80,6966,7650,6240,23,37,24,53,100,0
6932,7596,6215,-11,-13,-6,10240,-1.00,-1.00,1.26,0.86,6964,7649,6239,23,37,24,53,100,0
6906,7558,6193,-25,-37,-18,10240,-1.00,-1.00,1.26,0.86,6962,7646,6237,23,37,24,53,100,0
6881,7522,6172,-46,-71,-35,10240,-1.00,-1.00,1.26,0.86,6960,7641,6235,23,37,24,53,100,0
6864,7496,6157,-65,-100,-51,10240,-1.00,-1.00,1.26,0.86,6957,7637,6233,23,37,24,53,100,0
6855,7487,6151,-81,-123,-65,10240,-1.00,-1.00,1.26,0.86,6953,7632,6230,23,37,24,53,100,0
6855,7487,6152,-91,-136,-73,10240,-1.00,-1.00,1.26,0.86,6950,7627,6227,23,37,24,53,100,0
6857,7491,6157,-94,-139,-74,10240,-1.00,-1.00,1.26,0.86,6947,7622,6225,23,37,24,53,100,0
6859,7497,6163,-92,-134,-70,10240,-1.00,-1.00,1.26,0.86,6944,7618,6223,23,37,24,53,100,0
6869,7503,6168,-85,-125,-64,10240,-1.00,-1.00,1.26,0.86,6941,7614,6221,23,37,24,53,100,0
6873,7517,6175,-78,-114,-56,10240,-1.00,-1.00,1.26,0.86,6939,7611,6220,23,37,24,53,100,0
6878,7523,6178,-70,-102,-49,10240,-1.00,-1.00,1.26,0.86,6937,7608,6218,23,37,24,53,100,0
6881,7530,6183,-62,-91,-43,10240,-1.00,-1.00,1.26,0.86,6935,7605,6217,23,37,24,53,100,0
6884,7534,6186,-57,-80,-37,10240,-1.00,-1.00,1.26,0.86,6933,7603,6216,23,37,24,53,100,0
6893,7545,6190,-50,-71,-32,10240,-1.00,-1.00,1.26,0.86,6932,7601,6215,23,37,24,53,100,0
6900,7551,6198,-43,-62,-26,10240,-1.00,-1.00,1.26,0.86,6931,7599,6215,23,37,24,53,100,0
6903,7557,6202,-36,-53,-21,10240,-1.00,-1.00,1.26,0.86,6930,7598,6214,23,37,24,53,100,0
6905,7562,6203,-30,-45,-16,10240,-1.00,-1.00,1.26,0.86,6929,7597,6214,23,37,24,53,100,0
6908,7566,6205,-25,-38,-12,10240,-1.00,-1.00,1.26,0.86,6929,7596,6213,23,37,24,53,100,0
6914,7576,6209,-21,-31,-8,10240,-1.00,-1.00,1.26,0.86,6928,7595,6213,23,37,24,53,100,0
6908,7567,6204,-19,-27,-8,10240,-1.00,-1.00,1.26,0.86,6927,7594,6213,23,37,24,53,100,0
6895,7544,6190,-21,-31,-10,10240,-1.00,-1.00,1.26,0.86,6926,7593,6212,36,56,34,53,100,0
6874,7515,6172,-28,-42,-18,10240,-1.00,-1.00,1.35,0.95,6925,7590,6211,36,56,34,53,100,0
6850,7479,6151,-43,-64,-32,10240,-1.00,-1.00,1.35,0.95,6922,7586,6209,36,56,34,53,100,0
6812,7424,6146,-65,-97,-45,10240,-1.00,-1.00,1.35,0.95,6918,7581,6207,36,56,34,53,100,0
6804,7416,6142,-85,-124,-55,10240,-1.00,-1.00,1.35,0.95,6915,7575,6205,36,56,34,53,100,0
6801,7412,6143,-99,-145,-60,10240,-1.00,-1.00,1.35,0.95,6911,7570,6203,36,56,34,53,100,0
6803,7416,6144,-107,-155,-60,10240,-1.00,-1.00,1.35,0.95,6907,7565,6201,36,56,34,53,100,0
6807,7424,6147,-105,-150,-58,10240,-1.00,-1.00,1.35,0.95,6904,7560,6199,36,56,34,53,100,0
6817,7435,6147,-98,-141,-54,10240,-1.00,-1.00,1.35,0.95,6901,7556,6197,36,56,34,53,100,0
6821,7442,6147,-90,-129,-51,10240,-1.00,-1.00,1.35,0.95,6898,7552,6195,36,56,34,53,100,0
6826,7448,6147,-82,-117,-49,10240,-1.00,-1.00,1.35,0.95,6896,7549,6194,36,56,34,53,100,0
6831,7455,6147,-73,-105,-47,10240,-1.00,-1.00,1.35,0.95,6894,7546,6192,36,56,34,53,100,0
6834,7463,6149,-67,-95,-45,10240,-1.00,-1.00,1.35,0.95,6892,7543,6191,36,56,34,53,100,0
6846,7481,6155,-58,-83,-42,10240,-1.00,-1.00,1.35,0.95,6890,7541,6190,36,56,34,53,100,0
6851,7489,6161,-50,-70,-37,10240,-1.00,-1.00,1.35,0.95,6889,7539,6189,36,56,34,53,100,0
6854,7493,6164,-43,-58,-32,10240,-1.00,-1.00,1.35,0.95,6888,7537,6188,36,56,34,53,100,0
6859,7500,6169,-36,-47,-26,10240,-1.00,-1.00,1.35,0.95,6887,7536,6187,36,56,34,53,100,0
6863,7505,6173,-30,-40,-21,10240,-1.00,-1.00,1.35,0.95,6886,7535,6187,36,56,34,53,100,0
6872,7516,6178,-24,-32,-16,10240,-1.00,-1.00,1.35,0.95,6886,7535,6186,36,56,34,53,100,0
6874,7519,6179,-19,-25,-11,10240,-1.00,-1.00,1.35,0.95,6885,7534,6186,36,56,34,53,100,0
6869,7514,6174,-16,-20,-10,10240,-1.00,-1.00,1.35,0.95,6885,7533,6186,36,56,34,53,100,0
6852,7487,6156,-18,-24,-14,10240,-1.00,-1.00,1.35,0.95,6884,7532,6185,50,75,38,53,100,0
6830,7451,6147,-27,-39,-21,10240,-1.00,-1.00,1.62,1.18,6882,7529,6183,50,75,38,53,100,0
6778,7378,6119,-50,-72,-34,10240,-1.00,-1.00,1.62,1.18,6878,7524,6181,50,75,38,53,100,0
6759,7355,6104,-74,-108,-50,10240,-1.00,-1.00,1.62,1.18,6874,7518,6179,50,75,38,53,100,0
6748,7340,6098,-97,-139,-62,10240,-1.00,-1.00,1.62,1.18,6870,7512,6176,50,75,38,53,100,0
6744,7336,6097,-114,-163,-72,10240,-1.00,-1.00,1.62,1.18,6866,7507,6173,50,75,38,53,100,0
6747,7341,6100,-118,-166,-75,10240,-1.00,-1.00,1.62,1.18,6862,7501,6171,50,75,38,53,100,0
6760,7362,6111,-114,-159,-70,10240,-1.00,-1.00,1.62,1.18,6859,7496,6169,50,75,38,53,100,0
6764,7366,6115,-106,-147,-64,10240,-1.00,-1.00,1.62,1.18,6855,7492,6167,50,75,38,53,100,0
6769,7372,6121,-97,-134,-56,10240,-1.00,-1.00,1.62,1.18,6853,7488,6166,50,75,38,53,100,0
6773,7379,6123,-87,-120,-49,10240,-1.00,-1.00,1.62,1.18,6850,7484,6164,50,75,38,53,100,0
6779,7385,6129,-80,-110,-43,10240,-1.00,-1.00,1.62,1.18,6847,7481,6163,50,75,38,53,100,0
6790,7403,6140,-71,-98,-35,10240,-1.00,-1.00,1.62,1.18,6846,7479,6162,50,75,38,53,100,0
6794,7408,6142,-62,-86,-29,10240,-1.00,-1.00,1.62,1.18,6844,7476,6162,50,75,38,53,100,0
6801,7415,6145,-53,-74,-23,10240,-1.00,-1.00,1.62,1.18,6842,7474,6161,50,75,38,53,100,0
6807,7423,6147,-45,-63,-18,10240,-1.00,-1.00,1.62,1.18,6841,7472,6161,50,75,38,53,100,0
6814,7433,6147,-37,-53,-15,10240,-1.00,-1.00,1.62,1.18,6840,7471,6160,50,75,38,53,100,0
6824,7445,6147,-29,-42,-14,10240,-1.00,-1.00,1.62,1.18,6840,7470,6160,50,75,38,53,100,0
6828,7451,6148,-21,-32,-12,10240,-1.00,-1.00,1.62,1.18,6839,7470,6159,50,75,38,53,100,0
6829,7454,6147,-15,-24,-12,10240,-1.00,-1.00,1.62,1.18,6839,7469,6159,50,75,38,53,100,0
6824,7445,6147,-13,-20,-12,10240,-1.00,-1.00,1.62,1.18,6839,7468,6159,50,75,38,53,100,0
6806,7420,6144,-16,-26,-12,10240,-1.00,-1.00,1.62,1.18,6837,7467,6158,64,93,38,53,100,0
6757,7354,6108,-33,-48,-21,10240,-1.00,-1.00,1.62,1.18,6835,7463,6156,64,93,44,53,100,0
6733,7316,6088,-55,-80,-35,10240,-1.00,-1.00,1.74,1.31,6831,7458,6154,64,93,44,53,100,0
6717,7292,6074,-79,-114,-51,10240,-1.00,-1.00,1.74,1.31,6828,7453,6151,64,93,44,53,100,0
6708,7279,6069,-100,-145,-67,10240,-1.00,-1.00,1.74,1.31,6824,7447,6149,64,93,44,53,100,0
6708,7277,6068,-109,-158,-75,10240,-1.00,-1.00,1.74,1.31,6820,7441,6146,64,93,44,53,100,0
6713,7290,6077,-110,-159,-75,10240,-1.00,-1.00,1.74,1.31,6816,7436,6144,64,93,44,53,100,0
6716,7296,6079,-107,-153,-72,10240,-1.00,-1.00,1.74,1.31,6813,7431,6142,64,93,44,53,100,0
6724,7307,6083,-99,-141,-66,10240,-1.00,-1.00,1.74,1.31,6810,7427,6140,64,93,44,53,100,0
6727,7313,6087,-91,-127,-59,10240,-1.00,-1.00,1.74,1.31,6807,7423,6138,64,93,44,53,100,0
6734,7323,6092,-83,-115,-53,10240,-1.00,-1.00,1.74,1.31,6805,7420,6136,64,93,44,53,100,0
6741,7334,6101,-74,-102,-46,10240,-1.00,-1.00,1.74,1.31,6803,7417,6135,64,93,44,53,100,0
6748,7346,6107,-66,-89,-39,10240,-1.00,-1.00,1.74,1.31,6801,7415,6134,64,93,44,53,100,0
6756,7357,6113,-57,-76,-31,10240,-1.00,-1.00,1.74,1.31,6799,7413,6133,64,93,44,53,100,0
6762,7366,6116,-48,-63,-24,10240,-1.00,-1.00,1.74,1.31,6798,7411,6133,64,93,44,53,100,0
6771,7376,6121,-39,-51,-18,10240,-1.00,-1.00,1.74,1.31,6797,7410,6132,64,93,44,53,100,0
6776,7382,6132,-31,-40,-12,10240,-1.00,-1.00,1.74,1.31,6796,7409,6132,64,93,44,53,100,0
6779,7389,6135,-24,-31,-6,10240,-1.00,-1.00,1.74,1.31,6796,7409,6133,64,93,44,53,100,0
6785,7396,6140,-18,-23,0,10240,-1.00,-1.00,1.74,1.31,6795,7408,6133,64,93,44,53,100,0
6787,7398,6141,-13,-17,4,10240,-1.00,-1.00,1.74,1.31,6795,7408,6133,64,93,44,53,100,0
6764,7364,6132,-16,-21,4,10240,-1.00,-1.00,1.74,1.31,6794,7406,6133,72,105,44,53,100,0
6737,7323,6094,-25,-36,-6,10240,-1.00,-1.00,1.74,1.31,6792,7404,6132,72,105,53,53,100,0
6709,7278,6067,-43,-63,-23,10240,-1.00,-1.00,1.64,1.23,6789,7399,6130,72,105,53,53,100,0
6662,7224,6044,-72,-103,-46,10240,-1.00,-1.00,1.64,1.23,6785,7394,6127,72,105,53,53,100,0
6645,7199,6035,-98,-140,-68,10240,-1.00,-1.00,1.64,1.23,6781,7387,6124,72,105,53,53,100,0
6648,7193,6026,-116,-166,-82,10240,-1.00,-1.00,1.64,1.23,6776,7381,6120,72,105,53,53,100,0
6647,7194,6027,-128,-181,-89,10240,-1.00,-1.00,1.64,1.23,6772,7374,6117,72,105,53,53,100,0
6647,7195,6030,-127,-182,-89,10240,-1.00,-1.00,1.64,1.23,6768,7368,6114,72,105,53,53,100,0
6647,7196,6034,-122,-177,-86,10240,-1.00,-1.00,1.64,1.23,6764,7363,6112,72,105,53,53,100,0
6645,7198,6038,-119,-169,-80,10240,-1.00,-1.00,1.64,1.23,6760,7357,6109,72,105,53,53,100,0
6644,7202,6044,-116,-162,-74,10240,-1.00,-1.00,1.64,1.23,6756,7352,6107,72,105,53,53,100,0
6642,7207,6049,-113,-154,-67,10240,-1.00,-1.00,1.64,1.23,6752,7347,6105,72,105,53,53,100,0
6640,7212,6053,-111,-145,-60,10240,-1.00,-1.00,1.64,1.23,6748,7343,6103,72,105,53,53,100,0
6646,7217,6054,-107,-135,-54,10240,-1.00,-1.00,1.64,1.23,6745,7338,6102,72,105,53,53,100,0
6650,7219,6052,-102,-127,-50,10240,-1.00,-1.00,1.64,1.23,6742,7335,6100,72,105,53,53,100,0
6669,7225,6045,-92,-118,-49,10240,-1.00,-1.00,1.64,1.23,6739,7331,6098,72,105,53,53,100,0
6678,7233,6047,-80,-109,-49,10240,-1.00,-1.00,1.64,1.23,6737,7328,6097,72,105,53,53,100,0
6683,7247,6058,-68,-98,-47,10240,-1.00,-1.00,1.64,1.23,6735,7325,6095,72,105,53,53,100,0
6692,7262,6065,-55,-85,-42,10240,-1.00,-1.00,1.64,1.23,6734,7323,6094,72,105,53,53,100,0
6697,7268,6070,-47,-71,-34,10240,-1.00,-1.00,1.64,1.23,6733,7321,6093,72,105,53,53,100,0
6701,7275,6073,-40,-59,-27,10240,-1.00,-1.00,1.64,1.23,6732,7319,6093,72,105,53,53,100,0
6687,7252,6059,-38,-55,-26,10240,-1.00,-1.00,1.64,1.23,6730,7317,6092,72,105,53,53,100,0
6653,7218,6051,-46,-64,-28,10240,-1.00,-1.00,1.64,1.23,6728,7314,6090,76,111,56,53,100,0
6644,7200,6041,-57,-78,-35,10240,-1.00,-1.00,1.65,1.23,6725,7310,6089,76,111,56,53,100,0
6628,7171,6017,-73,-101,-47,10240,-1.00,-1.00,1.65,1.23,6722,7305,6086,76,111,56,53,100,0
6568,7088,5977,-99,-137,-65,10240,-1.00,-1.00,1.65,1.23,6716,7298,6083,76,111,56,53,100,0
6555,7072,5970,-119,-168,-83,10240,-1.00,-1.00,1.65,1.23,6711,7291,6079,76,111,56,53,100,0
6553,7069,5970,-137,-194,-97,10240,-1.00,-1.00,1.65,1.23,6706,7283,6075,76,111,56,53,100,0
6555,7074,5973,-150,-211,-104,10240,-1.00,-1.00,1.65,1.23,6701,7276,6072,76,111,56,53,100,0
6565,7080,5977,-146,-206,-101,10240,-1.00,-1.00,1.65,1.23,6696,7270,6069,76,111,56,53,100,0
6570,7097,5987,-138,-193,-93,10240,-1.00,-1.00,1.65,1.23,6692,7264,6066,76,111,56,53,100,0
6577,7105,5991,-127,-178,-85,10240,-1.00,-1.00,1.65,1.23,6688,7259,6063,76,111,56,53,100,0
6585,7117,5997,-116,-162,-76,10240,-1.00,-1.00,1.65,1.23,6685,7254,6061,76,111,56,53,100,0
6593,7129,6004,-105,-144,-67,10240,-1.00,-1.00,1.65,1.23,6682,7250,6059,76,111,56,53,100,0
6607,7149,6009,-93,-127,-60,10240,-1.00,-1.00,1.65,1.23,6679,7246,6058,76,111,56,53,100,0
6615,7157,6019,-80,-110,-51,10240,-1.00,-1.00,1.65,1.23,6677,7243,6056,76,111,56,53,100,0
6621,7167,6023,-69,-94,-43,10240,-1.00,-1.00,1.65,1.23,6675,7241,6055,76,111,56,53,100,0
6629,7177,6026,-58,-79,-36,10240,-1.00,-1.00,1.65,1.23,6674,7239,6054,76,111,56,53,100,0
6633,7184,6029,-50,-68,-30,10240,-1.00,-1.00,1.65,1.23,6672,7237,6053,76,111,56,53,100,0
6645,7198,6041,-41,-56,-24,10240,-1.00,-1.00,1.65,1.23,6671,7236,6053,76,111,56,53,100,0
6645,7199,6044,-34,-47,-18,10240,-1.00,-1.00,1.65,1.23,6671,7234,6053,76,111,56,53,100,0
6644,7202,6049,-29,-39,-12,10240,-1.00,-1.00,1.65,1.23,6670,7233,6053,76,111,56,53,100,0
6642,7205,6052,-26,-32,-6,10240,-1.00,-1.00,1.65,1.23,6669,7232,6053,76,111,56,53,100,0
6645,7200,6042,-25,-31,-6,10240,-1.00,-1.00,1.65,1.23,6668,7231,6052,76,111,56,53,100,0
6598,7130,6001,-36,-46,-16,10240,-1.00,-1.00,1.65,1.23,6666,7228,6051,89,128,66,53,100,0
6562,7078,5975,-54,-75,-33,10240,0.34,-0.08,1.62,1.22,6662,7223,6048,89,128,66,53,100,0
6524,7026,5948,-81,-116,-57,10240,0.34,-0.08,1.62,1.22,6658,7216,6045,89,128,66,53,100,0
6498,6996,5935,-114,-161,-81,10240,0.34,-0.08,1.62,1.22,6652,7209,6041,89,128,66,53,100,0
6500,6994,5934,-133,-189,-94,10240,0.34,-0.08,1.62,1.22,6647,7202,6037,89,128,66,53,100,0
6498,6996,5937,-144,-202,-100,10240,0.34,-0.08,1.62,1.22,6642,7195,6034,89,128,66,53,100,0
6497,6996,5941,-146,-203,-99,10240,0.34,-0.08,1.62,1.22,6637,7188,6031,89,128,66,53,100,0
6496,6998,5945,-142,-195,-93,10240,0.34,-0.08,1.62,1.22,6633,7182,6028,89,128,66,53,100,0
6505,7008,5948,-136,-185,-86,10240,0.34,-0.08,1.62,1.22,6628,7176,6025,89,128,66,53,100,0
6513,7017,5951,-128,-174,-80,10240,0.34,-0.08,1.62,1.22,6625,7171,6023,89,128,66,53,100,0
6537,7049,5965,-114,-156,-72,10240,0.34,-0.08,1.62,1.22,6622,7167,6021,89,128,66,53,100,0
6548,7064,5972,-97,-135,-63,10240,0.34,-0.08,1.62,1.22,6619,7164,6019,89,128,66,53,100,0
6556,7078,5979,-82,-113,-53,10240,0.34,-0.08,1.62,1.22,6617,7161,6018,89,128,66,53,100,0
6565,7089,5985,-66,-92,-43,10240,0.34,-0.08,1.62,1.22,6615,7158,6017,89,128,66,53,100,0
6581,7098,5989,-53,-77,-36,10240,0.34,-0.08,1.62,1.22,6614,7156,6016,89,128,66,53,100,0
6590,7119,6000,-41,-61,-28,10240,0.34,-0.08,1.62,1.22,6613,7155,6016,89,128,66,53,100,0
6596,7128,6004,-30,-47,-21,10240,0.34,-0.08,1.62,1.22,6613,7154,6015,89,128,66,53,100,0
6604,7140,6010,-20,-33,-14,10240,0.34,-0.08,1.62,1.22,6613,7154,6015,89,128,66,53,100,0
6608,7147,6012,-13,-20,-8,10240,0.34,-0.08,1.62,1.22,6612,7153,6015,89,128,66,53,100,0
6620,7163,6021,-5,-9,-3,10240,0.34,-0.08,1.62,1.22,6613,7154,6015,89,128,66,53,100,0
6619,7158,6019,0,-1,0,10240,0.34,-0.08,1.62,1.22,6613,7154,6015,89,128,66,53,100,0
6598,7130,6002,-1,-4,-1,10240,0.34,-0.08,1.62,1.22,6612,7153,6015,103,147,75,53,100,0
6575,7098,5986,-9,-15,-7,10240,0.34,-0.08,1.65,1.25,6611,7151,6014,103,147,75,53,100,0
6547,7058,5966,-26,-40,-20,10240,0.34,-0.08,1.65,1.25,6609,7148,6012,103,147,75,53,100,0
6500,6995,5938,-54,-78,-39,10240,0.34,-0.08,1.65,1.25,6605,7143,6010,103,147,75,53,100,0
6498,6996,5937,-76,-108,-54,10240,0.34,-0.08,1.65,1.25,6602,7138,6007,103,147,75,53,100,0
6497,6997,5940,-93,-129,-63,10240,0.34,-0.08,1.65,1.25,6598,7133,6005,103,147,75,53,100,0
6500,7003,5945,-101,-138,-66,10240,0.34,-0.08,1.65,1.25,6595,7129,6003,103,147,75,53,100,0
6508,7013,5950,-96,-129,-61,10240,0.34,-0.08,1.65,1.25,6592,7125,6001,103,147,75,53,100,0
6529,7038,5960,-85,-114,-53,10240,0.34,-0.08,1.65,1.25,6590,7122,6000,103,147,75,53,100,0
6540,7051,5966,-72,-97,-45,10240,0.34,-0.08,1.65,1.25,6588,7120,5999,103,147,75,53,100,0
6549,7066,5972,-57,-79,-37,10240,0.34,-0.08,1.65,1.25,6587,7118,5998,103,147,75,53,100,0
6559,7080,5979,-43,-60,-29,10240,0.34,-0.08,1.65,1.25,6586,7117,5997,103,147,75,53,100,0
6567,7092,5985,-32,-45,-22,10240,0.34,-0.08,1.65,1.25,6585,7116,5997,103,147,75,53,100,0
6585,7115,5996,-20,-28,-14,10240,0.34,-0.08,1.65,1.25,6585,7116,5997,103,147,75,53,100,0
6592,7125,6001,-9,-13,-6,10240,0.34,-0.08,1.65,1.25,6586,7116,5997,103,147,75,53,100,0
6600,7135,6007,0,0,0,10240,0.34,-0.08,1.65,1.25,6586,7117,5997,103,147,75,53,100,0
6609,7148,6015,10,14,7,10240,0.34,-0.08,1.65,1.25,6587,7118,5998,103,147,75,53,100,0
6618,7160,6019,18,24,12,10240,0.34,-0.08,1.65,1.25,6588,7119,5999,103,147,75,53,100,0
6634,7181,6024,27,37,18,10240,0.34,-0.08,1.65,1.25,6589,7121,5999,103,147,75,53,100,0
6640,7188,6028,36,48,22,10240,0.34,-0.08,1.65,1.25,6591,7124,6000,103,147,75,53,100,0
6643,7192,6032,43,57,26,10240,0.34,-0.08,1.65,1.25,6593,7126,6001,103,147,75,53,100,0
6630,7174,6024,45,59,26,10240,0.34,-0.08,1.65,1.25,6594,7128,6002,103,147,75,53,100,0
6608,7143,6007,37,47,21,10240,0.34,-0.08,1.65,1.25,6595,7128,6002,114,159,79,53,100,0
6560,7076,5973,16,19,7,10240,0.34,-0.08,1.69,1.31,6593,7126,6001,114,159,79,53,100,0
6538,7044,5958,-9,-17,-10,10240,0.34,-0.08,1.69,1.31,6592,7124,6000,114,159,79,53,100,0
6525,7029,5952,-34,-51,-27,10240,0.34,-0.08,1.69,1.31,6589,7120,5998,114,159,79,53,100,0
6524,7028,5952,-53,-77,-40,10240,0.34,-0.08,1.69,1.31,6587,7117,5997,114,159,79,53,100,0
6537,7047,5956,-57,-82,-43,10240,0.34,-0.08,1.69,1.31,6586,7115,5996,114,159,79,53,100,0
6547,7063,5970,-53,-74,-39,10240,0.34,-0.08,1.69,1.31,6584,7113,5995,114,159,79,53,100,0
6555,7074,5977,-44,-61,-31,10240,0.34,-0.08,1.69,1.31,6583,7112,5994,114,159,79,53,100,0
6564,7088,5983,-33,-44,-23,10240,0.34,-0.08,1.69,1.31,6583,7111,5994,114,159,79,53,100,0
6575,7100,5990,-22,-30,-14,10240,0.34,-0.08,1.69,1.31,6582,7111,5994,114,159,79,53,100,0
6596,7127,6005,-10,-14,-5,10240,0.34,-0.08,1.69,1.31,6583,7111,5994,114,159,79,53,100,0
6606,7143,6013,2,3,3,10240,0.34,-0.08,1.69,1.31,6584,7112,5995,114,159,79,53,100,0
6614,7156,6019,14,19,12,10240,0.34,-0.08,1.69,1.31,6585,7114,5995,114,159,79,53,100,0
6623,7167,6023,25,35,20,10240,0.34,-0.08,1.69,1.31,6586,7116,5996,114,159,79,53,100,0
6632,7181,6029,33,46,25,10240,0.34,-0.08,1.69,1.31,6587,7118,5997,114,159,79,53,100,0
6646,7196,6041,42,58,31,10240,0.34,-0.08,1.69,1.31,6589,7120,5999,114,159,79,53,100,0
6645,7199,6045,48,66,36,10240,0.34,-0.08,1.69,1.31,6591,7123,6000,114,159,79,53,100,0
6643,7203,6049,51,73,41,10240,0.34,-0.08,1.69,1.31,6593,7126,6002,114,159,79,53,100,0
6641,7207,6053,51,77,45,10240,0.34,-0.08,1.69,1.31,6595,7128,6004,114,159,79,53,100,0
6640,7211,6055,48,78,47,10240,0.34,-0.08,1.69,1.31,6596,7131,6005,112,159,79,53,100,0
6645,7201,6044,46,75,45,10240,0.34,-0.08,1.69,1.31,6598,7134,6007,112,159,82,53,100,0
6637,7186,6026,43,69,38,10240,0.34,-0.08,1.63,1.24,6599,7135,6007,112,159,82,53,100,0
6610,7147,6010,35,52,27,10240,0.34,-0.08,1.63,1.24,6599,7136,6007,112,159,82,53,100,0
6587,7112,5991,21,26,10,10240,0.34,-0.08,1.63,1.24,6599,7135,6007,112,159,82,53,100,0
6569,7089,5979,2,-1,-5,10240,0.34,-0.08,1.63,1.24,6598,7133,6006,112,159,82,53,100,0
6564,7086,5979,-15,-25,-16,10240,0.34,-0.08,1.63,1.24,6597,7132,6005,112,159,82,53,100,0
6569,7092,5984,-25,-37,-22,10240,0.34,-0.08,1.63,1.24,6596,7130,6004,112,159,82,53,100,0
6577,7102,5989,-26,-39,-22,10240,0.34,-0.08,1.63,1.24,6595,7130,6004,112,159,82,53,100,0
6586,7115,5996,-21,-31,-17,10240,0.34,-0.08,1.63,1.24,6595,7129,6004,112,159,82,53,100,0
6593,7125,6001,-14,-21,-11,10240,0.34,-0.08,1.63,1.24,6595,7129,6004,112,159,82,53,100,0
6612,7152,6014,-3,-6,-4,10240,0.34,-0.08,1.63,1.24,6595,7130,6004,112,159,82,53,100,0
6622,7166,6022,8,9,4,10240,0.34,-0.08,1.63,1.24,6596,7131,6004,112,159,82,53,100,0
6631,7181,6029,18,25,12,10240,0.34,-0.08,1.63,1.24,6598,7133,6005,112,159,82,53,100,0
6642,7194,6033,29,41,19,10240,0.34,-0.08,1.63,1.24,6599,7135,6006,112,159,82,53,100,0
6645,7199,6042,36,51,26,10240,0.34,-0.08,1.63,1.24,6601,7137,6007,112,159,82,53,100,0
6643,7205,6051,40,58,32,10240,0.34,-0.08,1.63,1.24,6602,7139,6009,112,159,82,53,100,0
6640,7210,6057,41,64,37,10240,0.34,-0.08,1.63,1.24,6603,7141,6010,112,159,82,53,100,0
6644,7216,6058,40,67,42,10240,0.34,-0.08,1.63,1.24,6605,7144,6012,101,159,82,53,100,0
6653,7218,6055,41,69,44,10240,0.34,-0.08,1.63,1.24,6606,7146,6014,101,159,82,53,100,0
6671,7229,6050,46,73,42,10240,0.34,-0.08,1.63,1.24,6608,7149,6015,101,159,78,53,100,0
6682,7245,6059,55,79,41,10240,0.34,-0.08,1.72,1.18,6611,7152,6016,101,159,78,53,100,0
6681,7241,6055,62,82,39,10240,0.34,-0.08,1.72,1.18,6613,7155,6017,101,159,78,53,100,0
6659,7220,6049,61,80,36,10240,0.34,-0.08,1.72,1.18,6615,7157,6019,91,150,78,53,100,0
6642,7210,6049,52,73,35,10240,0.34,-0.08,1.72,1.18,6616,7159,6020,91,150,78,53,100,0
6630,7175,6020,38,53,24,10240,0.34,-0.08,1.72,1.18,6616,7160,6020,91,150,78,53,100,0
6612,7147,6008,20,29,12,10240,0.34,-0.08,1.72,1.18,6616,7159,6019,91,150,78,53,100,0
6603,7136,6003,6,8,0,10240,0.34,-0.08,1.72,1.18,6615,7158,6019,91,150,78,53,100,0
6604,7138,6005,-3,-9,-10,10240,0.34,-0.08,1.72,1.18,6615,7158,6018,91,150,78,53,100,0
6607,7144,6007,-8,-16,-12,10240,0.34,-0.08,1.72,1.18,6615,7157,6018,91,150,78,53,100,0
6626,7166,6021,-5,-11,-9,10240,0.34,-0.08,1.72,1.18,6615,7158,6018,91,150,78,53,100,0
6633,7180,6024,2,0,-3,10240,0.34,-0.08,1.72,1.18,6616,7158,6018,91,150,78,53,100,0
6644,7194,6031,11,12,2,10240,0.34,-0.08,1.72,1.18,6617,7160,6019,91,150,78,53,100,0
6646,7196,6039,20,24,10,10240,0.34,-0.08,1.72,1.18,6618,7161,6019,91,150,78,53,100,0
6645,7200,6043,24,32,15,10240,0.34,-0.08,1.72,1.18,6619,7162,6020,91,150,78,53,100,0
6641,7209,6054,25,38,22,10240,0.34,-0.08,1.72,1.18,6619,7164,6021,91,150,78,53,100,0
6646,7216,6055,25,42,27,10240,0.34,-0.08,1.72,1.18,6620,7165,6022,91,150,78,53,100,0
6652,7219,6053,26,46,29,10240,0.34,-0.08,1.72,1.18,6621,7167,6023,91,150,78,53,100,0
6667,7223,6046,30,50,29,10240,0.34,-0.08,1.72,1.18,6623,7169,6024,91,150,78,53,100,0
6681,7236,6051,39,55,27,10240,0.34,-0.08,1.72,1.18,6625,7171,6025,91,150,68,53,100,0
6697,7264,6067,50,65,29,10240,0.34,-0.08,1.85,1.22,6627,7174,6026,91,150,68,53,100,0
6703,7275,6073,60,76,33,10240,0.34,-0.08,1.85,1.22,6630,7178,6028,91,150,68,53,100,0
6710,7285,6079,69,89,40,10240,0.34,-0.08,1.85,1.22,6632,7181,6030,91,150,68,53,100,0
6717,7293,6083,75,99,46,10240,0.34,-0.08,1.85,1.22,6635,7185,6031,91,150,68,53,100,0
6715,7292,6081,77,103,48,10240,0.34,-0.08,1.85,1.22,6638,7189,6033,91,150,68,53,100,0
6676,7232,6046,68,89,40,10240,0.34,-0.08,1.85,1.22,6639,7190,6033,90,142,63,53,100,0
6642,7209,6048,49,67,31,10240,0.34,-0.08,1.89,1.30,6639,7191,6034,90,142,63,53,100,0
6647,7195,6032,31,41,18,10240,0.34,-0.08,1.89,1.30,6640,7191,6034,90,142,63,53,100,0
6642,7187,6021,12,15,3,10240,0.34,-0.08,1.89,1.30,6640,7191,6033,90,142,63,53,100,0
6633,7177,6018,1,1,-3,10240,0.34,-0.08,1.89,1.30,6639,7190,6033,90,142,63,53,100,0
6642,7190,6024,1,-3,-9,10240,0.34,-0.08,1.89,1.30,6639,7190,6033,90,142,63,53,100,0
6646,7192,6028,1,-3,-10,10240,0.34,-0.08,1.89,1.30,6640,7190,6033,90,142,63,53,100,0
6646,7196,6032,2,-1,-7,10240,0.34,-0.08,1.89,1.30,6640,7190,6032,90,142,63,53,100,0
6646,7198,6040,5,3,-1,10240,0.34,-0.08,1.89,1.30,6640,7191,6033,90,142,63,53,100,0
6642,7205,6045,5,7,3,10240,0.34,-0.08,1.89,1.30,6640,7191,6033,90,142,63,53,100,0
6645,7217,6052,4,13,9,10240,0.34,-0.08,1.89,1.30,6640,7192,6034,90,142,63,53,100,0
6656,7221,6047,7,18,12,10240,0.34,-0.08,1.89,1.30,6641,7193,6034,90,142,63,53,100,0
6670,7224,6043,12,24,12,10240,0.34,-0.08,1.89,1.30,6642,7194,6035,90,142,63,53,100,0
6681,7237,6047,21,31,12,10240,0.34,-0.08,1.89,1.30,6643,7196,6035,90,142,63,53,100,0
6690,7251,6056,31,38,13,10240,0.34,-0.08,1.89,1.30,6645,7197,6036,90,142,63,53,100,0
6705,7278,6072,42,50,18,10240,0.34,-0.08,1.89,1.30,6647,7200,6037,90,142,63,53,100,0
6713,7289,6076,51,64,26,10240,0.34,-0.08,1.89,1.30,6649,7203,6038,90,142,63,53,100,0
6720,7298,6081,59,77,33,10240,0.34,-0.08,1.89,1.30,6651,7206,6040,90,142,63,53,100,0
6727,7305,6084,66,88,39,10240,0.34,-0.08,1.89,1.30,6654,7209,6041,90,142,63,53,100,0
6732,7312,6088,70,93,41,10240,0.34,-0.08,1.89,1.30,6656,7213,6043,90,142,63,53,100,0
6732,7317,6092,72,97,44,10240,0.34,-0.08,1.89,1.30,6659,7216,6044,90,142,63,53,100,0
6731,7312,6085,73,97,43,10240,0.34,-0.08,1.89,1.30,6661,7220,6046,90,142,61,53,100,0
6713,7288,6070,67,89,39,10240,0.34,-0.08,1.95,1.34,6663,7222,6046,85,132,61,53,100,0
6693,7251,6049,55,71,28,10240,0.34,-0.08,1.95,1.34,6664,7223,6046,85,132,61,53,100,0
6644,7206,6040,32,42,15,10240,0.34,-0.08,1.95,1.34,6663,7222,6046,85,132,61,53,100,0
6645,7200,6034,10,14,2,10240,0.34,-0.08,1.95,1.34,6663,7222,6046,85,132,61,53,100,0
6645,7200,6035,-6,-7,-6,10240,0.34,-0.08,1.95,1.34,6662,7221,6046,85,132,61,53,100,0
6644,7202,6038,-18,-19,-9,10240,0.34,-0.08,1.95,1.34,6662,7220,6045,85,132,61,53,100,0
6642,7205,6041,-18,-19,-8,10240,0.34,-0.08,1.95,1.34,6661,7220,6045,85,132,61,53,100,0
6652,7221,6047,-15,-13,-5,10240,0.34,-0.08,1.95,1.34,6661,7220,6045,85,132,61,53,100,0
6661,7223,6044,-11,-7,-2,10240,0.34,-0.08,1.95,1.34,6661,7220,6045,85,132,61,53,100,0
6675,7228,6040,-3,0,-2,10240,0.34,-0.08,1.95,1.34,6661,7220,6045,85,132,61,53,100,0
6685,7243,6048,7,8,0,10240,0.34,-0.08,1.95,1.34,6662,7221,6045,85,132,61,53,100,0
6695,7259,6057,17,17,2,10240,0.34,-0.08,1.95,1.34,6663,7222,6045,85,132,61,53,100,0
6712,7284,6071,29,31,8,10240,0.34,-0.08,1.95,1.34,6665,7224,6046,85,132,61,53,100,0
6719,7295,6077,38,46,17,10240,0.34,-0.08,1.95,1.34,6666,7227,6047,85,132,61,53,100,0
6728,7306,6082,48,60,25,10240,0.34,-0.08,1.95,1.34,6668,7229,6049,85,132,61,53,100,0
6732,7312,6086,55,71,31,10240,0.34,-0.08,1.95,1.34,6671,7232,6050,85,132,61,53,100,0
6733,7317,6090,58,76,34,10240,0.34,-0.08,1.95,1.34,6673,7235,6051,85,132,61,53,100,0
6742,7330,6099,62,82,38,10240,0.34,-0.08,1.95,1.34,6675,7238,6053,85,132,61,53,100,0
6748,7339,6102,64,88,42,10240,0.34,-0.08,1.95,1.34,6677,7241,6054,85,132,61,53,100,0
6752,7343,6103,67,92,45,10240,0.34,-0.08,1.95,1.34,6680,7245,6056,85,132,61,53,100,0
6752,7345,6103,70,96,46,10240,0.34,-0.08,1.95,1.34,6682,7248,6058,85,132,61,53,100,0
6741,7328,6094,67,92,43,10240,0.34,-0.08,1.95,1.34,6684,7251,6059,86,127,60,53,100,0
6710,7278,6062,56,74,32,10240,0.34,-0.08,1.77,1.30,6685,7252,6059,86,127,60,53,100,0
6685,7236,6037,38,46,15,10240,0.34,-0.08,1.77,1.30,6685,7251,6058,86,127,60,53,100,0
6658,7221,6041,14,14,0,10240,0.34,-0.08,1.77,1.30,6684,7250,6058,86,127,60,53,100,0
6647,7211,6041,-9,-14,-12,10240,0.34,-0.08,1.77,1.30,6683,7249,6057,86,127,60,53,100,0
6647,7213,6043,-24,-29,-17,10240,0.34,-0.08,1.77,1.30,6682,7248,6057,86,127,60,53,100,0
6668,7225,6039,-27,-31,-16,10240,0.34,-0.08,1.77,1.30,6681,7247,6056,86,127,60,53,100,0
6677,7228,6037,-22,-28,-16,10240,0.34,-0.08,1.77,1.30,6681,7246,6055,86,127,60,53,100,0
6685,7237,6040,-12,-21,-16,10240,0.34,-0.08,1.77,1.30,6681,7246,6055,86,127,60,53,100,0
6695,7255,6051,0,-10,-13,10240,0.34,-0.08,1.77,1.30,6682,7246,6055,86,127,60,53,100,0
6703,7270,6061,8,1,-7,10240,0.34,-0.08,1.77,1.30,6683,7247,6055,86,127,60,53,100,0
6721,7295,6073,18,17,1,10240,0.34,-0.08,1.77,1.30,6684,7249,6055,86,127,60,53,100,0
6730,7307,6080,28,33,11,10240,0.34,-0.08,1.77,1.30,6685,7250,6056,86,127,60,53,100,0
6732,7312,6084,36,46,18,10240,0.34,-0.08,1.77,1.30,6687,7253,6057,86,127,60,53,100,0
6734,7316,6087,43,55,24,10240,0.34,-0.08,1.77,1.30,6688,7255,6058,86,127,60,53,100,0
6738,7322,6091,46,60,28,10240,0.34,-0.08,1.77,1.30,6690,7257,6059,86,127,60,53,100,0
6754,7345,6105,50,67,33,10240,0.34,-0.08,1.77,1.30,6692,7260,6061,86,127,60,53,100,0
6760,7356,6108,55,76,37,10240,0.34,-0.08,1.77,1.30,6695,7263,6062,86,127,60,53,100,0
6764,7362,6113,60,84,42,10240,0.34,-0.08,1.77,1.30,6697,7266,6064,86,127,60,53,100,0
6768,7368,6116,65,93,47,10240,0.34,-0.08,1.77,1.30,6699,7270,6066,86,127,60,53,100,0
6772,7373,6120,67,96,49,10240,0.34,-0.08,1.77,1.30,6702,7273,6068,86,127,60,53,100,0
6754,7345,6100,64,90,45,10240,0.34,-0.08,1.77,1.30,6703,7276,6069,88,127,61,53,100,0
6736,7314,6082,55,76,36,10240,0.34,-0.08,1.74,1.31,6704,7277,6069,88,127,61,53,100,0
6719,7288,6065,41,54,23,10240,0.34,-0.08,1.74,1.31,6705,7277,6069,88,127,61,53,100,0
6697,7252,6043,22,23,3,10240,0.34,-0.08,1.74,1.31,6705,7276,6068,88,127,61,53,100,0
6684,7230,6032,4,-5,-12,10240,0.34,-0.08,1.74,1.31,6704,7275,6067,88,127,61,53,100,0
6681,7230,6033,-9,-25,-24,10240,0.34,-0.08,1.74,1.31,6703,7273,6066,88,127,61,53,100,0
6686,7234,6035,-16,-37,-30,10240,0.34,-0.08,1.74,1.31,6703,7272,6065,88,127,61,53,100,0
6692,7243,6041,-17,-38,-30,10240,0.34,-0.08,1.74,1.31,6702,7271,6064,88,127,61,53,100,0
6701,7260,6052,-12,-30,-24,10240,0.34,-0.08,1.74,1.31,6702,7271,6064,88,127,61,53,100,0
6708,7272,6059,-5,-19,-17,10240,0.34,-0.08,1.74,1.31,6702,7271,6063,88,127,61,53,100,0
6725,7298,6072,4,-3,-7,10240,0.34,-0.08,1.74,1.31,6703,7272,6064,88,127,61,53,100,0
6732,7306,6078,13,12,1,10240,0.34,-0.08,1.74,1.31,6704,7273,6064,88,127,61,53,100,0
6734,7311,6081,21,24,8,10240,0.34,-0.08,1.74,1.31,6705,7274,6065,88,127,61,53,100,0
6736,7317,6086,27,34,14,10240,0.34,-0.08,1.74,1.31,6706,7275,6065,88,127,61,53,100,0
6741,7323,6089,30,39,18,10240,0.34,-0.08,1.74,1.31,6707,7277,6066,88,127,61,53,100,0
6753,7339,6097,34,46,22,10240,0.34,-0.08,1.74,1.31,6709,7279,6067,88,127,61,53,100,0
6758,7347,6101,38,53,26,10240,0.34,-0.08,1.74,1.31,6711,7281,6068,88,127,61,53,100,0
6762,7353,6104,43,60,30,10240,0.34,-0.08,1.74,1.31,6712,7284,6070,88,127,61,53,100,0
6767,7361,6109,48,67,33,10240,0.34,-0.08,1.74,1.31,6714,7286,6071,88,127,61,53,100,0
6772,7366,6112,51,71,36,10240,0.34,-0.08,1.74,1.31,6716,7289,6072,88,127,61,53,100,0
6778,7374,6118,54,75,39,10240,0.34,-0.08,1.74,1.31,6718,7292,6074,88,127,61,53,100,0
6770,7363,6109,54,75,39,10240,0.34,-0.08,1.74,1.31,6720,7294,6075,88,127,61,53,100,0
6749,7331,6089,48,66,33,10240,0.34,-0.08,1.74,1.31,6721,7295,6075,84,124,63,53,100,0
6730,7300,6070,36,47,21,10240,0.49,-0.08,1.64,1.21,6721,7296,6075,84,124,63,53,100,0
6704,7255,6041,17,17,2,10240,0.49,-0.08,1.64,1.21,6721,7294,6074,84,124,63,53,100,0
6656,7213,6035,-10,-19,-15,10240,0.49,-0.08,1.64,1.21,6718,7292,6073,84,124,63,53,100,0
6653,7212,6034,-33,-47,-28,10240,0.49,-0.08,1.64,1.21,6716,7289,6072,84,124,63,53,100,0
6655,7216,6039,-50,-66,-35,10240,0.49,-0.08,1.64,1.21,6714,7286,6070,84,124,63,53,100,0
6667,7224,6038,-57,-71,-34,10240,0.49,-0.08,1.64,1.21,6713,7284,6069,84,124,63,53,100,0
6674,7227,6035,-51,-65,-33,10240,0.49,-0.08,1.64,1.21,6711,7282,6068,84,124,63,53,100,0
6694,7238,6035,-39,-57,-31,10240,0.49,-0.08,1.64,1.21,6711,7281,6067,84,124,63,53,100,0
6700,7252,6044,-27,-46,-29,10240,0.49,-0.08,1.64,1.21,6710,7280,6066,84,124,63,53,100,0
6708,7267,6054,-16,-34,-24,10240,0.49,-0.08,1.64,1.21,6710,7280,6066,84,124,63,53,100,0
6716,7282,6062,-5,-20,-17,10240,0.49,-0.08,1.64,1.21,6710,7280,6066,84,124,63,53,100,0
6724,7292,6066,1,-6,-9,10240,0.49,-0.08,1.64,1.21,6711,7280,6066,84,124,63,53,100,0
6734,7308,6079,9,7,0,10240,0.49,-0.08,1.64,1.21,6712,7281,6066,84,124,63,53,100,0
6737,7313,6082,16,18,6,10240,0.49,-0.08,1.64,1.21,6713,7282,6067,84,124,63,53,100,0
6742,7319,6086,21,26,11,10240,0.49,-0.08,1.64,1.21,6714,7283,6067,84,124,63,53,100,0
6748,7329,6091,26,34,17,10240,0.49,-0.08,1.64,1.21,6715,7285,6068,84,124,63,53,100,0
6755,7337,6096,31,40,21,10240,0.49,-0.08,1.64,1.21,6716,7287,6069,84,124,63,53,100,0
6768,7354,6106,37,48,26,10240,0.49,-0.08,1.64,1.21,6718,7289,6070,84,124,63,53,100,0
6769,7361,6108,43,57,30,10240,0.49,-0.08,1.64,1.21,6719,7291,6072,84,124,63,53,100,0
6770,7362,6107,47,63,33,10240,0.49,-0.08,1.64,1.21,6721,7294,6073,84,124,63,53,100,0
6758,7344,6095,46,63,31,10240,0.49,-0.08,1.64,1.21,6722,7295,6074,89,124,64,53,100,0
6740,7314,6079,38,51,24,10240,0.49,-0.08,1.61,1.26,6723,7296,6074,89,126,64,53,100,0
6701,7249,6038,20,22,6,10240,0.49,-0.08,1.61,1.26,6722,7294,6073,89,126,64,53,100,0
6679,7229,6032,-2,-10,-12,10240,0.49,-0.08,1.61,1.26,6721,7292,6071,89,126,64,53,100,0
6670,7226,6035,-23,-38,-26,10240,0.49,-0.08,1.61,1.26,6719,7290,6070,89,126,64,53,100,0
6669,7226,6036,-40,-58,-35,10240,0.49,-0.08,1.61,1.26,6717,7288,6069,89,126,64,53,100,0
6675,7227,6035,-45,-62,-35,10240,0.49,-0.08,1.61,1.26,6716,7286,6068,89,126,64,53,100,0
6692,7235,6034,-40,-58,-33,10240,0.49,-0.08,1.61,1.26,6715,7284,6067,89,126,64,53,100,0
6697,7248,6040,-32,-51,-31,10240,0.49,-0.08,1.61,1.26,6715,7283,6066,89,126,64,53,100,0
6705,7258,6048,-22,-41,-27,10240,0.49,-0.08,1.61,1.26,6714,7282,6065,89,126,64,53,100,0
6710,7268,6054,-13,-30,-21,10240,0.49,-0.08,1.61,1.26,6714,7282,6065,89,126,64,53,100,0
6718,7282,6061,-6,-18,-14,10240,0.49,-0.08,1.61,1.26,6714,7282,6065,89,126,64,53,100,0
6735,7304,6073,2,-4,-6,10240,0.49,-0.08,1.61,1.26,6715,7282,6065,89,126,64,53,100,0
6736,7307,6077,10,8,1,10240,0.49,-0.08,1.61,1.26,6716,7283,6065,89,126,64,53,100,0
6737,7312,6081,16,18,7,10240,0.49,-0.08,1.61,1.26,6716,7284,6066,89,126,64,53,100,0
6741,7318,6085,21,26,13,10240,0.49,-0.08,1.61,1.26,6717,7285,6066,89,126,64,53,100,0
6749,7328,6089,24,31,17,10240,0.49,-0.08,1.61,1.26,6718,7287,6067,89,126,64,53,100,0
6763,7348,6100,29,40,22,10240,0.49,-0.08,1.61,1.26,6720,7289,6068,89,126,64,53,100,0
6767,7356,6104,36,49,27,10240,0.49,-0.08,1.61,1.26,6721,7291,6069,89,126,64,53,100,0
6773,7365,6108,42,59,31,10240,0.49,-0.08,1.61,1.26,6723,7293,6071,89,126,64,53,100,0
6775,7369,6111,47,67,35,10240,0.49,-0.08,1.61,1.26,6725,7296,6072,89,126,64,53,100,0
6769,7360,6103,47,68,35,10240,0.49,-0.08,1.61,1.26,6726,7298,6073,89,126,64,53,100,0
6736,7307,6072,38,54,26,10240,0.49,-0.08,1.61,1.26,6727,7298,6073,90,127,66,53,100,0
6717,7275,6054,23,30,12,10240,0.49,-0.08,1.60,1.23,6726,7298,6072,90,127,66,53,100,0
6698,7243,6033,4,-1,-6,10240,0.49,-0.08,1.60,1.23,6725,7296,6071,90,127,66,53,100,0
6686,7231,6028,-16,-32,-24,10240,0.49,-0.08,1.60,1.23,6724,7294,6070,90,127,66,53,100,0
6685,7231,6029,-28,-50,-34,10240,0.49,-0.08,1.60,1.23,6723,7292,6068,90,127,66,53,100,0
6693,7235,6031,-33,-58,-38,10240,0.49,-0.08,1.60,1.23,6722,7290,6067,90,127,66,53,100,0
6699,7248,6040,-31,-54,-35,10240,0.49,-0.08,1.60,1.23,6721,7288,6066,90,127,66,53,100,0
6706,7261,6049,-25,-45,-29,10240,0.49,-0.08,1.60,1.23,6720,7287,6066,90,127,66,53,100,0
6713,7275,6057,-18,-33,-21,10240,0.49,-0.08,1.60,1.23,6720,7287,6065,90,127,66,53,100,0
6721,7288,6063,-10,-19,-13,10240,0.49,-0.08,1.60,1.23,6720,7287,6065,90,127,66,53,100,0
6735,7307,6075,-1,-4,-4,10240,0.49,-0.08,1.60,1.23,6721,7288,6066,90,127,66,53,100,0
6736,7310,6078,5,7,2,10240,0.49,-0.08,1.60,1.23,6721,7288,6066,90,127,66,53,100,0
6739,7317,6084,11,17,9,10240,0.49,-0.08,1.60,1.23,6722,7289,6067,90,127,66,53,100,0
6749,7330,6090,18,27,15,10240,0.49,-0.08,1.60,1.23,6723,7291,6067,90,127,66,53,100,0
6755,7339,6093,22,34,19,10240,0.49,-0.08,1.60,1.23,6724,7292,6068,90,127,66,53,100,0
6766,7359,6104,28,44,25,10240,0.49,-0.08,1.60,1.23,6725,7295,6069,90,127,66,53,100,0
6771,7364,6108,35,54,30,10240,0.49,-0.08,1.60,1.23,6727,7297,6071,90,127,66,53,100,0
6775,7368,6111,40,61,34,10240,0.49,-0.08,1.60,1.23,6728,7299,6072,90,127,66,53,100,0
6780,7374,6116,45,68,38,10240,0.49,-0.08,1.60,1.23,6730,7302,6074,90,127,66,53,100,0
6783,7377,6118,48,70,40,10240,0.49,-0.08,1.60,1.23,6732,7304,6075,90,127,66,53,100,0
6756,7337,6092,42,61,35,10240,0.49,-0.08,1.60,1.23,6733,7305,6076,87,128,69,53,100,0
6737,7308,6073,32,45,24,10240,0.49,-0.08,1.54,1.14,6733,7305,6076,87,128,69,53,100,0
6717,7275,6054,15,19,8,10240,0.49,-0.08,1.54,1.14,6732,7304,6075,87,128,69,53,100,0
6695,7235,6029,-6,-15,-13,10240,0.49,-0.08,1.54,1.14,6731,7302,6073,87,128,69,53,100,0
6682,7229,6031,-23,-41,-27,10240,0.49,-0.08,1.54,1.14,6729,7300,6072,87,128,69,53,100,0
6685,7230,6030,-35,-58,-36,10240,0.49,-0.08,1.54,1.14,6728,7297,6070,87,128,69,53,100,0
6692,7234,6032,-40,-66,-40,10240,0.49,-0.08,1.54,1.14,6727,7295,6069,87,128,69,53,100,0
6698,7248,6040,-38,-61,-36,10240,0.49,-0.08,1.54,1.14,6726,7294,6068,87,128,69,53,100,0
6707,7264,6050,-31,-50,-30,10240,0.49,-0.08,1.54,1.14,6725,7293,6068,87,128,69,53,100,0
6713,7274,6057,-23,-38,-23,10240,0.49,-0.08,1.54,1.14,6725,7292,6067,87,128,69,53,100,0
6732,7299,6069,-12,-21,-13,10240,0.49,-0.08,1.54,1.14,6725,7292,6067,87,128,69,53,100,0
6733,7306,6075,-3,-6,-4,10240,0.49,-0.08,1.54,1.14,6725,7293,6068,87,128,69,53,100,0
6736,7312,6078,3,5,2,10240,0.49,-0.08,1.54,1.14,6726,7293,6068,87,128,69,53,100,0
6741,7318,6084,10,15,8,10240,0.49,-0.08,1.54,1.14,6726,7294,6068,87,128,69,53,100,0
6747,7329,6088,13,22,13,10240,0.49,-0.08,1.54,1.14,6727,7295,6069,87,128,69,53,100,0
6761,7347,6098,19,31,18,10240,0.49,-0.08,1.54,1.14,6728,7297,6070,87,128,69,53,100,0
6767,7356,6103,26,41,23,10240,0.49,-0.08,1.54,1.14,6729,7299,6071,87,128,69,53,100,0
6772,7366,6108,33,51,28,10240,0.49,-0.08,1.54,1.14,6731,7301,6072,87,128,69,53,100,0
6776,7370,6111,39,59,33,10240,0.49,-0.08,1.54,1.14,6732,7304,6074,87,128,69,53,100,0
6780,7375,6115,42,64,36,10240,0.49,-0.08,1.54,1.14,6734,7306,6075,87,128,69,53,100,0
6779,7370,6111,43,65,37,10240,0.49,-0.08,1.54,1.14,6735,7308,6076,87,128,69,53,100,0
6761,7346,6095,39,58,32,10240,0.49,-0.08,1.54,1.14,6736,7309,6077,86,128,71,53,100,0
6740,7313,6076,29,43,23,10240,0.49,-0.08,1.50,1.09,6736,7309,6077,86,128,71,53,100,0
6725,7287,6059,15,20,8,10240,0.49,-0.08,1.50,1.09,6736,7309,6076,86,128,71,49,100,0
6701,7245,6033,-4,-10,-10,10240,0.49,-0.08,1.50,1.09,6735,7307,6075,86,128,71,49,100,0
6683,7229,6030,-22,-38,-25,10240,0.49,-0.08,1.50,1.09,6733,7304,6073,86,128,71,49,100,0
6685,7231,6029,-35,-57,-36,10240,0.49,-0.08,1.50,1.09,6731,7302,6072,86,128,71,49,100,0
6692,7237,6032,-42,-67,-41,10240,0.49,-0.08,1.50,1.09,6730,7299,6071,86,128,71,49,100,0
6702,7252,6042,-40,-63,-38,10240,0.49,-0.08,1.50,1.09,6729,7298,6070,86,128,71,49,100,0
6708,7268,6052,-32,-52,-31,10240,0.49,-0.08,1.50,1.09,6728,7297,6069,86,128,71,49,100,0
6728,7297,6068,-21,-34,-21,10240,0.49,-0.08,1.50,1.09,6728,7297,6069,86,128,71,49,100,0
6734,7306,6072,-10,-16,-10,10240,0.49,-0.08,1.50,1.09,6729,7297,6069,86,128,71,49,100,0
6735,7311,6077,-2,-1,-1,10240,0.49,-0.08,1.50,1.09,6729,7298,6069,86,128,71,49,100,0
6739,7317,6083,5,10,5,10240,0.49,-0.08,1.50,1.09,6729,7298,6070,86,128,71,49,100,0
6746,7327,6088,9,17,10,10240,0.49,-0.08,1.50,1.09,6730,7299,6070,86,128,71,49,100,0
6758,7346,6097,14,26,16,10240,0.49,-0.08,1.50,1.09,6731,7301,6071,86,128,71,49,100,0
6762,7353,6101,20,35,21,10240,0.49,-0.08,1.50,1.09,6732,7303,6072,86,128,71,49,100,0
6768,7360,6105,27,44,26,10240,0.49,-0.08,1.50,1.09,6733,7304,6073,86,128,71,49,100,0
6773,7367,6108,32,52,30,10240,0.49,-0.08,1.50,1.09,6734,7307,6075,86,128,71,49,100,0
6778,7373,6112,36,57,32,10240,0.49,-0.08,1.50,1.09,6736,7309,6076,86,128,71,49,100,0
6787,7383,6120,41,63,36,10240,0.49,-0.08,1.50,1.09,6737,7311,6077,86,128,71,49,100,0
6784,7380,6117,44,65,37,10240,0.49,-0.08,1.50,1.09,6739,7313,6079,86,128,71,49,100,0
6769,7358,6100,41,61,34,10240,0.49,-0.08,1.50,1.09,6740,7315,6079,86,129,73,49,100,0
6745,7323,6081,32,47,26,10240,0.49,-0.08,1.47,1.06,6740,7315,6079,86,129,73,49,100,0
6701,7291,6060,10,23,10,10240,0.49,-0.08,1.47,1.06,6739,7314,6079,86,129,73,49,100,0
6682,7231,6028,-14,-13,-11,10240,0.49,-0.08,1.47,1.06,6737,7312,6077,86,129,73,49,100,0
6674,7229,6031,-37,-44,-27,10240,0.49,-0.08,1.47,1.06,6735,7309,6075,86,129,73,49,100,0
6678,7228,6033,-52,-65,-38,10240,0.49,-0.08,1.47,1.06,6733,7306,6074,86,129,73,49,100,0
6683,7231,6030,-54,-78,-44,10240,0.49,-0.08,1.47,1.06,6731,7304,6073,86,129,73,49,100,0
6698,7245,6030,-49,-72,-42,10240,0.49,-0.08,1.47,1.06,6730,7302,6071,86,129,73,49,100,0
6707,7264,6051,-39,-61,-36,10240,0.49,-0.08,1.47,1.06,6729,7300,6071,86,129,73,49,100,0
6717,7279,6059,-28,-46,-28,10240,0.49,-0.08,1.47,1.06,6729,7300,6070,86,129,73,49,100,0
6725,7292,6064,-17,-30,-19,10240,0.49,-0.08,1.47,1.06,6729,7300,6070,86,129,73,49,100,0
6734,7303,6071,-8,-15,-9,10240,0.49,-0.08,1.47,1.06,6729,7300,6070,86,129,73,49,100,0
6741,7319,6076,0,-1,-2,10240,0.49,-0.08,1.47,1.06,6729,7300,6070,86,129,73,49,100,0
6747,7328,6087,7,10,4,10240,0.49,-0.08,1.47,1.06,6730,7301,6071,86,129,73,49,100,0
6754,7339,6092,14,21,11,10240,0.49,-0.08,1.47,1.06,6731,7302,6071,86,129,73,49,100,0
6762,7348,6097,20,31,17,10240,0.49,-0.08,1.47,1.06,6732,7304,6072,86,129,73,49,100,0
6767,7355,6101,26,39,22,10240,0.49,-0.08,1.47,1.06,6733,7306,6073,86,129,73,49,100,0
6776,7369,6106,32,47,26,10240,0.49,-0.08,1.47,1.06,6735,7308,6074,86,129,73,49,100,0
6782,7375,6114,37,54,30,10240,0.49,-0.08,1.47,1.06,6736,7310,6076,86,129,73,49,100,0
6785,7381,6118,42,61,34,10240,0.49,-0.08,1.47,1.06,6738,7312,6077,86,129,73,49,100,0
6787,7385,6119,45,66,38,10240,0.49,-0.08,1.47,1.06,6739,7315,6078,86,129,73,49,100,0
6777,7370,6108,44,64,37,10240,0.49,-0.08,1.47,1.06,6741,7317,6079,90,133,75,49,100,0
6737,7306,6070,32,45,25,10240,0.49,-0.08,1.47,1.08,6740,7316,6079,90,133,75,49,100,0
6714,7266,6043,13,16,6,10240,0.49,-0.08,1.47,1.08,6740,7315,6078,90,133,75,49,100,0
6689,7233,6027,-10,-21,-16,10240,0.49,-0.08,1.47,1.08,6738,7312,6076,90,133,75,49,100,0
6670,7224,6032,-36,-55,-34,10240,0.49,-0.08,1.47,1.08,6736,7309,6075,90,133,75,49,100,0
6666,7221,6032,-52,-74,-42,10240,0.49,-0.08,1.47,1.08,6733,7306,6073,90,133,75,49,100,0
6679,7230,6030,-58,-80,-43,10240,0.49,-0.08,1.47,1.08,6732,7303,6072,90,133,75,49,100,0
6690,7233,6028,-56,-77,-42,10240,0.49,-0.08,1.47,1.08,6730,7301,6070,90,133,75,49,100,0
6699,7243,6033,-47,-70,-40,10240,0.49,-0.08,1.47,1.08,6729,7299,6069,90,133,75,49,100,0
6705,7258,6043,-36,-59,-36,10240,0.49,-0.08,1.47,1.08,6728,7298,6068,90,133,75,49,100,0
6711,7268,6049,-27,-48,-30,10240,0.49,-0.08,1.47,1.08,6728,7297,6068,90,133,75,49,100,0
6733,7298,6066,-16,-31,-20,10240,0.49,-0.08,1.47,1.08,6728,7297,6068,90,133,75,49,100,0
6736,7304,6071,-6,-15,-10,10240,0.49,-0.08,1.47,1.08,6728,7297,6068,90,133,75,49,100,0
6738,7310,6076,1,-2,-2,10240,0.49,-0.08,1.47,1.08,6728,7298,6068,90,133,75,49,100,0
6741,7316,6080,8,9,5,10240,0.49,-0.08,1.47,1.08,6729,7298,6068,90,133,75,49,100,0
6747,7326,6086,11,16,10,10240,0.49,-0.08,1.47,1.08,6730,7299,6069,90,133,75,49,100,0
6763,7348,6096,17,26,15,10240,0.49,-0.08,1.47,1.08,6731,7301,6070,90,133,75,49,100,0
6767,7353,6100,24,35,21,10240,0.49,-0.08,1.47,1.08,6732,7302,6071,90,133,75,49,100,0
6770,7359,6103,30,45,25,10240,0.49,-0.08,1.47,1.08,6733,7304,6072,90,133,75,49,100,0
6776,7368,6109,36,53,30,10240,0.49,-0.08,1.47,1.08,6735,7306,6073,90,133,75,49,100,0
6780,7371,6111,39,57,33,10240,0.49,-0.08,1.47,1.08,6736,7309,6075,90,133,75,49,100,0
6769,7359,6100,38,57,32,10240,0.49,-0.08,1.47,1.08,6737,7310,6075,91,133,75,49,100,0
6751,7328,6083,32,47,26,10240,0.49,-0.08,1.47,1.09,6738,7311,6076,91,134,75,49,100,0
6733,7301,6065,21,29,14,10240,0.49,-0.08,1.47,1.09,6737,7311,6075,91,134,75,49,100,0
6714,7267,6045,4,3,-1,10240,0.49,-0.08,1.47,1.09,6737,7309,6074,91,134,75,49,100,0
6697,7237,6028,-13,-26,-19,10240,0.49,-0.08,1.47,1.09,6735,7307,6073,91,134,75,49,100,0
6692,7234,6028,-26,-48,-31,10240,0.49,-0.08,1.47,1.09,6734,7304,6071,91,134,75,49,100,0
6697,7238,6031,-34,-61,-39,10240,0.49,-0.08,1.47,1.09,6733,7302,6070,91,134,75,49,100,0
6704,7252,6041,-36,-63,-38,10240,0.49,-0.08,1.47,1.09,6732,7300,6069,91,134,75,49,100,0
6714,7271,6052,-30,-52,-31,10240,0.49,-0.08,1.47,1.09,6731,7299,6068,91,134,75,49,100,0
6721,7283,6058,-22,-39,-23,10240,0.49,-0.08,1.47,1.09,6731,7299,6068,91,134,75,49,100,0
6735,7305,6071,-12,-21,-12,10240,0.49,-0.08,1.47,1.09,6731,7299,6068,91,134,75,49,100,0
6737,7310,6075,-4,-6,-4,10240,0.49,-0.08,1.47,1.09,6731,7299,6068,91,134,75,49,100,0
6741,7316,6081,2,4,3,10240,0.49,-0.08,1.47,1.09,6731,7300,6069,91,134,75,49,100,0
6747,7325,6085,8,14,9,10240,0.49,-0.08,1.47,1.09,6732,7301,6069,91,134,75,49,100,0
6755,7334,6090,13,20,13,10240,0.49,-0.08,1.47,1.09,6733,7302,6070,91,134,75,49,100,0
6767,7355,6101,20,30,19,10240,0.49,-0.08,1.47,1.09,6734,7304,6071,91,134,75,49,100,0
6773,7363,6104,27,41,24,10240,0.49,-0.08,1.47,1.09,6735,7306,6072,91,134,75,49,100,0
6778,7370,6110,33,50,29,10240,0.49,-0.08,1.47,1.09,6737,7308,6073,91,134,75,49,100,0
6784,7376,6114,39,59,34,10240,0.49,-0.08,1.47,1.09,6738,7310,6075,91,134,75,49,100,0
6787,7383,6116,43,63,37,10240,0.49,-0.08,1.47,1.09,6740,7313,6076,91,134,75,49,100,0
6796,7394,6124,47,69,40,10240,0.49,-0.08,1.47,1.09,6742,7315,6078,91,134,75,49,100,0
6785,7379,6112,47,69,39,10240,0.49,-0.08,1.47,1.09,6743,7317,6079,91,134,76,49,100,0
6765,7350,6093,41,60,33,10240,0.49,-0.08,1.46,1.08,6744,7318,6079,89,134,76,49,100,0
6744,7319,6075,29,43,22,10240,0.49,-0.08,1.46,1.08,6744,7319,6079,89,134,76,49,100,0
6729,7292,6059,12,17,5,10240,0.49,-0.08,1.46,1.08,6743,7318,6079,89,134,76,49,100,0
6702,7242,6030,-8,-16,-14,10240,0.49,-0.08,1.46,1.08,6742,7315,6077,89,134,76,49,100,0
6700,7241,6030,-23,-42,-29,10240,0.49,-0.08,1.46,1.08,6741,7313,6075,89,134,76,49,100,0
6704,7250,6036,-32,-58,-37,10240,0.49,-0.08,1.46,1.08,6739,7311,6074,89,134,76,49,100,0
6711,7263,6045,-35,-63,-39,10240,0.49,-0.08,1.46,1.08,6738,7309,6073,89,134,76,49,100,0
6721,7280,6056,-30,-51,-32,10240,0.49,-0.08,1.46,1.08,6738,7308,6073,89,134,76,49,100,0
6735,7302,6068,-20,-35,-21,10240,0.49,-0.08,1.46,1.08,6738,7308,6072,89,134,76,49,100,0
6735,7306,6072,-12,-20,-12,10240,0.49,-0.08,1.46,1.08,6738,7308,6072,89,134,76,49,100,0
6741,7313,6077,-5,-7,-4,10240,0.49,-0.08,1.46,1.08,6738,7308,6073,89,134,76,49,100,0
6751,7327,6084,2,4,2,10240,0.49,-0.08,1.46,1.08,6738,7308,6073,89,134,76,49,100,0
6756,7337,6089,7,12,7,10240,0.49,-0.08,1.46,1.08,6739,7309,6073,89,134,76,49,100,0
6768,7355,6098,15,24,13,10240,0.49,-0.08,1.46,1.08,6740,7311,6074,89,134,76,49,100,0
6774,7363,6103,22,35,19,10240,0.49,-0.08,1.46,1.08,6741,7313,6075,89,134,76,49,100,0
6780,7370,6107,29,44,24,10240,0.49,-0.08,1.46,1.08,6742,7315,6076,89,134,76,49,100,0
6784,7376,6110,34,52,29,10240,0.49,-0.08,1.46,1.08,6744,7317,6077,89,134,76,49,100,0
6793,7385,6115,39,57,32,10240,0.49,-0.08,1.46,1.08,6745,7319,6079,89,134,76,49,100,0
6799,7398,6125,44,64,36,10240,0.49,-0.08,1.46,1.08,6747,7322,6080,89,134,76,49,100,0
6801,7402,6126,48,69,39,10240,0.49,-0.08,1.46,1.08,6749,7324,6082,89,134,76,49,100,0
6792,7388,6116,48,70,39,10240,0.49,-0.08,1.46,1.08,6750,7326,6083,89,134,76,49,100,0
6772,7358,6096,41,61,33,10240,0.49,-0.08,1.46,1.08,6751,7327,6083,88,133,77,49,100,0
6730,7289,6075,23,33,20,10240,0.49,-0.08,1.43,1.03,6750,7326,6083,88,133,77,49,100,0
6706,7247,6029,0,-5,-3,10240,0.49,-0.08,1.43,1.03,6749,7324,6081,88,133,77,49,100,0
6692,7233,6024,-24,-42,-25,10240,0.49,-0.08,1.43,1.03,6747,7320,6079,88,133,77,49,100,0
6688,7232,6027,-43,-71,-41,10240,0.49,-0.08,1.43,1.03,6745,7318,6078,88,133,77,49,100,0
6691,7233,6025,-51,-83,-52,10240,0.49,-0.08,1.43,1.03,6743,7315,6076,88,133,77,49,100,0
6707,7251,6036,-49,-79,-49,10240,0.49,-0.08,1.43,1.03,6742,7313,6075,88,133,77,49,100,0
6714,7266,6046,-42,-68,-42,10240,0.49,-0.08,1.43,1.03,6741,7311,6074,88,133,77,49,100,0
6722,7280,6052,-33,-54,-34,10240,0.49,-0.08,1.43,1.03,6740,7310,6073,88,133,77,49,100,0
6731,7292,6059,-22,-38,-25,10240,0.49,-0.08,1.43,1.03,6740,7309,6072,88,133,77,49,100,0
6736,7301,6066,-14,-25,-17,10240,0.49,-0.08,1.43,1.03,6740,7309,6072,88,133,77,49,100,0
6746,7318,6077,-6,-11,-8,10240,0.49,-0.08,1.43,1.03,6740,7309,6072,88,133,77,49,100,0
6751,7326,6083,1,0,-1,10240,0.49,-0.08,1.43,1.03,6740,7310,6073,88,133,77,49,100,0
6759,7336,6088,7,10,6,10240,0.49,-0.08,1.43,1.03,6741,7311,6073,88,133,77,49,100,0
6763,7344,6092,14,20,12,10240,0.49,-0.08,1.43,1.03,6742,7312,6074,88,133,77,49,100,0
6768,7351,6096,18,27,16,10240,0.49,-0.08,1.43,1.03,6743,7313,6075,88,133,77,49,100,0
6779,7368,6105,24,37,20,10240,0.49,-0.08,1.43,1.03,6744,7315,6076,88,133,77,49,100,0
6784,7372,6109,30,44,25,10240,0.49,-0.08,1.43,1.03,6745,7317,6077,88,133,77,49,100,0
6787,7380,6113,34,51,29,10240,0.49,-0.08,1.43,1.03,6747,7319,6078,88,133,77,49,100,0
6793,7388,6116,39,59,33,10240,0.49,-0.08,1.43,1.03,6748,7321,6079,88,133,77,49,100,0
6786,7377,6108,40,59,33,10240,0.49,-0.08,1.43,1.03,6749,7323,6080,88,133,77,49,100,0
6739,7306,6064,28,41,21,10240,0.49,-0.08,1.43,1.03,6749,7323,6080,89,136,79,49,100,0
6715,7259,6034,9,10,1,10240,0.38,-0.08,1.43,1.01,6748,7321,6078,89,136,79,49,100,0
6681,7228,6026,-17,-28,-20,10240,0.38,-0.08,1.43,1.01,6746,7317,6076,89,136,79,49,100,0
6652,7197,6018,-49,-71,-41,10240,0.38,-0.08,1.43,1.01,6743,7313,6074,89,136,79,49,100,0
6648,7194,6018,-70,-95,-51,10240,0.38,-0.08,1.43,1.01,6739,7309,6072,89,136,79,49,100,0
6653,7200,6022,-82,-106,-52,10240,0.38,-0.08,1.43,1.01,6737,7306,6071,89,136,79,49,100,0
6659,7212,6029,-85,-107,-49,10240,0.38,-0.08,1.43,1.01,6734,7303,6069,89,136,79,49,100,0
6671,7224,6031,-77,-97,-45,10240,0.38,-0.08,1.43,1.01,6732,7300,6068,89,136,79,49,100,0
6682,7230,6029,-67,-85,-41,10240,0.38,-0.08,1.43,1.01,6730,7298,6067,89,136,79,49,100,0
6692,7233,6026,-55,-74,-38,10240,0.38,-0.08,1.43,1.01,6729,7296,6065,89,136,79,49,100,0
6709,7255,6041,-41,-61,-34,10240,0.38,-0.08,1.43,1.01,6728,7294,6065,89,136,79,49,100,0
6717,7272,6051,-28,-47,-28,10240,0.38,-0.08,1.43,1.01,6728,7293,6064,89,136,79,49,100,0
6724,7284,6054,-17,-33,-21,10240,0.38,-0.08,1.43,1.01,6728,7293,6064,89,136,79,49,100,0
6730,7293,6060,-8,-17,-12,10240,0.38,-0.08,1.43,1.01,6728,7293,6064,89,136,79,49,100,0
6737,7299,6065,-1,-6,-6,10240,0.38,-0.08,1.43,1.01,6728,7293,6064,89,136,79,49,100,0
6741,7311,6074,4,3,0,10240,0.38,-0.08,1.43,1.01,6729,7294,6064,89,136,79,49,100,0
6745,7319,6079,9,11,5,10240,0.38,-0.08,1.43,1.01,6729,7295,6065,89,136,79,49,100,0
6753,7330,6084,15,20,11,10240,0.38,-0.08,1.43,1.01,6730,7296,6065,89,136,79,49,100,0
6757,7335,6087,19,28,16,10240,0.38,-0.08,1.43,1.01,6731,7297,6066,89,136,79,49,100,0
6760,7341,6089,23,34,19,10240,0.38,-0.08,1.43,1.01,6732,7299,6067,89,136,79,49,100,0
6740,7310,6072,21,31,16,10240,0.38,-0.08,1.43,1.01,6732,7299,6067,93,137,77,49,100,0
6720,7278,6049,12,17,7,10240,0.38,-0.08,1.48,1.09,6732,7298,6066,93,137,77,49,100,0
6690,7234,6027,-4,-7,-7,10240,0.38,-0.08,1.48,1.09,6730,7296,6065,93,137,77,49,100,0
6654,7200,6022,-29,-41,-23,10240,0.38,-0.08,1.48,1.09,6728,7293,6064,93,137,77,49,100,0
6652,7185,6009,-49,-69,-37,10240,0.38,-0.08,1.48,1.09,6725,7289,6062,93,137,77,49,100,0
6652,7185,6010,-64,-90,-45,10240,0.38,-0.08,1.48,1.09,6723,7286,6060,93,137,77,49,100,0
6652,7186,6011,-71,-98,-48,10240,0.38,-0.08,1.48,1.09,6720,7283,6058,93,137,77,49,100,0
6650,7189,6015,-70,-98,-48,10240,0.38,-0.08,1.48,1.09,6718,7280,6057,93,137,77,49,100,0
6650,7190,6019,-68,-94,-44,10240,0.38,-0.08,1.48,1.09,6716,7277,6056,93,137,77,49,100,0
6653,7202,6022,-65,-86,-39,10240,0.38,-0.08,1.48,1.09,6714,7274,6055,93,137,77,49,100,0
6658,7213,6033,-62,-77,-33,10240,0.38,-0.08,1.48,1.09,6712,7272,6054,93,137,77,49,100,0
6670,7226,6033,-55,-65,-27,10240,0.38,-0.08,1.48,1.09,6710,7270,6053,93,137,77,49,100,0
6684,7230,6030,-45,-53,-24,10240,0.38,-0.08,1.48,1.09,6710,7269,6052,93,137,77,49,100,0
6692,7234,6029,-34,-44,-21,10240,0.38,-0.08,1.48,1.09,6709,7268,6052,93,137,77,49,100,0
6708,7260,6035,-21,-31,-20,10240,0.38,-0.08,1.48,1.09,6709,7268,6051,93,137,77,49,100,0
6713,7269,6052,-10,-20,-15,10240,0.38,-0.08,1.48,1.09,6709,7268,6051,93,137,77,49,100,0
6719,7279,6057,-1,-7,-8,10240,0.38,-0.08,1.48,1.09,6709,7268,6051,93,137,77,49,100,0
6726,7288,6063,7,5,0,10240,0.38,-0.08,1.48,1.09,6710,7269,6052,93,137,77,49,100,0
6732,7296,6068,12,14,8,10240,0.38,-0.08,1.48,1.09,6711,7270,6052,93,137,77,49,100,0
6736,7307,6072,17,23,13,10240,0.38,-0.08,1.48,1.09,6712,7271,6053,93,137,77,49,100,0
6738,7311,6080,21,30,18,10240,0.38,-0.08,1.48,1.09,6712,7272,6054,93,137,77,49,100,0
6736,7308,6074,23,34,20,10240,0.38,-0.08,1.48,1.09,6713,7273,6054,93,137,77,49,100,0
6728,7291,6062,21,31,18,10240,0.38,-0.08,1.48,1.09,6714,7274,6055,94,136,74,49,100,0
6706,7256,6042,14,18,10,10240,0.38,-0.08,1.53,1.15,6713,7273,6054,94,136,74,49,100,0
6655,7210,6030,-6,-6,-2,10240,0.38,-0.08,1.53,1.15,6711,7271,6053,94,136,74,49,100,0
6649,7196,6027,-27,-33,-13,10240,0.38,-0.08,1.53,1.15,6709,7269,6053,94,136,74,49,100,0
6648,7193,6024,-45,-56,-22,10240,0.38,-0.08,1.53,1.15,6707,7266,6052,94,136,74,49,100,0
6648,7196,6026,-58,-68,-25,10240,0.38,-0.08,1.53,1.15,6705,7264,6051,94,136,74,49,100,0
6648,7201,6031,-58,-68,-24,10240,0.38,-0.08,1.53,1.15,6704,7262,6050,94,136,74,49,100,0
6660,7220,6038,-53,-60,-21,10240,0.38,-0.08,1.53,1.15,6702,7260,6050,94,136,74,49,100,0
6676,7227,6034,-45,-50,-17,10240,0.38,-0.08,1.53,1.15,6701,7259,6049,94,136,74,49,100,0
6685,7230,6030,-34,-40,-16,10240,0.38,-0.08,1.53,1.15,6701,7258,6049,94,136,74,49,100,0
6691,7234,6031,-23,-31,-15,10240,0.38,-0.08,1.53,1.15,6700,7258,6048,94,136,74,49,100,0
6697,7242,6036,-13,-24,-15,10240,0.38,-0.08,1.53,1.15,6700,7257,6048,94,136,74,49,100,0
6709,7266,6053,-5,-14,-10,10240,0.38,-0.08,1.53,1.15,6701,7257,6048,94,136,74,49,100,0
6717,7278,6059,3,-2,-3,10240,0.38,-0.08,1.53,1.15,6701,7258,6048,94,136,74,49,100,0
6722,7286,6061,10,10,4,10240,0.38,-0.08,1.53,1.15,6702,7259,6048,94,136,74,49,100,0
6730,7295,6067,17,22,11,10240,0.38,-0.08,1.53,1.15,6703,7260,6049,94,136,74,49,100,0
6734,7304,6072,23,31,16,10240,0.38,-0.08,1.53,1.15,6704,7262,6050,94,136,74,49,100,0
6737,7313,6080,27,38,20,10240,0.38,-0.08,1.53,1.15,6705,7263,6051,94,136,74,49,100,0
6743,7319,6083,31,45,25,10240,0.38,-0.08,1.53,1.15,6706,7265,6052,94,136,74,49,100,0
6744,7323,6085,34,50,28,10240,0.38,-0.08,1.53,1.15,6707,7267,6053,94,136,74,49,100,0
6736,7309,6073,33,50,27,10240,0.38,-0.08,1.53,1.15,6708,7269,6054,93,136,69,49,100,0
6718,7279,6056,27,40,21,10240,0.38,-0.08,1.64,1.22,6709,7269,6054,93,131,69,49,100,0
6658,7209,6030,6,12,7,10240,0.38,-0.08,1.64,1.22,6707,7267,6053,93,131,69,49,100,0
6649,7190,6021,-17,-20,-8,10240,0.38,-0.08,1.64,1.22,6705,7264,6052,93,131,69,49,100,0
6651,7188,6019,-37,-49,-21,10240,0.38,-0.08,1.64,1.22,6703,7262,6051,93,131,69,49,100,0
6650,7189,6020,-52,-69,-29,10240,0.38,-0.08,1.64,1.22,6701,7259,6050,93,131,69,49,100,0
6649,7191,6021,-52,-71,-30,10240,0.38,-0.08,1.64,1.22,6700,7257,6049,93,131,69,49,100,0
6648,7194,6026,-51,-67,-28,10240,0.38,-0.08,1.64,1.22,6698,7255,6048,93,131,69,49,100,0
6646,7198,6030,-50,-63,-24,10240,0.38,-0.08,1.64,1.22,6696,7253,6047,93,131,69,49,100,0
6648,7207,6036,-49,-56,-19,10240,0.38,-0.08,1.64,1.22,6695,7252,6047,93,131,69,49,100,0
6656,7218,6040,-46,-48,-14,10240,0.38,-0.08,1.64,1.22,6693,7250,6047,93,131,69,49,100,0
6671,7227,6036,-39,-38,-11,10240,0.38,-0.08,1.64,1.22,6693,7250,6046,93,131,69,49,100,0
6691,7236,6035,-27,-28,-9,10240,0.38,-0.08,1.64,1.22,6693,7249,6046,93,131,69,49,100,0
6699,7252,6045,-13,-16,-7,10240,0.38,-0.08,1.64,1.22,6693,7249,6046,93,131,69,49,100,0
6704,7262,6051,-1,-5,-4,10240,0.38,-0.08,1.64,1.22,6693,7250,6046,93,131,69,49,100,0
6710,7272,6058,7,6,1,10240,0.38,-0.08,1.64,1.22,6694,7250,6047,93,131,69,49,100,0
6718,7284,6063,14,17,7,10240,0.38,-0.08,1.64,1.22,6694,7252,6047,93,131,69,49,100,0
6732,7303,6075,21,29,14,10240,0.38,-0.08,1.64,1.22,6696,7253,6048,93,131,69,49,100,0
6735,7309,6079,28,39,21,10240,0.38,-0.08,1.64,1.22,6697,7255,6049,93,131,69,49,100,0
6736,7312,6083,34,47,26,10240,0.38,-0.08,1.64,1.22,6698,7257,6050,93,131,69,49,100,0
6735,7309,6078,36,52,29,10240,0.38,-0.08,1.64,1.22,6700,7259,6051,93,131,69,49,100,0
6721,7286,6063,33,46,25,10240,0.38,-0.08,1.64,1.22,6700,7260,6052,92,129,67,49,100,0
6658,7215,6036,13,22,14,10240,0.38,-0.08,1.61,1.24,6699,7258,6051,92,129,67,49,100,0
6649,7191,6024,-8,-8,0,10240,0.38,-0.08,1.61,1.24,6697,7256,6050,92,129,67,49,100,0
6651,7187,6015,-28,-37,-16,10240,0.38,-0.08,1.61,1.24,6696,7254,6049,92,129,67,49,100,0
6649,7186,6015,-44,-60,-27,10240,0.38,-0.08,1.61,1.24,6694,7251,6048,92,129,67,49,100,0
6649,7185,6016,-45,-65,-31,10240,0.38,-0.08,1.61,1.24,6693,7249,6047,92,129,67,49,100,0
6650,7190,6021,-43,-63,-30,10240,0.38,-0.08,1.61,1.24,6691,7247,6046,92,129,67,49,100,0
6650,7190,6024,-42,-60,-27,10240,0.38,-0.08,1.61,1.24,6690,7245,6045,92,129,67,49,100,0
6648,7194,6029,-41,-56,-23,10240,0.38,-0.08,1.61,1.24,6688,7244,6045,92,129,67,49,100,0
6646,7197,6031,-40,-51,-18,10240,0.38,-0.08,1.61,1.24,6687,7242,6044,92,129,67,49,100,0
6645,7201,6036,-40,-47,-14,10240,0.38,-0.08,1.61,1.24,6686,7241,6044,92,129,67,49,100,0
6663,7223,6042,-36,-38,-9,10240,0.38,-0.08,1.61,1.24,6685,7240,6044,92,129,67,49,100,0
6674,7227,6036,-28,-28,-7,10240,0.38,-0.08,1.61,1.24,6684,7240,6044,92,129,67,49,100,0
6682,7231,6036,-18,-19,-6,10240,0.38,-0.08,1.61,1.24,6684,7239,6043,92,129,67,49,100,0
6692,7239,6041,-6,-9,-4,10240,0.38,-0.08,1.61,1.24,6685,7239,6043,92,129,67,49,100,0
6697,7251,6047,1,-2,-3,10240,0.38,-0.08,1.61,1.24,6685,7240,6043,92,129,67,49,100,0
6710,7274,6061,10,9,3,10240,0.38,-0.08,1.61,1.24,6686,7241,6044,92,129,67,49,100,0
6718,7284,6066,18,21,10,10240,0.38,-0.08,1.61,1.24,6687,7242,6045,92,129,67,49,100,0
6723,7291,6069,25,33,16,10240,0.38,-0.08,1.61,1.24,6688,7244,6046,92,129,67,49,100,0
6728,7298,6071,32,43,21,10240,0.38,-0.08,1.61,1.24,6690,7246,6046,92,129,67,49,100,0
6716,7282,6063,32,44,21,10240,0.38,-0.08,1.61,1.24,6690,7247,6047,92,129,67,49,100,0
6654,7207,6034,16,23,12,10240,0.38,-0.08,1.61,1.24,6689,7246,6047,88,124,63,49,100,0
6651,7186,6019,-2,-2,0,10240,0.38,-0.08,1.64,1.26,6688,7244,6046,88,124,63,49,100,0
6630,7160,5998,-25,-35,-17,10240,0.38,-0.08,1.64,1.26,6686,7241,6044,88,124,63,49,100,0
6608,7128,5984,-50,-71,-36,10240,0.38,-0.08,1.64,1.26,6683,7237,6042,88,124,63,49,100,0
6599,7116,5981,-62,-91,-47,10240,0.38,-0.08,1.64,1.26,6681,7233,6040,88,124,63,49,100,0
6600,7120,5986,-72,-104,-53,10240,0.38,-0.08,1.64,1.26,6678,7229,6038,88,124,63,49,100,0
6605,7129,5991,-76,-108,-53,10240,0.38,-0.08,1.64,1.26,6675,7226,6037,88,124,63,49,100,0
6611,7136,5995,-73,-102,-49,10240,0.38,-0.08,1.64,1.26,6673,7223,6035,88,124,63,49,100,0
6618,7149,6001,-65,-91,-42,10240,0.38,-0.08,1.64,1.26,6671,7220,6034,88,124,63,49,100,0
6624,7159,6005,-57,-78,-36,10240,0.38,-0.08,1.64,1.26,6670,7218,6033,88,124,63,49,100,0
6643,7182,6017,-46,-63,-29,10240,0.38,-0.08,1.64,1.26,6669,7217,6033,88,124,63,49,100,0
6648,7189,6022,-36,-48,-21,10240,0.38,-0.08,1.64,1.26,6668,7216,6032,88,124,63,49,100,0
6650,7190,6024,-27,-36,-15,10240,0.38,-0.08,1.64,1.26,6668,7215,6032,88,124,63,49,100,0
6648,7193,6028,-20,-27,-9,10240,0.38,-0.08,1.64,1.26,6667,7215,6032,88,124,63,49,100,0
6647,7195,6031,-19,-23,-5,10240,0.38,-0.08,1.64,1.26,6666,7214,6032,88,124,63,49,100,0
6644,7202,6040,-19,-19,-1,10240,0.38,-0.08,1.64,1.26,6666,7214,6032,88,124,63,49,100,0
6647,7211,6043,-19,-14,3,10240,0.38,-0.08,1.64,1.26,6665,7214,6032,88,124,63,49,100,0
6651,7218,6046,-18,-7,7,10240,0.38,-0.08,1.64,1.26,6665,7214,6033,88,124,63,49,100,0
6662,7223,6044,-14,0,10,10240,0.38,-0.08,1.64,1.26,6664,7214,6033,88,124,63,49,100,0
6670,7225,6039,-7,5,10,10240,0.38,-0.08,1.64,1.26,6665,7214,6033,88,124,63,49,100,0
6647,7196,6031,-7,1,7,10240,0.38,-0.08,1.64,1.26,6664,7214,6033,88,121,63,49,100,0
6647,7184,6018,-7,-6,0,10240,0.38,-0.08,1.61,1.26,6663,7213,6033,88,121,63,49,100,0
6615,7141,5997,-18,-26,-11,10240,0.38,-0.08,1.61,1.26,6662,7210,6032,83,121,63,49,100,0
6587,7104,5977,-38,-54,-26,10240,0.38,-0.08,1.61,1.26,6659,7207,6030,83,121,63,49,100,0
6567,7077,5963,-56,-81,-42,10240,0.38,-0.08,1.61,1.26,6656,7202,6028,83,121,63,49,100,0
6561,7073,5963,-75,-105,-53,10240,0.38,-0.08,1.61,1.26,6653,7198,6025,83,121,63,49,100,0
6564,7077,5965,-84,-117,-59,10240,0.38,-0.08,1.61,1.26,6650,7194,6023,83,121,63,49,100,0
6569,7086,5972,-86,-118,-58,10240,0.38,-0.08,1.61,1.26,6647,7191,6022,83,121,63,49,100,0
6575,7093,5975,-81,-110,-53,10240,0.38,-0.08,1.61,1.26,6645,7187,6020,83,121,63,49,100,0
6582,7103,5981,-73,-99,-47,10240,0.38,-0.08,1.61,1.26,6643,7184,6019,83,121,63,49,100,0
6596,7122,5992,-63,-85,-39,10240,0.38,-0.08,1.61,1.26,6641,7182,6018,83,121,63,49,100,0
6603,7132,5995,-53,-71,-32,10240,0.38,-0.08,1.61,1.26,6640,7181,6017,83,121,63,49,100,0
6612,7143,6002,-42,-56,-25,10240,0.38,-0.08,1.61,1.26,6639,7179,6017,83,121,63,49,100,0
6618,7154,6008,-32,-42,-17,10240,0.38,-0.08,1.61,1.26,6639,7179,6016,83,121,63,49,100,0
6626,7168,6014,-24,-30,-11,10240,0.38,-0.08,1.61,1.26,6638,7178,6016,83,121,63,49,100,0
6645,7189,6022,-13,-15,-5,10240,0.38,-0.08,1.61,1.26,6638,7179,6017,83,121,63,49,100,0
6648,7192,6026,-4,-3,1,10240,0.38,-0.08,1.61,1.26,6639,7179,6017,83,121,63,49,100,0
6648,7192,6029,3,6,6,10240,0.38,-0.08,1.61,1.26,6639,7180,6017,83,121,63,49,100,0
6648,7194,6032,8,12,10,10240,0.38,-0.08,1.61,1.26,6639,7180,6018,83,121,63,49,100,0
6646,7197,6036,8,13,13,10240,0.38,-0.08,1.61,1.26,6639,7181,6018,83,121,63,49,100,0
6646,7198,6037,7,14,15,10240,0.38,-0.08,1.61,1.26,6640,7181,6019,86,121,63,49,100,0
6648,7191,6025,7,14,14,10240,0.38,-0.08,1.61,1.26,6640,7181,6019,86,121,66,49,100,0
6624,7161,6009,1,5,8,10240,0.38,-0.08,1.54,1.18,6639,7181,6019,86,124,66,49,100,0
6599,7126,5992,-10,-11,-3,10240,0.38,-0.08,1.54,1.18,6638,7179,6018,86,124,66,49,100,0
6577,7095,5977,-26,-36,-17,10240,0.38,-0.08,1.54,1.18,6636,7176,6017,86,124,66,49,100,0
6556,7069,5964,-47,-64,-31,10240,0.38,-0.08,1.54,1.18,6633,7173,6015,86,124,66,49,100,0
6556,7071,5966,-62,-84,-41,10240,0.38,-0.08,1.54,1.18,6631,7169,6013,86,124,66,49,100,0
6561,7078,5971,-69,-92,-44,10240,0.38,-0.08,1.54,1.18,6629,7166,6012,86,124,66,49,100,0
6566,7086,5976,-70,-91,-43,10240,0.38,-0.08,1.54,1.18,6626,7163,6011,86,124,66,49,100,0
6572,7094,5979,-64,-82,-38,10240,0.38,-0.08,1.54,1.18,6625,7161,6009,86,124,66,49,100,0
6589,7115,5991,-53,-69,-31,10240,0.38,-0.08,1.54,1.18,6623,7160,6009,86,124,66,49,100,0
6596,7124,5996,-43,-55,-23,10240,0.38,-0.08,1.54,1.18,6623,7158,6008,86,124,66,49,100,0
6602,7134,5998,-33,-42,-17,10240,0.38,-0.08,1.54,1.18,6622,7158,6008,86,124,66,49,100,0
6611,7148,6006,-22,-28,-10,10240,0.38,-0.08,1.54,1.18,6621,7157,6008,86,124,66,49,100,0
6619,7160,6013,-14,-16,-4,10240,0.38,-0.08,1.54,1.18,6621,7157,6008,86,124,66,49,100,0
6637,7183,6020,-4,-1,1,10240,0.38,-0.08,1.54,1.18,6622,7158,6009,86,124,66,49,100,0
6645,7193,6026,6,13,7,10240,0.38,-0.08,1.54,1.18,6623,7159,6009,86,124,66,49,100,0
6647,7194,6031,14,23,13,10240,0.38,-0.08,1.54,1.18,6623,7161,6010,86,124,66,49,100,0
6647,7196,6034,21,31,18,10240,0.38,-0.08,1.54,1.18,6624,7162,6011,86,124,66,49,100,0
6645,7199,6038,22,34,21,10240,0.38,-0.08,1.54,1.18,6625,7163,6012,86,124,66,49,100,0
6643,7204,6043,21,35,25,10240,0.38,-0.08,1.54,1.18,6626,7164,6013,88,124,66,49,100,0
6646,7198,6036,20,35,25,10240,0.38,-0.08,1.54,1.18,6626,7166,6013,88,124,66,49,100,0
6640,7186,6021,17,32,21,10240,0.38,-0.08,1.54,1.18,6627,7166,6014,88,125,66,49,100,0
6609,7144,6002,8,17,12,10240,0.38,-0.08,1.59,1.21,6626,7165,6013,88,125,66,49,100,0
6584,7106,5983,-6,-6,-2,10240,0.38,-0.08,1.59,1.21,6625,7163,6012,88,125,66,49,100,0
6546,7057,5959,-30,-40,-21,10240,0.38,-0.08,1.59,1.21,6622,7160,6011,88,125,66,49,100,0
6543,7053,5959,-52,-71,-35,10240,0.38,-0.08,1.59,1.21,6619,7156,6009,88,125,66,49,100,0
6546,7059,5962,-66,-89,-44,10240,0.38,-0.08,1.59,1.21,6617,7153,6007,88,125,66,49,100,0
6552,7068,5967,-71,-95,-46,10240,0.38,-0.08,1.59,1.21,6615,7150,6006,88,125,66,49,100,0
6558,7078,5974,-66,-87,-41,10240,0.38,-0.08,1.59,1.21,6613,7148,6005,88,125,66,49,100,0
6574,7097,5984,-56,-73,-33,10240,0.38,-0.08,1.59,1.21,6612,7146,6004,88,125,66,49,100,0
6581,7108,5988,-46,-59,-26,10240,0.38,-0.08,1.59,1.21,6611,7145,6004,88,125,66,49,100,0
6588,7118,5993,-36,-45,-19,10240,0.38,-0.08,1.59,1.21,6610,7144,6003,88,125,66,49,100,0
6596,7129,5999,-25,-31,-12,10240,0.38,-0.08,1.59,1.21,6609,7144,6003,88,125,66,49,100,0
6606,7142,6006,-17,-19,-6,10240,0.38,-0.08,1.59,1.21,6609,7143,6003,88,125,66,49,100,0
6620,7161,6016,-7,-6,0,10240,0.38,-0.08,1.59,1.21,6610,7144,6004,88,125,66,49,100,0
6629,7174,6020,3,7,6,10240,0.38,-0.08,1.59,1.21,6610,7145,6004,88,125,66,49,100,0
6636,7185,6023,12,21,12,10240,0.38,-0.08,1.59,1.21,6611,7146,6005,88,125,66,49,100,0
6644,7195,6029,21,33,17,10240,0.38,-0.08,1.59,1.21,6612,7148,6006,88,125,66,49,100,0
6647,7196,6034,27,40,21,10240,0.38,-0.08,1.59,1.21,6613,7150,6007,88,125,66,49,100,0
6645,7199,6041,30,45,25,10240,0.38,-0.08,1.59,1.21,6614,7151,6008,88,125,66,49,100,0
6645,7199,6038,31,46,28,10240,0.38,-0.08,1.59,1.21,6616,7153,6009,88,125,66,49,100,0
6641,7189,6026,29,43,26,10240,0.38,-0.08,1.59,1.21,6616,7154,6009,91,129,68,49,100,0
6612,7148,6008,20,30,19,10240,0.38,-0.08,1.59,1.22,6616,7154,6009,91,129,68,49,100,0
6584,7109,5987,4,8,6,10240,0.38,-0.08,1.59,1.22,6615,7152,6008,91,129,68,49,100,0
6533,7037,5951,-22,-31,-15,10240,0.38,-0.08,1.59,1.22,6612,7149,6007,91,129,68,49,100,0
6519,7022,5946,-51,-70,-34,10240,0.38,-0.08,1.59,1.22,6609,7144,6005,91,129,68,49,100,0
6520,7025,5947,-71,-98,-48,10240,0.38,-0.08,1.59,1.22,6606,7140,6003,91,129,68,49,100,0
6526,7031,5951,-83,-113,-55,10240,0.38,-0.08,1.59,1.22,6604,7137,6001,91,129,68,49,100,0
6533,7041,5956,-80,-109,-52,10240,0.38,-0.08,1.59,1.22,6601,7134,5999,91,129,68,49,100,0
6548,7064,5968,-71,-95,-44,10240,0.38,-0.08,1.59,1.22,6600,7131,5998,91,129,68,49,100,0
6556,7075,5973,-60,-80,-36,10240,0.38,-0.08,1.59,1.22,6598,7129,5997,91,129,68,49,100,0
6565,7086,5980,-48,-64,-28,10240,0.38,-0.08,1.59,1.22,6597,7128,5997,91,129,68,49,100,0
6573,7099,5986,-37,-47,-20,10240,0.38,-0.08,1.59,1.22,6596,7127,5997,91,129,68,49,100,0
6582,7111,5991,-27,-34,-14,10240,0.38,-0.08,1.59,1.22,6596,7126,5996,91,129,68,49,100,0
6597,7130,6002,-17,-20,-7,10240,0.38,-0.08,1.59,1.22,6596,7127,5997,91,129,68,49,100,0
6604,7139,6006,-7,-7,0,10240,0.38,-0.08,1.59,1.22,6596,7127,5997,91,129,68,49,100,0
6611,7149,6011,2,5,5,10240,0.38,-0.08,1.59,1.22,6597,7128,5997,91,129,68,49,100,0
6619,7161,6018,11,17,12,10240,0.38,-0.08,1.59,1.22,6597,7129,5998,91,129,68,49,100,0
6626,7174,6022,18,27,16,10240,0.38,-0.08,1.59,1.22,6598,7130,5999,91,129,68,49,100,0
6643,7195,6028,26,40,21,10240,0.38,-0.08,1.59,1.22,6600,7132,6000,91,129,68,49,100,0
6645,7196,6032,34,50,25,10240,0.38,-0.08,1.59,1.22,6601,7135,6001,91,129,68,49,100,0
6637,7185,6024,37,54,26,10240,0.38,-0.08,1.59,1.22,6602,7136,6002,91,129,68,49,100,0
6610,7148,6007,32,46,21,10240,0.38,-0.08,1.59,1.22,6603,7137,6002,98,138,72,49,100,0
6551,7066,5987,9,13,11,10240,0.42,-0.08,1.61,1.24,6601,7134,6001,98,138,72,49,100,0
6522,7026,5947,-21,-28,-9,10240,0.42,-0.08,1.61,1.24,6598,7131,5999,98,138,72,49,100,0
6497,6998,5935,-54,-72,-30,10240,0.42,-0.08,1.61,1.24,6595,7126,5997,98,138,72,49,100,0
6495,6997,5934,-80,-106,-47,10240,0.42,-0.08,1.61,1.24,6592,7122,5995,98,138,72,49,100,0
6497,6996,5936,-90,-120,-58,10240,0.42,-0.08,1.61,1.24,6588,7118,5993,98,138,72,49,100,0
6501,7007,5939,-92,-120,-58,10240,0.42,-0.08,1.61,1.24,6586,7114,5991,98,138,72,49,100,0
6511,7018,5947,-86,-111,-53,10240,0.42,-0.08,1.61,1.24,6583,7111,5990,98,138,72,49,100,0
6521,7027,5950,-77,-100,-47,10240,0.42,-0.08,1.61,1.24,6581,7108,5989,98,138,72,49,100,0
6533,7044,5960,-65,-85,-40,10240,0.42,-0.08,1.61,1.24,6579,7106,5988,98,138,72,49,100,0
6541,7058,5967,-53,-70,-32,10240,0.42,-0.08,1.61,1.24,6578,7104,5987,98,138,72,49,100,0
6561,7083,5978,-40,-52,-24,10240,0.42,-0.08,1.61,1.24,6578,7104,5987,98,138,72,49,100,0
6569,7093,5985,-27,-34,-14,10240,0.42,-0.08,1.61,1.24,6577,7103,5987,98,138,72,49,100,0
6576,7103,5988,-15,-19,-7,10240,0.42,-0.08,1.61,1.24,6577,7103,5987,98,138,72,49,100,0
6585,7116,5996,-4,-4,0,10240,0.42,-0.08,1.61,1.24,6577,7104,5987,98,138,72,49,100,0
6592,7125,6000,3,5,5,10240,0.42,-0.08,1.61,1.24,6578,7104,5987,98,138,72,49,100,0
6607,7145,6005,12,18,10,10240,0.42,-0.08,1.61,1.24,6579,7106,5988,98,138,72,49,100,0
6614,7156,6016,21,30,16,10240,0.42,-0.08,1.61,1.24,6580,7107,5989,98,138,72,49,100,0
6620,7163,6019,28,40,21,10240,0.42,-0.08,1.61,1.24,6581,7109,5990,98,138,72,49,100,0
6622,7168,6020,35,49,25,10240,0.42,-0.08,1.61,1.24,6583,7111,5991,98,138,72,49,100,0
6611,7150,6010,34,49,25,10240,0.42,-0.08,1.61,1.24,6584,7113,5992,106,138,72,49,100,0
6554,7069,5969,19,26,13,10240,0.42,-0.08,1.61,1.24,6583,7111,5991,106,146,74,49,100,0
6520,7022,5946,-6,-8,-4,10240,0.42,-0.08,1.66,1.30,6581,7108,5989,106,146,74,49,100,0
6499,6996,5933,-35,-49,-25,10240,0.42,-0.08,1.66,1.30,6578,7104,5987,106,146,74,49,100,0
6501,6994,5925,-60,-85,-44,10240,0.42,-0.08,1.66,1.30,6575,7101,5985,106,146,74,49,100,0
6500,6994,5923,-71,-101,-54,10240,0.42,-0.08,1.66,1.30,6573,7097,5983,106,146,74,49,100,0
6498,6996,5929,-74,-104,-56,10240,0.42,-0.08,1.66,1.30,6570,7094,5982,106,146,74,49,100,0
6498,6995,5932,-72,-100,-55,10240,0.42,-0.08,1.66,1.30,6568,7090,5980,106,146,74,49,100,0
6496,6996,5934,-71,-96,-51,10240,0.42,-0.08,1.66,1.30,6566,7087,5978,106,146,74,49,100,0
6495,6997,5938,-70,-92,-46,10240,0.42,-0.08,1.66,1.30,6563,7084,5977,106,146,74,49,100,0
6495,7000,5942,-68,-88,-41,10240,0.42,-0.08,1.66,1.30,6561,7082,5976,106,146,74,49,100,0
6519,7023,5951,-61,-79,-35,10240,0.42,-0.08,1.66,1.30,6560,7080,5975,106,146,74,49,100,0
6530,7038,5958,-51,-66,-28,10240,0.42,-0.08,1.66,1.30,6559,7078,5974,106,146,74,49,100,0
6539,7051,5963,-38,-51,-21,10240,0.42,-0.08,1.66,1.30,6558,7077,5974,106,146,74,49,100,0
6548,7064,5970,-24,-34,-13,10240,0.42,-0.08,1.66,1.30,6558,7077,5974,106,146,74,49,100,0
6555,7073,5974,-15,-20,-7,10240,0.42,-0.08,1.66,1.30,6557,7077,5974,106,146,74,49,100,0
6571,7095,5985,-4,-6,-1,10240,0.42,-0.08,1.66,1.30,6558,7077,5974,106,146,74,49,100,0
6578,7103,5989,5,6,5,10240,0.42,-0.08,1.66,1.30,6559,7078,5975,106,146,74,49,100,0
6585,7113,5993,14,18,10,10240,0.42,-0.08,1.66,1.30,6559,7079,5975,106,146,74,49,100,0
6591,7122,5998,22,29,16,10240,0.42,-0.08,1.66,1.30,6560,7081,5976,106,146,74,49,100,0
6597,7129,6002,27,36,19,10240,0.42,-0.08,1.66,1.30,6562,7082,5977,106,146,74,49,100,0
6568,7091,5981,24,32,17,10240,0.42,-0.08,1.66,1.30,6562,7083,5977,104,145,75,49,100,0
6540,7049,5959,12,15,8,10240,0.42,-0.08,1.63,1.26,6561,7082,5977,104,145,75,49,100,0
6504,7007,5942,-8,-12,-5,10240,0.42,-0.08,1.63,1.26,6559,7079,5975,104,145,75,49,100,0
6499,6995,5932,-32,-44,-22,10240,0.42,-0.08,1.63,1.26,6557,7076,5974,104,145,75,49,100,0
6501,6995,5926,-47,-66,-34,10240,0.42,-0.08,1.63,1.26,6555,7074,5972,104,145,75,49,100,0
6500,6995,5927,-55,-77,-41,10240,0.42,-0.08,1.63,1.26,6554,7071,5971,104,145,75,49,100,0
6498,6995,5929,-55,-77,-43,10240,0.42,-0.08,1.63,1.26,6552,7068,5969,104,145,75,49,100,0
6497,6996,5933,-53,-74,-41,10240,0.42,-0.08,1.63,1.26,6550,7066,5968,104,145,75,49,100,0
6497,6996,5935,-53,-71,-37,10240,0.42,-0.08,1.63,1.26,6548,7064,5967,104,145,75,49,100,0
6496,6997,5938,-52,-68,-33,10240,0.42,-0.08,1.63,1.26,6546,7061,5966,104,145,75,49,100,0
6509,7014,5949,-47,-62,-28,10240,0.42,-0.08,1.63,1.26,6545,7060,5966,104,145,75,49,100,0
6519,7026,5952,-40,-52,-22,10240,0.42,-0.08,1.63,1.26,6544,7059,5965,104,145,75,49,100,0
6529,7039,5959,-31,-40,-16,10240,0.42,-0.08,1.63,1.26,6544,7058,5965,104,145,75,49,100,0
6540,7054,5967,-20,-25,-8,10240,0.42,-0.08,1.63,1.26,6544,7058,5965,104,145,75,49,100,0
6549,7067,5972,-9,-11,-2,10240,0.42,-0.08,1.63,1.26,6544,7058,5965,104,145,75,49,100,0
6567,7091,5985,2,4,5,10240,0.42,-0.08,1.63,1.26,6545,7059,5966,104,145,75,49,100,0
6574,7101,5988,12,19,12,10240,0.42,-0.08,1.63,1.26,6546,7061,5967,104,145,75,49,100,0
6582,7109,5993,22,32,18,10240,0.42,-0.08,1.63,1.26,6547,7062,5968,104,145,75,49,100,0
6587,7117,5997,31,43,23,10240,0.42,-0.08,1.63,1.26,6548,7064,5968,104,145,75,49,100,0
6594,7128,6003,36,50,27,10240,0.42,-0.08,1.63,1.26,6550,7066,5970,104,145,75,49,100,0
6586,7115,5994,38,52,27,10240,0.42,-0.08,1.63,1.26,6551,7068,5970,104,145,75,49,100,0
6561,7080,5974,32,43,22,10240,0.42,-0.08,1.63,1.26,6551,7068,5971,102,141,73,49,100,0
6526,7032,5952,16,21,10,10240,0.42,-0.08,1.63,1.27,6550,7067,5970,102,141,73,49,100,0
6500,6998,5937,-7,-10,-5,10240,0.42,-0.08,1.63,1.27,6549,7065,5969,102,141,73,49,100,0
6502,6994,5927,-27,-39,-21,10240,0.42,-0.08,1.63,1.27,6547,7062,5967,102,141,73,49,100,0
6493,6977,5916,-42,-63,-35,10240,0.42,-0.08,1.63,1.27,6545,7060,5966,102,141,73,49,100,0
6496,6984,5920,-48,-72,-41,10240,0.42,-0.08,1.63,1.27,6544,7057,5964,102,141,73,49,100,0
6500,6994,5926,-46,-71,-42,10240,0.42,-0.08,1.63,1.27,6542,7055,5963,102,141,73,49,100,0
6499,6996,5929,-46,-68,-41,10240,0.42,-0.08,1.63,1.27,6541,7053,5962,102,141,73,49,100,0
6497,6996,5931,-43,-61,-36,10240,0.42,-0.08,1.63,1.27,6539,7051,5961,102,141,73,49,100,0
6498,6996,5937,-41,-56,-30,10240,0.42,-0.08,1.63,1.27,6538,7049,5960,102,141,73,49,100,0
6495,6998,5942,-41,-53,-25,10240,0.42,-0.08,1.63,1.27,6536,7048,5959,102,141,73,49,100,0
6499,7005,5947,-39,-49,-20,10240,0.42,-0.08,1.63,1.27,6535,7046,5959,102,141,73,49,100,0
6512,7017,5950,-34,-43,-15,10240,0.42,-0.08,1.63,1.27,6534,7045,5959,102,141,73,49,100,0
6533,7029,5954,-25,-33,-10,10240,0.42,-0.08,1.63,1.27,6534,7045,5959,102,141,73,49,100,0
6542,7058,5969,-13,-18,-4,10240,0.42,-0.08,1.63,1.27,6535,7045,5959,102,141,73,49,100,0
6549,7068,5972,0,-2,2,10240,0.42,-0.08,1.63,1.27,6535,7046,5959,102,141,73,49,100,0
6557,7078,5979,10,12,9,10240,0.42,-0.08,1.63,1.27,6536,7047,5960,102,141,73,49,100,0
6564,7089,5983,17,26,16,10240,0.42,-0.08,1.63,1.27,6537,7048,5961,102,141,73,49,100,0
6578,7106,5988,25,37,20,10240,0.42,-0.08,1.63,1.27,6538,7050,5962,102,141,73,49,100,0
6576,7104,5991,31,45,23,10240,0.42,-0.08,1.63,1.27,6539,7052,5963,102,141,73,49,100,0
6557,7077,5975,30,43,22,10240,0.42,-0.08,1.63,1.27,6540,7053,5963,96,135,71,49,100,0
6525,7032,5953,19,28,14,10240,0.42,-0.08,1.61,1.23,6540,7052,5963,96,135,71,49,100,0
6498,6999,5938,0,1,1,10240,0.42,-0.08,1.61,1.23,6538,7050,5962,96,135,71,49,100,0
6480,6961,5924,-23,-33,-14,10240,0.42,-0.08,1.61,1.23,6536,7047,5961,96,135,71,49,100,0
6461,6937,5899,-46,-66,-32,10240,0.42,-0.08,1.61,1.23,6534,7044,5958,96,135,71,49,100,0
6460,6935,5899,-60,-87,-44,10240,0.42,-0.08,1.61,1.23,6531,7040,5957,96,135,71,49,100,0
6464,6943,5905,-66,-98,-51,10240,0.42,-0.08,1.61,1.23,6529,7037,5955,96,135,71,49,100,0
6472,6954,5911,-66,-96,-52,10240,0.42,-0.08,1.61,1.23,6527,7034,5953,96,135,71,49,100,0
6492,6981,5923,-56,-82,-44,10240,0.42,-0.08,1.61,1.23,6526,7032,5952,96,135,71,49,100,0
6498,6995,5929,-45,-65,-36,10240,0.42,-0.08,1.61,1.23,6525,7031,5952,96,135,71,49,100,0
6496,6996,5932,-36,-50,-28,10240,0.42,-0.08,1.61,1.23,6524,7030,5951,96,135,71,49,100,0
6492,6998,5936,-30,-38,-21,10240,0.42,-0.08,1.61,1.23,6523,7029,5950,96,135,71,49,100,0
6495,6997,5937,-28,-33,-17,10240,0.42,-0.08,1.61,1.23,6522,7028,5950,96,135,71,49,100,0
6494,7000,5947,-28,-30,-12,10240,0.42,-0.08,1.61,1.23,6521,7027,5950,96,135,71,49,100,0
6501,7008,5952,-26,-26,-7,10240,0.42,-0.08,1.61,1.23,6520,7026,5950,96,135,71,49,100,0
6511,7019,5954,-20,-20,-2,10240,0.42,-0.08,1.61,1.23,6520,7026,5950,96,135,71,49,100,0
6524,7036,5963,-12,-10,4,10240,0.42,-0.08,1.61,1.23,6520,7026,5950,96,135,71,49,100,0
6534,7048,5968,-2,1,9,10240,0.42,-0.08,1.61,1.23,6521,7027,5951,96,135,71,49,100,0
6549,7072,5978,8,16,15,10240,0.42,-0.08,1.61,1.23,6522,7029,5952,96,135,71,49,100,0
6555,7081,5983,19,31,21,10240,0.42,-0.08,1.61,1.23,6523,7030,5953,96,135,71,49,100,0
6551,7072,5978,24,38,24,10240,0.42,-0.08,1.61,1.23,6524,7032,5954,96,135,71,49,100,0
6524,7034,5958,21,34,21,10240,0.42,-0.08,1.61,1.23,6524,7032,5954,94,135,73,49,100,0
6497,7000,5944,8,15,12,10240,0.42,-0.08,1.57,1.18,6523,7031,5954,94,135,73,49,100,0
6484,6968,5918,-9,-12,-4,10240,0.42,-0.08,1.57,1.18,6522,7029,5952,94,135,73,49,100,0
6460,6936,5904,-30,-45,-21,10240,0.42,-0.08,1.57,1.18,6519,7026,5951,94,135,73,49,100,0
6450,6924,5899,-47,-70,-35,10240,0.42,-0.08,1.57,1.18,6517,7022,5949,94,135,73,49,100,0
6452,6928,5902,-56,-85,-44,10240,0.42,-0.08,1.57,1.18,6515,7019,5948,94,135,73,49,100,0
6457,6936,5908,-61,-89,-45,10240,0.42,-0.08,1.57,1.18,6513,7016,5946,94,135,73,49,100,0
6469,6955,5916,-57,-82,-40,10240,0.42,-0.08,1.57,1.18,6512,7014,5945,94,135,73,49,100,0
6481,6971,5923,-48,-68,-33,10240,0.42,-0.08,1.57,1.18,6511,7013,5944,94,135,73,49,100,0
6494,6990,5929,-36,-50,-25,10240,0.42,-0.08,1.57,1.18,6510,7012,5944,94,135,73,49,100,0
6495,6997,5933,-26,-34,-19,10240,0.42,-0.08,1.57,1.18,6510,7011,5944,94,135,73,49,100,0
6495,6997,5936,-18,-23,-13,10240,0.42,-0.08,1.57,1.18,6509,7011,5943,94,135,73,49,100,0
6494,6998,5944,-15,-15,-8,10240,0.42,-0.08,1.57,1.18,6509,7011,5943,94,135,73,49,100,0
6492,7000,5949,-15,-12,-3,10240,0.42,-0.08,1.57,1.18,6508,7010,5944,94,135,73,49,100,0
6499,7008,5953,-13,-9,2,10240,0.42,-0.08,1.57,1.18,6508,7010,5944,94,135,73,49,100,0
6509,7019,5957,-9,-4,7,10240,0.42,-0.08,1.57,1.18,6508,7010,5944,94,135,73,49,100,0
6522,7034,5964,-2,5,11,10240,0.42,-0.08,1.57,1.18,6508,7011,5945,94,135,73,49,100,0
6544,7065,5978,10,20,18,10240,0.42,-0.08,1.57,1.18,6509,7013,5946,94,135,73,49,100,0
6550,7076,5983,22,36,25,10240,0.42,-0.08,1.57,1.18,6511,7015,5947,94,135,73,49,100,0
6555,7083,5986,32,50,31,10240,0.42,-0.08,1.57,1.18,6512,7017,5949,94,135,73,49,100,0
6547,7072,5979,37,58,33,10240,0.42,-0.08,1.57,1.18,6513,7019,5950,94,135,73,49,100,0
6520,7032,5960,30,48,28,10240,0.42,-0.08,1.57,1.18,6514,7020,5950,95,138,74,49,100,0
6496,6996,5932,16,27,14,10240,0.42,-0.08,1.58,1.17,6513,7019,5949,95,138,74,49,100,0
6480,6965,5917,-2,-2,-2,10240,0.42,-0.08,1.58,1.17,6512,7017,5948,95,138,74,49,100,0
6453,6929,5901,-25,-37,-21,10240,0.42,-0.08,1.58,1.17,6510,7014,5947,95,138,74,49,100,0
6447,6919,5898,-41,-63,-35,10240,0.42,-0.08,1.58,1.17,6508,7011,5945,95,138,74,49,100,0
6449,6923,5901,-51,-78,-41,10240,0.42,-0.08,1.58,1.17,6506,7008,5944,95,138,74,49,100,0
6461,6945,5912,-54,-80,-41,10240,0.42,-0.08,1.58,1.17,6504,7006,5943,95,138,74,49,100,0
6469,6956,5917,-48,-71,-36,10240,0.42,-0.08,1.58,1.17,6503,7004,5942,95,138,74,49,100,0
6479,6971,5924,-39,-56,-29,10240,0.42,-0.08,1.58,1.17,6502,7003,5941,95,138,74,49,100,0
6490,6989,5930,-28,-38,-21,10240,0.42,-0.08,1.58,1.17,6502,7003,5941,95,138,74,49,100,0
6494,6998,5935,-19,-24,-14,10240,0.42,-0.08,1.58,1.17,6502,7003,5941,95,138,74,49,100,0
6494,6998,5942,-12,-13,-8,10240,0.42,-0.08,1.58,1.17,6501,7002,5941,95,138,74,49,100,0
6493,6998,5949,-8,-6,-2,10240,0.42,-0.08,1.58,1.17,6501,7002,5941,95,138,74,49,100,0
6493,7001,5953,-7,-3,3,10240,0.42,-0.08,1.58,1.17,6501,7002,5941,95,138,74,49,100,0
6499,7008,5956,-6,0,8,10240,0.42,-0.08,1.58,1.17,6501,7002,5942,95,138,74,49,100,0
6506,7017,5957,-3,3,12,10240,0.42,-0.08,1.58,1.17,6501,7003,5942,95,138,74,49,100,0
6532,7047,5972,6,15,17,10240,0.42,-0.08,1.58,1.17,6502,7004,5943,95,138,74,49,100,0
6540,7060,5978,17,29,23,10240,0.42,-0.08,1.58,1.17,6503,7006,5944,95,138,74,49,100,0
6548,7071,5981,28,43,28,10240,0.42,-0.08,1.58,1.17,6505,7008,5946,95,138,74,49,100,0
6554,7079,5986,39,57,34,10240,0.42,-0.08,1.58,1.17,6506,7011,5947,95,138,74,49,100,0
6553,7077,5983,43,62,35,10240,0.42,-0.08,1.58,1.17,6508,7013,5948,95,138,74,66,100,0
6501,7007,5951,32,47,28,10240,0.42,-0.08,1.58,1.17,6508,7013,5948,96,139,74,66,100,0
6497,6996,5938,19,27,16,10240,0.42,-0.08,1.59,1.19,6507,7012,5948,96,139,74,66,100,0
6496,6990,5930,4,5,2,10240,0.42,-0.08,1.59,1.19,6507,7011,5947,96,139,74,66,100,0
6476,6961,5918,-14,-23,-13,10240,0.42,-0.08,1.59,1.19,6506,7010,5946,96,139,74,66,100,0
6467,6949,5913,-22,-36,-21,10240,0.42,-0.08,1.59,1.19,6505,7008,5945,96,139,74,66,100,0
6475,6962,5921,-27,-43,-25,10240,0.42,-0.08,1.59,1.19,6504,7006,5944,96,139,74,66,100,0
6486,6977,5926,-28,-45,-25,10240,0.42,-0.08,1.59,1.19,6503,7005,5944,96,139,74,66,100,0
6495,6992,5932,-23,-36,-21,10240,0.42,-0.08,1.59,1.19,6503,7005,5943,96,139,74,66,100,0
6495,6997,5934,-15,-23,-15,10240,0.42,-0.08,1.59,1.19,6503,7005,5943,96,139,74,66,100,0
6495,6997,5937,-10,-14,-11,10240,0.42,-0.08,1.59,1.19,6502,7004,5943,96,139,74,66,100,0
6494,6998,5947,-7,-8,-5,10240,0.42,-0.08,1.59,1.19,6502,7004,5943,96,139,74,66,100,0
6492,7000,5950,-8,-6,-1,10240,0.42,-0.08,1.59,1.19,6502,7004,5943,77,139,74,66,100,0
6499,7007,5955,-7,-3,4,10240,0.42,-0.08,1.59,1.19,6502,7004,5944,77,139,74,66,100,0
6508,7019,5957,-3,1,8,10240,0.42,-0.08,1.59,1.19,6502,7005,5944,77,139,74,66,100,0
6523,7035,5964,3,10,12,10240,0.42,-0.08,1.59,1.19,6503,7006,5945,77,139,74,66,100,0
6542,7062,5978,15,25,18,10240,0.42,-0.08,1.59,1.19,6504,7007,5946,77,139,74,66,100,0
6551,7074,5983,27,40,25,10240,0.42,-0.08,1.59,1.19,6505,7010,5947,77,139,74,66,100,0
6558,7086,5988,38,55,31,10240,0.42,-0.08,1.59,1.19,6507,7012,5949,77,139,74,66,100,0
6565,7095,5992,47,68,37,10240,0.42,-0.08,1.59,1.19,6509,7015,5950,77,139,74,66,100,0
6572,7103,5997,53,75,40,10240,0.42,-0.08,1.59,1.19,6511,7018,5952,77,139,74,66,100,0
6562,7090,5989,54,77,40,10240,0.42,-0.08,1.59,1.19,6513,7020,5953,77,139,74,66,100,0
6542,7062,5975,48,68,36,10240,0.42,-0.08,1.59,1.19,6514,7022,5953,71,135,72,66,100,0
6513,7024,5958,34,49,26,10240,0.42,-0.08,1.59,0.90,6514,7022,5954,71,135,72,66,100,0
6494,6999,5948,14,22,14,10240,0.42,-0.08,1.59,0.90,6513,7021,5953,71,135,72,66,100,0
6496,6997,5939,-2,0,1,10240,0.42,-0.08,1.59,0.90,6513,7020,5953,71,135,72,66,100,0
6494,6998,5942,-13,-16,-6,10240,0.42,-0.08,1.59,0.90,6512,7019,5953,71,135,72,66,100,0
6494,6998,5946,-17,-21,-9,10240,0.42,-0.08,1.59,0.90,6511,7019,5952,71,135,72,66,100,0
6493,6998,5948,-17,-21,-8,10240,0.42,-0.08,1.59,0.90,6511,7018,5952,71,135,72,66,100,0
6494,7001,5953,-17,-19,-5,10240,0.42,-0.08,1.59,0.90,6510,7018,5952,71,135,72,66,100,0
6500,7009,5957,-15,-16,-1,10240,0.42,-0.08,1.59,0.90,6510,7017,5952,71,135,72,66,100,0
6519,7033,5966,-8,-7,3,10240,0.42,-0.08,1.59,0.90,6510,7018,5953,71,135,72,66,100,0
6532,7052,5974,1,5,9,10240,0.42,-0.08,1.59,0.90,6511,7019,5954,71,135,72,66,100,0
6544,7066,5980,13,21,16,10240,0.42,-0.08,1.59,0.90,6512,7020,5954,71,135,72,66,100,0
6551,7078,5985,25,37,22,10240,0.42,-0.08,1.59,0.90,6513,7022,5956,71,135,72,66,100,0
6558,7090,5991,33,50,27,10240,0.42,-0.08,1.59,0.90,6515,7025,5957,71,135,72,66,100,0
6574,7107,6001,42,61,33,10240,0.42,-0.08,1.59,0.90,6517,7027,5958,71,135,72,66,100,0
6583,7120,6007,50,72,38,10240,0.42,-0.08,1.59,0.90,6519,7030,5960,71,135,72,66,100,0
6590,7131,6013,58,83,43,10240,0.42,-0.08,1.59,0.90,6521,7034,5962,71,135,72,66,100,0
6599,7142,6017,66,93,48,10240,0.42,-0.08,1.59,0.90,6524,7037,5963,71,135,72,66,100,0
6605,7151,6021,71,100,52,10240,0.42,-0.08,1.59,0.90,6527,7041,5965,71,135,72,66,100,0
6614,7162,6026,76,107,55,10240,0.42,-0.08,1.59,0.90,6530,7045,5967,71,135,72,66,100,0
6598,7138,6013,75,105,53,10240,0.42,-0.08,1.59,0.90,6532,7048,5969,77,133,70,66,100,0
6576,7108,5997,67,93,46,10240,0.42,-0.08,1.61,1.01,6533,7050,5970,77,133,70,66,100,0
6554,7081,5983,53,73,35,10240,0.42,-0.08,1.61,1.01,6534,7051,5970,77,133,70,66,100,0
6539,7055,5973,33,45,21,10240,0.42,-0.08,1.61,1.01,6534,7052,5970,77,133,70,66,100,0
6509,7020,5957,11,15,7,10240,0.42,-0.08,1.61,1.01,6533,7050,5970,77,133,70,66,100,0
6512,7024,5961,-5,-5,-1,10240,0.42,-0.08,1.61,1.01,6533,7050,5970,77,133,70,66,100,0
6522,7036,5965,-12,-16,-5,10240,0.42,-0.08,1.61,1.01,6532,7049,5969,77,133,70,66,100,0
6530,7049,5972,-14,-17,-6,10240,0.42,-0.08,1.61,1.01,6532,7049,5970,77,133,70,66,100,0
6538,7061,5977,-6,-7,-1,10240,0.42,-0.08,1.61,1.01,6532,7050,5970,77,133,70,66,100,0
6557,7087,5990,4,8,6,10240,0.42,-0.08,1.61,1.01,6533,7051,5970,77,133,70,66,100,0
6565,7099,5996,14,23,13,10240,0.42,-0.08,1.61,1.01,6534,7052,5971,77,133,70,66,100,0
6572,7109,6002,24,37,20,10240,0.42,-0.08,1.61,1.01,6536,7054,5972,77,133,70,66,100,0
6581,7120,6007,33,50,27,10240,0.42,-0.08,1.61,1.01,6537,7056,5974,77,133,70,66,100,0
6591,7132,6013,40,59,31,10240,0.42,-0.08,1.61,1.01,6539,7059,5975,77,133,70,66,100,0
6608,7156,6025,49,71,37,10240,0.42,-0.08,1.61,1.01,6541,7062,5976,77,133,70,66,100,0
6616,7168,6029,58,83,42,10240,0.42,-0.08,1.61,1.01,6544,7066,5978,77,133,70,66,100,0
6625,7180,6034,67,94,48,10240,0.42,-0.08,1.61,1.01,6546,7070,5980,77,133,70,66,100,0
6633,7193,6040,75,106,53,10240,0.42,-0.08,1.61,1.01,6549,7074,5982,77,133,70,66,100,0
6641,7203,6046,81,114,56,10240,0.42,-0.08,1.61,1.01,6552,7078,5984,77,133,70,66,100,0
6642,7205,6057,84,119,61,10240,0.42,-0.08,1.61,1.01,6555,7082,5987,77,133,70,66,100,0
6641,7206,6058,85,121,64,10240,0.42,-0.08,1.61,1.01,6558,7086,5989,77,133,70,66,100,0
6641,7200,6046,84,119,64,10240,0.42,-0.08,1.61,1.01,6561,7090,5991,82,134,70,66,100,0
6621,7173,6028,77,108,57,10240,0.42,-0.08,1.61,1.01,6563,7093,5992,82,134,70,66,100,0
6583,7144,6016,60,89,45,10240,0.43,-0.08,1.62,1.07,6564,7095,5993,82,134,70,66,100,0
6568,7100,5994,40,61,28,10240,0.43,-0.08,1.62,1.07,6564,7095,5993,82,134,70,66,100,0
6559,7089,5989,19,32,14,10240,0.43,-0.08,1.62,1.07,6564,7095,5993,82,134,70,66,100,0
6561,7091,5990,4,11,4,10240,0.43,-0.08,1.62,1.07,6563,7094,5993,82,134,70,66,100,0
6565,7097,5994,0,0,-1,10240,0.43,-0.08,1.62,1.07,6564,7095,5993,82,134,70,66,100,0
6576,7105,5999,1,0,0,10240,0.43,-0.08,1.62,1.07,6564,7095,5993,82,134,70,66,100,0
6586,7123,6009,8,9,4,10240,0.43,-0.08,1.62,1.07,6565,7096,5994,82,134,70,66,100,0
6593,7133,6013,15,18,10,10240,0.43,-0.08,1.62,1.07,6566,7097,5994,82,134,70,66,100,0
6599,7144,6018,23,29,15,10240,0.43,-0.08,1.62,1.07,6567,7099,5995,82,134,70,66,100,0
6608,7154,6023,30,40,21,10240,0.43,-0.08,1.62,1.07,6568,7100,5996,82,134,70,66,100,0
6616,7165,6027,36,49,24,10240,0.43,-0.08,1.62,1.07,6570,7103,5997,82,134,70,66,100,0
6635,7195,6041,45,62,30,10240,0.43,-0.08,1.62,1.07,6572,7106,5998,82,134,70,66,100,0
6642,7203,6047,54,74,36,10240,0.43,-0.08,1.62,1.07,6574,7109,6000,82,134,70,66,100,0
6643,7203,6053,61,84,42,10240,0.43,-0.08,1.62,1.07,6576,7112,6002,82,134,70,66,100,0
6642,7205,6058,65,91,48,10240,0.43,-0.08,1.62,1.07,6579,7115,6004,82,134,70,66,100,0
6640,7208,6064,64,91,52,10240,0.43,-0.08,1.62,1.07,6581,7118,6006,78,134,70,66,100,0
6640,7211,6068,61,90,55,10240,0.43,-0.08,1.62,1.07,6583,7121,6008,78,123,70,66,100,0
6643,7213,6063,59,89,56,10240,0.43,-0.08,1.62,1.07,6585,7124,6010,78,123,70,66,100,0
6650,7216,6058,59,89,54,10240,0.43,-0.08,1.62,1.07,6587,7127,6011,78,123,67,66,100,0
6640,7212,6063,57,87,52,10240,0.43,-0.08,1.55,1.06,6589,7130,6013,78,123,67,66,100,0
6635,7191,6052,54,79,47,10240,0.43,-0.08,1.55,1.06,6590,7132,6014,78,123,67,66,100,0
6615,7160,6024,45,64,36,10240,0.43,-0.08,1.55,1.06,6591,7133,6015,78,123,67,66,100,0
6595,7133,6010,31,42,23,10240,0.43,-0.08,1.55,1.06,6591,7133,6014,78,123,67,66,100,0
6583,7116,6002,16,17,7,10240,0.43,-0.08,1.55,1.06,6591,7133,6014,78,123,67,66,100,0
6579,7112,6001,2,-2,-5,10240,0.43,-0.08,1.55,1.06,6590,7132,6014,78,123,67,66,100,0
6588,7127,6005,-4,-10,-9,10240,0.43,-0.08,1.55,1.06,6590,7132,6013,78,123,67,66,100,0
6594,7134,6014,-4,-10,-8,10240,0.43,-0.08,1.55,1.06,6590,7132,6013,78,123,67,66,100,0
6599,7141,6016,0,-3,-4,10240,0.43,-0.08,1.55,1.06,6591,7132,6013,78,123,67,66,100,0
6608,7154,6022,6,6,1,10240,0.43,-0.08,1.55,1.06,6591,7133,6014,78,123,67,66,100,0
6614,7163,6027,12,15,6,10240,0.43,-0.08,1.55,1.06,6592,7134,6014,78,123,67,66,100,0
6633,7189,6030,21,28,9,10240,0.43,-0.08,1.55,1.06,6593,7136,6015,78,123,67,66,100,0
6639,7199,6042,30,41,15,10240,0.43,-0.08,1.55,1.06,6595,7138,6016,78,123,67,66,100,0
6643,7203,6052,38,51,22,10240,0.43,-0.08,1.55,1.06,6597,7140,6017,78,123,67,66,100,0
6643,7205,6055,43,60,28,10240,0.43,-0.08,1.55,1.06,6598,7142,6018,78,123,67,66,100,0
6641,7207,6059,44,62,34,10240,0.43,-0.08,1.55,1.06,6600,7144,6019,78,123,67,66,100,0
6640,7211,6066,42,63,39,10240,0.43,-0.08,1.55,1.06,6601,7147,6021,71,123,67,66,100,0
6643,7213,6063,41,63,40,10240,0.43,-0.08,1.55,1.06,6602,7149,6022,71,123,67,66,100,0
6652,7217,6059,42,64,40,10240,0.43,-0.08,1.55,1.06,6604,7151,6024,71,123,67,66,100,0
6662,7226,6056,46,66,38,10240,0.43,-0.08,1.55,1.06,6606,7154,6025,71,123,62,66,100,0
6673,7232,6056,52,69,34,10240,0.43,-0.08,1.67,1.04,6608,7156,6026,71,123,62,66,100,0
6643,7212,6056,50,67,31,10240,0.43,-0.08,1.67,1.04,6609,7158,6027,71,112,62,66,100,0
6645,7199,6044,47,60,26,10240,0.43,-0.08,1.67,1.04,6611,7159,6027,71,112,62,66,100,0
6630,7175,6025,38,46,18,10240,0.43,-0.08,1.67,1.04,6611,7160,6027,71,112,62,66,100,0
6606,7141,6009,20,22,6,10240,0.43,-0.08,1.67,1.04,6611,7159,6027,71,112,62,66,100,0
6589,7118,5997,6,0,-8,10240,0.43,-0.08,1.67,1.04,6610,7158,6026,71,112,62,66,100,0
6580,7106,5994,-9,-23,-20,10240,0.43,-0.08,1.67,1.04,6609,7156,6025,71,112,62,66,100,0
6580,7108,5996,-20,-38,-26,10240,0.43,-0.08,1.67,1.04,6608,7155,6024,71,112,62,66,100,0
6582,7113,5997,-25,-44,-28,10240,0.43,-0.08,1.67,1.04,6607,7153,6023,71,112,62,66,100,0
6588,7121,6002,-25,-42,-26,10240,0.43,-0.08,1.67,1.04,6607,7152,6022,71,112,62,66,100,0
6592,7129,6004,-21,-35,-22,10240,0.43,-0.08,1.67,1.04,6606,7151,6021,71,112,62,66,100,0
6605,7146,6015,-14,-24,-17,10240,0.43,-0.08,1.67,1.04,6606,7151,6021,71,112,62,66,100,0
6610,7153,6017,-7,-14,-11,10240,0.43,-0.08,1.67,1.04,6606,7151,6021,71,112,62,66,100,0
6617,7163,6023,0,-3,-6,10240,0.43,-0.08,1.67,1.04,6607,7152,6021,71,112,62,66,100,0
6624,7172,6026,7,7,0,10240,0.43,-0.08,1.67,1.04,6607,7152,6021,71,112,62,66,100,0
6633,7185,6031,14,16,3,10240,0.43,-0.08,1.67,1.04,6608,7153,6022,71,112,62,66,100,0
6646,7198,6043,22,26,9,10240,0.43,-0.08,1.67,1.04,6609,7155,6022,71,112,62,66,100,0
6645,7198,6045,28,34,14,10240,0.43,-0.08,1.67,1.04,6611,7156,6023,71,112,62,66,100,0
6644,7200,6048,32,39,19,10240,0.43,-0.08,1.67,1.04,6612,7158,6024,71,112,62,66,100,0
6644,7202,6050,33,42,23,10240,0.43,-0.08,1.67,1.04,6613,7159,6025,71,112,62,66,100,0
6642,7206,6053,31,43,24,10240,0.43,-0.08,1.67,1.04,6614,7161,6026,67,112,62,66,100,0
6640,7212,6059,29,44,27,10240,0.43,-0.08,1.67,1.04,6615,7163,6027,67,112,62,66,100,0
6641,7208,6054,27,45,27,10240,0.43,-0.08,1.67,1.04,6616,7164,6028,67,112,62,66,100,0
6646,7197,6041,26,42,24,10240,0.43,-0.08,1.67,1.04,6617,7165,6028,67,107,61,66,100,0
6631,7176,6026,23,33,17,10240,0.43,-0.08,1.48,1.00,6617,7166,6028,67,107,61,66,100,0
6610,7146,6013,15,16,5,10240,0.43,-0.08,1.48,1.00,6617,7165,6028,67,107,61,66,100,0
6583,7111,5995,0,-7,-8,10240,0.43,-0.08,1.48,1.00,6616,7163,6026,67,107,61,66,100,0
6581,7109,5993,-14,-28,-20,10240,0.43,-0.08,1.48,1.00,6614,7161,6025,67,107,61,66,100,0
6582,7111,5996,-26,-43,-26,10240,0.43,-0.08,1.48,1.00,6613,7160,6024,67,107,61,66,100,0
6586,7115,5999,-30,-49,-29,10240,0.43,-0.08,1.48,1.00,6612,7158,6024,67,107,61,66,100,0
6590,7123,6003,-28,-44,-26,10240,0.43,-0.08,1.48,1.00,6612,7157,6023,67,107,61,66,100,0
6603,7139,6012,-21,-35,-20,10240,0.43,-0.08,1.48,1.00,6611,7156,6022,67,107,61,66,100,0
6609,7147,6016,-14,-25,-15,10240,0.43,-0.08,1.48,1.00,6611,7156,6022,67,107,61,66,100,0
6615,7156,6020,-7,-15,-9,10240,0.43,-0.08,1.48,1.00,6612,7156,6022,67,107,61,66,100,0
6623,7168,6025,1,-3,-3,10240,0.43,-0.08,1.48,1.00,6612,7156,6022,67,107,61,66,100,0
6628,7178,6027,7,6,0,10240,0.43,-0.08,1.48,1.00,6612,7157,6022,67,107,61,66,100,0
6645,7197,6039,15,17,5,10240,0.43,-0.08,1.48,1.00,6614,7159,6023,67,107,61,66,100,0
6645,7198,6045,22,27,11,10240,0.43,-0.08,1.48,1.00,6615,7160,6024,67,107,61,66,100,0
6645,7200,6048,26,34,16,10240,0.43,-0.08,1.48,1.00,6616,7161,6025,67,107,61,66,100,0
6643,7204,6053,29,39,21,10240,0.43,-0.08,1.48,1.00,6616,7163,6026,67,107,61,66,100,0
6640,7209,6059,27,40,25,10240,0.43,-0.08,1.48,1.00,6617,7164,6027,65,107,61,66,100,0
6644,7215,6059,26,43,28,10240,0.43,-0.08,1.48,1.00,6618,7166,6028,65,107,61,66,100,0
6651,7217,6056,27,46,29,10240,0.43,-0.08,1.48,1.00,6619,7168,6029,65,107,61,66,100,0
6644,7214,6058,26,47,29,10240,0.43,-0.08,1.48,1.00,6620,7169,6030,65,107,61,66,100,0
6644,7201,6047,26,43,25,10240,0.43,-0.08,1.48,1.00,6621,7170,6030,65,104,60,66,100,0
6620,7161,6032,19,29,18,10240,0.43,-0.08,1.46,0.99,6621,7170,6030,65,104,60,66,100,0
6604,7138,6007,7,9,6,10240,0.43,-0.08,1.46,0.99,6620,7169,6029,65,104,60,66,100,0
6593,7125,6001,-5,-12,-7,10240,0.43,-0.08,1.46,0.99,6619,7167,6029,65,104,60,66,100,0
6592,7123,6001,-17,-31,-18,10240,0.43,-0.08,1.46,0.99,6618,7166,6028,65,104,60,66,100,0
6596,7129,6005,-22,-38,-24,10240,0.43,-0.08,1.46,0.99,6618,7165,6027,65,104,60,66,100,0
6607,7147,6015,-21,-34,-22,10240,0.43,-0.08,1.46,0.99,6617,7164,6026,65,104,60,66,100,0
6614,7157,6019,-15,-25,-16,10240,0.43,-0.08,1.46,0.99,6617,7164,6026,65,104,60,66,100,0
6621,7168,6024,-7,-14,-10,10240,0.43,-0.08,1.46,0.99,6617,7164,6026,65,104,60,66,100,0
6627,7176,6027,0,-2,-4,10240,0.43,-0.08,1.46,0.99,6618,7164,6026,65,104,60,66,100,0
6633,7187,6031,6,7,0,10240,0.43,-0.08,1.46,0.99,6618,7165,6026,65,104,60,66,100,0
6645,7200,6047,13,18,6,10240,0.43,-0.08,1.46,0.99,6619,7166,6027,65,104,60,66,100,0
6644,7203,6053,18,26,12,10240,0.43,-0.08,1.46,0.99,6620,7167,6028,65,104,60,66,100,0
6641,7207,6057,21,32,19,10240,0.43,-0.08,1.46,0.99,6621,7169,6029,65,104,60,66,100,0
6639,7211,6065,22,37,27,10240,0.43,-0.08,1.46,0.99,6621,7170,6030,65,104,60,66,100,0
6641,7213,6063,20,39,30,10240,0.43,-0.08,1.46,0.99,6622,7172,6031,60,104,60,66,100,0
6655,7219,6052,22,41,28,10240,0.43,-0.08,1.46,0.99,6623,7173,6032,60,104,58,66,100,0
6667,7229,6053,27,45,26,10240,0.43,-0.08,1.51,0.94,6625,7175,6033,60,104,58,66,100,0
6675,7238,6058,35,50,24,10240,0.43,-0.08,1.51,0.94,6626,7177,6033,60,104,58,66,100,0
6681,7248,6063,44,57,23,10240,0.43,-0.08,1.51,0.94,6628,7180,6034,60,104,58,66,100,0
6669,7232,6055,46,58,23,10240,0.43,-0.08,1.51,0.94,6629,7181,6035,60,104,58,66,100,0
6644,7201,6047,39,49,21,10240,0.43,-0.08,1.51,0.94,6630,7182,6035,57,102,58,66,100,0
6642,7191,6031,29,36,14,10240,0.43,-0.08,1.51,0.94,6630,7182,6035,57,102,58,66,100,0
6622,7165,6019,14,15,3,10240,0.43,-0.08,1.51,0.94,6630,7182,6035,57,102,58,66,100,0
6611,7152,6014,0,-4,-7,10240,0.43,-0.08,1.51,0.94,6629,7181,6034,57,102,58,66,100,0
6609,7150,6014,-8,-16,-14,10240,0.43,-0.08,1.51,0.94,6629,7180,6033,57,102,58,66,100,0
6616,7160,6019,-14,-23,-17,10240,0.43,-0.08,1.51,0.94,6628,7179,6033,57,102,58,66,100,0
6621,7168,6022,-14,-22,-16,10240,0.43,-0.08,1.51,0.94,6628,7179,6033,57,102,58,66,100,0
6628,7178,6027,-9,-15,-12,10240,0.43,-0.08,1.51,0.94,6628,7179,6032,57,102,58,66,100,0
6634,7187,6028,-3,-5,-8,10240,0.43,-0.08,1.51,0.94,6628,7179,6032,57,102,58,66,100,0
6643,7197,6036,3,3,-4,10240,0.43,-0.08,1.51,0.94,6629,7179,6032,57,102,58,66,100,0
6643,7202,6049,8,11,2,10240,0.43,-0.08,1.51,0.94,6629,7180,6033,57,102,58,66,100,0
6641,7207,6053,11,18,8,10240,0.43,-0.08,1.51,0.94,6630,7181,6034,57,102,58,66,100,0
6639,7212,6057,12,24,15,10240,0.43,-0.08,1.51,0.94,6630,7182,6034,57,102,58,66,100,0
6642,7215,6060,11,27,20,10240,0.43,-0.08,1.51,0.94,6630,7183,6035,49,102,58,66,100,0
6650,7217,6056,12,30,21,10240,0.43,-0.08,1.51,0.94,6631,7184,6036,49,102,58,66,100,0
6675,7234,6053,20,35,21,10240,0.43,-0.08,1.51,0.94,6632,7186,6037,49,102,58,66,100,0
6683,7249,6062,30,43,21,10240,0.43,-0.08,1.51,0.94,6634,7188,6037,49,102,58,66,100,0
6692,7264,6070,41,53,23,10240,0.43,-0.08,1.51,0.94,6636,7191,6038,49,102,58,66,100,0
6697,7270,6072,51,64,26,10240,0.43,-0.08,1.51,0.94,6638,7193,6040,49,102,58,66,100,0
6700,7277,6076,56,73,31,10240,0.43,-0.08,1.51,0.94,6640,7196,6041,49,102,58,66,100,0
6670,7227,6048,51,65,26,10240,0.43,-0.08,1.51,0.94,6641,7197,6041,51,100,56,66,100,0
6642,7212,6050,37,50,20,10240,0.43,-0.08,1.50,0.83,6641,7198,6041,51,100,56,66,100,0
6646,7197,6037,23,31,11,10240,0.43,-0.08,1.50,0.83,6641,7198,6041,51,100,56,66,100,0
6638,7184,6022,8,7,-1,10240,0.43,-0.08,1.50,0.83,6641,7197,6041,51,100,56,66,100,0
6619,7158,6011,-4,-9,-10,10240,0.43,-0.08,1.50,0.83,6641,7196,6040,51,100,56,66,100,0
6615,7152,6011,-11,-23,-20,10240,0.43,-0.08,1.50,0.83,6640,7194,6039,51,100,56,66,100,0
6619,7155,6016,-17,-32,-24,10240,0.43,-0.08,1.50,0.83,6639,7193,6038,51,100,56,66,100,0
6624,7166,6019,-20,-36,-24,10240,0.43,-0.08,1.50,0.83,6638,7192,6037,51,100,56,66,100,0
6630,7174,6021,-16,-31,-21,10240,0.43,-0.08,1.50,0.83,6638,7192,6037,51,100,56,66,100,0
6646,7184,6024,-8,-22,-17,10240,0.43,-0.08,1.50,0.83,6638,7191,6036,51,100,56,66,100,0
6646,7195,6036,-1,-11,-11,10240,0.43,-0.08,1.50,0.83,6639,7191,6036,51,100,56,66,100,0
6646,7198,6040,3,-3,-6,10240,0.43,-0.08,1.50,0.83,6639,7192,6036,51,100,56,66,100,0
6644,7200,6043,6,2,0,10240,0.43,-0.08,1.50,0.83,6639,7192,6037,51,100,56,66,100,0
6642,7205,6049,5,7,5,10240,0.43,-0.08,1.50,0.83,6639,7192,6037,44,100,56,66,100,0
6647,7213,6054,5,11,9,10240,0.43,-0.08,1.50,0.83,6640,7193,6038,44,100,56,66,100,0
6652,7219,6052,6,16,12,10240,0.43,-0.08,1.50,0.83,6640,7194,6038,44,100,56,66,100,0
6669,7227,6046,12,22,12,10240,0.43,-0.08,1.50,0.83,6641,7195,6038,44,100,56,66,100,0
6681,7239,6051,21,30,12,10240,0.43,-0.08,1.50,0.83,6642,7196,6039,44,100,56,66,100,0
6689,7252,6058,31,38,13,10240,0.43,-0.08,1.50,0.83,6644,7198,6039,44,100,56,66,100,0
6701,7272,6065,41,50,16,10240,0.43,-0.08,1.50,0.83,6646,7201,6040,44,100,56,66,100,0
6701,7273,6069,48,59,21,10240,0.43,-0.08,1.50,0.83,6648,7203,6041,44,100,56,66,100,0
6679,7234,6047,45,56,19,10240,0.43,-0.08,1.50,0.83,6649,7204,6041,45,99,53,66,100,0
6645,7212,6046,33,44,15,10240,0.43,-0.08,1.57,0.77,6648,7205,6042,45,99,53,66,100,0
6648,7194,6029,20,24,6,10240,0.43,-0.08,1.57,0.77,6648,7204,6041,45,99,53,66,100,0
6618,7148,6005,0,-6,-9,10240,0.43,-0.08,1.57,0.77,6647,7202,6040,45,99,53,66,100,0
6606,7132,5994,-18,-31,-21,10240,0.43,-0.08,1.57,0.77,6646,7200,6038,45,99,53,66,100,0
6603,7129,5993,-27,-50,-33,10240,0.43,-0.08,1.57,0.77,6645,7198,6037,45,99,53,66,100,0
6605,7135,5997,-37,-62,-40,10240,0.43,-0.08,1.57,0.77,6643,7195,6036,45,99,53,66,100,0
6607,7140,6001,-38,-62,-40,10240,0.43,-0.08,1.57,0.77,6642,7194,6034,45,99,53,66,100,0
6622,7159,6014,-33,-54,-34,10240,0.43,-0.08,1.57,0.77,6641,7192,6034,45,99,53,66,100,0
6628,7171,6019,-26,-42,-26,10240,0.43,-0.08,1.57,0.77,6641,7192,6033,45,99,53,66,100,0
6636,7182,6022,-18,-29,-19,10240,0.43,-0.08,1.57,0.77,6641,7191,6033,45,99,53,66,100,0
6645,7193,6028,-8,-15,-12,10240,0.43,-0.08,1.57,0.77,6641,7192,6033,45,99,53,66,100,0
6647,7195,6033,-2,-6,-7,10240,0.43,-0.08,1.57,0.77,6641,7192,6033,45,99,53,66,100,0
6645,7199,6040,2,0,-2,10240,0.43,-0.08,1.57,0.77,6641,7192,6033,45,99,53,66,100,0
6643,7202,6045,4,5,3,10240,0.43,-0.08,1.57,0.77,6641,7192,6033,45,99,53,66,100,0
6642,7207,6050,3,8,8,10240,0.43,-0.08,1.57,0.77,6641,7193,6034,45,99,53,66,100,0
6643,7214,6054,2,13,13,10240,0.43,-0.08,1.57,0.77,6641,7193,6035,45,99,53,66,100,0
6650,7219,6052,3,17,16,10240,0.43,-0.08,1.57,0.77,6642,7194,6035,45,99,53,66,100,0
6674,7226,6045,10,22,15,10240,0.43,-0.08,1.57,0.77,6643,7195,6035,45,99,54,66,100,0
6684,7241,6052,20,30,15,10240,0.43,-0.08,1.54,0.76,6644,7197,6036,45,99,54,66,100,0
6688,7251,6057,30,38,15,10240,0.43,-0.08,1.54,0.76,6646,7199,6037,45,99,54,66,100,0
6677,7234,6045,35,40,13,10240,0.43,-0.08,1.54,0.76,6647,7200,6037,45,99,54,66,100,0
6650,7214,6046,28,36,13,10240,0.43,-0.08,1.54,0.76,6647,7200,6037,42,100,54,66,100,0
6644,7185,6021,18,21,5,10240,0.43,-0.08,1.54,0.76,6647,7200,6037,42,100,54,66,100,0
6619,7152,6006,0,-3,-7,10240,0.43,-0.08,1.54,0.76,6646,7198,6036,42,100,54,66,100,0
6603,7130,5994,-17,-28,-19,10240,0.43,-0.08,1.54,0.76,6644,7196,6034,42,100,54,66,100,0
6600,7126,5994,-28,-48,-31,10240,0.43,-0.08,1.54,0.76,6643,7194,6033,42,100,54,66,100,0
6602,7131,5997,-37,-60,-36,10240,0.43,-0.08,1.54,0.76,6641,7191,6032,42,100,54,66,100,0
6609,7144,6005,-38,-60,-35,10240,0.43,-0.08,1.54,0.76,6640,7190,6031,42,100,54,66,100,0
6615,7152,6010,-34,-52,-30,10240,0.43,-0.08,1.54,0.76,6640,7189,6030,42,100,54,66,100,0
6623,7162,6016,-27,-42,-23,10240,0.43,-0.08,1.54,0.76,6639,7188,6030,42,100,54,66,100,0
6628,7173,6018,-20,-30,-17,10240,0.43,-0.08,1.54,0.76,6639,7187,6029,42,100,54,66,100,0
6634,7183,6021,-14,-20,-13,10240,0.43,-0.08,1.54,0.76,6638,7187,6029,42,100,54,66,100,0
6646,7196,6034,-6,-8,-7,10240,0.43,-0.08,1.54,0.76,6639,7187,6029,42,100,54,66,100,0
6646,7197,6037,0,0,-1,10240,0.43,-0.08,1.54,0.76,6639,7188,6030,42,100,54,66,100,0
6645,7200,6043,4,6,4,10240,0.43,-0.08,1.54,0.76,6639,7188,6030,42,100,54,66,100,0
6643,7203,6046,6,11,10,10240,0.43,-0.08,1.54,0.76,6639,7189,6030,42,100,54,66,100,0
6640,7210,6052,4,14,14,10240,0.43,-0.08,1.54,0.76,6639,7189,6031,42,100,54,66,100,0
6654,7219,6051,6,19,17,10240,0.43,-0.08,1.54,0.76,6640,7190,6032,42,100,54,66,100,0
6665,7223,6046,10,24,17,10240,0.43,-0.08,1.54,0.76,6641,7191,6032,42,100,54,66,100,0
6674,7227,6045,17,29,16,10240,0.43,-0.08,1.54,0.76,6642,7193,6033,42,100,54,66,100,0
6679,7235,6049,26,34,15,10240,0.43,-0.08,1.55,0.71,6643,7194,6033,42,100,54,66,100,0
6680,7235,6046,32,36,13,10240,0.43,-0.08,1.55,0.71,6644,7195,6034,42,100,54,66,100,0
6644,7201,6042,26,30,12,10240,0.43,-0.08,1.55,0.71,6644,7196,6034,40,99,54,66,100,0
6648,7192,6029,19,20,7,10240,0.43,-0.08,1.55,0.71,6644,7195,6034,40,99,54,66,100,0
6631,7172,6017,6,4,0,10240,0.43,-0.08,1.55,0.71,6644,7195,6033,40,99,54,66,100,0
6617,7151,6009,-8,-15,-9,10240,0.43,-0.08,1.55,0.71,6643,7193,6032,40,99,54,66,100,0
6610,7144,6005,-16,-29,-17,10240,0.43,-0.08,1.55,0.71,6642,7192,6032,40,99,54,66,100,0
6617,7156,6014,-23,-36,-20,10240,0.43,-0.08,1.55,0.71,6641,7190,6031,40,99,54,66,100,0
6623,7164,6018,-25,-37,-20,10240,0.43,-0.08,1.55,0.71,6641,7190,6031,40,99,54,66,100,0
6627,7171,6020,-21,-31,-16,10240,0.43,-0.08,1.55,0.71,6640,7189,6030,40,99,54,66,100,0
6634,7182,6022,-15,-21,-12,10240,0.43,-0.08,1.55,0.71,6640,7189,6030,40,99,54,66,100,0
6644,7192,6027,-8,-12,-8,10240,0.43,-0.08,1.55,0.71,6640,7189,6030,40,99,54,66,100,0
6646,7197,6040,-2,-3,-2,10240,0.43,-0.08,1.55,0.71,6640,7189,6030,40,99,54,66,100,0
6644,7201,6044,2,4,3,10240,0.43,-0.08,1.55,0.71,6640,7189,6031,40,99,54,66,100,0
6642,7206,6048,4,9,9,10240,0.43,-0.08,1.55,0.71,6640,7190,6031,40,99,54,66,100,0
6640,7213,6054,3,14,15,10240,0.43,-0.08,1.55,0.71,6640,7191,6032,37,99,54,66,100,0
6645,7218,6054,2,19,18,10240,0.43,-0.08,1.55,0.71,6641,7192,6033,37,99,54,66,100,0
6669,7225,6045,8,24,18,10240,0.43,-0.08,1.55,0.71,6641,7193,6033,37,99,54,66,100,0
6678,7238,6051,16,31,18,10240,0.43,-0.08,1.55,0.71,6643,7194,6034,37,99,54,66,100,0
6687,7253,6059,27,39,18,10240,0.43,-0.08,1.55,0.71,6644,7196,6035,37,99,54,66,100,0
6693,7261,6066,38,49,20,10240,0.43,-0.08,1.55,0.71,6646,7198,6036,37,99,54,66,100,0
6699,7271,6069,44,58,25,10240,0.43,-0.08,1.55,0.71,6648,7201,6037,37,99,54,66,100,0
6671,7229,6048,41,54,24,10240,0.43,-0.08,1.55,0.71,6648,7202,6037,38,98,51,66,100,0
6643,7207,6046,29,41,20,10240,0.40,-0.08,1.61,0.68,6648,7202,6037,38,98,51,66,100,0
6647,7194,6032,17,23,11,10240,0.40,-0.08,1.61,0.68,6648,7202,6037,38,98,51,66,100,0
6634,7174,6019,0,0,0,10240,0.40,-0.08,1.61,0.68,6648,7201,6037,38,98,51,66,100,0
6615,7149,6007,-13,-20,-10,10240,0.40,-0.08,1.61,0.68,6647,7199,6036,38,98,51,66,100,0
6609,7142,6004,-20,-35,-20,10240,0.40,-0.08,1.61,0.68,6645,7197,6034,38,98,51,66,100,0
6611,7147,6008,-28,-45,-25,10240,0.40,-0.08,1.61,0.68,6644,7195,6034,38,98,51,66,100,0
