29674,192222,225397,51,-28,1024,1
29605,192277,225363,54,-33,1024,1
29732,192305,225432,61,-33,1029,1
29749,192410,225460,61,-25,1021,1
29798,192477,225481,64,-28,1021,1
29743,192518,225473,58,-28,1011,1
29856,192519,225511,58,-33,1033,1
29922,192601,225586,69,-27,1033,1
29902,192598,225610,64,-27,1007,1
29953,192666,225605,64,-28,1014,1
30006,192720,225675,63,-24,1023,1
30072,192758,225614,48,-32,1023,1
30107,192827,225739,63,-32,1040,1
30195,192883,225692,63,-34,1029,1
30180,192925,225775,72,-36,1029,1
30247,192953,225711,57,-36,1023,1
30280,193076,225893,57,-28,1020,1
30355,193127,225856,49,-32,1014,1
30338,193139,225869,66,-32,1014,1
30374,193148,225865,57,-24,1017,1
30364,193155,225911,57,-38,1020,1
30459,193279,225961,55,-31,1020,1
30532,193291,225992,55,-31,1021,1
30497,193331,225963,55,-28,1020,1
30509,193299,225981,62,-22,1020,1
30596,193397,226072,58,-22,1005,1
30662,193479,226016,58,-37,1016,1
30633,193481,226071,61,-27,1016,1
30671,193479,226131,66,-27,1020,1
30750,193551,226137,65,-36,1002,1
30769,193679,226120,65,-27,1035,1
30794,193670,226223,57,-34,1035,1
30810,193681,226180,60,-34,1041,1
30859,193652,226223,60,-27,1032,1
30808,193685,226243,63,-29,1032,1
30936,193667,226194,58,-29,1004,1
30959,193737,226246,58,-27,1027,1
30900,193734,226223,48,-28,1027,1
30939,193804,226276,65,-28,1029,1
30890,193718,226209,65,-33,1024,1
30869,193733,226239,60,-32,1018,1
30815,193636,226272,62,-31,1018,1
30569,193410,226102,57,-31,1011,1
30450,193286,226032,57,-22,1020,1
30367,193222,226026,74,-30,1020,1
30186,193122,225912,49,-30,1011,1
30152,193018,225958,49,-30,1013,1
29844,192797,225751,63,-36,1013,1
29712,192622,225643,61,-30,1017,1
29561,192489,225631,71,-30,1016,1
29464,192383,225480,71,-28,1018,1
29369,192245,225490,54,-34,1018,1
29196,191927,225391,46,-34,1021,1
29155,191848,225312,46,-31,1017,1
29034,191774,225242,62,-29,1017,1
28972,191642,225160,80,-29,1017,1
28903,191467,225144,80,-29,1013,1
28853,191426,225023,64,-36,1013,1
28956,191359,225010,41,-39,1029,1
28903,191341,224997,41,-39,1024,1
28862,191333,225032,66,-29,1020,1
28854,191447,225132,67,-30,1020,1
28897,191412,225167,54,-30,1016,1
28990,191435,225144,54,-28,1017,1
29040,191430,225126,54,-29,1017,1
29072,191450,225129,60,-29,1035,1
29148,191532,225129,60,-30,1007,1
29151,191545,225162,62,-30,1005,1
29298,191689,225173,56,-30,1005,1
29289,191700,225263,56,-33,1008,1
29377,191690,225283,51,-43,1020,1
29410,191745,225315,54,-41,1020,1
29476,191892,225301,66,-41,1023,1
29563,191851,225332,66,-24,1011,1
29605,191881,225298,59,-22,1011,1
29667,191971,225446,71,-22,1029,1
29647,192058,225446,71,-27,1023,1
29622,192016,225438,65,-27,1016,1
29819,192155,225567,53,-27,1016,1
29853,192157,225578,53,-32,1018,1
29893,192185,225526,50,-37,1037,1
29931,192251,225553,71,-27,1037,1
29992,192360,225676,51,-27,1030,1
30049,192373,225707,51,-18,1014,1
30058,192480,225708,57,-21,1014,1
30145,192537,225721,74,-21,1029,1
30192,192656,225836,74,-39,1020,1
30242,192726,225833,63,-36,1020,1
30196,192689,225868,53,-30,1014,1
30310,192807,225903,53,-30,1030,1
30342,192887,225888,63,-29,1018,1
30365,192951,226000,59,-23,1018,1
30364,193002,225973,63,-23,1029,1
30443,193016,225990,63,-30,1010,1
30499,193050,226041,54,-36,1010,1
30518,193056,226090,47,-36,1016,1
30562,193098,226106,47,-24,1016,1
30607,193190,226188,63,-36,1016,1
30524,193176,226135,58,-33,1023,1
30723,193308,226229,58,-33,1024,1
30688,193298,226191,57,-30,1024,1
30732,193303,226214,59,-33,1024,1
30740,193386,226323,54,-33,1043,1
30834,193420,226297,54,-20,1035,1
30804,193425,226308,63,-30,1035,1
30817,193478,226317,57,-30,1040,1
30862,193418,226241,57,-30,1026,1
30837,193571,226307,61,-30,1026,1
30931,193597,226382,69,-30,1032,1
30935,193579,226345,69,-31,1023,1
30997,193545,226311,58,-26,1024,1
31056,193670,226382,67,-28,1024,1
31154,193683,226379,62,-28,1018,1
31070,193740,226399,62,-30,1029,1
31096,193690,226368,60,-32,1029,1
31027,193677,226360,51,-32,1014,1
31039,193645,226364,51,-35,1024,1
30885,193730,226289,52,-32,1024,1
30741,193366,226165,64,-27,1011,1
30600,193336,226098,64,-27,1030,1
30494,193089,226031,63,-35,1010,1
30362,193020,225963,69,-36,1010,1
30272,192991,225985,57,-36,1029,1
29931,192552,225789,57,-33,1024,1
29834,192406,225665,62,-29,1024,1
29736,192346,225571,69,-29,1020,1
29566,192210,225539,57,-32,1011,1
29445,192077,225481,57,-36,1011,1
29235,191783,225308,64,-36,1026,1
29215,191653,225226,63,-30,1033,1
29162,191630,225279,63,-27,1013,1
29059,191526,225167,60,-34,1013,1
28998,191447,225142,63,-34,1033,1
29042,191323,225065,63,-32,1037,1
28989,191332,225081,62,-29,1037,1
29002,191338,225086,48,-29,999,1
28987,191334,225057,48,-30,1023,1
29035,191365,225163,62,-35,1023,1
29041,191356,225061,66,-18,1044,1
29129,191419,225136,56,-18,1033,1
29148,191476,225050,56,-37,1027,1
29239,191462,225108,65,-36,1027,1
29250,191530,225226,59,-36,1010,1
29407,191611,225243,59,-32,1035,1
29393,191597,225235,63,-28,1035,1
29490,191672,225272,63,-28,1018,1
29523,191776,225318,63,-20,1033,1
29510,191709,225310,62,-31,1033,1
29599,191784,225371,59,-31,1016,1
29681,191816,225367,60,-29,1032,1
29786,191835,225452,60,30,1044,1
29826,191892,225471,28,-56,1044,1
29802,191971,225430,101,-56,980,1
29852,191998,225453,101,-94,1041,1
29957,192087,225507,144,-18,1041,1
30018,192129,225528,-47,-18,1085,1
30084,192193,225536,-5,3,985,1
30052,192251,225564,-5,-43,997,1
30113,192232,225594,172,-43,997,1
30128,192307,225622,85,-47,1065,1
30183,192317,225580,85,-24,1035,1
30201,192362,225656,-10,-21,1035,1
30293,192466,225709,56,-21,997,1
30325,192467,225612,56,-16,1024,1
30377,192499,225743,99,-36,1024,1
30364,192597,225728,64,-36,1043,1
30451,192587,225736,55,-39,999,1
30407,192594,225717,55,-23,1037,1
30374,192673,225798,42,-23,1037,1
30524,192650,225796,64,-29,1013,1
30620,192632,225842,64,-36,1017,1
30620,192789,225842,61,-31,1017,1
30647,192845,225868,63,-31,1018,1
30721,192863,225883,63,-25,1007,1
30730,192870,225871,46,-30,1007,1
30749,192897,225897,60,-30,1013,1
30839,192994,225933,60,-36,1030,1
30814,193025,225989,69,-28,1023,1
30903,193076,226012,61,-36,1023,1
30906,193051,226018,60,-36,1024,1
30961,193053,225967,60,-39,1038,1
30930,193157,226029,66,-32,1038,1
31023,193193,226080,58,-32,1016,1
31044,193157,226113,58,-24,1032,1
31072,193257,226074,63,-33,1032,1
31125,193372,226172,65,-36,1023,1
31137,193242,226107,65,-36,1023,1
31154,193289,226130,53,-32,1023,1
31147,193386,226192,49,-30,1020,1
31272,193390,226219,69,-30,1021,1
31247,193413,226229,69,-34,1016,1
31212,193360,226167,69,-28,1016,1
31272,193387,226190,53,-28,1023,1
31159,193395,226260,53,-21,1032,1
31003,193296,226134,52,-26,1032,1
30913,193080,225995,63,-26,1023,1
30776,193025,226017,63,-36,1020,1
30747,192919,225919,72,-27,1020,1
30556,192858,225928,56,-33,1004,1
30307,192551,225707,49,-33,1026,1
30243,192387,225709,49,-42,1023,1
30078,192321,225668,60,-31,1023,1
29958,192125,225536,74,-31,996,1
29845,192021,225516,74,-37,1008,1
29700,191794,225328,61,-36,1008,1
29522,191671,225288,60,-29,1030,1
29489,191501,225235,60,-29,1017,1
29411,191416,225116,60,-33,1017,1
29306,191360,225091,60,-35,1013,1
29241,191172,225082,66,-35,1013,1
29186,191097,225005,66,-26,1016,1
29182,191070,224996,61,-28,1016,1
29103,191080,225028,56,-28,1033,1
29197,191079,225094,56,-31,1047,1
29174,191160,225048,69,-26,1047,1
29324,191122,225096,65,-35,1004,1
29309,191152,225060,58,-35,1005,1
29372,191163,225114,58,-25,1005,1
29417,191289,225116,66,-25,1033,1
29516,191282,225079,59,-27,999,1
29547,191300,225081,59,-31,1020,1
29562,191376,225153,63,-31,1020,1
29614,191417,225163,66,-31,1026,1
29613,191500,225202,66,-33,1008,1
29692,191472,225211,60,-39,1008,1
29826,191506,225240,59,-39,1016,1
29843,191585,225284,59,-31,1035,1
29908,191538,225316,64,-31,1018,1
29904,191648,225399,69,-32,1018,1
29947,191796,225444,62,-32,1041,1
29990,191763,225391,62,-32,1044,1
30075,191812,225453,63,-24,1044,1
30145,191920,225522,64,-24,1018,1
30125,191923,225542,64,-30,997,1
30184,191991,225568,67,-45,997,1
30321,192052,225555,71,-45,1032,1
30296,192045,225621,71,-37,1041,1
30459,192066,225597,52,-27,1041,1
30357,192170,225640,57,-27,1027,1
30504,192220,225729,70,-34,1016,1
30467,192228,225680,70,-37,1004,1
30538,192222,225651,54,-23,1004,1
30541,192266,225681,54,-23,997,1
30595,192419,225785,54,-27,1035,1
30649,192398,225810,73,-35,1035,1
30751,192479,225911,64,-35,1032,1
30741,192518,225822,75,-31,1024,1
30727,192580,225877,75,-35,1024,1
30826,192580,225891,64,-22,1014,1
30754,192613,225997,64,-22,1011,1
30806,192584,225882,54,-29,1047,1
30879,192664,226022,69,-30,1047,1
30957,192669,225983,70,-30,1020,1
30942,192690,225939,70,-24,1016,1
31011,192773,226118,65,-23,1016,1
31006,192794,226088,64,-23,1035,1
31078,192844,226095,64,-34,1027,1
31143,192837,226092,66,-35,1032,1
31154,192909,226126,65,-31,1032,1
31170,193015,226100,65,-31,1017,1
31149,192962,226160,64,-31,1014,1
31215,193019,226219,61,-31,1014,1
31220,193029,226155,61,-31,1016,1
31261,193094,226214,61,-35,1018,1
31284,193052,226208,64,-35,1018,1
31400,193059,226210,62,-35,999,1
31380,193131,226232,62,-32,1017,1
31379,193152,226231,58,-33,1024,1
31323,193126,226176,63,-33,1024,1
31419,193189,226291,59,-27,1017,1
31365,193170,226199,59,-31,1020,1
31380,193131,226178,66,-34,1020,1
31372,193017,226221,63,-34,1033,1
31356,192961,226170,63,-31,1030,1
31213,192986,226065,54,-37,1030,1
31092,192787,226021,66,-37,1030,1
30931,192647,225969,66,-36,1014,1
30807,192592,225867,65,-34,1014,1
30730,192526,225900,64,-36,1026,1
30633,192451,225834,64,-36,1011,1
30417,192133,225722,60,-35,1032,1
30224,191976,225593,67,-36,1032,1
30187,191955,225596,69,-36,1038,1
30030,191751,225528,69,-37,1024,1
29964,191601,225409,60,-27,1024,1
29606,191417,225162,62,-27,1011,1
29574,191238,225177,62,-30,1010,1
29610,191142,225110,69,-40,1010,1
29476,191037,224972,60,-36,1011,1
29501,191010,225101,60,-36,1010,1
29386,190931,224965,60,-38,1020,1
29393,190870,224969,56,-26,1020,1
29437,190899,224927,67,-26,1018,1
29438,190872,224926,67,-27,1016,1
29449,190954,225001,64,-30,1016,1
29503,190836,224854,52,-30,1024,1
29553,190852,224937,52,-39,1020,1
29635,190869,224887,63,-28,1020,1
29685,190907,224948,69,-28,1020,1
29651,191051,225001,69,-30,1041,1
29758,191044,224970,65,-36,1011,1
29871,191020,225012,67,-32,1011,1
29891,191151,225006,69,-32,1011,1
30001,191171,225050,69,-32,1016,1
29967,191198,225007,58,-36,1016,1
30035,191263,225063,63,-36,1017,1
30061,191319,225077,63,-35,1033,1
30101,191230,225120,69,-30,1033,1
30244,191291,225131,61,-30,1050,1
30371,191477,225229,61,-31,1014,1
30383,191472,225188,66,-36,1027,1
30416,191443,225072,57,-33,1027,1
30435,191485,225143,66,-33,1023,1
30409,191560,225162,66,-40,1021,1
30500,191585,225235,62,-29,1021,1
30619,191651,225193,66,-29,1027,1
30697,191756,225261,66,-42,1041,1
30716,191766,225283,63,-34,1041,1
30683,191828,225269,66,-34,1018,1
30810,191859,225246,66,-36,1030,1
30794,191878,225339,59,-27,1033,1
30944,191967,225322,63,-36,1033,1
30868,191972,225286,60,-36,1020,1
30964,192006,225265,60,-36,1004,1
30989,192070,225418,65,-39,1004,1
30963,192083,225399,57,-39,1013,1
31106,192108,225422,57,-37,1014,1
31142,192083,225406,58,-36,1014,1
31161,192176,225458,66,-26,1030,1
31205,192175,225436,61,-26,1016,1
31199,192226,225443,61,-36,1016,1
31242,192188,225399,62,-26,1037,1
31315,192256,225388,62,-26,1023,1
31361,192270,225308,62,-32,1021,1
31405,192314,225371,63,-36,1021,1
31438,192269,225388,61,-36,1030,1
31500,192306,225392,61,-33,1032,1
31429,192283,225302,66,-34,1032,1
31584,192323,225368,52,-34,1027,1
31494,192383,225305,52,-28,1030,1
31593,192438,225250,59,-30,1027,1
31672,192394,225148,60,-30,1027,1
31600,192448,225160,63,-31,1024,1
31622,192420,225145,63,-34,1024,1
31647,192382,225134,62,-33,1024,1
31625,192409,225039,60,-33,1026,1
31722,192269,224913,60,-37,1029,1
31691,192345,224886,64,-29,1029,1
31719,192283,224821,63,-36,1016,1
31762,192277,224720,59,-36,1023,1
31638,192288,224693,59,-41,1023,1
31619,192171,224647,64,-37,1008,1
31630,192128,224619,57,-37,1014,1
31459,192027,224598,57,-36,1037,1
31331,191990,224505,66,-35,1037,1
31156,191876,224514,66,-35,1013,1
31023,191640,224366,66,-34,1041,1
30972,191621,224348,60,-35,1041,1
30840,191467,224254,66,-38,1013,1
30646,191364,224295,63,-38,1013,1
30637,191254,224194,63,-32,1013,1
30345,190947,224103,57,-32,1004,1
30230,190897,223946,51,-33,1021,1
30069,190722,223909,51,-34,1024,1
30072,190643,223886,61,-35,1024,1
30010,190596,223825,54,-35,1024,1
29750,190344,223695,54,-33,999,1
29739,190305,223634,69,-33,999,1
29733,190197,223581,60,-33,1024,1
29709,190122,223507,60,-34,1011,1
29669,190151,223627,57,-47,1011,1
29727,190182,223535,87,-47,1021,1
29654,190240,223542,55,-46,1040,1
29696,190163,223485,55,-26,1020,1
29819,190111,223516,42,-24,1020,1
29768,190255,223709,88,-24,1021,1
29849,190375,223670,88,-38,1004,1
29954,190270,223631,77,-34,1004,1
29975,190349,223614,47,-34,999,1
29979,190415,223641,47,-27,1008,1
30007,190513,223617,52,-27,1030,1
30044,190516,223634,69,-27,1030,1
30126,190575,223618,66,-40,1038,1
30214,190572,223680,66,-31,1029,1
30256,190582,223692,60,-27,1029,1
30297,190573,223732,64,-27,1023,1
30348,190645,223755,64,-35,1008,1
30423,190707,223757,67,-29,1008,1
30424,190769,223714,61,-29,1030,1
30443,190780,223737,61,-39,1026,1
30537,190879,223884,66,-35,1026,1
30517,190891,223781,62,-35,1018,1
30632,191008,223821,63,-41,1008,1
30663,191031,223819,63,-28,1026,1
30650,191051,223821,66,-40,1026,1
30719,191097,223909,62,-40,1014,1
30772,191176,223956,62,-41,1035,1
30881,191224,223946,66,-39,1035,1
30900,191317,224002,64,-39,1027,1
30968,191341,223990,64,-32,1023,1
31046,191376,223989,57,-31,1023,1
31078,191469,223984,69,-36,1032,1
31020,191465,223984,67,-36,1027,1
31108,191428,223951,67,-36,1011,1
31083,191376,223915,64,-26,1011,1
31127,191419,223839,66,-26,1004,1
31106,191369,223738,66,-31,1018,1
31105,191310,223643,67,-35,1018,1
31187,191278,223682,64,-35,1020,1
31181,191297,223655,64,-36,1024,1
31211,191321,223649,61,-33,1023,1
31363,191370,223580,60,-27,1023,1
31375,191315,223571,69,-27,1021,1
31331,191331,223537,69,-34,1004,1
31434,191349,223554,61,-29,1004,1
31458,191404,223595,64,-29,1017,1
31401,191451,223489,64,-36,1033,1
31472,191485,223576,59,-34,1033,1
31533,191496,223572,60,-34,1005,1
31488,191504,223566,60,-36,997,1
31517,191568,223519,66,-36,997,1
31539,191612,223548,59,-36,1002,1
31597,191496,223539,61,-37,1032,1
31660,191538,223594,61,-34,1021,1
31673,191704,223599,65,-28,1021,1
31683,191651,223588,59,-28,1014,1
31670,191558,223546,59,-30,1033,1
31635,191473,223458,73,-34,1033,1
31499,191473,223529,57,-34,1014,1
31426,191466,223421,63,-39,1035,1
31367,191397,223425,63,-39,1035,1
31154,191295,223246,70,-39,1054,1
31004,191029,223197,70,-33,1013,1
30836,190870,223160,55,-34,1020,1
30672,190736,223038,61,-32,1020,1
30577,190674,223072,72,-32,1026,1
30547,190613,222979,72,-30,1026,1
30255,190227,222759,66,-36,1026,1
30086,190085,222756,66,-36,1014,1
30038,189964,222669,66,-38,1029,1
29974,189874,222643,62,-31,1029,1
29746,189823,222530,66,-31,1037,1
29581,189651,222482,66,-45,1002,1
29605,189564,222443,60,-35,997,1
29597,189470,222424,62,-37,997,1
29495,189419,222351,60,-37,1026,1
29464,189449,222387,60,-36,1021,1
29467,189361,222302,60,-44,1021,1
29421,189285,222290,61,-44,1017,1
29454,189372,222307,61,-29,1013,1
29519,189400,222334,64,-34,1013,1
29558,189494,222411,65,-37,1017,1
29536,189466,222300,65,-37,1032,1
29608,189462,222379,66,-41,1043,1
29707,189531,222332,55,-25,1043,1
29720,189518,222385,64,-25,1035,1
29766,189686,222471,64,-34,1017,1
29900,189668,222433,71,-30,1017,1
29878,189725,222449,63,-30,1013,1
30034,189793,222534,63,-31,1001,1
30004,189789,222529,56,-37,1001,1
30022,189839,222560,59,-37,1027,1
30118,189908,222614,59,-38,1018,1
30155,189901,222592,56,-30,1032,1
30210,190036,222703,59,-38,1032,1
30281,190021,222669,60,-38,1020,1
30308,190133,222795,60,-31,1002,1
30321,190247,222727,66,-37,1002,1
30420,190206,222739,66,-37,1005,1
30471,190222,222821,66,-36,1017,1
30483,190315,222871,61,-31,1027,1
30561,190409,222930,60,-31,1027,1
30642,190499,222977,60,-44,999,1
30689,190560,222998,63,-36,1033,1
30693,190457,223001,65,-28,1033,1
30775,190493,223008,63,-28,1004,1
30789,190606,223116,63,-27,1024,1
30832,190702,223107,61,-34,1024,1
30930,190675,223120,69,-34,1018,1
30876,190682,223110,69,-36,1027,1
30921,190727,223134,69,-45,1027,1
31012,190872,223169,63,-45,1016,1
30946,190802,223248,63,-36,1024,1
31007,190904,223195,63,-39,1023,1
31205,190968,223302,60,-42,1023,1
31110,190910,223267,58,-42,1024,1
31171,191055,223250,58,-34,999,1
31199,191016,223301,73,-32,999,1
31245,191023,223309,62,-32,1035,1
31260,191087,223260,62,-41,1021,1
31297,191138,223232,58,-38,1021,1
31350,191107,223242,62,-38,1024,1
31349,191221,223358,62,-34,1020,1
31442,191207,223332,62,-35,1016,1
31402,191212,223397,60,-31,1016,1
31509,191288,223387,71,-31,1026,1
31505,191251,223426,71,-44,1027,1
31545,191362,223436,63,-27,1027,1
31655,191304,223399,63,-27,1027,1
31586,191427,223507,63,-36,1011,1
31668,191396,223505,59,-38,1011,1
31704,191475,223486,57,-36,1030,1
31663,191465,223537,57,-36,1017,1
31681,191369,223457,69,-35,1035,1
31647,191412,223472,57,-36,1035,1
31686,191382,223409,58,-36,999,1
31650,191377,223437,58,-37,1027,1
31597,191373,223438,63,-37,1027,1
31501,191223,223387,58,-37,1026,1
31375,191079,223240,58,-37,1032,1
31247,190953,223205,62,-42,1011,1
31157,190833,223135,67,-42,1011,1
30957,190820,223197,62,-36,1021,1
30775,190453,223003,62,-31,1021,1
30723,190398,222943,61,-41,1021,1
30577,190273,222848,69,-41,1024,1
30454,190157,222788,69,-36,1040,1
30395,189984,222800,62,-33,1040,1
30061,189727,222625,63,-33,1016,1
30036,189670,222559,63,-40,1018,1
29910,189542,222512,58,-35,1018,1
29842,189490,222471,60,-38,1023,1
29739,189491,222415,63,-38,1023,1
29643,189265,222326,63,-34,1046,1
29600,189200,222351,54,-27,1046,1
29533,189168,222293,67,-27,1021,1
29644,189131,222192,67,-37,1018,1
29547,189167,222435,67,-42,1018,1
29631,189169,222332,60,-42,1005,1
29777,189212,222355,60,-33,1029,1
29710,189254,222393,61,-39,1029,1
29709,189207,222366,60,-39,1017,1
29733,189357,222473,60,-42,1030,1
29850,189382,222422,66,-30,1017,1
29911,189424,222495,60,-35,1017,1
29923,189498,222555,66,-35,1017,1
29984,189577,222547,66,-29,1030,1
29998,189607,222589,73,-36,1030,1
30076,189617,222590,60,-36,1033,1
30146,189685,222602,60,-35,1011,1
30146,189724,222561,59,-42,1013,1
30237,189789,222679,60,-42,1013,1
30281,189800,222738,60,-33,1037,1
30401,189865,222743,63,-34,1007,1
30518,189893,222797,59,-36,1007,1
30423,189911,222846,61,-36,999,1
30517,189979,222866,61,-42,1029,1
30498,190045,222918,63,-34,1029,1
30514,190132,222911,54,-34,1018,1
30633,190196,222933,54,-41,1021,1
30675,190191,222974,61,-36,1027,1
30739,190254,223029,59,-40,1027,1
30743,190233,222985,59,-40,1037,1
30839,190307,223006,69,-32,1026,1
30932,190421,223081,66,-31,1026,1
30829,190372,223083,65,-31,1037,1
30938,190492,223102,65,-36,1017,1
30973,190516,223168,64,-33,1017,1
30999,190603,223148,64,-33,1027,1
31102,190537,223124,64,-39,1004,1
31126,190590,223187,62,-36,1008,1
31222,190661,223206,64,-32,1008,1
31126,190591,223235,64,-32,1016,1
31152,190745,223238,54,-39,1016,1
31277,190763,223246,64,-39,1024,1
31271,190747,223289,62,-39,1011,1
31313,190699,223166,62,-36,1017,1
31369,190750,223228,71,-29,1017,1
31384,190871,223337,69,-29,1010,1
31345,190845,223367,69,-33,1023,1
31407,190844,223370,66,-36,1023,1
31418,190852,223305,63,-36,1005,1
31414,190902,223242,63,-40,1024,1
31465,190909,223332,72,-39,1024,1
31565,191032,223270,56,-37,1029,1
31640,191097,223439,66,-37,1047,1
31643,191086,223424,66,-31,1026,1
31646,191117,223442,62,-35,1026,1
31671,191153,223380,63,-35,1027,1
31702,191100,223407,63,-34,1029,1
31804,191187,223473,72,-32,1029,1
31818,191190,223442,63,-32,1017,1
31797,191217,223445,61,-36,1023,1
31742,191246,223482,61,-36,1018,1
31811,191172,223413,60,-28,1018,1
31747,191149,223465,66,-28,1033,1
31657,191053,223376,66,-41,1024,1
31724,191146,223342,60,-42,1024,1
31524,191083,223356,63,-42,1032,1
31328,190708,223326,63,-37,1011,1
31224,190677,223212,60,-36,1011,1
31107,190569,223157,63,-36,1029,1
30980,190493,223080,63,-35,1013,1
30931,190409,223069,61,-42,1013,1
30672,190082,222921,62,-35,1017,1
30527,189952,222893,61,-35,1017,1
30427,189873,222854,61,-39,1032,1
30283,189715,222738,58,-27,1032,1
30163,189641,222709,66,-27,1011,1
30012,189412,222649,66,-30,1018,1
29920,189303,222569,60,-34,1018,1
29887,189243,222501,60,-34,1020,1
29718,189064,222431,60,-28,1011,1
29725,189011,222375,61,-30,1011,1
29634,188974,222299,62,-42,1035,1
29652,188886,222283,63,-42,1007,1
29641,188967,222326,63,-41,1026,1
29723,188901,222368,64,-30,1026,1
29677,189002,222403,56,-30,1004,1
29745,189043,222413,56,-39,1014,1
29832,189018,222388,69,-36,1014,1
29822,189089,222383,60,-36,1027,1
29914,189082,222427,60,-39,1017,1
29955,189191,222497,60,-40,1017,1
30002,189294,222497,67,-37,1011,1
30023,189333,222482,59,-37,1018,1
30110,189345,222510,59,-39,1024,1
30095,189402,222569,55,-34,1024,1
30208,189476,222625,67,-34,1024,1
30283,189527,222642,67,-30,1033,1
30273,189551,222670,59,-37,1033,1
30337,189592,222773,60,-39,1021,1
30443,189659,222788,60,-39,1041,1
30423,189737,222819,69,-35,1041,1
30500,189759,222807,66,-34,1026,1
30586,189859,222863,53,-34,1007,1
30601,189824,222797,53,-38,1046,1
30791,189918,222936,51,-39,1046,1
30716,190035,222943,55,-39,1021,1
30757,190080,222976,55,-33,1001,1
30756,190056,222994,65,-39,1001,1
30805,190111,223028,55,-33,1016,1
30852,190137,223003,55,-33,1017,1
30894,190164,223077,66,-38,1014,1
30948,190284,223113,63,-41,1014,1
31012,190311,223055,67,-41,1002,1
31036,190324,223113,67,-34,1008,1
30988,190407,223146,71,-40,1008,1
31059,190449,223250,63,-40,1026,1
31006,190515,223198,63,-37,1035,1
31234,190512,223194,63,-32,1035,1
31275,190595,223258,60,-32,1035,1
31253,190523,223245,59,-41,1004,1
31226,190643,223290,59,-39,1026,1
31287,190747,223306,65,-45,1026,1
31389,190701,223299,66,-45,1024,1
31371,190759,223309,66,-33,1005,1
31491,190736,223294,56,-36,1005,1
31457,190815,223399,58,-36,1021,1
31519,190947,223354,58,-30,1026,1
31540,190931,223382,60,-40,1020,1
31655,190906,223477,65,-40,1020,1
31606,191031,223453,65,-38,1021,1
31641,191033,223468,63,-37,1017,1
31654,191085,223588,64,-39,1017,1
31717,191142,223593,64,-39,1026,1
31698,191134,223478,64,-41,1020,1
31766,191168,223540,66,-34,1020,1
31728,191166,223530,71,-34,1026,1
31753,191175,223597,71,-39,1020,1
31775,191195,223547,65,-32,1024,1
31807,191243,223638,63,-39,1024,1
31680,191183,223535,63,-39,1014,1
31681,191088,223456,63,-35,1014,1
31563,191117,223417,63,-39,1007,1
31365,190838,223396,69,-39,1021,1
31267,190725,223254,69,-35,1029,1
31102,190543,223179,54,-32,1029,1
30989,190512,223081,60,-32,1020,1
30747,190408,223067,60,-36,1013,1
30611,190079,222983,63,-36,1013,1
30471,189940,222885,51,-36,1013,1
30352,189668,222724,51,-40,1032,1
30141,189575,222721,63,-39,1032,1
30108,189484,222658,66,-40,1021,1
29812,189217,222479,66,-40,1018,1
29776,189075,222413,66,-33,1014,1
29624,189016,222403,64,-31,1014,1
29540,188925,222366,60,-31,1024,1
29535,188899,222305,60,-39,1027,1
29441,188762,222244,56,-36,1027,1
29460,188709,222235,66,-36,1026,1
29406,188769,222288,71,-37,1024,1
29445,188784,222244,71,-27,1023,1
29438,188806,222233,66,-38,1023,1
29504,188802,222163,58,-38,1035,1
29578,188847,222224,58,-34,1026,1
29580,188842,222235,60,-42,1026,1
29584,188922,222282,65,-42,1027,1
29638,189047,222365,65,-37,1027,1
29779,189100,222273,60,-39,1027,1
29837,189121,222401,66,-39,1032,1
29827,189088,222342,66,-36,1018,1
29830,189029,222343,62,-30,1018,1
29874,189243,222451,59,-36,1014,1
30005,189309,222473,60,-36,1020,1
30041,189351,222488,60,-37,1030,1
30019,189315,222514,63,-41,1030,1
30122,189406,222515,60,-41,1024,1
30141,189513,222640,60,-32,1010,1
30238,189598,222666,59,-36,1010,1
30238,189625,222598,60,-37,1018,1
30311,189703,222716,69,-37,1014,1
30373,189746,222727,69,-36,1014,1
30426,189797,222777,64,-43,1040,1
30476,189868,222826,66,-43,1013,1
30465,189876,222794,66,-34,1027,1
30573,189997,222827,61,-27,1027,1
30546,189971,222858,54,-27,1014,1
30623,190043,222979,54,-34,997,1
30687,190107,223065,66,-32,997,1
30710,190124,223034,63,-32,1020,1
30802,190138,223021,66,-40,1013,1
30752,190185,223017,66,-34,1027,1
30798,190308,223137,60,-37,1027,1
30879,190248,223044,75,-37,1018,1
30877,190390,223172,75,-35,1014,1
30893,190420,223130,63,-34,1014,1
30918,190479,223115,60,-34,1023,1
31007,190486,223156,60,-37,1033,1
30920,190513,223217,62,-32,1033,1
31079,190554,223252,66,-32,1020,1
31111,190560,223177,66,-28,1041,1
31053,190602,223248,63,-39,1041,1
31146,190705,223277,66,-36,1021,1
31209,190701,223242,64,-36,1011,1
31228,190728,223272,64,-38,1023,1
31294,190739,223270,63,-41,1023,1
31264,190768,223257,64,-41,1023,1
31318,190819,223317,64,-37,1024,1
31364,190865,223333,61,-46,1017,1
31434,190879,223310,65,-46,1017,1
31425,190918,223324,60,-33,1021,1
31466,190866,223376,60,-39,1026,1
31427,190871,223254,71,-35,1026,1
31337,190885,223329,63,-35,1037,1
31379,190884,223298,63,-30,1023,1
31319,190803,223274,67,-31,1023,1
31210,190769,223248,63,-31,1029,1
31185,190682,223191,63,-32,1026,1
31083,190572,223092,66,-34,1026,1
30839,190313,223087,65,-34,1026,1
30693,190201,222972,65,-32,985,1
30533,190046,222831,69,-33,1017,1
30424,189987,222798,69,-42,1017,1
30240,189781,222591,71,-42,1035,1
29938,189417,222499,71,-23,1014,1
29783,189191,222416,58,-35,1014,1
29739,189122,222363,63,-35,999,1
29664,189002,222282,63,-33,1014,1
29477,188903,222199,65,-39,999,1
29316,188707,222115,57,-38,999,1
29193,188426,222023,57,-38,1026,1
29063,188382,222022,67,-47,1013,1
29030,188278,221875,66,-35,1013,1
28990,188251,221823,66,-35,1032,1
28862,188053,221699,66,-35,1017,1
28920,188121,221739,71,-34,1017,1
28968,188125,221812,62,-34,1023,1
28956,188118,221779,62,-39,1033,1
28998,188197,221755,71,-42,1021,1
29043,188251,221810,59,-39,1021,1
29139,188335,221820,59,-39,1008,1
29204,188346,221832,72,-40,1008,1
29186,188422,221823,61,-30,1014,1
29280,188531,221984,58,-30,1005,1
29353,188581,222000,58,-30,1011,1
29429,188579,221942,61,-38,1011,1
29502,188684,222051,63,-38,1024,1
29471,188655,222051,63,-41,1026,1
29556,188775,222142,70,-34,1026,1
29614,188822,222173,64,-34,1026,1
29679,188882,222236,66,-37,1040,1
29782,188938,222293,66,-36,1014,1
29822,188988,222263,66,-32,1014,1
29787,189019,222296,62,-32,1029,0
19294,467416,508555,62,-29,1016,0
19237,531447,576026,63,-29,1016,0
18977,547162,592442,64,-29,1008,0
18659,550651,595963,64,-45,1026,0
18595,551327,597547,69,-36,1026,0
19386,552648,597702,65,-36,1026,0
19063,553580,598554,65,-36,1017,0
18680,553775,598518,61,-29,1011,0
18726,553493,598201,58,-41,1011,0
19688,554517,599574,63,-41,1008,0
19097,555634,600258,63,-34,1030,0
18728,555415,599930,64,-30,1030,0
18804,555540,599723,65,-30,999,0
19681,556259,600591,65,-33,1027,0
19579,557002,600915,69,-41,1027,0
18886,557293,601096,67,-37,1014,0
18910,557247,600902,67,-37,1013,0
19715,557964,601693,66,-34,1016,0
19574,558544,601852,70,-38,1016,0
19164,559214,602718,67,-38,1020,0
18965,558911,602192,67,-36,1008,0
19696,559638,603174,69,-30,1008,0
19677,560101,603029,66,-30,1023,0
19193,560735,603534,66,-42,1005,0
19065,560750,603581,66,-36,1005,0
19821,561396,604305,63,-39,1041,0
19749,561796,604300,66,-39,1017,0
19158,562211,604755,66,-36,1016,0
18959,562009,604542,61,-39,1016,0
18926,562387,604578,72,-39,1038,0
19722,563245,605254,72,-35,1020,0
19045,563503,605846,63,-30,1020,0
18997,563386,605590,66,-30,1029,0
19020,563477,605320,66,-37,997,0
20078,564359,606207,69,-39,997,0
19170,564466,606316,66,-39,1033,0
19019,563889,605784,66,-36,1024,0
19142,563273,605221,63,-34,1011,0
19998,563271,605468,66,-34,1011,0
19697,562608,604790,63,-34,1011,0
18929,559215,602360,63,-32,1026,0
19068,556858,600200,57,-31,1026,0
19738,555401,599389,59,-31,1016,0
19463,553273,597856,59,-30,1030,0
18729,551191,596346,57,-31,1030,0
18812,546405,592705,59,-36,1029,0
19557,544989,591997,59,-36,1018,0
19152,543299,590610,61,-35,999,0
18537,541429,589206,64,-35,999,0
18574,539363,587548,65,-35,1024,0
18653,536056,585614,65,-31,1035,0
19045,534629,584115,65,-36,1035,0
18261,532916,582895,62,-36,1010,0
18485,531282,581709,62,-36,1023,0
18634,530121,580709,69,-33,1026,0
19218,529067,580050,70,-33,1026,0
18172,528369,579569,62,-32,1029,0
18373,527665,579009,62,-37,1020,0
18578,527234,578521,70,-38,1020,0
19124,528247,579642,60,-38,1020,0
18771,528682,579853,60,-36,1005,0
18348,528964,579940,71,-45,1005,0
18584,529638,580245,74,-45,1018,0
19102,530831,581657,74,-29,1014,0
18914,531685,581840,63,-36,1014,0
18265,532340,582438,77,-36,1024,0
18535,532890,582542,77,-39,1020,0
19278,533893,583891,62,-36,1014,0
18992,534462,584027,63,-45,1014,0
18316,534547,583912,72,-45,1004,0
18636,535049,584502,72,-31,1013,0
19327,536464,585605,72,-34,1013,0
18883,536917,585744,69,-34,1018,0
18305,537311,585834,69,-29,1017,0
18654,537523,586070,60,-39,1017,0
18877,537948,587475,65,-36,1017,0
18900,539637,587760,73,-36,1011,0
18335,539752,587592,73,-34,1013,0
18768,540074,587717,74,-36,1013,0
19031,540376,587801,66,-36,1008,0
19305,541690,589494,66,-43,1027,0
18317,542154,589485,59,-29,1027,0
18919,542550,589581,66,-29,1030,0
19147,542762,589439,66,-37,1024,0
19380,544106,590895,65,-30,1024,0
18850,544540,591085,71,-30,1011,0
19076,544878,591224,71,-33,1030,0
19285,545227,591315,66,-30,1018,0
19346,546307,592547,63,-33,1018,0
18893,546744,592782,63,-33,1037,0
18390,547095,592828,63,-37,1047,0
19221,547660,593127,69,-37,1047,0
19442,548737,594403,65,-37,1023,0
18901,549080,594360,65,-36,1008,0
18475,548802,594040,67,-35,1020,0
19178,549123,594664,66,-35,1020,0
19354,550570,595745,66,-37,1013,0
18919,550994,595794,67,-39,1029,0
18565,550643,595468,70,-30,1029,0
19254,551046,595816,64,-30,1023,0
19368,551558,595874,64,-36,1004,0
18947,552577,596960,72,-38,1004,0
18541,552432,596790,63,-38,1018,0
19350,552781,596983,63,-31,1005,0
19352,553191,597314,66,-35,1037,0
19465,554260,598362,61,-36,1037,0
18685,554194,597882,61,-36,1002,0
19402,554468,598168,64,-30,1023,0
19490,554929,598410,59,-32,1023,0
19426,555825,599417,59,-32,1026,0
18941,556091,599485,59,-42,1018,0
19509,555822,599260,71,-36,1018,0
19560,556457,599301,60,-36,1041,0
19456,557144,600353,60,-32,1016,0
18983,557159,600094,66,-32,1016,0
18755,556885,599466,63,-32,1021,0
19683,556264,599050,63,-35,1029,0
19415,556209,599476,64,-36,1029,0
18911,555243,598626,66,-36,1018,0
18798,552884,596753,69,-36,1030,0
19376,550669,595379,69,-36,1037,0
19179,546606,592755,64,-36,1037,0
18690,544387,590744,51,-36,1016,0
18575,541826,588758,51,-39,1035,0
19292,540130,587634,54,-30,1024,0
19231,538391,586231,71,-31,1024,0
18995,535175,584047,71,-31,1044,0
18402,532874,582146,63,-32,1020,0
19531,531384,581165,54,-36,1020,0
19236,529867,580005,66,-36,1008,0
18778,528951,579637,66,-30,1010,0
18441,525495,576861,61,-36,1010,0
19403,524764,576447,66,-36,1016,0
19114,523808,575604,66,-39,1030,0
18658,523631,575812,76,-39,1030,0
18372,522992,574981,77,-33,1014,0
18507,522406,574866,77,-33,1018,0
19100,522860,574905,63,-36,1018,0
18696,523532,575678,63,-25,1014,0
18442,523778,575641,63,-25,1035,0
18434,523923,575571,63,-36,1032,0
19269,525887,577198,64,-30,1032,0
18719,526715,578087,59,-30,1038,0
18558,527040,577966,59,-32,1016,0
18608,527344,577938,58,-41,1030,0
19335,528420,579167,63,-41,1030,0
19249,529503,580119,63,-28,1027,0
18708,529916,580049,64,-33,1017,0
18471,530110,580064,63,-30,1017,0
19392,531177,581351,73,-30,1033,0
19342,531879,581487,73,-39,1005,0
18892,532493,582322,65,-32,1005,0
18564,532885,582288,63,-32,1027,0
19585,533894,583457,63,-41,1035,0
19377,534680,583599,75,-27,1035,0
18845,535226,584309,69,-27,1027,0
18680,535555,584173,69,-29,1033,0
19668,536725,585381,66,-36,1010,0
19499,537282,585787,59,-36,1010,0
18880,538103,586434,71,-36,1002,0
18823,538063,586298,71,-33,1041,0
18808,538256,587419,62,-38,1041,0
19541,539795,587447,69,-38,1011,0
18964,540391,587846,69,-31,1013,0
19025,540389,587933,65,-38,1044,0
19033,540689,587855,62,-37,1044,0
19830,541930,589343,62,-37,1035,0
18977,542770,589805,72,-33,1035,0
19067,542693,589847,73,-32,1004,0
19224,543177,589891,70,-32,1026,0
19921,544093,591134,70,-32,1016,0
19730,544943,591306,69,-34,1016,0
19070,545312,591571,61,-34,1032,0
19212,545562,591398,61,-27,1014,0
20003,546339,592636,62,-32,1014,0
19691,546948,592878,63,-32,1037,0
18953,547417,593178,63,-42,1017,0
19265,547532,593018,69,-38,1017,0
20077,548509,594467,62,-30,1024,0
19663,548870,594329,70,-30,1005,0
19076,549037,594401,70,-38,1035,0
19242,549045,594417,77,-42,1035,0
20088,550542,595754,72,-42,1020,0
19758,550860,595707,72,-33,1008,0
19056,551119,595733,69,-33,1008,0
19369,550955,595698,66,-33,1024,0
19488,551457,596057,60,-45,1026,0
19735,552656,597043,60,-29,1024,0
19052,552720,597124,62,-36,1024,0
19316,552791,597069,63,-36,1035,0
19402,553117,597176,63,-38,1026,0
20046,554147,598309,66,-36,1026,0
19012,553679,597811,61,-36,1010,0
19400,552928,597200,61,-37,1023,0
19404,552128,596497,66,-41,1023,0
19955,551531,596332,63,-41,1029,0
19629,549760,594682,63,-39,1005,0
19166,544307,590825,63,-36,1005,0
19266,542192,588985,64,-36,1038,0
19769,540801,588516,67,-36,1027,0
19243,538844,587104,67,-42,1027,0
18724,536858,585487,63,-35,1027,0
19032,532951,582519,72,-35,1021,0
19545,532170,582346,72,-30,1018,0
19090,530744,581229,69,-35,1018,0
18458,528717,579579,64,-35,1027,0
19064,527180,578472,64,-32,1032,0
19209,525365,577810,63,-42,1032,0
18874,524443,576821,55,-36,1029,0
18363,523055,575527,70,-36,1024,0
19116,522098,575184,70,-38,1030,0
19196,521715,574567,60,-38,1030,0
19291,521747,574934,61,-38,1007,0
18318,521158,574453,61,-41,1005,0
19169,521265,574600,63,-37,1005,0
19180,521801,574821,75,-35,1026,0
19369,523424,576483,67,-35,1024,0
18865,524068,576700,67,-36,1024,0
19172,524637,577166,66,-43,1005,0
19243,525490,577678,63,-43,1023,0
19346,526759,579009,63,-27,1020,0
18881,527226,579028,62,-24,1020,0
18560,528074,579488,63,-24,1011,0
19287,528567,579713,63,-37,1029,0
19393,529710,580984,63,-40,1029,0
18965,530057,581167,62,-41,1014,0
18622,530007,580796,63,-41,1024,0
19346,530687,581629,63,-35,1024,0
19482,532306,582943,66,-35,1016,0
19001,532616,583023,77,-35,1030,0
18709,532683,582719,77,-36,1001,0
19555,533125,583369,55,-35,1001,0
19488,533857,584746,76,-35,1018,0
19069,535128,584761,76,-40,1029,0
18700,535156,584588,63,-34,1029,0
19642,535811,585078,64,-31,1020,0
19659,536593,585360,60,-31,1020,0
19515,537547,586551,60,-36,1020,0
18842,537595,586113,67,-36,1013,0
19599,538308,586786,60,-31,1026,0
19621,538763,586783,60,-42,1010,0
19496,539708,587930,66,-30,1010,0
19055,540039,587787,71,-30,1013,0
19611,540315,588295,71,-38,1024,0
19670,540694,588384,65,-35,1024,0
19438,541656,589390,77,-35,1001,0
19047,541808,589394,77,-35,1021,0
18924,541923,588907,66,-37,1024,0
19818,542720,589774,69,-28,1024,0
19527,543411,590644,63,-28,1043,0
19185,543662,590591,63,-25,1016,0
19051,543567,590186,71,-33,1016,0
20063,544065,590936,74,-33,1018,0
19487,545241,591938,74,-39,1023,0
19146,545303,591787,75,-26,1023,0
19066,545164,591403,66,-26,1032,0
20114,545689,592095,66,-41,1011,0
19964,546209,592230,67,-24,1017,0
19115,546922,592824,73,-38,1017,0
19206,546771,592351,74,-38,1021,0
20079,547182,593358,74,-34,1021,0
20041,547707,593454,69,-30,1021,0
19629,548433,594202,61,-30,1024,0
19361,548126,593430,61,-33,1037,0
20092,548830,594286,65,-36,1037,0
20073,549106,594241,69,-36,1008,0
19663,549224,594649,69,-36,1016,0
19253,548919,594113,69,-40,1016,0
20050,547520,593278,83,-40,1017,0
19963,546655,592197,70,-31,1024,0
19384,545402,591543,70,-38,1029,0
19187,542873,589548,69,-29,1029,0
19047,540222,587407,72,-29,1011,0
19809,536315,584876,72,-31,1030,0
19132,534455,583534,66,-37,1030,0
18890,532117,581651,72,-37,1023,0
18814,530001,579955,72,-38,1032,0
19762,528806,579525,66,-37,1032,0
18860,525681,576953,74,-37,1027,0
18748,523685,575594,71,-38,1004,0
18686,521881,574035,71,-38,1029,0
19731,521004,573626,70,-33,1029,0
19410,519956,572730,72,-33,999,0
18725,517210,570878,72,-36,1026,0
18707,516013,569816,63,-34,1026,0
19578,515956,570195,69,-34,1053,0
19269,515598,569601,69,-33,1010,0
18603,515345,569688,60,-29,1010,0
18568,514707,568716,69,-29,1005,0
19553,515595,569895,63,-37,1014,0
19257,516180,570152,63,-38,1014,0
18629,516809,570588,65,-40,1014,0
18600,517206,570783,63,-40,1033,0
18748,518970,572283,63,-35,1030,0
19326,519527,572618,72,-36,1030,0
18727,520470,573017,69,-36,1043,0
18821,520621,573184,69,-32,1014,0
18912,521066,573347,72,-39,1014,0
19712,522820,574917,63,-39,1018,0
18676,523056,575167,75,-32,1013,0
18794,523140,575157,75,-40,1026,0
19011,523603,575258,70,-33,1026,0
19770,524809,576667,66,-33,1035,0
19458,525439,577005,66,-34,1024,0
18875,525693,577114,69,-40,1024,0
19326,526168,577061,75,-29,1020,0
19854,527573,578538,67,-29,1027,0
19412,527909,578631,67,-39,1027,0
18743,528204,578927,72,-39,1020,0
19334,528890,579037,63,-38,1057,0
20017,529991,580301,63,-35,1014,0
19664,530421,580384,73,-30,1014,0
18925,530714,580427,72,-30,1008,0
19270,530814,580725,72,-33,1032,0
20020,532256,582043,63,-30,1032,0
19684,532720,582002,66,-30,1017,0
18880,532728,581952,66,-27,1021,0
19159,532920,582094,69,-41,1021,0
19368,533387,583369,71,-34,1021,0
19608,534791,583424,65,-34,1021,0
18880,534792,583225,65,-34,1038,0
19350,535045,583606,62,-29,1038,0
19521,535288,583425,72,-29,1014,0
19950,536459,584729,72,-38,1018,0
19020,536559,584682,70,-36,1018,0
19370,536694,584829,64,-36,1024,0
19668,537080,584736,64,-36,1026,0
20011,537990,585981,63,-44,1026,0
19645,538549,586132,66,-44,1029,0
19619,538272,585924,69,-41,1018,0
19898,538513,585913,69,-29,1017,0
20196,539531,587019,64,-34,1017,0
19625,539889,587016,66,-34,1032,0
19052,539952,586872,66,-32,1014,0
19991,540064,586806,81,-30,1014,0
20117,541125,588145,72,-30,1026,0
19532,541275,588221,76,-38,1023,0
19079,541184,587879,76,-36,1023,0
19829,541365,588054,65,-36,1043,0
20006,542657,589118,65,-32,994,0
19624,542799,589083,78,-33,1007,0
19073,542554,588492,71,-24,1007,0
19870,542384,588597,66,-24,1016,0
19917,542773,588890,66,-38,1023,0
19447,542759,588862,66,-33,1023,0
19085,541638,587946,67,-33,1020,0
19878,540621,587287,69,-31,1021,0
19916,539444,586210,69,-38,1021,0
19849,538333,585937,62,-38,1021,0
18929,533226,581571,65,-33,1014,0
19749,531202,580178,65,-43,1027,0
19714,529367,578700,70,-36,1027,0
19589,528112,578379,72,-36,1030,0
19169,526161,576731,72,-30,1020,0
19540,522154,573765,63,-37,1020,0
19592,520775,572581,60,-37,1010,0
19384,519844,572168,60,-40,1018,0
18785,518095,570772,72,-42,1018,0
18573,516347,569115,72,-42,1043,0
19405,513929,567372,70,-37,1032,0
19310,513387,567563,70,-33,1023,0
18813,512307,566454,66,-37,1023,0
18514,511104,565334,73,-37,1016,0
19276,510601,565096,73,-39,1027,0
19308,510742,565508,66,-40,1027,0
18650,510549,565171,74,-40,1020,0
18512,510219,564715,74,-35,1035,0
19191,510898,565374,69,-36,1010,0
19303,511621,565777,72,-39,1010,0
19069,513541,567247,69,-39,1024,0
18626,513713,567307,69,-32,1027,0
19354,514440,568161,70,-36,1027,0
19439,515231,568604,61,-36,1010,0
19226,516675,569908,61,-39,1027,0
18725,517016,569769,69,-36,1027,0
19537,517785,570521,64,-36,1002,0
19414,518505,570928,64,-33,1033,0
19122,519513,571743,75,-40,1033,0
18758,519820,571828,69,-40,1033,0
18725,519974,572535,66,-38,1035,0
19511,521240,572861,66,-42,1020,0
19183,522056,573749,65,-40,1020,0
18774,522181,573784,69,-40,1037,0
18804,522290,573489,69,-28,1001,0
19768,523372,574906,60,-36,1001,0
19136,524823,575654,66,-36,1026,0
18805,525124,575565,66,-36,1030,0
18903,525084,575490,64,-41,1030,0
19631,525912,576428,67,-35,1023,0
19614,526934,577477,64,-35,1020,0
18810,527552,577446,64,-44,1026,0
18907,527687,577419,74,-39,1026,0
19768,528665,578375,67,-39,1018,0
19639,529058,578428,67,-34,1033,0
19220,529917,579302,64,-37,1033,0
19053,530197,578998,66,-37,1021,0
19769,531197,580181,66,-25,1011,0
19807,531622,580440,64,-34,1011,0
19232,532269,581076,71,-34,1017,0
19087,532490,580884,66,-41,1021,0
19860,533404,581965,66,-39,1024,0
19748,533888,582027,64,-36,1024,0
19196,534390,582628,66,-36,1016,0
19020,534608,582669,66,-29,1018,0
19032,534742,582480,66,-27,1018,0
19771,535992,583816,76,-27,1007,0
19145,536516,584255,63,-38,1021,0
19115,536528,584205,63,-35,1007,0
19133,536555,583908,72,-35,1007,0
20163,537498,585127,69,-35,1007,0
19287,538437,585546,69,-35,1020,0
19227,538287,585314,76,-42,1020,0
19215,538431,585214,64,-42,1017,0
20136,539217,586302,64,-37,1002,0
19909,539769,586474,76,-34,1002,0
19196,540173,586774,72,-34,1026,0
19304,540256,586572,60,-39,1037,0
20259,541075,587555,60,-48,1037,0
19939,541553,587617,67,-48,1035,0
19229,542000,588086,66,-32,1001,0
19332,541655,587615,66,-42,1032,0
20104,542229,588224,66,-31,1032,0
19847,542066,587948,60,-31,1041,0
19151,541484,587572,60,-35,1026,0
19207,540440,586805,75,-36,1026,0
20005,537231,584808,72,-36,1014,0
19702,535037,582881,72,-32,1017,0
19027,532752,581151,72,-36,1017,0
19090,530384,579417,63,-36,1029,0
19322,528514,577829,63,-34,1017,0
19551,525841,576273,62,-36,1017,0
18800,523965,574869,63,-39,1017,0
18900,522028,573553,67,-39,1033,0
19249,520600,572166,67,-36,1027,0
19582,519945,572387,65,-36,1027,0
18557,517401,569927,74,-36,1035,0
18809,515801,568842,74,-40,1035,0
18899,514839,568028,71,-34,1035,0
19530,514715,568285,71,-36,1011,0
19137,514113,567633,71,-36,1014,0
18423,512234,566430,70,-33,1032,0
18693,512117,566118,63,-30,1032,0
19333,512788,566999,65,-30,1014,0
18948,512928,566949,65,-40,1029,0
18282,513196,567065,64,-34,1029,0
18593,513914,567348,66,-34,1020,0
19423,515077,568850,66,-45,1027,0
19088,516017,569129,70,-40,1027,0
18454,516298,569377,61,-40,1011,0
18754,516754,569700,66,-36,1023,0
18923,518454,571323,66,-36,1018,0
19099,519319,571659,65,-38,1018,0
18491,519329,571681,72,-38,1021,0
18923,519728,571803,72,-40,1016,0
19235,520086,571903,66,-33,1016,0
19471,521755,573398,66,-33,1016,0
18488,521931,573502,66,-35,1013,0
19150,522206,573740,66,-30,1018,0
19498,522712,574006,63,-30,1018,0
19605,523892,575439,63,-34,1027,0
19076,524537,575410,62,-39,1027,0
19328,524962,575681,59,-39,1027,0
19436,525414,575965,66,-39,1027,0
19634,526842,577473,66,-37,1030,0
19128,527378,577686,66,-31,1030,0
18664,527514,577741,72,-31,1010,0
19454,528284,577945,72,-37,1023,0
19636,529648,579325,64,-36,1023,0
19084,529952,579389,66,-36,1027,0
18702,530053,579285,66,-36,999,0
19420,530525,579939,66,-36,1029,0
19624,532150,581239,65,-36,1029,0
19039,532568,581353,67,-36,1021,0
18726,532455,581157,67,-36,1021,0
19542,532905,581517,66,-34,1021,0
19585,533522,583162,61,-34,1018,0
19217,534892,583086,61,-46,1030,0
18874,534763,582957,60,-36,1030,0
19622,535200,583364,69,-36,1010,0
19707,535820,583751,69,-43,1033,0
19762,537155,584898,67,-44,1010,0
18965,537102,584546,69,-30,1010,0
19687,537374,584939,57,-30,1050,0
19850,538046,585291,57,-38,1026,0
19824,539169,586491,65,-39,1026,0
19214,539509,586561,62,-39,1024,0
19909,539767,586775,62,-33,999,0
19877,540440,586919,60,-29,999,0
19815,541468,588195,61,-29,1013,0
19191,541575,588217,72,-34,1033,0
18957,541655,587867,72,-43,1020,0
19952,542218,588419,72,-41,1020,0
19713,543489,589511,61,-41,1016,0
19260,543474,589517,61,-42,1011,0
19217,543270,589065,67,-35,1011,0
19946,543648,589684,75,-35,1010,0
19671,544703,590483,75,-31,1032,0
19283,544475,590093,58,-29,1032,0
19197,543527,589367,69,-29,1011,0
20046,543134,589154,69,-44,1030,0
19998,542615,588711,72,-39,1017,0
19065,538624,585955,71,-40,1017,0
19083,536126,583880,69,-40,1029,0
20039,534280,582692,69,-30,1023,0
19762,532703,581541,76,-36,1023,0
19287,531493,580875,75,-36,1010,0
18932,527268,577469,75,-34,1020,0
19892,525923,576744,69,-40,1017,0
19722,524868,575831,69,-40,1017,0
19208,523747,575275,69,-30,1011,0
18875,522072,574142,70,-36,1029,0
19687,519686,572477,64,-43,1029,0
19481,518877,571749,72,-43,1035,0
19097,518066,571446,72,-34,1011,0
18683,516978,570465,77,-31,1011,0
18704,516112,569646,65,-31,1011,0
19440,515659,569431,65,-35,1002,0
18978,515746,569701,77,-44,1021,0
18632,515230,569291,62,-44,1021,0
18649,514992,568926,62,-40,1016,0
19391,516125,570131,72,-41,1043,0
19504,517347,571027,60,-41,1043,0
18751,517681,571045,69,-41,1033,0
18723,518155,571102,69,-34,1001,0
19595,519312,572342,62,-38,1001,0
19453,520189,572769,64,-38,1013,0
18958,520986,573492,64,-33,1020,0
18776,521177,573420,64,-30,1020,0
19705,522246,574657,69,-30,1026,0
19575,522955,574841,69,-42,1021,0
18942,523714,575507,70,-36,1011,0
18849,523750,575251,66,-42,1011,0
19838,524839,576429,72,-42,1014,0
19664,525415,576670,72,-32,1023,0
18977,526183,577362,66,-41,1023,0
18974,526259,577101,70,-41,1021,0
19147,526669,578256,70,-35,1018,0
19747,528098,578433,65,-39,1018,0
19049,528460,578907,63,-39,1016,0
19059,528641,578868,67,-39,1013,0
19102,528878,578739,67,-32,1029,0
20090,530025,580170,72,-36,1029,0
19125,530931,580572,72,-36,1032,0
19121,530797,580569,72,-39,1018,0
19303,530992,580569,69,-38,1018,0
20052,532179,581592,72,-38,1010,0
19843,532789,582263,72,-37,1026,0
19240,533160,582319,72,-29,1020,0
19343,533448,582282,65,-29,1020,0
20143,534436,583517,72,-32,1018,0
19873,535023,583510,72,-40,1001,0
19111,535325,583692,72,-34,1001,0
19602,535579,583879,70,-34,1020,0
20283,536688,585214,70,-37,1033,0
19895,537012,585110,66,-36,1033,0
19218,537378,585206,72,-36,1005,0
19356,537541,585309,72,-34,1035,0
20217,538791,586691,71,-35,1035,0
19974,539254,586714,61,-40,1021,0
19204,539195,586881,66,-40,1017,0
19540,539167,586763,66,-41,1027,0
19693,539679,586907,69,-31,1027,0
20004,541135,588244,73,-31,1021,0
19260,541266,588148,73,-15,1018,0
19506,541282,588113,63,-38,1018,0
19660,541464,588246,80,-36,1033,0
20402,542538,589521,70,-36,1016,0
19312,543092,589427,70,-31,1016,0
19678,542981,589441,72,-31,1018,0
19897,543263,589401,65,-31,1018,0
20349,544141,590557,65,-36,1026,0
20073,544686,590755,72,-35,1026,0
19799,544557,590628,67,-35,1030,0
20127,544578,590222,67,-30,1027,0
20429,545611,591653,70,-32,1027,0
20135,545697,591600,69,-32,1011,0
19496,545349,591225,78,-30,1021,0
20250,544003,589926,78,-37,1008,0
20547,543908,590477,61,-33,1008,0
20006,542955,589574,75,-33,1021,0
19421,540715,587764,75,-36,1014,0
20017,538720,586133,83,-36,1014,0
20327,535457,584100,74,-36,1007,0
19764,533736,582648,74,-36,1023,0
19249,531682,580933,67,-36,1023,0
19900,529790,579751,72,-36,1023,0
19999,528370,578336,63,-39,1018,0
19596,526144,577276,63,-33,1018,0
19123,524219,575753,70,-36,1002,0
19941,522702,574667,66,-36,1014,0
19877,521532,573710,66,-39,1004,0
20072,521192,573982,74,-32,1004,0
18985,518475,571483,62,-32,1027,0
19833,517467,571091,62,-38,1004,0
19813,516906,570259,66,-36,1004,0
19836,517149,571065,85,-36,1007,0
19369,516801,570711,85,-34,1020,0
18995,515963,569973,69,-36,1020,0
19802,516489,570116,71,-39,1008,0
19923,517533,571392,63,-39,1014,0
19370,517899,571526,63,-37,1021,0
18933,518038,571340,69,-31,1021,0
19784,519534,572373,65,-31,1017,0
19954,520868,573797,65,-35,1033,0
19452,521273,574045,71,-37,1033,0
19207,521409,573832,69,-37,1024,0
20091,522002,574474,69,-31,1016,0
20054,524000,576272,69,-30,1016,0
19453,524316,576257,77,-41,1027,0
19254,524299,575975,75,-41,1033,0
20003,524779,576432,75,-34,1016,0
20072,525584,576925,75,-39,1016,0
20049,527339,578353,63,-39,1008,0
19266,527227,577941,63,-39,1008,0
20155,527660,578494,71,-29,1008,0
20056,528229,578706,70,-36,1002,0
19952,529413,579972,65,-36,1016,0
19475,529844,579817,65,-45,1016,0
20174,530194,580411,72,-37,1024,0
20301,530766,580734,72,-37,1030,0
20127,531971,581912,72,-30,1033,0
19577,532210,581810,69,-30,1033,0
19532,532038,582208,75,-30,1020,0
20513,533229,582517,75,-35,1020,0
20120,534108,583612,78,-33,1020,0
19704,534280,583619,75,-39,1023,0
19646,534503,583346,75,-39,1008,0
20743,535245,584566,70,-36,1008,0
20144,536999,585634,75,-38,1035,0
19834,537202,585654,72,-38,1023,0
19849,536970,585305,72,-34,1014,0
20862,537867,586023,69,-30,1014,0
20811,538762,587374,69,-30,997,0
20000,539575,587322,69,-41,1007,0
20069,539569,587055,71,-36,1007,0
20952,540124,587982,73,-36,1023,0
20839,540953,588229,73,-39,1010,0
20344,542054,589327,67,-44,1010,0
20036,541797,588646,60,-43,1033,0
21026,542704,589767,69,-43,1033,0
20978,543302,590152,69,-36,1011,0
20457,544136,591033,62,-36,1011,0
20164,544232,590976,72,-36,1023,0
21079,545062,591635,72,-29,1032,0
21114,545752,591984,71,-36,1024,0
20517,546222,592497,73,-37,1024,0
20399,546268,592360,73,-37,1013,0
20372,546359,592205,72,-37,1032,0
21174,547474,593107,71,-32,1032,0
20568,548026,593645,69,-32,1010,0
20413,547778,593342,69,-39,1026,0
20376,547862,593165,75,-36,1026,0
21405,548727,594294,66,-36,1027,0
20515,549589,594615,66,-39,1027,0
20377,549263,594235,72,-40,1027,0
20490,549049,594005,66,-40,1032,0
21456,549739,594762,67,-48,1008,0
21280,549869,594779,67,-38,1037,0
20415,548021,593456,72,-36,1037,0
20492,546723,592397,65,-36,1030,0
21354,546027,592020,65,-38,999,0
21169,544431,590636,70,-36,999,0
20247,542862,589523,71,-36,1017,0
20309,538886,586485,71,-36,1032,0
21115,538046,586072,73,-40,1032,0
20806,536670,585054,72,-40,1027,0
20054,535336,584110,66,-37,1047,0
20059,533390,582731,66,-37,1007,0
20966,531215,581354,69,-30,1007,0
20742,530296,580412,81,-30,1008,0
19914,529087,579484,81,-42,1004,0
20001,527678,578441,66,-39,1004,0
20198,526677,577583,78,-39,1023,0
20937,525952,577238,78,-36,1016,0
19783,525286,576778,77,-31,1016,0
20031,524467,576280,76,-31,1004,0
20153,524327,575967,76,-34,1043,0
20827,525145,577156,67,-36,1032,0
20448,525551,576918,71,-36,1032,0
19961,525573,577116,69,-36,1037,0
20274,526117,577130,69,-34,1002,0
20943,527597,578645,67,-41,1002,0
20581,528352,579006,66,-41,1024,0
19862,528944,579310,66,-37,1029,0
20402,529341,579575,69,-38,1038,0
21123,530802,581061,72,-38,1038,0
20630,531418,581207,69,-36,1026,0
19976,531848,581411,69,-34,1021,0
20319,532493,581967,67,-40,1021,0
21080,533687,583254,71,-40,1004,0
20674,534324,583405,71,-42,1011,0
20033,534619,583379,72,-36,1011,0
20336,534816,583665,67,-36,1014,0
20455,535617,585144,67,-36,1023,0
20708,537305,585368,75,-39,1023,0
20116,537540,585440,75,-39,1014,0
20457,537648,585700,75,-36,1018,0
20707,537943,585655,64,-32,1018,0
21203,539558,587420,67,-38,1018,0
20190,540014,587231,76,-38,1021,0
20555,540407,587657,76,-30,1020,0
20862,540785,587865,72,-31,1020,0
21155,542253,589185,72,-31,1016,0
20715,542928,589273,72,-34,1023,0
20694,543168,589534,70,-36,1023,0
21038,543620,589777,63,-38,1043,0
21195,544837,591348,63,-38,999,0
20647,545526,591619,71,-39,1014,0
20153,545831,591694,59,-36,1014,0
21030,546605,592144,71,-36,1001,0
21229,547973,593533,71,-39,1013,0
20625,548701,593728,75,-32,1013,0
20087,548468,593323,67,-32,1014,0
20982,548975,594078,67,-27,1035,0
21203,550599,595647,73,-32,1035,0
20670,550734,595551,67,-32,1010,0
20227,550869,595488,75,-38,1033,0
21000,551165,595731,75,-30,1001,0
21104,552025,595949,66,-33,1001,0
20708,553289,597218,69,-33,1026,0
20343,553051,596965,69,-42,1007,0
21080,553475,597489,77,-37,1007,0
21370,554209,597789,72,-37,1004,0
21312,555455,599155,72,-36,1044,0
20330,555627,599053,66,-30,999,0
21221,555918,599392,75,-32,999,0
21300,556581,599791,75,-32,1024,0
21338,557670,600954,81,-30,1018,0
20649,557943,600905,69,-32,1018,0
21197,558114,600830,73,-32,1026,0
21261,558885,601322,73,-38,1024,0
21259,559726,602450,66,-39,1024,0
20629,560012,602453,81,-39,1010,0
20471,560066,602206,81,-36,1018,0
21352,561008,602557,69,-23,1018,0
21350,561845,603725,63,-23,1011,0
20660,561779,603645,63,-39,1013,0
20569,561364,603075,66,-37,1013,0
21352,561472,603480,67,-36,1023,0
21073,560989,603354,71,-36,1033,0
20620,559396,602039,71,-36,1002,0
20345,556899,599956,63,-39,1002,0
21078,555194,598694,72,-39,1013,0
21316,553596,597410,72,-35,1016,0
20470,550552,595691,58,-35,1016,0
20266,548599,594043,67,-35,1038,0
21115,547357,593319,75,-38,1020,0
21043,546110,592336,75,-35,1020,0
20654,545279,592113,69,-37,1029,0
20160,542148,589473,72,-37,1008,0
21128,541152,589141,72,-33,1026,0
20925,540511,588449,75,-34,1026,0
20503,540103,588480,78,-34,1021,0
20082,539064,587577,78,-36,1023,0
20009,537448,586568,71,-31,1023,0
20868,537326,586370,70,-31,1008,0
20326,537338,586709,70,-35,1011,0
19919,536931,586069,64,-39,1011,0
20004,536550,585718,72,-36,1021,0
20834,537885,586802,74,-36,1001,0
20323,538751,587608,74,-44,1029,0
19908,539182,587658,69,-39,1029,0
20004,539353,587645,63,-39,1013,0
20909,540452,589001,63,-39,1001,0
20853,542060,590091,72,-35,1001,0
20084,542137,590090,72,-35,1002,0
20199,542319,589950,75,-38,1030,0
20990,543295,590881,75,-37,1030,0
20841,544024,591245,69,-36,997,0
20369,544796,591887,65,-36,1014,0
20177,545047,591774,65,-33,1024,0
21055,545875,592909,63,-35,1024,0
20991,546699,593249,77,-35,1043,0
20314,547305,593814,77,-35,1020,0
20208,547458,593696,78,-39,1020,0
21136,548701,594846,69,-39,1027,0
21078,549551,595252,69,-37,1027,0
20328,550163,595900,62,-34,1027,0
20260,550207,595636,73,-36,1005,0
20305,550700,597008,65,-36,1024,0
21099,552464,597324,65,-36,1007,0
20352,553013,597657,69,-30,1007,0
20244,553147,597776,69,-30,1018,0
20446,553126,597862,69,-35,1026,0
21219,554433,599250,67,-42,1026,0
20365,555566,599645,73,-42,1021,0
20309,555579,599530,73,-43,1029,0
20461,555667,599579,72,-39,1029,0
21382,556794,600741,71,-41,1027,0
21163,557531,601507,72,-41,1029,0
20341,557950,601446,72,-45,1026,0
20614,558190,601412,69,-39,1026,0
21400,559249,602702,69,-39,999,0
21230,559960,602967,69,-35,1026,0
20386,560350,603355,67,-39,1026,0
20776,560526,603182,72,-39,1041,0
21528,561585,604611,72,-36,1018,0
21364,562240,604521,69,-40,1018,0
20488,562529,604630,67,-30,1029,0
20693,562296,604716,63,-30,1024,0
21661,563519,606004,63,-34,1029,0
21305,564045,606046,66,-38,1029,0
20572,564337,606208,61,-38,1032,0
20675,564239,606137,61,-42,1014,0
21026,564673,606220,69,-34,1014,0
21305,566193,607505,80,-34,1021,0
20533,566409,607495,71,-37,1020,0
20714,566247,607508,71,-34,1020,0
21032,566533,607525,67,-35,1017,0
21594,567729,608866,65,-35,1007,0
20546,567909,608615,65,-38,1020,0
20809,567684,608510,71,-33,1020,0
20921,567650,608353,75,-33,1038,0
21547,568228,609064,75,-36,1030,0
21176,568071,608770,75,-36,1030,0
20802,565509,606850,66,-35,1027,0
20911,563871,605631,71,-35,1035,0
21448,562465,604947,71,-38,1035,0
21035,560612,603558,72,-38,1007,0
20271,558536,601814,65,-33,1011,0
20928,554625,598834,65,-32,1029,0
21153,553838,598968,78,-38,1029,0
20779,552469,597668,75,-38,1010,0
20143,550781,596338,75,-45,1035,0
20531,549149,595234,81,-38,1035,0
20921,547197,594025,67,-38,1021,0
20476,546166,593137,67,-36,1040,0
19901,544613,591925,66,-43,1018,0
20495,543370,590957,66,-33,1018,0
20786,542480,590283,73,-33,1020,0
20942,541793,590249,73,-40,1011,0
19759,540960,589435,73,-36,1011,0
20557,540286,588871,64,-36,1010,0
20701,540109,588611,64,-38,1030,0
20826,541075,589675,74,-30,1030,0
20331,541063,589547,72,-30,1002,0
20565,541508,589979,72,-41,1038,0
20861,542202,590294,72,-38,1038,0
20918,543632,591745,65,-38,1026,0
20223,544354,592027,72,-36,1011,0
19961,544790,592189,72,-41,1014,0
20861,545511,592650,72,-36,1014,0
20894,546756,593915,69,-36,1026,0
20392,547251,594058,69,-43,1024,0
20000,547304,593757,71,-46,1024,0
20882,548239,594425,69,-46,1020,0
21076,549207,595518,73,-34,1017,0
20519,549457,595518,73,-44,1021,0
20134,549465,595395,75,-44,1021,0
21086,549933,595824,63,-43,1033,0
21059,550840,597482,63,-43,1017,0
20428,551908,597255,66,-43,1017,0
20174,551784,596843,70,-43,1016,0
20992,552162,597253,70,-38,1013,0
21068,552865,597701,75,-33,1013,0
21146,553798,598661,77,-33,1026,0
20284,553958,598364,70,-37,1016,0
21168,554374,598881,70,-30,1016,0
21237,554988,598973,64,-30,1040,0
21080,556035,600060,64,-35,1043,0
20478,555986,599647,75,-39,1011,0
21165,556328,600150,80,-37,1011,0
21171,556916,600210,67,-37,1029,0
21070,557800,601337,67,-32,999,0
20478,557801,601308,65,-39,999,0
20376,557608,601533,69,-39,1032,0
21336,558438,601501,69,-45,1030,0
21005,559208,602514,78,-33,1030,0
20484,559472,602494,74,-33,1018,0
20423,559274,602138,74,-36,1021,0
21386,559879,602854,66,-32,1018,0
21049,561144,603725,72,-36,1018,0
20537,561072,603644,71,-36,1023,0
20506,560991,603314,71,-42,1020,0
21592,561600,603899,72,-40,1020,0
21404,562269,604296,69,-40,1024,0
20583,562638,604674,69,-26,1011,0
20517,562432,604251,65,-42,1011,0
21589,562921,604940,75,-42,1056,0
21503,563279,605002,70,-36,1018,0
21030,564059,605860,70,-40,1030,0
20645,563586,605122,73,-38,1030,0
21530,564164,605978,64,-38,1016,0
21487,564671,606131,64,-39,1021,0
21084,565375,606780,78,-39,1021,0
20599,565318,606515,81,-39,1002,0
21575,565674,606922,77,-38,1016,0
21426,566010,606936,77,-37,1029,0
21090,566494,607592,75,-37,1029,0
20701,566263,607232,64,-34,1011,0
20703,565959,606787,64,-36,1014,0
21468,565976,606907,69,-33,1014,0
20944,565861,606778,78,-33,1021,0
20708,564556,605841,78,-33,1020,0
20683,562764,604534,72,-31,1020,0
21511,561571,603680,72,-31,1020,0
20903,557605,600890,75,-31,1033,0
20524,554847,598813,75,-29,1033,0
20579,552668,596959,81,-29,1018,0
21493,551374,596533,81,-36,1020,0
21250,549927,595474,62,-40,1011,0
20289,546235,592537,64,-44,1011,0
20343,544506,591070,71,-44,1030,0
21228,543555,590723,71,-30,1020,0
20963,542322,589642,65,-29,1020,0
20277,541339,588967,69,-29,1018,0
20145,538287,586682,63,-27,1021,0
21064,537729,586647,63,-32,1023,0
20962,537329,586055,67,-32,1023,0
20156,536723,585855,74,-39,1010,0
19991,535809,585044,74,-30,1032,0
20191,535521,585203,74,-39,1032,0
20809,535760,584970,70,-39,1013,0
20088,535988,585304,70,-31,1027,0
20060,535805,585126,69,-35,1027,0
20236,536331,585393,66,-35,1017,0
21036,538407,587172,66,-36,1037,0
20059,539099,587673,67,-44,1037,0
20187,539325,587601,73,-31,1026,0
20399,539712,587911,78,-31,1020,0
21042,540938,589212,78,-38,1027,0
20867,542436,590063,77,-39,1027,0
20221,542276,589954,66,-39,1021,0
20476,542733,590041,66,-38,1011,0
21124,543784,591400,72,-36,1011,0
20855,544649,591586,64,-36,1018,0
20207,545268,591719,64,-42,1017,0
20573,545138,591942,63,-39,1017,0
21217,546210,593258,64,-37,1026,0
20890,546772,593390,66,-37,1014,0
20224,547023,593239,66,-36,1023,0
20312,547218,593564,69,-29,1023,0
21359,548684,594657,74,-29,1041,0
20953,549061,594747,74,-36,1014,0
20188,549178,594824,75,-40,1014,0
20487,549369,594854,66,-40,1005,0
20807,549779,596395,66,-37,1011,0
21091,551469,596598,69,-39,1011,0
20249,551411,596530,70,-39,1035,0
20514,551445,596464,70,-41,1010,0
20622,551802,596663,70,-38,1008,0
21415,552946,597909,73,-35,1008,0
20210,553596,597950,69,-35,1021,0
20535,553783,598085,69,-37,1018,0
20841,554053,598356,69,-39,1018,0
21418,555165,599509,71,-39,1033,0
21029,555890,599547,66,-41,1014,0
20663,555849,599580,66,-38,1026,0
20980,556124,599805,72,-38,1026,0
21475,557020,600952,75,-41,1018,0
20969,557598,601190,75,-38,1030,0
20332,557788,601098,71,-31,1030,0
21073,558070,601108,67,-31,1008,0
21347,559144,602315,67,-39,1018,0
20902,559662,602729,72,-34,1018,0
20318,559647,602383,77,-34,1017,0
20796,559934,602654,74,-37,1016,0
21443,561348,604048,74,-42,1016,0
20893,561724,604084,75,-42,1026,0
20283,561687,603905,75,-33,1020,0
20983,561776,603890,66,-40,1023,0
21277,562209,604270,75,-39,1023,0
20961,563564,605417,72,-39,1024,0
20435,563473,605067,72,-39,1032,0
21130,563422,605211,75,-36,1032,0
21298,563916,605360,66,-36,1027,0
21503,564946,606654,66,-32,1007,0
20372,564906,606340,74,-36,1007,0
21183,564967,606267,63,-39,1010,0
21324,564968,606172,63,-39,1024,0
21442,565549,606979,63,-33,1017,0
20905,565417,606678,75,-37,1017,0
21118,563087,604800,71,-37,1017,0
21249,561712,603657,71,-43,1018,0
21199,560337,603163,69,-36,1018,0
20600,558201,601351,67,-36,1030,0
20174,555802,599492,63,-42,1002,0
20946,552336,597006,63,-32,1011,0
21007,551429,596596,66,-32,1011,0
20386,549870,595261,69,-38,1021,0
20027,547746,593721,69,-35,1026,0
20785,546359,592870,66,-41,1026,0
20818,544271,591606,76,-41,1017,0
20214,543139,590477,76,-36,1008,0
19852,541294,589148,77,-39,1008,0
20709,540411,588581,75,-39,1018,0
20720,539716,587928,66,-39,1024,0
20642,538736,587377,66,-31,1024,0
19738,537483,586366,64,-31,1024,0
20626,537118,586228,71,-41,1002,0
20684,537203,585989,71,-33,1050,0
20639,537813,586899,72,-40,1050,0
19984,537525,586341,67,-40,1018,0
20683,538132,586906,67,-37,1023,0
20783,538844,587243,71,-36,1023,0
20672,540117,588698,66,-36,999,0
20008,540661,588956,66,-33,1038,0
19975,541547,589561,73,-40,1038,0
20846,542316,590065,63,-40,1017,0
20608,543583,591238,63,-37,1018,0
20131,543992,591379,73,-45,1021,0
20068,544145,591249,69,-45,1021,0
20908,545416,592285,73,-45,985,0
20621,546516,593312,73,-36,1014,0
20156,546815,593177,70,-38,1014,0
20106,546729,592888,73,-38,1023,0
21084,547317,593625,73,-36,1030,0
21003,548329,595039,70,-34,1030,0
20176,549162,595041,70,-31,1016,0
20204,549260,594839,70,-31,1018,0
21269,549911,595726,72,-38,1029,0
21065,550907,596116,69,-36,1029,0
20620,551675,596958,69,-36,1016,0
20293,551837,596744,69,-40,1024,0
21291,552701,597835,71,-30,1024,0
21180,553467,598211,69,-30,1014,0
20688,554394,599209,69,-45,1033,0
20349,554693,598793,72,-36,1033,0
21172,555466,599727,72,-36,1011,0
21181,556258,600123,75,-40,1030,0
20699,556932,600801,75,-39,1023,0
20360,556893,600753,54,-39,1023,0
20480,557058,601407,67,-39,1021,0
21250,558277,601743,67,-39,1035,0
20771,559124,602432,66,-36,1035,0
20513,559144,602488,70,-36,1026,0
20509,559155,602213,66,-36,1024,0
21357,560392,603315,66,-39,1033,0
20826,561238,604040,66,-39,1033,0
20467,561332,603889,75,-36,1020,0
20592,561295,603817,75,-40,1024,0
21546,562176,604815,65,-45,1024,0
21340,562813,605209,75,-45,1021,0
20492,563315,605460,75,-40,1004,0
20551,563380,605337,69,-42,1004,0
21539,564279,606492,66,-42,1008,0
21386,564974,606654,71,-30,1017,0
20657,565729,607200,71,-39,1017,0
20723,565722,606972,72,-39,1021,0
21681,566649,608103,72,-39,1017,0
21456,567171,608356,72,-32,1027,0
20701,567586,608845,72,-31,1027,0
20708,567487,608732,75,-31,1030,0
21805,568409,609500,75,-45,1011,0
21488,568748,609689,76,-37,1011,0
20812,568942,609882,72,-37,1032,0
20768,568238,609200,72,-39,1013,0
20991,567903,608767,74,-30,1013,0
21425,566537,608019,72,-41,1007,0
20651,564875,606776,72,-41,1026,0
20693,562216,604785,69,-36,1032,0
20826,559925,602960,74,-33,1032,0
21541,558672,602413,72,-33,1014,0
20467,555223,599750,72,-33,1002,0
20481,553231,598291,71,-39,1002,0
20676,551515,596920,72,-39,1033,0
21464,550524,597016,72,-34,1026,0
20995,549522,596056,61,-39,1026,0
20427,546388,593582,74,-43,1010,0
20674,545099,592531,74,-43,1024,0
21296,544877,592845,74,-30,1005,0
20983,543927,591934,76,-33,1005,0
20091,543051,591149,75,-33,1017,0
20415,541094,589656,75,-33,1021,0
21290,541319,590426,72,-29,1021,0
20989,540954,590029,73,-29,1017,0
20161,540615,589573,73,-45,1020,0
20515,540253,589401,75,-38,1029,0
20696,541568,590402,73,-38,1029,0
20984,542077,590678,73,-37,1002,0
20168,542315,591002,75,-36,1005,0
20438,542611,591234,71,-45,1005,0
20509,543580,591714,81,-45,1026,0
21231,545768,593533,81,-37,1020,0
20141,546248,593880,72,-32,1020,0
20637,546517,594008,71,-32,1026,0
20820,547212,594417,71,-35,1033,0
21343,548674,595867,72,-31,1033,0
20957,549227,595930,61,-31,1014,0
20634,549447,595895,61,-31,1033,0
20923,549810,596085,73,-36,1011,0
21394,550866,597412,64,-39,1011,0
20921,551610,597666,76,-39,1014,0
20318,551701,597790,76,-32,1010,0
21169,552099,597778,71,-42,1010,0
21519,553236,599047,66,-42,1018,0
20961,553685,599070,66,-41,1044,0
20352,553640,598979,70,-36,1044,0
20979,553617,599101,72,-39,1014,0
21488,555331,600415,72,-39,1026,0
21080,555635,600576,72,-39,1026,0
20461,555679,600230,66,-37,1026,0
21170,555596,600311,62,-37,1026,0
21410,556184,601799,62,-39,1002,0
20936,557461,601941,77,-36,1002,0
20427,557364,601480,75,-36,1017,0
21243,557732,601849,75,-43,1030,0
21413,558187,601975,72,-39,1030,0
21530,559291,603204,71,-39,1014,0
20447,559423,602785,66,-36,1024,0
21346,559568,603015,66,-34,1024,0
21442,559875,603162,75,-39,1024,0
21466,560890,604366,74,-39,1041,0
20922,561431,604490,74,-36,1017,0
21366,561012,604152,80,-41,1017,0
21481,561268,604219,69,-41,1013,0
21560,562392,605565,69,-39,1007,0
20947,562595,605295,69,-32,1023,0
20622,562376,604952,75,-42,1023,0
21606,562943,605277,75,-42,1017,0
21594,563815,606358,72,-37,1021,0
20927,563924,606169,69,-40,1021,0
20770,563668,605699,78,-40,1030,0
21555,563983,606143,78,-36,1041,0
21568,565343,607376,59,-33,1041,0
20895,565333,607110,69,-33,1026,0
20723,565001,606768,69,-33,1027,0
21550,565406,607055,59,-43,1027,0
21723,565955,607332,73,-34,1024,0
20876,566442,607834,73,-34,997,0
20646,565951,607288,63,-41,1005,0
21546,565931,607431,70,-34,1005,0
21671,565997,607261,72,-34,1021,0
21507,566340,607881,72,-37,1018,0
20693,563535,605421,80,-38,1018,0
21363,562154,604632,75,-38,1020,0
21495,560530,603149,75,-38,1008,0
21301,559105,602583,63,-35,1008,0
20620,557098,600831,66,-35,1032,0
21250,552771,597624,66,-36,1021,0
21389,551043,596385,75,-36,1033,0
20948,550096,595949,74,-37,1033,0
20442,548126,594328,71,-37,1001,0
20323,546017,592568,71,-31,1032,0
21245,543590,590932,73,-36,1032,0
20767,542623,590594,72,-36,1001,0
20245,541026,589234,72,-39,1030,0
20319,539334,587849,69,-29,1044,0
21352,538547,587524,78,-29,1044,0
21121,537481,586698,78,-35,1005,0
20296,536320,585889,73,-33,1004,0
20336,535364,584854,70,-36,1004,0
21316,535315,585307,66,-36,1032,0
21161,535466,585265,66,-39,1033,0
20532,535553,585434,72,-37,1033,0
20342,535425,585213,74,-37,1017,0
21151,536446,586058,74,-38,1017,0
21091,537529,586781,66,-33,1014,0
20601,538574,587718,66,-33,1014,0
20345,538908,587579,71,-42,1011,0
21309,540108,588699,71,-37,1021,0
21208,540782,589077,78,-39,1021,0
20635,541540,589870,70,-39,997,0
20382,541804,589861,70,-30,1024,0
20454,542793,590787,73,-40,1024,0
21266,543339,590956,64,-40,1020,0
20717,544055,591609,64,-35,1029,0
20510,544013,591469,72,-44,1029,0
20482,543938,591286,75,-44,1016,0
21445,545304,592565,75,-38,1024,0
20754,546257,593190,80,-29,1008,0
20546,546156,593000,72,-40,1008,0
20480,546303,592780,72,-40,1016,0
21459,547242,593940,72,-27,1021,0
21393,547981,594666,67,-39,1021,0
20557,548327,594496,66,-39,1013,0
20534,548426,594229,66,-38,997,0
21577,549289,595261,69,-36,997,0
21385,549972,595551,72,-35,1033,0
20684,550603,595749,72,-35,1021,0
20635,550346,595778,81,-33,994,0
21603,551317,596863,76,-34,994,0
21422,551860,596974,73,-34,1016,0
20675,552335,597485,73,-42,1013,0
20552,552364,597122,77,-36,1013,0
21708,553474,598365,71,-36,1026,0
21524,553951,598593,71,-35,1013,0
20706,554298,598704,71,-39,1013,0
20698,553952,598598,72,-35,1014,0
20889,554423,599413,72,-35,1027,0
21435,555538,599568,67,-38,1030,0
20629,555846,599696,63,-31,1030,0
20694,555497,599582,75,-31,1020,0
20952,555727,599521,75,-37,1024,0
21712,556769,600848,69,-39,1024,0
20736,557332,600865,77,-39,1017,0
20837,557234,600610,77,-36,1017,0
21092,557288,600600,66,-39,1017,0
21778,558108,601786,76,-37,1024,0
21475,558811,601882,67,-37,1005,0
20789,558493,601684,67,-37,1035,0
21264,558593,601685,69,-29,1035,0
21792,559682,602952,75,-29,1017,0
21537,559957,602989,75,-39,1018,0
20674,559912,602860,75,-39,1018,0
21181,560043,602382,77,-39,1016,0
21722,560941,603461,77,-34,1010,0
21508,560995,603357,70,-36,1010,0
20665,560940,603179,77,-36,1020,0
20892,560694,603112,80,-39,1023,0
21709,560465,603183,80,-36,1021,0
21283,559800,602468,66,-41,1021,0
20551,558562,601428,70,-41,1029,0
20831,556915,600314,70,-32,1013,0
20911,555308,598900,75,-34,1013,0
21074,551746,596692,66,-34,1011,0
20300,549522,594766,66,-32,1017,0
20646,547547,593352,76,-42,1013,0
20796,545838,591870,74,-42,1013,0
21253,544645,591668,74,-39,1038,0
20107,541380,588864,72,-37,1023,0
20507,539476,587589,73,-36,1023,0
20837,537993,586331,74,-36,1005,0
20955,537415,586208,74,-24,1021,0
20507,536172,585179,73,-33,1021,0
19856,533142,583008,74,-33,1017,0
20751,532205,582110,74,-40,1005,0
20738,532136,582617,73,-36,1017,0
20309,531416,581946,66,-36,1017,0
19803,530649,581299,66,-36,1007,0
20414,529853,580444,69,-36,1033,0
20835,530842,581655,75,-41,1033,0
20220,530951,581636,75,-41,1030,0
19804,530903,581509,75,-39,1010,0
20538,531440,581920,66,-32,1010,0
20626,533477,583774,70,-32,1027,0
20306,534065,584013,70,-39,1021,0
19715,534150,583947,66,-33,999,0
20613,534780,584202,73,-38,999,0
20617,535501,584774,73,-38,1046,0
20693,537294,586411,63,-39,1027,0
19906,537341,586453,71,-42,1027,0
20590,537779,586689,73,-42,1010,0
20664,538311,586718,73,-31,1021,0
20845,539659,588186,84,-38,1021,0
20435,540296,588140,75,-38,1005,0
20652,540617,588570,75,-37,1016,0
20774,541109,588867,70,-33,1027,0
20856,542362,590045,69,-38,1027,0
20274,542642,590346,69,-38,1033,0
19982,542700,590470,72,-38,1018,0
20867,543730,590733,67,-49,1018,0
20843,544737,591908,73,-49,1018,0
20392,544966,591814,73,-33,1021,0
20099,544995,591494,69,-45,1021,0
20865,545649,592369,66,-45,1035,0
21009,546956,593515,66,-34,1005,0
20331,547221,593543,81,-40,1026,0
20049,547044,593230,69,-33,1026,0
20966,547563,593823,69,-33,1017,0
20958,548548,595310,73,-30,1017,0
20406,549708,595256,80,-32,1030,0
20182,549557,595000,71,-32,1032,0
20970,550017,595458,71,-38,1024,0
21101,550876,595765,71,-40,1024,0
20936,551979,597278,75,-40,1016,0
20325,551926,596908,75,-35,1029,0
21016,552461,597409,72,-39,1007,0
21174,553029,597470,72,-33,1007,0
20882,554051,598732,72,-33,1021,0
20394,554419,598713,72,-36,1021,0
21121,554493,598817,81,-36,1038,0
21299,554912,599066,74,-36,1029,0
20997,555916,599845,74,-34,999,0
20538,556093,599868,71,-36,999,0
20425,555896,599654,80,-36,1008,0
21329,557008,600562,80,-36,1037,0
20980,557810,601508,71,-41,1037,0
20507,558000,601490,74,-41,1020,0
20589,557758,601041,74,-38,1024,0
21619,558380,601761,73,-39,1024,0
20969,559755,602856,72,-40,1013,0
20605,559757,602608,71,-40,1030,0
20605,559525,602209,71,-42,1016,0
21669,560057,603032,70,-35,1016,0
21530,560640,603459,73,-35,1023,0
20643,560853,603535,73,-34,1020,0
20787,560497,602925,74,-39,1020,0
21601,560637,603254,69,-39,1037,0
21475,560504,602977,69,-29,1035,0
21033,560115,603217,72,-34,1035,0
20665,556397,599964,71,-41,1038,0
21437,554701,599201,80,-41,1023,0
21279,552783,597580,80,-36,993,0
20851,551076,596352,69,-38,993,0
20420,548811,594805,75,-38,1030,0
21229,545661,592619,75,-39,1018,0
21147,544177,591396,72,-39,1018,0
20449,542930,590697,67,-39,1020,0
20282,541291,589317,78,-35,1032,0
20128,539486,587739,78,-41,1023,0
21036,537459,586355,69,-40,1023,0
20385,536453,585946,80,-40,1011,0
20049,534948,584791,80,-36,1010,0
20031,533438,583474,67,-39,1010,0
21026,533254,583668,69,-39,1020,0
20861,532175,582906,69,-41,1014,0
19954,531286,582193,74,-48,1014,0
20056,530717,581636,69,-48,1024,0
20938,531385,582517,75,-40,1029,0
20877,531940,582773,75,-36,1024,0
20116,532559,583258,76,-39,1024,0
20186,532782,583405,70,-39,1023,0
21089,534144,584745,70,-27,1021,0
20971,535083,585177,72,-35,1021,0
20174,535904,585954,67,-35,1024,0
20138,536413,585932,67,-34,1017,0
21077,537688,587223,74,-41,1017,0
20893,538281,587490,71,-41,1001,0
20230,538783,588042,75,-30,1035,0
20110,539034,588007,75,-49,1029,0
20406,540586,589429,69,-39,1029,0
20952,541220,589749,66,-39,1033,0
20162,541690,590155,66,-39,1029,0
20224,541615,590007,74,-31,1029,0
20548,542079,590162,66,-31,1013,0
21271,543544,591798,66,-39,1018,0
20237,544261,592174,69,-37,1018,0
20511,544415,592068,78,-37,1041,0
20570,544862,592192,78,-44,1017,0
21419,545772,593453,76,-35,1027,0
21007,546364,593959,72,-35,1027,0
20452,546769,593935,67,-35,1024,0
20797,547270,594161,67,-33,1030,0
21334,548469,595652,76,-36,1030,0
20964,548966,595654,75,-36,999,0
20224,549293,595853,75,-42,1002,0
20908,549691,595882,65,-35,1002,0
21419,550669,597197,75,-35,1032,0
21090,551250,597421,66,-41,1021,0
20394,551498,597360,66,-38,1008,0
20657,551624,597437,70,-37,1008,0
21544,552877,598652,73,-37,1017,0
21172,553442,598880,73,-36,1027,0
20380,553508,598823,73,-33,1027,0
20760,553585,599089,69,-33,1027,0
20923,554124,599269,69,-30,1027,0
21077,555577,600594,76,-32,1027,0
20403,555640,600497,78,-32,1024,0
20722,555626,600474,78,-31,1017,0
20953,555923,600722,69,-38,1017,0
21567,557054,601906,75,-42,1037,0
20494,557316,601801,69,-42,1016,0
20892,557487,601907,69,-39,1008,0
21065,557660,601828,71,-38,1008,0
21672,558756,603185,64,-38,1005,0
21222,559192,603341,64,-34,1020,0
20899,559060,603006,67,-31,1020,0
21334,559210,603079,69,-31,1024,0
21608,560192,604264,69,-33,1024,0
21069,560616,604248,70,-35,1024,0
20495,560651,604212,73,-32,1030,0
21416,560744,604072,70,-32,1024,0
21722,561416,605081,70,-39,1029,0
21157,561497,604988,54,-40,1029,0
20504,560524,604071,75,-40,1018,0
21110,559805,603569,75,-36,1004,0
21415,557412,602180,74,-34,1004,0
20942,555132,600320,72,-42,1014,0
20352,552480,597859,76,-42,1021,0
20962,549945,596318,76,-34,1021,0
21157,548009,594669,76,-31,1018,0
20665,544803,592580,78,-31,1023,0
20133,542531,590828,78,-27,1023,0
20872,540633,589578,69,-38,1023,0
20969,539165,588346,70,-38,1021,0
21024,538207,588258,70,-32,1035,0
19982,534791,585096,70,-39,1035,0
20770,533187,584255,78,-41,1021,0
20805,531988,583240,69,-41,1004,0
20882,531644,583177,69,-33,1004,0
20313,530601,582451,77,-38,1029,0
19915,528208,580585,66,-38,1008,0
20721,527823,580180,66,-39,1026,0
20817,528218,580922,73,-36,1026,0
20260,527928,580565,73,-36,1027,0
19921,527390,580053,73,-36,1004,0
20704,528068,580695,72,-30,1004,0
20855,529419,581826,72,-33,1017,0
20295,529954,582135,71,-33,1040,0
20009,530027,582102,71,-37,1040,0
20802,530862,582746,71,-37,1014,0
20791,532936,584624,74,-37,1004,0
20232,533412,584716,74,-38,1013,0
20181,533470,584734,72,-34,1013,0
20895,533962,585246,75,-34,1007,0
21010,534960,585865,75,-32,1024,0
20971,536331,586769,72,-33,1024,0
20197,536297,586491,71,-33,1016,0
20983,536691,587067,71,-38,1027,0
20976,537366,587217,75,-45,1035,0
20973,538438,588315,75,-45,1035,0
20408,539067,588220,65,-39,1004,0
21053,538953,588634,65,-39,1021,0
21230,539703,589001,76,-34,1021,0
20953,540588,590178,72,-34,1040,0
20412,541054,590196,72,-36,1029,0
20287,540956,590488,77,-37,1029,0
21194,541933,590773,78,-37,1013,0
21046,542933,591800,78,-35,1020,0
20451,543212,591888,78,-30,1020,0
20362,542877,591454,75,-30,1020,0
21291,543691,592365,72,-41,1029,0
21017,544978,593316,72,-38,1023,0
20471,545148,593249,72,-34,1023,0
20466,544915,592962,72,-34,1020,0
21489,545566,593544,72,-41,1014,0
21379,546161,594588,71,-36,1014,0
20512,546892,594413,71,-36,1017,0
20496,546667,594083,71,-37,1029,0
21541,547339,594734,71,-33,1029,0
21459,547980,595075,77,-33,1008,0
21028,548850,595715,67,-45,1011,0
20588,548447,595374,67,-42,1027,0
21529,549038,596217,81,-28,1027,0
21455,549563,596622,81,-28,1030,0
21055,550221,597147,81,-29,1035,0
20557,550331,596975,69,-32,1035,0
21678,550648,597131,71,-32,1021,0
21483,551108,597467,71,-43,1023,0
21012,551614,598113,76,-43,1004,0
20688,551590,597807,77,-43,1004,0
20788,551420,597575,67,-31,1030,0
21588,552536,598481,67,-36,1037,0
21004,553043,599274,69,-36,1037,0
20674,552927,598887,74,-36,1026,0
20768,552800,598502,74,-30,1027,0
21562,553473,599427,70,-32,1027,0
20963,554389,599795,75,-32,1004,0
20822,554016,599502,75,-27,1033,0
20884,553738,599150,69,-38,1033,0
21682,553994,599709,72,-31,1011,0
21672,553872,599578,72,-31,1041,0
20723,552195,598177,72,-38,1011,0
20685,550446,596889,76,-36,1011,0
21476,549069,596096,75,-36,1035,0
21421,546918,594323,75,-42,1016,0
20674,545177,592988,73,-38,1016,0
20437,539950,589075,71,-38,1018,0
21392,538424,588274,80,-34,1011,0
21178,536833,586804,80,-39,1011,0
20484,535172,585827,73,-42,1018,0
20192,533104,584090,83,-42,1038,0
21259,529935,582026,83,-32,1010,0
20922,528535,580861,73,-31,1010,0
20094,527164,579901,70,-31,1023,0
20129,525449,578498,70,-28,1043,0
20250,523928,577236,72,-31,1043,0
21096,522523,576252,77,-31,1017,0
20063,521470,575906,72,-31,1033,0
20097,520397,574811,72,-35,1033,0
20228,519731,574210,69,-39,1010,0
20993,520057,574901,73,-39,1023,0
20776,520094,574837,73,-39,1008,0
20028,519965,574806,69,-36,1008,0
20245,520320,574918,75,-36,1005,0
21005,521505,576104,75,-35,1023,0
20732,522443,576661,70,-33,1023,0
20156,523618,577301,70,-33,1004,0
20253,524057,577638,70,-32,1021,0
21066,525238,579130,75,-38,1021,0
20791,526251,579513,78,-38,1024,0
20078,526883,579735,72,-39,1010,0
20135,527249,580057,72,-39,1035,0
21206,528426,581486,69,-42,1035,0
20861,528982,581605,72,-42,1010,0
19998,529450,581794,72,-37,1020,0
20255,529669,581901,69,-27,1020,0
20648,531119,583372,78,-27,1021,0
20859,531505,583264,78,-39,1014,0
20071,531659,583282,70,-39,1014,0
20385,531614,583199,75,-39,1014,0
20734,532047,583290,72,-31,1030,0
21237,533262,584540,72,-30,1035,0
20274,533828,584699,70,-36,1035,0
20470,533863,584650,84,-36,1021,0
20684,534303,585052,84,-36,1035,0
21243,535462,586244,82,-32,1035,0
20989,536217,586487,77,-32,996,0
20579,536312,586541,77,-36,1004,0
20656,536808,586784,81,-32,1008,0
21297,537885,587983,72,-32,1008,0
20978,538412,587981,89,-39,1024,0
20262,538587,588087,89,-44,1016,0
20726,538722,588183,78,-36,1016,0
21233,539753,589309,85,-36,1008,0
20903,540250,589395,85,-41,1021,0
20264,540347,589319,73,-39,1021,0
20621,540536,589399,74,-39,1021,0
21307,541769,590754,74,-30,1020,0
20868,542265,590825,70,-37,1026,0
20219,542212,590578,78,-45,1026,0
20625,542244,590728,69,-45,1035,0
20912,542781,590976,69,-32,1027,0
20822,543877,592130,73,-39,1027,0
20410,543778,592014,73,-39,1011,0
20819,543874,592041,73,-39,1037,0
21149,544185,592173,72,-37,1037,0
21445,545253,593278,73,-37,1014,0
20424,545548,593190,73,-34,1020,0
21004,545639,593286,77,-34,1020,0
21188,545872,593266,72,-34,1032,0
21314,546734,594532,72,-39,1017,0
20839,547127,594619,72,-38,1020,0
21040,546734,593994,75,-28,1020,0
21203,547209,594145,78,-28,999,0
21425,548258,595322,78,-37,1021,0
20853,548346,595316,73,-27,1021,0
20375,548118,594834,72,-27,1021,0
21074,547375,594279,72,-34,1021,0
21322,547492,594735,71,-36,1017,0
20765,546621,593929,77,-36,1017,0
20209,544718,592342,71,-37,1021,0
20956,542718,590935,71,-33,1027,0
21056,538830,588280,76,-28,1027,0
20443,536745,586669,72,-28,1024,0
20075,534244,584670,72,-24,1007,0
20733,532181,583290,70,-30,1007,0
20733,530668,581906,75,-30,1016,0
20160,527762,580058,84,-39,1004,0
19861,525681,578070,84,-36,1018,0
20608,523904,576992,81,-36,1018,0
20535,522660,575980,69,-32,1041,0
20612,522078,575868,69,-36,1020,0
19602,518738,573134,83,-36,1020,0
20478,517750,572424,76,-36,1020,0
20467,517151,571991,76,-33,1008,0
20520,516991,572164,73,-29,1008,0
19960,516451,571517,67,-29,1032,0
19613,515084,570529,69,-33,1030,0
20605,515509,570769,69,-36,1030,0
20524,516294,571775,78,-36,1026,0
19957,516448,571844,75,-39,1027,0
19653,516605,571871,75,-33,1032,0
20541,518105,572963,81,-36,1032,0
20483,519401,574167,71,-36,1030,0
19989,519878,574384,71,-35,1033,0
19767,519958,574111,78,-28,1033,0
20646,520759,574864,77,-28,999,0
20631,522433,576285,77,-43,1035,0
19939,522957,576445,69,-36,1035,0
19864,522865,576401,76,-32,1002,0
20608,523501,576873,74,-32,1033,0
20740,524271,577264,74,-36,1029,0
20531,525741,578568,74,-39,1029,0
20005,525747,578305,76,-39,1023,0
20726,526435,579051,76,-37,1024,0
20837,526993,579340,77,-38,1024,0
20591,528013,580337,74,-38,1026,0
20077,528705,580284,74,-32,1021,0
21080,529077,581086,72,-35,1005,0
20909,529818,581486,81,-35,1005,0
20615,530946,582564,81,-35,1016,0
20099,531224,582582,70,-41,1002,0
20114,531140,582985,66,-36,1002,0
21011,532560,583525,77,-36,1020,0
20651,533686,584438,77,-36,1016,0
20198,533622,584362,73,-39,1016,0
20249,533672,584159,78,-39,1016,0
21254,534499,585594,78,-35,1035,0
20674,536049,586388,72,-38,1035,0
20265,536066,586080,78,-36,1010,0
20335,536201,585953,78,-36,1020,0
21179,536907,586888,72,-37,1010,0
21083,537803,588081,72,-34,1010,0
20279,538335,587895,71,-34,1016,0
20340,538371,587672,71,-34,1011,0
21205,539222,588614,75,-37,1011,0
21166,539998,588885,66,-37,1023,0
20597,540661,589338,66,-38,1010,0
20454,540373,589203,75,-41,1010,0
21163,541106,590170,72,-41,1018,0
21257,541808,590411,72,-30,1013,0
20778,542372,590985,71,-39,1040,0
20430,542496,590764,71,-36,1040,0
21392,543139,591549,67,-36,1013,0
21333,543603,591751,67,-39,1026,0
20791,544374,592246,66,-37,1026,0
20504,544196,592127,66,-37,1018,0
20536,544438,592011,66,-45,1029,0
21279,545500,593155,74,-39,1027,0
20654,546026,593628,69,-39,1027,0
20380,545886,593484,69,-32,1024,0
20498,545648,593071,75,-31,1029,0
21385,546327,593824,80,-36,1029,0
20655,545687,593504,78,-36,1030,0
20478,544539,592334,78,-32,1020,0
20419,542567,590733,74,-41,1020,0
21391,540818,589824,78,-41,1021,0
21131,538814,588095,78,-44,1026,0
20189,533923,584489,75,-36,1027,0
20266,531711,582660,70,-36,1027,0
21131,530286,582118,83,-36,1016,0
20995,528756,580878,83,-30,1023,0
20189,527362,579918,76,-36,1023,0
20221,523524,577017,70,-36,1007,0
21047,522688,576684,70,-36,1018,0
20703,521710,575853,77,-39,1018,0
20003,520582,575019,75,-39,1008,0
19917,518946,573846,75,-34,997,0
20871,517639,573036,74,-38,997,0
20550,516917,572402,72,-38,1026,0
19826,516140,571928,77,-39,1020,0
19820,515341,571242,77,-36,1030,0
20079,514965,570863,72,-33,1030,0
20851,515499,571464,77,-33,1016,0
19843,515685,571596,77,-37,1035,0
19919,515704,571642,76,-36,1035,0
20195,516181,572014,72,-36,1023,0
20899,517516,573543,72,-42,1021,0
20575,518889,574128,69,-36,1021,0
19978,518968,574106,71,-36,1021,0
20293,519544,574387,75,-38,1014,0
20956,520679,575832,75,-37,988,0
20538,521515,576039,75,-30,988,0
19845,521976,576197,76,-30,1021,0
20499,522436,576341,76,-38,1027,0
20956,523568,577719,81,-32,1027,0
20692,523935,577797,69,-32,1018,0
20002,524259,577852,69,-33,1024,0
20173,524618,578087,78,-39,1024,0
21114,525707,579229,70,-39,1030,0
20663,526123,579359,76,-30,1017,0
19891,526372,579421,76,-34,1038,0
20161,526443,579605,66,-33,1038,0
20375,527182,580922,81,-33,1023,0
20699,528568,581034,81,-36,1016,0
20009,528729,581188,70,-42,1016,0
20334,529043,581108,71,-42,1020,0
20413,529108,581308,71,-32,1011,0
21113,530519,582928,72,-33,1011,0
20058,531064,582809,72,-33,999,0
20349,531151,582740,72,-39,1020,0
20553,531435,582761,69,-38,1024,0
21041,532510,583913,75,-37,1024,0
20743,532990,584076,75,-37,1005,0
20368,532866,584002,75,-40,1016,0
20745,533147,583988,77,-31,1016,0
21069,534240,585250,75,-31,1017,0
20744,534636,585306,75,-29,1026,0
20017,534606,585449,75,-43,1026,0
20864,534916,585555,80,-43,1029,0
21237,536026,586783,80,-28,1035,0
20772,536389,586704,80,-35,1014,0
20127,536300,586381,72,-34,1014,0
20660,536441,586656,75,-34,1024,0
21353,537555,587734,75,-41,1024,0
20757,537886,587670,74,-37,1024,0
20192,537653,587425,82,-37,1004,0
20885,537656,587453,82,-24,1021,0
21079,538190,587673,74,-31,1021,0
20827,539238,588559,76,-31,1013,0
20169,538965,588256,76,-42,1014,0
20906,538867,588274,70,-38,1018,0
21245,539154,588207,76,-38,1018,0
21261,540152,589573,72,-38,1035,0
20225,540169,589004,72,-44,1008,0
21055,540016,588966,72,-36,1008,0
21238,539990,588814,70,-36,1024,0
21273,540565,589656,70,-39,1011,0
20664,539965,589015,76,-38,1011,0
20958,537182,586905,72,-38,1027,0
21106,535476,585325,72,-39,1023,0
21153,533916,584663,81,-27,1014,0
20447,531428,582669,69,-30,1014,0
19995,528755,580484,71,-30,1011,0
20810,524494,577386,71,-40,1020,0
20862,523363,576842,74,-26,1020,0
20224,521605,575309,81,-26,1005,0
19869,519513,573519,81,-38,1007,0
20624,517837,572591,75,-29,1007,0
20742,515492,571280,75,-29,1038,0
20113,514095,569938,75,-42,1032,0
19670,512291,568341,73,-32,1013,0
20450,511166,567667,67,-42,1013,0
20609,510241,566869,78,-42,1020,0
19926,509131,566347,78,-58,1017,0
19721,508115,565430,78,-33,1017,0
20421,507695,565280,80,-33,1030,0
20628,507624,565053,80,-37,1013,0
20533,508159,565843,78,-36,1013,0
19904,507797,565072,72,-36,1032,0
20538,508275,565667,72,-40,1007,0
20625,509004,566251,73,-42,1010,0
20540,510307,567426,78,-32,1010,0
20014,510949,567785,75,-32,1026,0
19826,511461,568184,75,-30,1007,0
20757,512538,568629,81,-31,1007,0
20567,513715,570068,78,-31,1016,0
19983,514038,570243,78,-40,1032,0
19900,514095,569906,75,-27,1013,0
20719,515186,570730,77,-27,1013,0
20637,516299,571894,77,-32,1021,0
20089,516578,571745,81,-32,1029,0
20026,516420,571563,75,-32,1029,0
20780,517069,572152,77,-32,1024,0
20858,518672,573576,77,-31,1033,0
20108,519050,573488,76,-39,1033,0
20063,518858,573307,72,-39,1024,0
20983,519550,573921,72,-35,1010,0
20927,520220,574402,72,-34,1017,0
20596,521572,575440,82,-36,1017,0
20182,521374,575131,82,-36,1023,0
21232,521951,575730,72,-38,1016,0
21143,522757,576138,76,-30,1016,0
20648,523537,577021,72,-30,1020,0
20274,523923,576674,72,-39,1035,0
21233,524110,577370,77,-32,1035,0
21079,524788,577685,81,-32,1035,0
20698,525513,578453,81,-27,1011,0
20278,525528,578380,78,-34,1011,0
20287,525566,578930,74,-30,1011,0
21132,526953,579389,74,-30,1027,0
20709,527798,580087,78,-33,1014,0
20287,527660,579938,74,-30,1014,0
20434,527638,579645,81,-30,1032,0
21261,528437,580831,81,-28,1024,0
20767,529705,581381,72,-27,1024,0
20279,529517,581313,73,-27,1007,0
20361,529387,580894,73,-27,1014,0
21332,530086,581827,82,-33,1032,0
21242,530702,582691,75,-28,1032,0
20399,530969,582371,75,-28,1016,0
20458,530914,582009,81,-35,1030,0
21279,531630,582997,72,-34,1030,0
21311,532090,583141,75,-34,1013,0
20687,532713,583685,75,-32,1021,0
20407,532253,583156,71,-30,1021,0
21357,532974,583886,77,-30,1032,0
21290,533650,584112,77,-33,1032,0
20608,533922,584529,76,-30,1014,0
20497,533724,584398,78,-30,1014,0
21430,534323,584781,78,-39,1014,0
21295,534606,584829,80,-34,1027,0
20536,534879,585104,82,-34,1027,0
20404,534672,584934,72,-34,1013,0
20567,534647,584746,72,-30,1027,0
21289,535041,585114,72,-45,1027,0
20552,534886,585119,81,-45,1013,0
20461,533804,584204,81,-37,1013,0
20628,532542,583040,84,-40,1013,0
21484,531728,582969,76,-37,1016,0
20357,527336,579618,76,-37,1023,0
20283,524666,577481,76,-31,1001,0
20290,522272,575457,85,-28,1001,0
21172,520838,574934,77,-28,1021,0
20948,519224,573506,77,-27,1016,0
20040,515095,570438,72,-32,1016,0
20163,513244,568799,69,-32,1017,0
21013,512286,568381,69,-28,1024,0
20682,511057,567272,80,-32,1024,0
19963,509790,566390,82,-32,1023,0
20027,506418,563732,82,-32,1020,0
20758,506064,563707,72,-40,1016,0
20560,505278,563026,78,-40,1016,0
19715,504391,562462,72,-40,1013,0
19826,503270,561750,72,-30,1016,0
20649,502989,561620,73,-34,1016,0
20477,503111,561505,75,-34,1018,0
19675,502870,561487,75,-32,1007,0
19891,502650,561322,75,-31,1007,0
20117,503079,561384,80,-31,1023,0
20796,504992,563220,71,-38,1010,0
19776,505614,563679,71,-36,1023,0
19908,505870,563801,78,-32,1023,0
20378,506435,564000,69,-32,1013,0
20831,508027,565700,69,-37,1035,0
20663,508855,566141,78,-35,1035,0
20112,509082,566138,75,-35,1004,0
20443,509625,566299,75,-30,1010,0
20986,510780,567658,82,-33,1010,0
20672,511387,567957,71,-33,1018,0
19940,511674,568118,71,-30,1014,0
20268,512217,568311,71,-31,1008,0
21026,513557,569740,72,-29,1008,0
20653,513890,569844,67,-29,1005,0
19871,514240,569912,67,-27,1005,0
20176,514835,570200,74,-30,1005,0
20977,516159,571435,75,-30,1014,0
20554,516794,571682,75,-30,1013,0
19960,516882,571728,72,-41,1013,0
20248,517001,571947,85,-41,1030,0
20509,517768,573347,75,-31,1013,0
20646,519080,573730,75,-35,1033,0
20005,519259,573544,75,-39,1033,0
20349,519611,573760,75,-39,1032,0
20630,520030,574084,75,-36,1014,0
21091,521425,575601,78,-38,1014,0
20093,521903,575644,81,-38,1024,0
20466,522034,575803,81,-37,1017,0
20893,522471,575865,76,-35,1017,0
21165,523477,577276,78,-31,1032,0
20724,524222,577423,84,-31,1014,0
20581,524373,577422,84,-30,1017,0
21042,524933,577624,69,-30,1017,0
21251,526049,578922,80,-30,1008,0
20718,526376,579104,80,-33,1018,0
20063,526486,579122,71,-29,1018,0
21094,526817,579204,81,-29,993,0
21250,527893,580510,81,-36,1002,0
20612,528296,580452,74,-33,1002,0
20161,528237,580403,72,-32,1013,0
20911,528607,580749,75,-32,1032,0
21256,529922,581868,75,-33,1037,0
20624,530207,582023,77,-30,1037,0
20202,530070,581611,72,-30,1004,0
20946,530037,581809,72,-39,1010,0
21179,530714,582007,81,-31,1010,0
20654,532101,583405,67,-31,1026,0
20280,531780,583035,67,-30,1014,0
21017,531907,583295,74,-33,1014,0
21206,532401,583457,81,-33,1013,0
21247,533532,584550,78,-26,1011,0
20255,533512,584265,78,-36,999,0
20986,533598,584360,78,-40,999,0
21133,533873,584561,64,-40,1004,0
21251,534575,585565,64,-32,1007,0
20744,534548,585215,72,-34,1007,0
21146,532482,583548,77,-34,1001,0
21251,531412,582583,72,-34,1020,0
21141,530054,581936,72,-39,1020,0
20597,527539,579972,85,-39,1020,0
20128,524871,577825,75,-39,1023,0
21009,520655,574943,75,-42,1024,0
20919,519361,574257,72,-29,1024,0
20271,517749,572800,83,-29,1018,0
19916,515551,571018,83,-36,1020,0
20706,514218,570120,66,-30,1020,0
20754,511988,568790,77,-30,1008,0
20090,510685,567586,82,-34,1032,0
19712,508856,566046,82,-41,1017,0
20626,507889,565611,71,-31,1017,0
20603,507199,564911,70,-31,988,0
19925,506022,564475,70,-35,1011,0
19758,504738,563194,82,-36,1011,0
20520,504635,563278,66,-36,1023,0
20635,504342,562908,66,-34,1020,0
20454,505044,563747,75,-35,1020,0
19906,504302,563084,78,-39,1002,0
20545,504882,563731,78,-39,1017,0
20707,505692,564225,66,-30,1002,0
20400,507087,565479,63,-36,1002,0
19950,507765,565769,65,-36,1021,0
19834,508691,566581,65,-39,1018,0
20739,509454,567090,71,-39,1018,0
20482,510607,567990,75,-39,1017,0
19866,510989,568130,75,-33,1018,0
19952,511214,568073,78,-33,1027,0
20984,512748,569443,70,-33,1027,0
20457,513763,570351,70,-37,1013,0
19965,513923,570382,69,-29,1018,0
20039,513888,570232,74,-38,1018,0
20987,514818,571186,78,-38,1008,0
20876,516536,572561,78,-36,1043,0
20092,516688,572568,72,-36,1043,0
20118,516917,572489,74,-36,1018,0
21026,517595,573482,74,-40,1029,0
20995,518618,573904,71,-36,1027,0
20478,519636,574740,76,-36,1027,0
20253,519645,574499,76,-36,1030,0
21064,520537,575498,73,-32,1027,0
21011,521376,575902,77,-39,1027,0
20558,522104,576781,63,-39,1017,0
20157,522279,576483,63,-32,1016,0
21126,523012,577511,73,-39,1016,0
21094,523752,577955,75,-39,1004,0
20591,524542,578612,75,-36,1035,0
20386,524759,578573,72,-32,1011,0
20400,524902,579502,75,-32,1011,0
21172,526412,579947,75,-26,1013,0
20605,526972,580478,75,-38,1024,0
20315,526926,580339,69,-39,1024,0
20347,527053,580326,71,-39,1016,0
21154,528106,581617,71,-28,1026,0
20641,529307,582225,81,-31,1026,0
20443,529287,581945,74,-31,1027,0
20424,529331,581969,74,-28,1013,0
21328,530151,582890,85,-34,1024,0
21253,530880,583479,70,-34,1024,0
20471,531225,583738,70,-30,1021,0
20526,531124,583550,75,-33,1044,0
21528,532222,584547,75,-36,1044,0
21383,532603,584835,76,-36,1014,0
20716,533337,585462,76,-38,1033,0
20730,533095,584897,75,-32,1033,0
21588,534077,586032,71,-32,1024,0
21404,534684,586304,71,-36,1027,0
20674,535102,586671,73,-32,1027,0
20583,534915,586656,73,-30,1016,0
21641,535806,587508,80,-30,1035,0
21475,536166,587486,80,-34,1016,0
20636,536079,587457,76,-32,1016,0
20655,535251,586699,65,-32,1021,0
20888,534596,585988,65,-34,1024,0
21290,532236,584495,72,-30,1024,0
20555,529963,582957,70,-30,1008,0
20441,527122,580744,70,-33,1008,0
20727,524621,578767,78,-36,1008,0
21369,523445,578368,81,-36,1013,0
20328,519715,575480,81,-33,1020,0
20340,517613,573781,67,-36,1004,0
20570,515817,572542,72,-39,1004,0
21191,515004,572510,81,-39,1029,0
20881,514214,571504,81,-26,1001,0
20033,510831,569243,65,-34,1001,0
20425,509626,568292,78,-34,1010,0
21065,509488,568621,78,-38,1020,0
20668,508880,567737,78,-28,1020,0
19923,508079,567097,84,-28,1024,0
20438,506628,565845,84,-30,1023,0
21033,506886,566708,74,-36,1005,0
20624,506794,566272,77,-28,1005,0
19887,506585,566057,75,-28,1023,0
20051,506432,565814,75,-39,1014,0
20471,507958,567256,70,-41,1014,0
20739,508659,567728,80,-41,1026,0
19935,509232,568079,78,-41,1001,0
20265,509479,568321,78,-33,1001,0
20433,510422,568727,69,-33,1040,0
21123,512430,570521,69,-27,1020,0
19983,512705,570645,84,-42,1002,0
20275,512924,570817,81,-28,1002,0
20444,513416,571062,73,-28,1007,0
21068,514698,572378,73,-31,1011,0
20731,515359,572532,65,-30,1011,0
20334,515557,572655,73,-30,1018,0
20595,516053,572972,76,-36,1016,0
21130,517184,574268,76,-39,1016,0
20759,517869,574489,75,-39,1029,0
19999,518180,574549,71,-37,1032,0
20792,518574,574677,71,-31,1016,0
21165,519605,576067,77,-28,1016,0
20697,520446,576381,75,-28,1026,0
20156,520557,576206,75,-43,1017,0
20642,520834,576573,84,-36,1017,0
21280,522223,577893,72,-36,1030,0
20806,522523,578159,80,-36,1035,0
20165,522831,577960,80,-34,1017,0
20711,522935,578024,70,-34,1017,0
21240,523399,579479,73,-32,1017,0
20748,525010,579651,73,-35,1002,0
20124,524954,579357,80,-36,1002,0
20878,525032,579592,71,-36,1033,0
21232,525608,579789,71,-36,1001,0
21331,526782,581124,75,-34,1001,0
20289,526958,580949,72,-34,1020,0
20973,527058,581074,81,-31,1024,0
21222,527418,581152,81,-36,1024,0
21329,528609,582452,72,-36,1013,0
20693,528906,582433,83,-30,1017,0
21021,528931,582522,83,-35,1020,0
21217,529455,582706,76,-35,1020,0
21382,530457,583793,73,-35,1005,0
20760,530609,583890,73,-38,1018,0
20398,530666,583842,72,-31,1018,0
21280,531048,584237,81,-31,1020,0
21308,532118,585181,81,-30,1018,0
20757,532339,585147,81,-36,1018,0
20334,532190,584684,80,-36,1047,0
21194,532499,584947,83,-30,1027,0
21490,533697,586192,83,-30,1014,0
20713,533754,586148,81,-38,1014,0
20535,533656,585673,86,-38,1021,0
21298,533633,585889,86,-31,1010,0
21439,534066,586389,77,-27,1010,0
20885,534955,587113,80,-27,1017,0
20521,534630,586497,74,-30,1037,0
21345,534758,586738,74,-34,1021,0
21551,534972,586826,69,-34,1021,0
21468,535477,587497,76,-42,1013,0
20437,533368,585599,76,-39,1032,0
21262,532247,584720,78,-21,1032,0
21337,530626,583442,78,-21,1018,0
21200,528923,582574,78,-35,1013,0
20546,526618,580775,78,-30,1013,0
21034,521585,576937,75,-30,1013,0
21151,519921,575343,75,-27,1027,0
20916,518700,574845,78,-27,1027,0
20251,516725,573300,75,-27,1002,0
20186,514649,571644,78,-31,1029,0
21010,511645,569328,78,-35,999,0
20732,510812,569115,77,-27,999,0
20110,509226,567850,80,-27,1026,0
20054,507500,566392,80,-36,1032,0
20827,506692,565933,81,-28,1032,0
20435,505464,565408,73,-28,1027,0
20059,504752,564584,73,-29,1011,0
19926,503668,563533,72,-36,1011,0
20872,503473,563689,75,-36,1029,0
20767,503574,563484,83,-36,999,0
20448,503968,563903,83,-34,1021,0
19909,503807,563745,75,-22,1021,0
20936,504609,564374,72,-22,1020,0
20892,505451,565058,72,-35,1011,0
20500,506798,566262,78,-27,1011,0
20125,507255,566413,80,-27,1021,0
21124,508129,567524,80,-30,1017,0
21004,509276,568343,73,-27,1017,0
20527,510322,569085,71,-30,1017,0
20113,510749,569140,72,-30,1005,0
20217,511774,570117,72,-33,1032,0
20981,512580,570405,84,-29,1032,0
20522,513232,571263,81,-29,1004,0
20168,513422,571135,81,-30,1016,0
20346,513573,571034,72,-25,1016,0
21095,515396,572549,73,-25,1004,0
20594,515870,573138,73,-29,1008,0
20233,516051,573114,81,-27,1016,0
20355,516016,572818,75,-27,1016,0
21212,517065,573856,73,-35,1026,0
21235,518382,574917,73,-34,1014,0
20387,518467,574892,69,-27,1014,0
20451,518610,574825,77,-27,1024,0
21225,519568,575896,77,-29,1014,0
21281,520284,576209,78,-31,1014,0
20656,521086,576703,80,-31,1001,0
20437,521063,576531,80,-26,1017,0
21408,521921,577616,72,-36,1017,0
21330,522715,577916,72,-36,1007,0
20696,523296,578595,84,-35,1016,0
20462,523351,578190,84,-30,1010,0
21575,524197,579303,80,-30,1010,0
21405,524606,579440,75,-30,1021,0
20651,525309,580028,75,-31,1033,0
20522,525209,579831,82,-30,1033,0
20600,525331,580997,72,-25,1040,0
21442,527038,581319,72,-25,1014,0
20614,527504,581844,77,-23,1014,0
20560,527395,581579,77,-30,1024,0
20838,527743,581579,75,-30,1030,0
21733,528820,583009,75,-18,1011,0
20758,529702,583353,85,-30,1011,0
20645,529530,583182,76,-30,1041,0
20879,529667,583189,76,-38,1027,0
21729,530648,584061,69,-25,1027,0
21457,531488,584518,76,-25,1008,0
20723,531275,584515,80,-36,1030,0
20939,531449,584484,80,-31,1017,0
21759,532123,585274,76,-30,1017,0
21512,532878,585499,75,-30,1008,0
20842,533186,585899,75,-24,1033,0
21014,533011,585457,75,-34,1033,0
21831,533807,586523,74,-34,1020,0
21520,534373,586724,74,-34,1021,0
20744,534385,586912,76,-25,1007,0
20918,534132,586587,82,-25,1007,0
21868,535003,587523,82,-27,1017,0
21479,534810,587123,76,-32,1026,0
20792,534316,586473,81,-36,1026,0
20840,533450,585889,90,-36,1023,0
21329,532440,585234,90,-21,1017,0
21339,529630,583287,76,-27,1017,0
20502,527215,581432,80,-27,1017,0
20680,524547,579369,80,-29,1005,0
20983,522710,577663,86,-24,1005,0
21465,521759,577586,85,-32,1020,0
20289,518004,574513,85,-32,1018,0
20534,515993,572825,77,-25,1038,0
20598,514417,571537,69,-24,1038,0
21239,513878,571551,75,-24,1021,0
20952,512431,570367,75,-32,1001,0
20338,509442,568092,81,-29,1001,0
20555,508552,567335,76,-29,1032,0
21142,508269,567455,76,-29,1007,0
20724,507587,566762,75,-35,1007,0
19925,506688,566156,83,-35,1011,0
20511,505785,565146,83,-23,1026,0
20940,506269,566042,71,-31,1017,0
20603,506354,566053,80,-28,1017,0
19943,506333,565931,78,-28,1029,0
20213,506498,565995,78,-36,1029,0
20564,508150,567648,80,-36,1029,0
20571,509145,568147,75,-36,1014,0
19931,509559,568498,75,-30,1023,0
20389,510103,568853,86,-36,1023,0
20755,510875,569400,81,-36,1023,0
21101,513220,571167,81,-36,1026,0
19987,513370,571351,70,-30,1035,0
20572,513678,571699,67,-30,1035,0
20967,514436,571888,77,-30,1029,0
21143,515753,573400,77,-39,1002,0
20538,516472,573595,91,-30,1002,0
20648,516757,573753,81,-30,1018,0
21001,517327,574099,81,-29,1018,0
21063,518609,575519,73,-29,1018,0
20480,519180,575789,78,-27,1035,0
20033,519499,575759,78,-27,1035,0
21030,520086,576074,74,-33,1038,0
21213,521328,577417,72,-29,1038,0
20384,521844,577648,72,-29,1008,0
20071,521765,577430,72,-36,1010,0
20811,522386,578060,84,-33,1010,0
21087,524123,579425,75,-33,1024,0
20516,524479,579701,75,-27,1001,0
20195,524488,579499,71,-30,1016,0
20851,524942,579931,72,-30,1016,0
21110,525755,581651,72,-29,991,0
20634,527227,581764,72,-33,1024,0
20196,527190,581518,81,-27,1024,0
20995,527649,582030,81,-27,991,0
21219,528497,582464,81,-32,999,0
21272,529835,583782,72,-27,999,0
20334,530039,583609,73,-27,1027,0
21067,530451,584124,73,-32,1018,0
21120,531166,584512,74,-36,1018,0
21177,532370,585638,67,-27,1024,0
20679,532795,585567,67,-27,1020,0
21193,533180,585989,78,-32,1020,0
21255,533894,586606,75,-28,1020,0
21205,534878,587461,80,-28,1020,0
20669,534995,587609,80,-31,1021,0
20426,535186,587463,72,-35,1021,0
21390,536076,588256,76,-35,1030,0
21214,537147,589443,76,-27,1013,0
20596,537496,589430,84,-30,1013,0
20442,537296,589058,73,-30,1017,0
21282,537897,589622,73,-29,1005,0
21167,539655,590990,75,-27,1016,0
20635,539802,590978,72,-39,1016,0
20529,539418,590666,69,-39,1007,0
21243,540083,591156,69,-36,1026,0
21459,540576,591654,75,-34,1026,0
20715,541786,592581,81,-34,1011,0
20566,541430,592193,76,-37,1001,0
21485,541844,592472,76,-38,1026,0
21481,542106,592690,75,-38,1026,0
21246,542506,593377,63,-29,993,0
20648,540588,591446,63,-32,1021,0
21587,539389,590752,81,-39,1021,0
21500,537762,589530,72,-39,1026,0
21059,536131,588666,72,-32,1005,0
20516,533933,586934,82,-29,1005,0
21371,530038,583825,76,-29,1026,0
21240,528608,582870,76,-34,1020,0
20713,527637,582490,84,-38,1020,0
20321,525761,581037,75,-30,1008,0
20304,524138,579460,75,-30,1021,0
21053,522215,578128,75,-34,1026,0
20580,521437,577831,81,-34,1026,0
20205,520014,576577,77,-34,1023,0
20224,518617,575349,77,-34,1011,0
20978,518192,575403,71,-44,1011,0
20417,517498,574959,74,-44,1018,0
20131,516643,574261,74,-35,1007,0
20188,515836,573546,76,-35,1032,0
20960,516245,574004,81,-35,1032,0
20932,516632,574108,72,-39,991,0
20329,516957,574687,72,-39,1017,0
20160,517007,574492,72,-35,1017,0
20967,518191,575839,64,-35,1032,0
21023,519235,576351,64,-33,1008,0
20484,520310,577220,82,-33,1008,0
20146,520802,577377,78,-33,1020,0
20991,522019,578560,78,-38,1010,0
21006,522944,578959,71,-34,1010,0
20484,523713,579685,75,-34,1013,0
20228,523957,579813,67,-34,1023,0
20254,525280,580896,67,-33,1016,0
21086,526065,581341,77,-36,1016,0
20515,526808,582106,81,-36,1029,0
20281,526822,582162,81,-32,1033,0
20408,527124,582172,80,-36,1033,0
21382,528923,583717,82,-39,1013,0
20477,529500,584117,72,-39,1026,0
20331,529813,584303,72,-30,1026,0
20368,529925,584228,73,-30,1010,0
21401,531142,585490,75,-30,1020,0
21353,532660,586496,75,-24,1032,0
20332,532718,586425,69,-29,1032,0
20603,532973,586463,75,-29,997,0
21493,534226,587855,75,-36,1027,0
21253,534923,588045,81,-29,1027,0
20505,535547,588588,75,-39,1007,0
20732,535813,588537,74,-39,1021,0
21517,537080,589835,74,-35,1021,0
21359,537818,590320,74,-30,1008,0
20629,538258,590653,75,-30,1029,0
20597,538351,590585,75,-28,1020,0
21675,539605,591694,72,-30,1020,0
21382,540307,592174,74,-30,1020,0
20594,540789,592550,74,-35,1017,0
20624,540792,592497,75,-27,1017,0
20999,541160,593963,78,-27,1016,0
21382,542753,594061,78,-27,1035,0
20585,543060,594325,77,-30,1035,0
20702,543024,594186,76,-25,1018,0
21111,543357,594255,83,-25,1005,0
21749,544708,595786,83,-36,1035,0
20651,545221,595930,81,-32,1035,0
20833,545139,595800,72,-32,993,0
21358,545533,595780,72,-30,1018,0
21814,546585,597089,78,-32,1018,0
21469,547324,597376,78,-32,1029,0
20948,547284,597394,78,-27,997,0
21332,547605,597631,73,-30,997,0
21845,548723,598862,78,-36,1040,0
21549,549192,598990,82,-36,1004,0
20768,549393,599050,82,-34,1020,0
21243,549440,598811,84,-22,1020,0
21869,550308,599861,80,-22,1002,0
21414,549926,599552,80,-27,1033,0
20754,549084,598800,72,-30,1010,0
20950,548116,598024,78,-28,1010,0
21706,545296,596118,78,-28,1021,0
21295,543265,594350,84,-36,1010,0
20409,540694,592225,77,-36,1010,0
20818,538279,590659,73,-36,1018,0
21094,536640,589215,73,-28,1023,0
21027,533928,587483,80,-24,1023,0
20393,532022,585932,75,-24,999,0
20707,530307,584708,75,-37,1032,0
21051,529005,583583,75,-39,1032,0
21193,528412,583836,71,-39,1037,0
20238,525640,581477,81,-42,1017,0
20567,524358,580587,81,-26,1016,0
21022,523413,579783,77,-36,1016,0
21200,523293,580005,87,-36,1016,0
20656,522807,579581,87,-30,1005,0
20664,521064,578039,72,-33,1005,0
21036,520924,577822,75,-33,1008,0
21144,521409,578735,75,-26,1030,0
20623,521695,578838,81,-35,1030,0
20075,521551,578559,77,-29,1013,0
21125,522362,579106,73,-29,1013,0
21311,523764,580582,73,-29,1029,0
20749,524513,580947,81,-27,1029,0
20224,524779,580936,78,-27,1035,0
21031,525260,581384,78,-33,1026,0
21166,527499,583237,81,-27,1026,0
20779,528133,583546,81,-27,1016,0
20227,528161,583412,81,-27,999,0
21172,528483,583754,81,-23,999,0
21314,529246,584085,75,-25,1004,0
21354,530812,585466,80,-25,993,0
20406,530747,585192,80,-30,1030,0
21204,531080,585543,78,-35,1030,0
21228,531735,585735,64,-35,1001,0
21287,532766,587010,64,-21,1029,0
20773,532904,586856,82,-27,1029,0
21112,533362,587079,76,-27,1026,0
21358,533966,587405,76,-36,1023,0
21425,535160,588766,66,-25,1023,0
20774,535531,588950,83,-25,1024,0
20468,535852,588906,83,-32,1002,0
21449,536509,589393,80,-43,1017,0
21357,537329,590440,86,-30,1017,0
20760,537707,590422,75,-30,1040,0
20484,537656,590158,75,-30,1018,0
21364,538050,591010,78,-28,1018,0
21452,539613,591973,84,-28,1029,0
20762,539669,591920,84,-25,1017,0
20538,539545,591388,70,-35,1017,0
21467,539996,591963,77,-32,1021,0
21547,540783,593225,77,-32,1035,0
20845,541780,593314,74,-36,1013,0
20596,541432,592772,80,-36,1013,0
21487,541962,593338,77,-36,1014,0
21666,542540,593550,77,-31,1014,0
21467,543391,594609,78,-23,1014,0
20711,543237,594345,74,-23,1008,0
21556,543922,594826,75,-28,1043,0
21704,544317,595068,75,-31,1013,0
21448,545232,595903,82,-31,1013,0
20893,545425,595535,81,-29,1007,0
21688,545475,595761,81,-34,1024,0
21720,545878,596141,81,-34,1024,0
21391,546932,597079,75,-34,1032,0
20976,546718,596941,75,-31,1020,0
20838,546801,596560,75,-26,1020,0
21728,547523,597306,78,-26,1017,0
21505,548129,598120,72,-21,1016,0
20871,548006,597782,72,-30,1030,0
20994,547871,597139,77,-30,1030,0
21969,548394,597984,84,-27,1030,0
21381,549287,598763,84,-33,1008,0
21063,549130,598375,76,-30,1008,0
21042,548639,597930,81,-30,1016,0
22034,548850,598304,81,-33,1013,0
21877,549076,598495,75,-32,1013,0
20929,547618,597384,78,-32,1018,0
20978,545975,595893,78,-30,1005,0
21794,544392,595045,80,-30,1005,0
21691,542632,593495,80,-30,1007,0
21090,540833,592496,81,-34,1021,0
20812,535894,588559,81,-30,1017,0
21562,534706,588014,69,-31,1017,0
21592,533428,586788,72,-31,1007,0
20969,532173,586047,72,-30,1008,0
20578,530131,584574,84,-27,1008,0
21267,527170,582568,76,-27,1018,0
21309,526185,581501,76,-30,1023,0
20707,525243,581068,77,-24,1023,0
20387,523752,579944,80,-24,1030,0
20317,522533,578655,72,-29,1030,0
21176,521551,578222,72,-27,1020,0
20478,521076,577978,75,-31,1020,0
20295,520228,577238,76,-31,1032,0
20362,519629,576659,76,-26,1007,0
21237,520124,577377,75,-32,1007,0
20531,520895,577908,72,-29,1030,0
20334,520808,577748,81,-29,1005,0
20450,521043,577807,81,-34,1005,0
21369,522160,579056,82,-34,1013,0
21183,523273,579732,69,-26,1017,0
20517,524352,580380,69,-31,1014,0
20592,524913,580577,81,-25,1014,0
21482,526025,581904,86,-25,1027,0
21298,526867,582403,86,-32,1014,0
20529,527795,582968,84,-25,1014,0
20414,527947,582858,76,-30,1037,0
21387,528908,583944,76,-30,1014,0
21261,529389,584237,81,-24,1014,0
20458,529908,584665,75,-23,1005,0
20467,530197,584483,69,-23,1029,0
20788,531384,585610,69,-23,1014,0
21296,532094,585896,78,-29,1014,0
20533,532418,586279,75,-29,1005,0
20498,532491,586201,75,-32,1016,0
20842,532862,586326,77,-37,1030,0
21483,534448,587837,74,-33,1030,0
20580,534804,588003,74,-33,1023,0
20564,534745,587977,83,-37,1032,0
20949,535122,587947,72,-29,1032,0
21601,536338,589372,75,-29,1037,0
21417,537286,589768,75,-23,1020,0
20780,537250,589651,78,-32,1020,0
21136,537417,589911,78,-32,1018,0
21761,538792,591168,78,-26,1017,0
21369,539440,591336,78,-33,1017,0
20615,539776,591556,75,-23,1029,0
21161,540047,591710,74,-23,1007,0
21796,541152,593086,74,-26,1011,0
21355,541589,593164,76,-36,1011,0
20594,541766,593104,77,-36,1026,0
20777,541849,593349,77,-27,1010,0
21741,543430,594365,83,-31,1010,0
21315,544004,594616,77,-31,1018,0
20531,543768,594598,77,-21,1010,0
20878,543825,594492,69,-27,1010,0
21163,544132,595703,66,-27,1018,0
21325,545684,595987,78,-35,1027,0
20741,545612,595771,78,-27,1020,0
20956,545486,595799,72,-22,1020,0
21128,545953,595909,75,-22,1021,0
21857,547320,597491,75,-30,1014,0
20668,547535,597259,78,-35,1014,0
21043,547528,597180,77,-35,1023,0
21386,548187,597131,77,-27,1020,0
21845,548838,598506,81,-37,1020,0
21417,549338,598588,72,-37,1007,0
21154,549078,598256,72,-36,1029,0
21611,549368,598233,78,-33,1021,0
21947,550285,599480,74,-34,1021,0
21389,550591,599480,78,-34,1016,0
20812,550359,599289,78,-39,1020,0
21677,549903,598758,81,-30,1020,0
21875,550184,599443,76,-30,1010,0
21301,549369,598681,76,-32,1026,0
20680,548040,597376,83,-32,1024,0
21289,546211,596048,80,-32,1024,0
21638,542778,593938,80,-33,1023,0
20894,540842,592417,76,-31,1016,0
20401,538623,590572,71,-26,1016,0
21112,536657,589101,77,-26,1020,0
21296,535478,588278,77,-34,1016,0
20772,533175,586716,76,-32,1016,0
20331,531130,585223,81,-32,1026,0
21043,529703,584313,81,-34,1005,0
21244,528833,583515,84,-30,1005,0
21289,528685,583828,75,-30,1016,0
20247,526048,581512,81,-27,1030,0
20990,525073,580930,81,-30,1043,0
21046,524509,580368,78,-33,1043,0
21225,524818,580825,69,-33,1017,0
20668,524422,580400,69,-27,1001,0
21060,523424,579961,78,-33,1001,0
21075,523606,579780,78,-33,1035,0
21094,524557,580936,78,-32,1023,0
20512,525090,581054,69,-32,1023,0
20213,525219,581104,83,-37,1013,0
21112,526721,582190,83,-37,1014,0
21092,528063,583558,70,-33,1013,0
20469,528617,583784,76,-27,1013,0
20221,528871,583732,72,-27,1001,0
21042,529610,584471,72,-32,1013,0
21279,531759,586357,75,-26,1013,0
20588,532160,586354,81,-26,991,0
20365,532209,586169,81,-27,1029,0
21181,532770,586552,87,-34,1029,0
21320,533590,587266,80,-34,1026,0
21174,534841,588266,84,-30,1011,0
20440,534747,588035,84,-28,1024,0
21254,535309,588620,78,-27,1024,0
21402,536133,589104,75,-27,1011,0
21246,537205,590333,75,-36,1017,0
20568,537357,589902,65,-28,1017,0
21221,537984,590512,75,-28,1038,0
21461,538829,590932,75,-24,1023,0
21259,539814,591890,63,-26,1023,0
20573,540169,592305,75,-30,1013,0
20605,540670,592697,73,-30,1023,0
21616,541130,592981,73,-26,1032,0
21242,542202,594050,71,-38,1032,0
20734,542435,593962,72,-38,1024,0
20793,542408,593623,72,-38,1005,0
21664,543270,594841,73,-39,1005,0
21252,544615,595877,84,-39,1016,0
20756,544824,595737,84,-30,1020,0
20734,544833,595637,72,-30,1017,0
21733,545481,596354,77,-30,1017,0
21686,546363,597802,72,-39,1013,0
20795,547241,597533,72,-27,1020,0
20974,547258,597472,80,-33,1020,0
21870,547930,598271,70,-33,1029,0
21771,548655,598496,70,-32,1033,0
21289,549598,599094,71,-24,1033,0
20906,549273,598882,73,-32,1016,0
21869,550118,599727,73,-32,1020,0
21802,550823,600089,70,-36,1020,0
21302,551463,600963,66,-29,1027,0
20887,551507,600562,74,-29,1018,0
21851,552325,601495,74,-35,1004,0
21797,552940,601856,71,-35,1004,0
21376,553531,602531,72,-35,1026,0
20890,553525,602314,72,-30,1035,0
21126,553653,602266,84,-36,1035,0
21948,554845,603362,71,-36,1011,0
21416,555439,603788,71,-31,1017,0
21006,555346,603617,75,-37,1017,0
21073,555065,603114,81,-22,1020,0
21929,555582,603887,76,-22,1011,0
21268,555092,603484,76,-32,1016,0
20901,553896,602416,82,-30,1016,0
21060,551769,600733,73,-30,1014,0
21945,550085,599680,73,-34,1035,0
21664,548085,598301,70,-30,991,0
20755,543682,595009,75,-30,991,0
20922,541341,593360,82,-36,1032,0
21748,540284,592781,82,-35,1026,0
21594,538970,591936,75,-28,1026,0
20840,537671,590892,81,-28,1014,0
20703,534197,587966,81,-29,1021,0
21591,533482,588033,78,-30,1021,0
21413,532337,587128,78,-30,1021,0
20720,531592,586511,78,-39,1024,0
20472,530146,585544,82,-30,1024,0
21540,528706,584599,78,-30,1027,0
21278,528241,584059,78,-30,1023,0
20599,527746,583748,66,-30,1017,0
20430,526852,582927,78,-28,1017,0
20705,526563,582638,80,-28,1004,0
21312,527323,583589,80,-27,1035,0
20603,527530,583701,75,-27,1035,0
20618,527628,583642,80,-27,1029,0
20843,527809,583747,80,-34,1010,0
21632,529224,585167,73,-27,1010,0
20568,530919,586316,75,-27,1033,0
20626,531261,586308,73,-24,1011,0
21006,531795,586519,73,-37,1021,0
21701,532836,587683,72,-29,1021,0
21390,533739,588267,72,-29,1008,0
20640,534258,588548,72,-26,1033,0
21018,534627,588596,82,-31,1033,0
21739,535687,589973,82,-31,1027,0
21394,536522,590287,82,-28,1014,0
20667,536967,590387,82,-33,1023,0
20884,537025,590352,84,-33,1023,0
21761,538153,591587,75,-27,1024,0
21465,538720,591729,75,-31,1030,0
20766,538874,591837,72,-28,1030,0
20967,538982,591898,81,-28,1030,0
21375,540676,593337,81,-36,1016,0
21616,541029,593322,74,-24,1016,0
20945,541145,593273,66,-32,1026,0
20970,541243,593348,74,-32,993,0
21367,541580,593634,74,-27,993,0
22006,543151,594907,81,-37,1032,0
20862,543322,594790,72,-37,1010,0
21027,543270,594740,72,-26,1001,0
21325,543589,595017,74,-30,1001,0
21925,544657,596159,81,-30,1014,0
21671,545117,596317,81,-30,1011,0
21178,544858,596062,78,-33,1011,0
21369,545308,596152,82,-40,1023,0
22047,546248,597328,82,-40,1020,0
21599,546608,597390,85,-24,1020,0
20918,546821,597167,81,-36,1010,0
21493,547014,597262,70,-36,1017,0
21961,547728,598389,70,-30,1029,0
21722,548324,598603,83,-30,1029,0
20901,548150,598267,71,-30,1010,0
21324,548113,598088,71,-29,1029,0
21972,549123,599315,78,-28,1029,0
21554,549525,599480,84,-28,1014,0
20935,549362,599096,72,-32,1008,0
21390,549231,598982,72,-27,1014,0
21895,549588,600312,78,-24,1014,0
21465,550646,600183,87,-24,1029,0
21012,550390,599845,87,-27,1023,0
21584,550311,599758,81,-31,1023,0
22079,550723,599789,84,-31,1007,0
22181,551687,600988,84,-27,1026,0
20993,551440,600487,71,-24,1041,0
21718,551279,600544,78,-34,1041,0
22132,551416,600362,78,-34,999,0
22050,552165,601381,75,-40,1016,0
21499,551964,601123,82,-27,1016,0
21768,549807,599310,70,-27,1023,0
22022,548993,598593,70,-21,1002,0
21988,547878,598100,83,-24,1002,0
21369,545626,596352,81,-24,1029,0
20807,542838,594050,81,-28,1004,0
21705,538567,591011,75,-24,1004,0
21698,537212,590326,81,-24,1030,0
21090,535391,588833,84,-19,1033,0
20647,533370,587053,84,-19,997,0
21388,531648,585886,81,-29,997,0
21528,529536,584793,78,-29,1023,0
20857,528041,583464,78,-35,1035,0
20451,526383,581978,84,-27,1035,0
21257,525090,581102,78,-27,1010,0
21409,524353,580629,78,-28,1035,0
20725,523056,579876,77,-18,1035,0
20389,521790,578646,72,-32,1029,0
21183,521312,578358,72,-32,1016,0
21321,521056,578290,78,-29,1020,0
21286,521698,579106,72,-25,1020,0
20340,520892,578245,81,-25,1008,0
21236,521214,578377,81,-25,1035,0
21359,521717,578873,77,-31,1035,0
21213,523117,580168,74,-31,1032,0
20649,523900,580472,74,-27,1035,0
21280,524582,580978,78,-20,1004,0
21452,525676,581558,78,-20,1004,0
21298,526856,582957,76,-26,1011,0
20687,527206,583171,76,-19,1021,0
20533,527338,582899,82,-29,1021,0
21515,528709,584028,81,-29,1014,0
21295,529780,585102,81,-35,1001,0
20677,530032,585219,76,-32,1001,0
20614,529944,584851,76,-32,1016,0
21411,530610,585401,76,-28,1016,0
21631,531981,586736,72,-23,1016,0
20838,532397,586792,82,-23,1023,0
20741,532209,586354,82,-28,1011,0
21618,532834,587005,77,-19,1020,0
21733,533559,587283,84,-34,1020,0
21345,534470,588303,72,-34,1013,0
20878,534371,587916,72,-30,1018,0
21952,535171,588716,74,-26,1018,0
21798,535653,589049,82,-26,1016,0
21491,536770,589939,76,-22,1035,0
20932,536554,589391,76,-21,1026,0
21953,537204,590007,80,-21,1026,0
21871,538001,590565,85,-27,1007,0
21447,538660,591478,85,-27,1027,0
20919,538693,591236,86,-24,1027,0
21004,539131,591935,84,-24,1004,0
21810,539930,592348,84,-25,1016,0
21376,540685,592899,83,-23,1016,0
20922,540733,592461,78,-23,1037,0
21086,540674,592352,78,-30,1021,0
21963,541637,593754,71,-29,1021,0
21411,542668,594224,69,-29,1023,0
20912,542343,593984,81,-27,1005,0
21149,542299,593701,81,-27,1013,0
21925,543089,594505,81,-29,1013,0
22011,543724,595357,80,-29,1011,0
21078,544158,595217,80,-24,1016,0
21155,544063,595048,84,-23,1016,0
21959,544809,595835,73,-23,1027,0
22007,545461,596070,73,-27,1007,0
21408,545969,596427,83,-30,1007,0
21146,545618,596243,75,-28,1021,0
22053,546178,597241,73,-28,1024,0
22017,547030,597457,73,-15,1016,0
21469,547572,597991,87,-30,1016,0
21023,547317,597355,81,-30,1005,0
22005,547895,598236,81,-30,1013,0
21977,548416,598313,87,-27,1013,0
21267,548742,598720,73,-27,1014,0
21137,548468,598300,73,-27,1014,0
21183,548323,598679,81,-27,1014,0
22040,548526,598399,77,-27,1014,0
21274,547999,598094,77,-29,1037,0
21027,546547,596817,77,-24,1013,0
21108,544300,595106,76,-25,1013,0
22038,542890,594329,80,-25,1010,0
20897,538523,591173,80,-38,1035,0
20714,535999,589107,78,-30,1035,0
20919,533964,587418,76,-26,1026,0
21780,532797,586894,80,-26,1005,0
21541,531408,585718,80,-30,1005,0
20571,527987,583119,81,-24,999,0
20850,526458,581935,72,-24,1011,0
21641,525835,581751,72,-25,1001,0
21181,524851,580861,72,-23,1001,0
20539,523898,580356,84,-23,1004,0
20870,521199,578344,84,-25,1021,0
21459,521017,578458,76,-23,1021,0
21213,520647,578014,80,-23,1002,0
20420,520289,577827,80,-28,1021,0
20384,519519,577311,78,-22,1021,0
21391,519760,577765,69,-29,1005,0
21194,520256,577764,73,-29,1001,0
20280,520533,578126,73,-33,1027,0
20591,520838,578007,76,-32,1027,0
20859,521559,578648,80,-32,1010,0
21251,523571,580398,80,-25,1020,0
20500,524320,580956,84,-26,1020,0
20537,524650,581195,74,-26,1020,0
20960,525359,581404,92,-33,1024,0
21582,526863,582988,92,-31,1014,0
20356,527966,583693,75,-24,1014,0
20699,528035,583664,80,-24,1029,0
21175,528631,583973,80,-20,1023,0
21704,530057,585364,72,-37,1023,0
21286,530685,585724,82,-37,1010,0
20601,530886,585774,82,-29,1011,0
21070,531389,586007,76,-27,1011,0
21657,532833,587211,70,-27,1017,0
21337,533439,587613,70,-31,1016,0
20615,533860,587982,78,-24,1016,0
20863,534211,587949,80,-21,1023,0
21767,535558,589402,70,-21,1035,0
21367,536263,589785,70,-30,1013,0
20629,536403,589757,66,-35,1013,0
20950,536564,589971,76,-35,1011,0
21228,538365,591360,76,-29,1026,0
21341,538761,591609,71,-27,1017,0
20620,538923,591656,82,-29,1017,0
21032,539199,591899,82,-29,1013,0
21393,539582,591889,80,-36,1024,0
21716,541107,593472,75,-21,1024,0
20720,541258,593304,81,-21,1010,0
21038,541327,593468,81,-26,1005,0
21428,541740,593598,82,-26,1005,0
21720,543041,595157,82,-26,1010,0
21408,543629,595242,82,-28,1024,0
21200,543634,595277,75,-25,1024,0
21561,544048,595404,80,-25,1004,0
21772,545139,596671,81,-36,1029,0
21360,545569,596807,81,-29,1029,0
20741,545658,596602,75,-28,1029,0
21864,546075,596929,77,-28,1024,0
21955,547229,598206,77,-28,1018,0
21283,547559,598437,75,-26,1018,0
20716,547488,598214,76,-26,1018,0
21458,547531,598442,76,-27,999,0
21936,549031,599582,84,-27,999,0
21280,549329,599607,70,-27,1013,0
20913,549216,599247,70,-30,1035,0
21603,549165,599481,75,-24,1005,0
21904,549883,600988,77,-21,1005,0
21398,551077,601011,71,-21,1020,0
20980,550815,600705,71,-27,1010,0
21679,550661,600615,76,-29,1010,0
21853,550675,600529,74,-29,1024,0
21991,551017,600116,74,-27,1027,0
20920,548045,598524,78,-22,1027,0
21631,545688,596997,81,-22,1032,0
21833,543620,595322,74,-31,1007,0
21771,542005,594414,74,-23,1017,0
21095,540171,592870,71,-30,1017,0
21364,535529,589480,78,-30,1010,0
21638,534200,588460,78,-29,1033,0
21609,533433,588238,74,-20,1033,0
20896,531987,586975,75,-20,1021,0
20598,530399,585631,75,-30,1016,0
21557,528028,584046,77,-28,1016,0
21595,527598,584158,71,-24,1021,0
20776,526572,583294,71,-24,1002,0
20435,525128,581968,76,-31,1016,0
21406,524340,581681,85,-23,1016,0
21306,523934,581776,80,-23,1016,0
20645,523327,581007,80,-25,1023,0
20468,522554,580156,81,-36,1023,0
21206,522546,580289,78,-36,1013,0
21468,523182,580777,74,-19,1011,0
20727,524373,582008,74,-24,1005,0
20531,524673,582059,83,-24,1005,0
21381,525428,582677,73,-21,1020,0
21635,526605,583429,73,-22,1026,0
21501,528072,584994,71,-24,1026,0
20664,528610,585000,84,-24,1024,0
21411,529400,585809,84,-21,1008,0
21738,530171,586171,78,-28,1008,0
21448,531509,587380,71,-28,1017,0
20839,531894,587579,71,-25,1020,0
21590,532188,587787,88,-29,1035,0
21734,533007,588209,81,-29,1035,0
21428,534074,589319,74,-20,1004,0
20915,534195,589203,74,-22,1024,0
21031,533948,588998,81,-21,1024,0
21824,535242,589875,75,-21,1026,0
21575,536305,590825,75,-19,1010,0
21093,536322,590787,73,-26,1010,0
20943,536310,590387,75,-31,1023,0
22034,536952,591301,75,-31,1033,0
21999,538486,592478,75,-27,1033,0
21193,538501,592394,81,-24,1011,0
21316,538422,592075,77,-24,1013,0
22140,539123,592714,77,-30,1002,0
22065,539923,593256,75,-26,1002,0
21637,540479,593689,75,-26,1030,0
21267,540302,593368,75,-26,1010,0
22148,540899,594130,83,-21,1010,0
22166,541564,594431,82,-21,1026,0
21675,542443,595154,82,-20,1013,0
21221,542209,594596,82,-24,1016,0
22276,542837,595401,71,-25,1016,0
22228,543291,595639,83,-25,1018,0
21636,544048,596463,83,-27,1007,0
21297,543919,596253,75,-34,1007,0
21391,544350,596697,75,-34,1010,0
22354,545108,596960,75,-18,1008,0
21671,545651,597581,80,-21,1008,0
21334,545434,597365,83,-21,1005,0
21444,545389,597162,83,-24,1016,0
22339,546791,598315,84,-26,1016,0
21827,547239,598779,73,-25,1014,0
21450,546987,598512,76,-25,1007,0
21567,546694,598218,76,-24,1010,0
22390,547535,599057,90,-25,1010,0
22332,548101,599674,75,-25,1014,0
21536,548296,599242,75,-33,1018,0
21594,548120,599125,80,-30,1005,0
22597,548833,599888,77,-30,1005,0
22495,549383,600120,77,-24,1014,0
21866,549715,599921,78,-24,1032,0
21663,548970,599637,86,-24,1032,0
22663,549157,600309,75,-24,1021,0
22433,549103,599964,75,-19,1002,0
21692,548566,599486,74,-25,1002,0
21426,547032,596923,74,-25,1017,0
22554,543837,596079,74,-27,994,0
22305,541761,594420,78,-30,994,0
21451,539465,592727,75,-24,1004,0
21213,536849,590635,75,-24,1016,0
21545,534477,588148,71,-24,1020,0
22092,531352,586822,87,-27,1020,0
21263,529714,585579,75,-27,1002,0
21201,527543,583622,75,-26,1026,0
21381,525792,582362,78,-30,1026,0
22145,524999,582060,89,-30,1033,0
21058,522232,580026,89,-19,1010,0
20982,520523,578569,83,-21,1010,0
21311,519519,577570,80,-21,1013,0
22080,518896,577687,83,-29,1041,0
21790,518275,577106,83,-17,1014,0
21055,516393,575651,78,-27,1014,0
21367,515874,575298,81,-27,999,0
22048,516271,575907,81,-24,1014,0
21766,516543,576073,69,-27,1014,0
20936,516630,576085,80,-27,1024,0
21420,517247,576203,80,-21,1032,0
