3049,3552,4293,-17,-28,-24,10240,0.39,-0.08,1.68,1.35,3057,3566,4306,105,153,110,63,100,0
3053,3556,4296,-10,-19,-17,10240,0.39,-0.08,1.68,1.35,3056,3566,4306,105,153,110,63,100,0
3056,3561,4299,-5,-12,-11,10240,0.39,-0.08,1.68,1.35,3056,3566,4305,105,153,110,63,100,0
3060,3566,4305,-2,-7,-7,10240,0.39,-0.08,1.68,1.35,3057,3566,4305,105,153,110,63,100,0
3066,3576,4312,2,-1,-2,10240,0.39,-0.08,1.68,1.35,3057,3566,4306,105,153,110,63,100,0
3072,3585,4318,6,6,3,10240,0.39,-0.08,1.68,1.35,3057,3566,4306,105,153,110,63,100,0
3080,3602,4334,12,15,11,10240,0.39,-0.08,1.68,1.35,3058,3568,4307,105,153,110,63,100,0
3087,3612,4341,18,26,19,10240,0.39,-0.08,1.68,1.35,3059,3569,4308,105,153,110,63,100,0
3095,3623,4349,25,37,27,10240,0.39,-0.08,1.68,1.35,3060,3571,4310,105,153,110,63,100,0
3101,3634,4354,31,47,35,10240,0.39,-0.08,1.68,1.35,3062,3573,4311,105,153,110,63,100,0
3108,3644,4360,36,56,40,10240,0.39,-0.08,1.68,1.35,3063,3575,4313,105,153,110,63,100,0
3124,3663,4376,44,66,47,10240,0.39,-0.08,1.68,1.35,3065,3578,4315,105,153,110,63,100,0
3127,3669,4378,50,75,53,10240,0.39,-0.08,1.68,1.35,3067,3581,4317,105,153,110,63,100,0
3115,3651,4358,52,77,52,10240,0.39,-0.08,1.68,1.35,3069,3584,4318,105,153,107,63,100,0
3083,3606,4322,44,65,41,10240,0.39,-0.08,1.72,1.38,3069,3584,4318,101,147,107,66,100,0
3033,3558,4286,21,37,18,10240,0.39,-0.08,1.72,1.38,3068,3584,4317,101,147,107,66,100,0
3027,3519,4263,-3,0,-9,10240,0.39,-0.08,1.72,1.38,3067,3581,4315,101,147,107,66,100,0
3027,3520,4264,-24,-31,-32,10240,0.39,-0.08,1.72,1.38,3065,3579,4314,101,147,107,66,100,0
3031,3524,4267,-36,-50,-44,10240,0.39,-0.08,1.72,1.38,3064,3578,4312,101,147,107,66,100,0
3036,3529,4272,-34,-55,-46,10240,0.39,-0.08,1.72,1.38,3063,3576,4311,101,147,107,66,100,0
3051,3551,4281,-27,-46,-40,10240,0.39,-0.08,1.72,1.38,3063,3575,4310,101,147,107,66,100,0
3057,3560,4297,-19,-35,-31,10240,0.39,-0.08,1.72,1.38,3063,3575,4309,101,147,107,66,100,0
3060,3564,4299,-12,-24,-22,10240,0.39,-0.08,1.72,1.38,3063,3574,4309,101,147,107,66,100,0
3062,3568,4301,-5,-13,-14,10240,0.39,-0.08,1.72,1.38,3063,3574,4309,101,147,107,66,100,0
3065,3571,4304,-2,-8,-8,10240,0.39,-0.08,1.72,1.38,3063,3574,4309,101,147,107,66,100,0
3075,3586,4316,2,-1,-4,10240,0.39,-0.08,1.72,1.38,3063,3574,4309,101,147,107,66,100,0
3077,3592,4323,6,5,2,10240,0.39,-0.08,1.72,1.38,3064,3575,4309,101,147,107,66,100,0
3086,3606,4330,12,14,9,10240,0.39,-0.08,1.72,1.38,3064,3576,4310,101,147,107,66,100,0
3096,3619,4341,19,25,17,10240,0.39,-0.08,1.72,1.38,3065,3577,4311,101,147,107,66,100,0
3104,3633,4349,25,35,25,10240,0.39,-0.08,1.72,1.38,3067,3579,4312,101,147,107,66,100,0
3122,3656,4366,36,50,34,10240,0.39,-0.08,1.72,1.38,3068,3582,4314,101,147,107,66,100,0
3128,3668,4376,45,63,44,10240,0.39,-0.08,1.72,1.38,3070,3585,4316,101,147,107,66,100,0
3136,3676,4380,53,74,52,10240,0.39,-0.08,1.72,1.38,3073,3588,4318,101,147,107,66,100,0
3144,3681,4381,61,83,58,10240,0.39,-0.08,1.72,1.38,3075,3591,4320,101,147,107,66,100,0
3146,3688,4389,64,88,62,10240,0.39,-0.08,1.72,1.38,3077,3594,4323,101,147,107,66,99,0
3133,3672,4366,63,86,57,10240,0.39,-0.08,1.72,1.38,3079,3597,4324,100,146,107,66,99,0
3091,3615,4324,50,69,42,10240,0.39,-0.08,1.64,1.31,3080,3597,4324,100,146,107,66,99,0
3062,3568,4291,29,39,19,10240,0.39,-0.08,1.64,1.31,3079,3596,4323,100,146,107,66,99,0
3043,3540,4273,3,2,-9,10240,0.39,-0.08,1.64,1.31,3078,3594,4321,100,146,107,66,99,0
3036,3531,4269,-20,-31,-32,10240,0.39,-0.08,1.64,1.31,3076,3592,4320,100,146,107,66,99,0
3036,3528,4269,-32,-51,-45,10240,0.39,-0.08,1.64,1.31,3075,3590,4318,100,146,107,66,99,0
3037,3531,4272,-37,-58,-48,10240,0.39,-0.08,1.64,1.31,3074,3588,4316,100,146,107,66,99,0
3042,3540,4281,-36,-56,-44,10240,0.39,-0.08,1.64,1.31,3073,3587,4315,100,146,107,66,99,0
3052,3552,4290,-31,-49,-37,10240,0.39,-0.08,1.64,1.31,3072,3585,4314,100,146,107,66,99,0
3059,3562,4298,-25,-40,-29,10240,0.39,-0.08,1.64,1.31,3072,3585,4314,100,146,107,66,99,0
3066,3570,4303,-17,-29,-21,10240,0.39,-0.08,1.64,1.31,3071,3584,4314,100,146,107,66,99,0
3066,3572,4304,-10,-20,-15,10240,0.39,-0.08,1.64,1.31,3071,3584,4313,100,146,107,66,99,0
3070,3577,4308,-6,-14,-10,10240,0.39,-0.08,1.64,1.31,3071,3584,4313,100,146,107,66,99,0
3074,3586,4315,-2,-7,-5,10240,0.39,-0.08,1.64,1.31,3071,3584,4313,100,146,107,66,99,0
3075,3591,4321,0,-2,-1,10240,0.39,-0.08,1.64,1.31,3072,3584,4313,100,146,107,66,99,0
3095,3616,4338,7,8,7,10240,0.39,-0.08,1.64,1.31,3072,3585,4314,100,146,107,66,99,0
3102,3629,4347,14,20,16,10240,0.39,-0.08,1.64,1.31,3073,3586,4315,100,146,107,66,99,0
3110,3642,4355,22,33,25,10240,0.39,-0.08,1.64,1.31,3075,3588,4317,100,146,107,66,99,0
3116,3651,4361,31,47,34,10240,0.39,-0.08,1.64,1.31,3076,3590,4318,100,146,107,66,99,0
3125,3661,4369,37,56,40,10240,0.39,-0.08,1.64,1.31,3078,3593,4320,100,146,107,66,99,0
3140,3677,4380,45,66,47,10240,0.39,-0.08,1.64,1.31,3080,3596,4322,100,146,107,66,99,0
3146,3683,4380,52,73,51,10240,0.39,-0.08,1.64,1.31,3082,3598,4324,100,146,107,66,99,0
3147,3688,4389,58,80,56,10240,0.39,-0.08,1.64,1.31,3084,3601,4326,100,146,107,66,99,0
3151,3695,4391,63,85,60,10240,0.39,-0.08,1.64,1.31,3086,3605,4328,100,146,107,66,99,0
3143,3683,4375,61,84,56,10240,0.39,-0.08,1.64,1.31,3088,3607,4330,100,146,108,64,99,0
3070,3580,4299,41,56,35,10240,0.39,-0.08,1.62,1.30,3087,3606,4329,100,146,108,64,99,0
3045,3544,4274,15,20,6,10240,0.39,-0.08,1.62,1.30,3086,3604,4327,100,146,108,64,99,0
3034,3529,4266,-13,-20,-24,10240,0.39,-0.08,1.62,1.30,3084,3602,4325,100,146,108,64,99,0
3031,3523,4263,-40,-58,-50,10240,0.39,-0.08,1.62,1.30,3083,3599,4323,100,146,108,64,99,0
3030,3523,4265,-48,-70,-57,10240,0.39,-0.08,1.62,1.30,3081,3597,4321,100,146,108,64,99,0
3033,3528,4271,-49,-72,-55,10240,0.39,-0.08,1.62,1.30,3079,3594,4319,100,146,108,64,99,0
3039,3537,4279,-47,-67,-50,10240,0.39,-0.08,1.62,1.30,3078,3592,4318,100,146,108,64,99,0
3048,3549,4288,-41,-59,-43,10240,0.39,-0.08,1.62,1.30,3077,3591,4317,100,146,108,64,99,0
3053,3555,4293,-34,-49,-34,10240,0.39,-0.08,1.62,1.30,3076,3590,4316,100,146,108,64,99,0
3056,3558,4295,-27,-40,-27,10240,0.39,-0.08,1.62,1.30,3075,3589,4315,100,146,108,64,99,0
3059,3564,4300,-21,-33,-21,10240,0.39,-0.08,1.62,1.30,3075,3588,4315,100,146,108,64,99,0
3066,3572,4305,-16,-26,-16,10240,0.39,-0.08,1.62,1.30,3075,3587,4314,100,146,108,64,99,0
3072,3583,4313,-11,-18,-11,10240,0.39,-0.08,1.62,1.30,3074,3587,4314,100,146,108,64,99,0
3074,3588,4320,-6,-10,-5,10240,0.39,-0.08,1.62,1.30,3074,3587,4315,100,146,108,64,99,0
3087,3598,4328,0,-2,2,10240,0.39,-0.08,1.62,1.30,3075,3588,4315,100,146,108,64,99,0
3096,3622,4346,7,10,11,10240,0.39,-0.08,1.62,1.30,3076,3589,4316,100,146,108,64,99,0
3102,3633,4352,14,21,20,10240,0.39,-0.08,1.62,1.30,3076,3590,4317,100,146,108,64,99,0
3107,3643,4357,21,34,29,10240,0.39,-0.08,1.62,1.30,3078,3592,4319,100,146,108,64,99,0
3114,3652,4364,27,46,36,10240,0.39,-0.08,1.62,1.30,3079,3594,4320,100,146,108,64,99,0
3129,3658,4371,34,53,41,10240,0.39,-0.08,1.62,1.30,3080,3596,4322,100,146,108,64,99,0
3136,3675,4382,41,61,47,10240,0.39,-0.08,1.62,1.30,3082,3599,4324,100,146,108,64,99,0
3141,3678,4381,48,68,51,10240,0.39,-0.08,1.62,1.30,3084,3601,4326,100,146,108,64,99,0
3139,3679,4380,53,72,53,10240,0.39,-0.08,1.62,1.30,3086,3604,4327,100,146,108,64,99,0
3112,3647,4351,47,67,47,10240,0.39,-0.08,1.62,1.30,3087,3605,4328,101,145,108,64,99,0
3046,3547,4279,23,34,20,10240,0.45,-0.08,1.61,1.31,3086,3603,4327,101,145,108,64,99,0
3029,3525,4265,-4,-3,-8,10240,0.45,-0.08,1.61,1.31,3084,3601,4325,101,145,108,64,99,0
3024,3517,4261,-32,-42,-36,10240,0.45,-0.08,1.61,1.31,3082,3598,4322,101,145,108,64,99,0
3024,3516,4263,-52,-73,-56,10240,0.45,-0.08,1.61,1.31,3080,3595,4320,101,145,108,64,99,0
3024,3516,4264,-55,-78,-58,10240,0.45,-0.08,1.61,1.31,3078,3593,4319,101,145,108,64,99,0
3033,3531,4276,-52,-74,-53,10240,0.45,-0.08,1.61,1.31,3076,3591,4317,101,145,108,64,99,0
3039,3540,4285,-47,-66,-46,10240,0.45,-0.08,1.61,1.31,3075,3589,4316,101,145,108,64,99,0
3045,3546,4290,-40,-56,-38,10240,0.45,-0.08,1.61,1.31,3074,3587,4315,101,145,108,64,99,0
3047,3550,4290,-33,-46,-30,10240,0.45,-0.08,1.61,1.31,3073,3586,4314,101,145,108,64,99,0
3048,3552,4293,-28,-39,-25,10240,0.45,-0.08,1.61,1.31,3072,3585,4314,101,145,108,64,99,0
3056,3562,4300,-23,-33,-20,10240,0.45,-0.08,1.61,1.31,3072,3584,4313,101,145,108,64,99,0
3063,3570,4306,-18,-26,-16,10240,0.45,-0.08,1.61,1.31,3072,3584,4313,101,145,108,64,99,0
3069,3580,4314,-12,-18,-10,10240,0.45,-0.08,1.61,1.31,3071,3584,4313,101,145,108,64,99,0
3073,3587,4320,-6,-9,-3,10240,0.45,-0.08,1.61,1.31,3072,3584,4313,101,145,108,64,99,0
3076,3595,4327,-1,-1,3,10240,0.45,-0.08,1.61,1.31,3072,3584,4314,101,145,108,64,99,0
3092,3618,4345,5,10,12,10240,0.45,-0.08,1.61,1.31,3072,3585,4315,101,145,108,64,99,0
3099,3631,4350,12,22,21,10240,0.45,-0.08,1.61,1.31,3073,3587,4316,101,145,108,64,99,0
3105,3642,4357,20,35,29,10240,0.45,-0.08,1.61,1.31,3074,3589,4317,101,145,108,64,99,0
3113,3652,4363,28,47,37,10240,0.45,-0.08,1.61,1.31,3076,3591,4319,101,145,108,64,99,0
3119,3658,4369,34,55,41,10240,0.45,-0.08,1.61,1.31,3077,3593,4321,101,145,108,64,99,0
3131,3675,4382,40,64,47,10240,0.45,-0.08,1.61,1.31,3079,3596,4323,101,145,108,64,99,0
3136,3675,4382,46,70,52,10240,0.45,-0.08,1.61,1.31,3081,3598,4325,101,145,108,64,99,0
3138,3678,4382,51,74,55,10240,0.45,-0.08,1.61,1.31,3083,3601,4326,101,145,108,64,99,0
3124,3666,4368,50,74,53,10240,0.45,-0.08,1.61,1.31,3084,3603,4328,102,145,109,69,99,0
3087,3614,4327,38,56,38,10240,0.45,-0.08,1.60,1.31,3084,3604,4328,102,147,109,69,99,0
3030,3529,4268,11,19,9,10240,0.45,-0.08,1.60,1.31,3082,3601,4326,102,147,109,69,99,0
3022,3515,4259,-16,-20,-21,10240,0.45,-0.08,1.60,1.31,3080,3598,4324,102,147,109,69,99,0
3022,3515,4262,-40,-56,-45,10240,0.45,-0.08,1.60,1.31,3078,3595,4321,102,147,109,69,99,0
3023,3517,4264,-55,-77,-59,10240,0.45,-0.08,1.60,1.31,3077,3593,4320,102,147,109,69,99,0
3025,3522,4267,-54,-76,-57,10240,0.45,-0.08,1.60,1.31,3075,3590,4318,102,147,109,69,99,0
3040,3541,4283,-48,-68,-50,10240,0.45,-0.08,1.60,1.31,3074,3589,4317,102,147,109,69,99,0
3047,3551,4291,-41,-57,-41,10240,0.45,-0.08,1.60,1.31,3073,3588,4316,102,147,109,69,99,0
3052,3557,4295,-32,-45,-32,10240,0.45,-0.08,1.60,1.31,3072,3587,4315,102,147,109,69,99,0
3054,3560,4296,-24,-35,-24,10240,0.45,-0.08,1.60,1.31,3071,3586,4314,102,147,109,69,99,0
3063,3572,4298,-17,-26,-19,10240,0.45,-0.08,1.60,1.31,3071,3585,4314,102,147,109,69,99,0
3071,3582,4311,-11,-18,-14,10240,0.45,-0.08,1.60,1.31,3071,3585,4314,102,147,109,69,99,0
3074,3588,4318,-5,-9,-8,10240,0.45,-0.08,1.60,1.31,3071,3585,4314,102,147,109,69,99,0
3077,3598,4326,0,0,0,10240,0.45,-0.08,1.60,1.31,3071,3586,4314,102,147,109,69,99,0
3086,3610,4334,5,9,8,10240,0.45,-0.08,1.60,1.31,3072,3586,4315,102,147,109,69,99,0
3102,3636,4344,13,21,15,10240,0.45,-0.08,1.60,1.31,3073,3588,4316,102,147,109,69,99,0
3111,3648,4359,21,35,25,10240,0.45,-0.08,1.60,1.31,3074,3590,4317,102,147,109,69,99,0
3119,3656,4366,30,48,34,10240,0.45,-0.08,1.60,1.31,3076,3592,4319,102,147,109,69,99,0
3126,3668,4376,39,60,43,10240,0.45,-0.08,1.60,1.31,3077,3595,4321,102,147,109,69,99,0
3134,3676,4380,46,68,50,10240,0.45,-0.08,1.60,1.31,3079,3597,4323,102,147,109,69,99,0
3144,3688,4388,52,75,55,10240,0.45,-0.08,1.60,1.31,3081,3601,4325,102,147,109,69,99,0
3150,3697,4391,58,83,59,10240,0.45,-0.08,1.60,1.31,3084,3604,4327,102,147,109,69,99,0
3159,3710,4392,64,90,61,10240,0.45,-0.08,1.60,1.31,3086,3607,4329,102,147,109,69,99,0
3157,3707,4391,67,94,62,10240,0.45,-0.08,1.60,1.31,3089,3611,4332,102,147,109,70,99,0
3137,3679,4368,63,89,55,10240,0.45,-0.08,1.60,1.31,3090,3613,4333,107,153,112,70,99,0
3067,3578,4295,41,57,30,10240,0.45,-0.08,1.64,1.34,3089,3612,4331,107,153,112,70,99,0
3049,3552,4279,13,17,1,10240,0.45,-0.08,1.64,1.34,3088,3610,4330,107,153,112,70,99,0
3042,3543,4274,-14,-22,-26,10240,0.45,-0.08,1.64,1.34,3087,3607,4328,107,153,112,70,99,0
3042,3542,4276,-37,-54,-47,10240,0.45,-0.08,1.64,1.34,3085,3605,4326,107,153,112,70,99,0
3042,3542,4276,-42,-61,-50,10240,0.45,-0.08,1.64,1.34,3084,3603,4324,107,153,112,70,99,0
3052,3556,4289,-40,-58,-46,10240,0.45,-0.08,1.64,1.34,3083,3602,4323,107,153,112,70,99,0
3061,3567,4299,-34,-50,-38,10240,0.45,-0.08,1.64,1.34,3082,3600,4322,107,153,112,70,99,0
3066,3576,4305,-27,-41,-30,10240,0.45,-0.08,1.64,1.34,3081,3600,4322,107,153,112,70,99,0
3069,3580,4307,-19,-30,-22,10240,0.45,-0.08,1.64,1.34,3081,3599,4321,107,153,112,70,99,0
3071,3583,4308,-14,-22,-16,10240,0.45,-0.08,1.64,1.34,3081,3598,4321,107,153,112,70,99,0
3074,3587,4315,-10,-17,-12,10240,0.45,-0.08,1.64,1.34,3080,3598,4321,107,153,112,70,99,0
3075,3592,4319,-8,-12,-8,10240,0.45,-0.08,1.64,1.34,3080,3598,4321,107,153,112,70,99,0
3079,3602,4327,-5,-7,-3,10240,0.45,-0.08,1.64,1.34,3080,3598,4321,107,153,112,70,99,0
3089,3614,4336,0,0,3,10240,0.45,-0.08,1.64,1.34,3080,3599,4321,107,153,112,70,99,0
3097,3626,4345,4,10,10,10240,0.45,-0.08,1.64,1.34,3081,3599,4322,107,153,112,70,99,0
3112,3651,4361,13,24,20,10240,0.45,-0.08,1.64,1.34,3082,3601,4324,107,153,112,70,99,0
3121,3661,4370,23,37,30,10240,0.45,-0.08,1.64,1.34,3083,3603,4325,107,153,112,70,99,0
3128,3670,4377,31,50,38,10240,0.45,-0.08,1.64,1.34,3085,3605,4327,107,153,112,70,99,0
3135,3676,4380,39,60,45,10240,0.45,-0.08,1.64,1.34,3087,3608,4329,107,153,112,70,99,0
3142,3683,4384,45,66,50,10240,0.45,-0.08,1.64,1.34,3088,3610,4330,107,153,112,70,99,0
3150,3700,4391,51,73,53,10240,0.45,-0.08,1.64,1.34,3090,3613,4332,107,153,112,70,99,0
3158,3710,4394,56,80,56,10240,0.45,-0.08,1.64,1.34,3093,3617,4334,107,153,112,70,99,0
3165,3720,4402,62,88,59,10240,0.45,-0.08,1.64,1.34,3095,3620,4337,107,153,112,70,99,0
3167,3723,4401,66,95,61,10240,0.45,-0.08,1.64,1.34,3097,3623,4339,107,153,112,70,99,0
3150,3698,4383,64,91,57,10240,0.45,-0.08,1.64,1.34,3099,3626,4340,107,154,112,70,99,0
3076,3596,4309,42,60,35,10240,0.45,-0.08,1.65,1.34,3098,3625,4339,107,154,112,70,99,0
3058,3568,4291,15,22,7,10240,0.45,-0.08,1.65,1.34,3097,3623,4338,107,154,112,70,99,0
3049,3555,4285,-14,-19,-21,10240,0.45,-0.08,1.65,1.34,3096,3621,4336,107,154,112,70,99,0
3049,3554,4286,-38,-53,-44,10240,0.45,-0.08,1.65,1.34,3094,3618,4334,107,154,112,70,99,0
3051,3558,4289,-43,-60,-47,10240,0.45,-0.08,1.65,1.34,3093,3616,4333,107,154,112,70,99,0
3063,3573,4301,-40,-57,-43,10240,0.45,-0.08,1.65,1.34,3092,3615,4332,107,154,112,70,99,0
3072,3585,4311,-33,-48,-35,10240,0.45,-0.08,1.65,1.34,3091,3614,4331,107,154,112,70,99,0
3073,3588,4315,-26,-38,-27,10240,0.45,-0.08,1.65,1.34,3090,3613,4330,107,154,112,70,99,0
3072,3589,4316,-20,-29,-20,10240,0.45,-0.08,1.65,1.34,3090,3612,4330,107,154,112,70,99,0
3072,3589,4316,-17,-25,-15,10240,0.45,-0.08,1.65,1.34,3089,3612,4330,107,154,112,70,99,0
3075,3594,4319,-16,-22,-13,10240,0.45,-0.08,1.65,1.34,3089,3611,4329,107,154,112,70,99,0
3078,3600,4322,-14,-18,-11,10240,0.45,-0.08,1.65,1.34,3088,3611,4329,107,154,112,70,99,0
3083,3608,4329,-11,-13,-7,10240,0.45,-0.08,1.65,1.34,3088,3611,4329,107,154,112,70,99,0
3090,3618,4337,-6,-6,-2,10240,0.45,-0.08,1.65,1.34,3088,3611,4329,107,154,112,70,99,0
3105,3643,4347,0,6,4,10240,0.45,-0.08,1.65,1.34,3089,3612,4330,107,154,112,70,99,0
3112,3652,4358,9,18,13,10240,0.45,-0.08,1.65,1.34,3089,3613,4331,107,154,112,70,99,0
3119,3657,4364,17,29,21,10240,0.45,-0.08,1.65,1.34,3090,3615,4332,107,154,112,70,99,0
3126,3670,4374,25,41,29,10240,0.45,-0.08,1.65,1.34,3092,3616,4333,107,154,112,70,99,0
3134,3678,4379,31,48,36,10240,0.45,-0.08,1.65,1.34,3093,3619,4335,107,154,112,70,99,0
3144,3687,4385,38,55,41,10240,0.45,-0.08,1.65,1.34,3095,3621,4336,107,154,112,70,99,0
3143,3689,4388,42,61,46,10240,0.45,-0.08,1.65,1.34,3096,3623,4338,107,154,112,70,99,0
3137,3680,4371,44,61,43,10240,0.45,-0.08,1.65,1.34,3098,3625,4339,107,154,107,70,99,0
3100,3632,4334,34,48,31,10240,0.45,-0.08,1.72,1.40,3098,3625,4339,102,145,107,70,99,0
3068,3582,4298,14,21,9,10240,0.45,-0.08,1.72,1.40,3097,3624,4338,102,145,107,70,98,0
3039,3539,4272,-11,-15,-19,10240,0.45,-0.08,1.72,1.40,3095,3621,4336,102,145,107,70,98,0
3038,3539,4273,-34,-49,-42,10240,0.45,-0.08,1.72,1.40,3093,3618,4333,102,145,107,70,98,0
3040,3542,4277,-47,-69,-54,10240,0.45,-0.08,1.72,1.40,3091,3616,4332,102,145,107,70,98,0
3043,3546,4282,-52,-75,-56,10240,0.45,-0.08,1.72,1.40,3090,3613,4330,102,145,107,70,98,0
3048,3554,4289,-48,-69,-50,10240,0.45,-0.08,1.72,1.40,3088,3611,4329,102,145,107,70,98,0
3065,3575,4304,-40,-58,-41,10240,0.45,-0.08,1.72,1.40,3087,3610,4328,102,145,107,70,98,0
3066,3577,4307,-32,-47,-33,10240,0.45,-0.08,1.72,1.40,3087,3609,4327,102,145,107,70,98,0
3064,3576,4305,-26,-39,-26,10240,0.45,-0.08,1.72,1.40,3086,3608,4326,102,145,107,70,98,0
3065,3577,4307,-21,-32,-21,10240,0.45,-0.08,1.72,1.40,3085,3607,4326,102,145,107,70,98,0
3068,3582,4310,-20,-29,-18,10240,0.45,-0.08,1.72,1.40,3085,3606,4325,102,145,107,70,98,0
3072,3589,4320,-17,-25,-15,10240,0.45,-0.08,1.72,1.40,3084,3606,4325,102,145,107,70,98,0
3075,3596,4326,-14,-20,-9,10240,0.45,-0.08,1.72,1.40,3084,3605,4325,102,145,107,70,98,0
3080,3607,4334,-10,-12,-2,10240,0.45,-0.08,1.72,1.40,3084,3605,4325,102,145,107,70,98,0
3088,3618,4341,-5,-3,5,10240,0.45,-0.08,1.72,1.40,3084,3606,4326,102,145,107,70,98,0
3096,3628,4349,0,6,11,10240,0.45,-0.08,1.72,1.40,3084,3606,4327,102,145,107,70,98,0
3107,3649,4362,8,19,20,10240,0.45,-0.08,1.72,1.40,3085,3608,4328,102,145,107,70,98,0
3115,3656,4368,16,30,27,10240,0.45,-0.08,1.72,1.40,3086,3609,4329,102,145,107,70,98,0
3120,3664,4374,24,40,34,10240,0.45,-0.08,1.72,1.40,3087,3611,4331,102,145,107,70,98,0
3126,3673,4381,30,50,41,10240,0.45,-0.08,1.72,1.40,3089,3613,4332,102,145,107,70,98,0
3132,3676,4381,35,55,44,10240,0.45,-0.08,1.72,1.40,3090,3615,4334,102,145,107,70,98,0
3109,3652,4355,32,52,39,10240,0.45,-0.08,1.72,1.40,3091,3617,4335,99,142,106,70,98,0
3073,3595,4312,20,33,23,10240,0.45,-0.08,1.61,1.31,3090,3616,4334,99,142,106,70,98,0
3036,3542,4274,-2,0,-3,10240,0.45,-0.08,1.61,1.31,3088,3614,4332,99,142,106,70,98,0
3014,3510,4254,-30,-39,-33,10240,0.45,-0.08,1.61,1.31,3086,3610,4329,99,142,106,70,98,0
3004,3499,4249,-55,-75,-58,10240,0.45,-0.08,1.61,1.31,3083,3606,4327,99,142,106,70,98,0
3002,3498,4249,-70,-96,-71,10240,0.45,-0.08,1.61,1.31,3080,3603,4324,99,142,106,70,98,0
3004,3498,4251,-75,-103,-74,10240,0.45,-0.08,1.61,1.31,3078,3599,4322,99,142,106,70,98,0
3009,3502,4258,-74,-101,-71,10240,0.45,-0.08,1.61,1.31,3076,3596,4319,99,142,106,70,98,0
3016,3513,4267,-69,-95,-64,10240,0.45,-0.08,1.61,1.31,3074,3593,4318,99,142,106,70,98,0
3022,3521,4273,-62,-86,-56,10240,0.45,-0.08,1.61,1.31,3072,3591,4316,99,142,106,70,98,0
3024,3523,4274,-55,-77,-49,10240,0.45,-0.08,1.61,1.31,3070,3589,4315,99,142,106,70,98,0
3024,3523,4276,-49,-69,-43,10240,0.45,-0.08,1.61,1.31,3069,3586,4313,99,142,106,70,98,0
3026,3527,4279,-45,-64,-38,10240,0.45,-0.08,1.61,1.31,3067,3584,4312,99,142,106,70,98,0
3030,3533,4284,-42,-59,-34,10240,0.45,-0.08,1.61,1.31,3066,3583,4311,99,142,106,70,98,0
3035,3541,4290,-38,-52,-29,10240,0.45,-0.08,1.61,1.31,3065,3581,4311,99,142,106,70,98,0
3049,3561,4306,-30,-41,-21,10240,0.45,-0.08,1.61,1.31,3064,3581,4311,99,142,106,70,98,0
3056,3573,4314,-22,-29,-12,10240,0.45,-0.08,1.61,1.31,3064,3580,4311,99,142,106,70,98,0
3067,3585,4320,-12,-15,-3,10240,0.45,-0.08,1.61,1.31,3064,3581,4311,99,142,106,70,98,0
3069,3591,4328,-3,-3,6,10240,0.45,-0.08,1.61,1.31,3064,3581,4311,99,142,106,70,98,0
3075,3599,4333,2,6,12,10240,0.45,-0.08,1.61,1.31,3065,3581,4312,99,142,106,70,98,0
3086,3618,4346,9,16,20,10240,0.45,-0.08,1.61,1.31,3065,3583,4313,99,142,106,70,98,0
3092,3627,4352,15,26,27,10240,0.45,-0.08,1.61,1.31,3066,3584,4315,99,142,106,70,98,0
3097,3638,4357,21,37,33,10240,0.45,-0.08,1.61,1.31,3067,3586,4316,99,142,106,70,98,0
3103,3646,4362,27,47,38,10240,0.45,-0.08,1.61,1.31,3069,3588,4318,99,142,106,70,98,0
3098,3637,4351,29,50,38,10240,0.45,-0.08,1.61,1.31,3070,3590,4319,99,142,106,70,98,0
3029,3534,4271,13,25,17,10240,0.45,-0.08,1.61,1.31,3068,3588,4317,100,144,107,70,98,0
3002,3494,4247,-10,-10,-9,10240,0.45,-0.08,1.62,1.32,3066,3585,4315,100,144,107,70,98,0
2994,3474,4241,-36,-51,-38,10240,0.45,-0.08,1.62,1.32,3064,3581,4312,100,144,107,70,98,0
2989,3468,4238,-61,-90,-64,10240,0.45,-0.08,1.62,1.32,3061,3577,4310,100,144,107,70,98,0
2989,3468,4240,-69,-103,-69,10240,0.45,-0.08,1.62,1.32,3059,3574,4307,100,144,107,70,98,0
2993,3473,4249,-69,-104,-66,10240,0.45,-0.08,1.62,1.32,3057,3570,4306,100,144,107,70,98,0
2997,3479,4253,-66,-100,-61,10240,0.45,-0.08,1.62,1.32,3055,3567,4304,100,144,107,70,98,0
2998,3488,4252,-61,-91,-56,10240,0.45,-0.08,1.62,1.32,3053,3564,4302,100,144,107,70,98,0
3002,3497,4255,-56,-81,-50,10240,0.45,-0.08,1.62,1.32,3051,3562,4300,100,144,107,70,98,0
3006,3501,4259,-51,-72,-46,10240,0.45,-0.08,1.62,1.32,3049,3560,4299,100,144,107,70,98,0
3005,3500,4261,-47,-64,-43,10240,0.45,-0.08,1.62,1.32,3048,3558,4298,100,144,107,70,98,0
3016,3512,4270,-41,-56,-37,10240,0.45,-0.08,1.62,1.32,3047,3557,4297,100,144,107,70,98,0
3020,3522,4276,-35,-49,-31,10240,0.45,-0.08,1.62,1.32,3046,3556,4296,100,144,107,70,98,0
3024,3528,4282,-30,-41,-24,10240,0.45,-0.08,1.62,1.32,3045,3555,4296,100,144,107,70,98,0
3032,3540,4291,-22,-30,-16,10240,0.45,-0.08,1.62,1.32,3045,3554,4296,100,144,107,70,98,0
3048,3561,4307,-14,-17,-7,10240,0.45,-0.08,1.62,1.32,3045,3554,4296,100,144,107,70,98,0
3058,3575,4315,-4,-3,2,10240,0.45,-0.08,1.62,1.32,3045,3555,4297,100,144,107,70,98,0
3067,3586,4322,6,10,12,10240,0.45,-0.08,1.62,1.32,3046,3556,4297,100,144,107,70,98,0
3065,3591,4327,13,22,20,10240,0.45,-0.08,1.62,1.32,3047,3557,4298,100,144,107,70,98,0
3073,3600,4334,19,31,26,10240,0.45,-0.08,1.62,1.32,3048,3559,4300,100,144,107,70,98,0
3085,3619,4347,25,40,33,10240,0.45,-0.08,1.62,1.32,3049,3561,4301,100,144,107,70,98,0
3090,3629,4352,29,49,39,10240,0.45,-0.08,1.62,1.32,3050,3563,4303,100,144,107,70,98,0
3097,3639,4359,36,59,45,10240,0.45,-0.08,1.62,1.32,3052,3565,4305,100,144,107,70,98,0
3099,3643,4359,41,68,50,10240,0.45,-0.08,1.62,1.32,3053,3568,4307,100,144,107,70,98,0
3084,3617,4337,40,65,46,10240,0.45,-0.08,1.62,1.32,3054,3570,4308,102,151,110,70,98,0
3013,3513,4258,20,35,21,10240,0.45,-0.08,1.66,1.31,3053,3568,4306,102,151,110,70,98,0
2997,3485,4248,-4,-3,-5,10240,0.45,-0.08,1.66,1.31,3051,3565,4304,102,151,110,70,98,0
2989,3472,4240,-31,-44,-34,10240,0.45,-0.08,1.66,1.31,3049,3562,4302,102,151,110,70,98,0
2988,3470,4241,-53,-78,-56,10240,0.45,-0.08,1.66,1.31,3047,3559,4300,102,151,110,70,98,0
2994,3471,4243,-56,-86,-58,10240,0.45,-0.08,1.66,1.31,3045,3556,4298,102,151,110,70,98,0
2997,3480,4253,-54,-84,-54,10240,0.45,-0.08,1.66,1.31,3044,3553,4296,102,151,110,70,98,0
2998,3489,4253,-50,-77,-49,10240,0.45,-0.08,1.66,1.31,3042,3551,4295,102,151,110,70,98,0
3000,3498,4253,-45,-67,-45,10240,0.45,-0.08,1.66,1.31,3041,3549,4294,102,151,110,70,98,0
3000,3498,4252,-42,-59,-41,10240,0.45,-0.08,1.66,1.31,3039,3548,4292,102,151,110,70,98,0
3001,3500,4255,-40,-52,-39,10240,0.45,-0.08,1.66,1.31,3038,3546,4291,102,151,110,70,98,0
3004,3502,4261,-37,-47,-36,10240,0.45,-0.08,1.66,1.31,3037,3545,4290,102,151,110,70,98,0
3009,3510,4267,-34,-43,-31,10240,0.45,-0.08,1.66,1.31,3036,3544,4289,102,151,110,70,98,0
3015,3517,4273,-29,-37,-25,10240,0.45,-0.08,1.66,1.31,3035,3543,4289,102,151,110,70,98,0
3022,3525,4279,-23,-30,-19,10240,0.45,-0.08,1.66,1.31,3035,3542,4288,102,151,110,70,98,0
3035,3545,4288,-15,-18,-11,10240,0.45,-0.08,1.66,1.31,3035,3542,4288,102,151,110,70,98,0
3041,3554,4301,-6,-7,-3,10240,0.45,-0.08,1.66,1.31,3035,3543,4289,102,151,110,70,98,0
3046,3562,4307,1,4,5,10240,0.45,-0.08,1.66,1.31,3035,3543,4289,102,151,110,70,98,0
3053,3572,4313,8,15,13,10240,0.45,-0.08,1.66,1.31,3036,3544,4290,102,151,110,70,98,0
3062,3581,4318,14,23,20,10240,0.45,-0.08,1.66,1.31,3037,3545,4291,102,151,110,70,98,0
3067,3592,4323,20,32,24,10240,0.45,-0.08,1.66,1.31,3038,3547,4292,102,151,110,70,98,0
3065,3590,4320,24,37,27,10240,0.45,-0.08,1.66,1.31,3039,3548,4293,102,151,110,70,98,0
3039,3554,4289,20,32,20,10240,0.45,-0.08,1.66,1.31,3039,3549,4293,97,144,104,70,98,0
3002,3499,4252,4,11,3,10240,0.45,-0.08,1.67,1.32,3038,3547,4292,97,144,104,70,98,0
2976,3452,4226,-17,-23,-20,10240,0.45,-0.08,1.67,1.32,3036,3544,4289,97,144,104,70,98,0
2961,3420,4215,-42,-63,-44,10240,0.45,-0.08,1.67,1.32,3033,3540,4287,97,144,104,70,98,0
2963,3424,4216,-59,-93,-61,10240,0.45,-0.08,1.67,1.32,3031,3536,4285,97,144,104,70,98,0
2966,3431,4220,-65,-106,-66,10240,0.45,-0.08,1.67,1.32,3029,3532,4282,97,144,104,70,98,0
2972,3444,4228,-64,-104,-64,10240,0.45,-0.08,1.67,1.32,3027,3529,4281,97,144,104,70,98,0
2982,3460,4239,-57,-91,-56,10240,0.45,-0.08,1.67,1.32,3025,3527,4279,97,144,104,70,98,0
2995,3477,4253,-47,-75,-45,10240,0.45,-0.08,1.67,1.32,3024,3525,4278,97,144,104,70,98,0
2997,3478,4254,-38,-61,-35,10240,0.45,-0.08,1.67,1.32,3023,3524,4277,97,144,104,70,98,0
2997,3481,4253,-30,-50,-28,10240,0.45,-0.08,1.67,1.32,3022,3522,4277,97,144,104,70,98,0
2997,3482,4253,-26,-43,-23,10240,0.45,-0.08,1.67,1.32,3022,3521,4276,97,144,104,70,98,0
2999,3489,4251,-24,-39,-23,10240,0.45,-0.08,1.67,1.32,3021,3520,4275,97,144,104,70,98,0
3012,3511,4267,-20,-30,-19,10240,0.45,-0.08,1.67,1.32,3020,3520,4275,97,144,104,70,98,0
3020,3523,4275,-13,-19,-13,10240,0.45,-0.08,1.67,1.32,3020,3520,4275,97,144,104,70,98,0
3028,3533,4283,-5,-6,-6,10240,0.45,-0.08,1.67,1.32,3021,3520,4275,97,144,104,70,98,0
3036,3545,4292,3,7,4,10240,0.45,-0.08,1.67,1.32,3021,3521,4276,97,144,104,70,98,0
3043,3556,4299,10,18,11,10240,0.45,-0.08,1.67,1.32,3022,3522,4276,97,144,104,70,98,0
3057,3575,4313,19,30,20,10240,0.45,-0.08,1.67,1.32,3023,3524,4278,97,144,104,70,98,0
3069,3588,4320,28,42,28,10240,0.45,-0.08,1.67,1.32,3025,3526,4279,97,144,104,70,98,0
3066,3591,4324,34,52,35,10240,0.45,-0.08,1.67,1.32,3026,3528,4281,97,144,104,70,98,0
3071,3596,4329,40,60,41,10240,0.45,-0.08,1.67,1.32,3028,3531,4282,97,144,104,70,98,0
3070,3596,4324,42,63,42,10240,0.45,-0.08,1.67,1.32,3029,3533,4284,97,144,104,70,98,0
3006,3503,4252,25,40,25,10240,0.45,-0.08,1.67,1.32,3028,3532,4282,99,151,105,70,98,0
2977,3452,4224,3,5,0,10240,0.45,-0.08,1.74,1.33,3026,3529,4281,99,151,105,70,98,0
2960,3418,4208,-23,-37,-29,10240,0.45,-0.08,1.74,1.33,3024,3525,4278,99,151,105,68,98,0
2954,3416,4204,-50,-79,-57,10240,0.45,-0.08,1.74,1.33,3022,3522,4276,99,151,105,68,98,0
2955,3416,4205,-61,-98,-66,10240,0.45,-0.08,1.74,1.33,3020,3518,4273,99,151,105,68,98,0
2958,3416,4211,-64,-103,-67,10240,0.45,-0.08,1.74,1.33,3018,3515,4271,99,151,105,68,98,0
2964,3426,4219,-61,-98,-62,10240,0.45,-0.08,1.74,1.33,3016,3512,4269,99,151,105,68,98,0
2972,3443,4226,-54,-88,-55,10240,0.45,-0.08,1.74,1.33,3014,3509,4268,99,151,105,68,98,0
2979,3455,4234,-47,-76,-46,10240,0.45,-0.08,1.74,1.33,3013,3508,4267,99,151,105,68,98,0
2982,3461,4237,-39,-62,-38,10240,0.45,-0.08,1.74,1.33,3012,3506,4266,99,151,105,68,98,0
2987,3466,4244,-32,-50,-31,10240,0.45,-0.08,1.74,1.33,3011,3505,4265,99,151,105,68,98,0
2991,3473,4249,-27,-42,-24,10240,0.45,-0.08,1.74,1.33,3011,3504,4265,99,151,105,68,98,0
2996,3479,4253,-22,-34,-19,10240,0.45,-0.08,1.74,1.33,3010,3503,4264,99,151,105,68,98,0
2998,3487,4252,-17,-27,-15,10240,0.45,-0.08,1.74,1.33,3010,3502,4264,99,151,105,68,98,0
3003,3498,4255,-13,-18,-12,10240,0.45,-0.08,1.74,1.33,3010,3502,4264,99,151,105,68,98,0
3022,3525,4278,-5,-5,-4,10240,0.45,-0.08,1.74,1.33,3010,3503,4264,99,151,105,68,98,0
3029,3536,4286,2,8,3,10240,0.45,-0.08,1.74,1.33,3011,3504,4265,99,151,105,68,98,0
3037,3546,4292,12,22,13,10240,0.45,-0.08,1.74,1.33,3011,3505,4266,99,151,105,68,98,0
3043,3557,4299,21,36,23,10240,0.45,-0.08,1.74,1.33,3012,3507,4267,99,151,105,68,98,0
3051,3568,4306,28,45,29,10240,0.45,-0.08,1.74,1.33,3014,3509,4268,99,151,105,68,98,0
3069,3588,4318,36,56,36,10240,0.45,-0.08,1.74,1.33,3016,3512,4270,99,151,105,68,98,0
3068,3592,4324,43,65,42,10240,0.45,-0.08,1.74,1.33,3017,3515,4271,99,151,105,68,98,0
3072,3597,4328,48,73,48,10240,0.45,-0.08,1.74,1.33,3019,3517,4273,99,151,105,68,98,0
3068,3589,4316,51,75,49,10240,0.45,-0.08,1.74,1.33,3021,3520,4275,99,151,105,68,98,0
3034,3544,4279,41,62,38,10240,0.45,-0.08,1.74,1.33,3021,3520,4275,103,157,108,70,98,0
2968,3437,4214,15,23,10,10240,0.45,-0.08,1.77,1.35,3019,3518,4273,103,157,108,70,98,0
2956,3416,4203,-13,-21,-20,10240,0.45,-0.08,1.77,1.35,3017,3514,4271,103,157,108,70,98,0
2952,3416,4200,-40,-62,-47,10240,0.45,-0.08,1.77,1.35,3015,3511,4268,103,157,108,70,98,0
2951,3416,4202,-59,-91,-64,10240,0.45,-0.08,1.77,1.35,3013,3508,4266,103,157,108,70,98,0
2951,3416,4203,-61,-93,-65,10240,0.45,-0.08,1.77,1.35,3011,3505,4264,103,157,108,70,98,0
2961,3418,4215,-58,-90,-60,10240,0.45,-0.08,1.77,1.35,3009,3502,4262,103,157,108,70,98,0
2968,3435,4223,-52,-82,-52,10240,0.45,-0.08,1.77,1.35,3008,3500,4261,103,157,108,70,98,0
2973,3447,4230,-45,-72,-44,10240,0.45,-0.08,1.77,1.35,3007,3498,4260,103,157,108,70,98,0
2975,3450,4231,-38,-61,-35,10240,0.45,-0.08,1.77,1.35,3006,3496,4259,103,157,108,70,98,0
2976,3452,4232,-33,-51,-30,10240,0.45,-0.08,1.77,1.35,3005,3495,4258,103,157,108,70,98,0
2985,3465,4241,-28,-42,-25,10240,0.45,-0.08,1.77,1.35,3004,3494,4258,103,157,108,70,98,0
2993,3475,4250,-22,-34,-19,10240,0.45,-0.08,1.77,1.35,3004,3493,4257,103,157,108,70,98,0
2997,3481,4253,-16,-25,-13,10240,0.45,-0.08,1.77,1.35,3003,3493,4257,103,157,108,70,98,0
2998,3491,4253,-10,-15,-8,10240,0.45,-0.08,1.77,1.35,3003,3493,4257,103,157,108,70,98,0
3004,3501,4258,-5,-6,-3,10240,0.45,-0.08,1.77,1.35,3003,3493,4257,103,157,108,70,98,0
3017,3521,4277,0,5,3,10240,0.45,-0.08,1.77,1.35,3004,3494,4258,103,157,108,70,98,0
3023,3530,4283,7,17,10,10240,0.45,-0.08,1.77,1.35,3004,3495,4259,103,157,108,70,98,0
3029,3538,4289,14,27,18,10240,0.45,-0.08,1.77,1.35,3005,3497,4260,103,157,108,70,98,0
3034,3546,4295,21,37,26,10240,0.45,-0.08,1.77,1.35,3006,3498,4261,103,157,108,70,98,0
3045,3553,4300,27,44,31,10240,0.45,-0.08,1.77,1.35,3008,3500,4262,103,157,108,70,98,0
3051,3571,4312,32,52,37,10240,0.45,-0.08,1.77,1.35,3009,3502,4264,103,157,108,70,98,0
3054,3575,4314,37,60,42,10240,0.45,-0.08,1.77,1.35,3010,3505,4265,103,157,108,70,99,0
3037,3552,4292,37,59,40,10240,0.45,-0.08,1.77,1.35,3011,3506,4266,103,156,107,70,99,0
3001,3498,4253,25,44,27,10240,0.45,-0.08,1.77,1.36,3011,3506,4266,102,156,107,70,99,0
2944,3416,4198,-1,5,-1,10240,0.45,-0.08,1.77,1.36,3009,3503,4264,102,156,107,70,99,0
2937,3416,4195,-29,-33,-29,10240,0.45,-0.08,1.77,1.36,3006,3500,4261,102,156,107,70,99,0
2936,3416,4195,-53,-65,-52,10240,0.45,-0.08,1.77,1.36,3004,3497,4259,102,156,107,70,99,0
2936,3416,4197,-67,-82,-64,10240,0.45,-0.08,1.77,1.36,3002,3495,4257,102,156,107,70,99,0
2939,3416,4200,-66,-80,-61,10240,0.45,-0.08,1.77,1.36,3000,3492,4255,102,156,107,70,99,0
2951,3416,4214,-60,-77,-54,10240,0.45,-0.08,1.77,1.36,2998,3490,4254,102,156,107,70,99,0
2957,3416,4219,-53,-75,-47,10240,0.45,-0.08,1.77,1.36,2997,3487,4253,102,156,107,70,99,0
2958,3417,4219,-46,-72,-40,10240,0.45,-0.08,1.77,1.36,2995,3485,4251,102,156,107,70,99,0
2958,3417,4219,-40,-69,-34,10240,0.45,-0.08,1.77,1.36,2994,3483,4250,102,156,107,70,99,0
2959,3420,4220,-36,-66,-31,10240,0.45,-0.08,1.77,1.36,2993,3480,4249,102,156,107,70,99,0
2966,3439,4228,-33,-58,-28,10240,0.45,-0.08,1.77,1.36,2992,3479,4249,102,156,107,70,99,0
2973,3449,4236,-28,-48,-23,10240,0.45,-0.08,1.77,1.36,2991,3478,4248,102,156,107,70,99,0
2980,3462,4244,-22,-36,-16,10240,0.45,-0.08,1.77,1.36,2991,3478,4248,102,156,107,70,99,0
2988,3474,4252,-14,-22,-8,10240,0.45,-0.08,1.77,1.36,2991,3477,4248,102,156,107,70,99,0
2995,3483,4257,-7,-10,0,10240,0.45,-0.08,1.77,1.36,2991,3478,4248,102,156,107,70,99,0
3001,3500,4261,0,2,5,10240,0.45,-0.08,1.77,1.36,2991,3478,4249,102,156,107,70,99,0
3008,3511,4269,6,14,11,10240,0.45,-0.08,1.77,1.36,2992,3479,4250,102,156,107,70,99,0
3016,3521,4276,13,24,16,10240,0.45,-0.08,1.77,1.36,2993,3481,4250,102,156,107,70,99,0
3023,3530,4283,19,35,22,10240,0.45,-0.08,1.77,1.36,2994,3482,4252,102,156,107,70,99,0
3026,3537,4286,24,43,27,10240,0.45,-0.08,1.77,1.36,2995,3484,4253,102,156,107,70,99,0
2986,3473,4239,18,32,19,10240,0.45,-0.08,1.77,1.36,2995,3484,4252,99,149,103,70,99,0
2949,3418,4202,1,6,0,10240,0.45,-0.08,1.77,1.36,2993,3482,4251,99,149,103,70,99,0
2928,3416,4184,-21,-21,-23,10240,0.45,-0.08,1.77,1.36,2991,3480,4248,99,149,103,70,99,0
2919,3410,4176,-46,-51,-49,10240,0.45,-0.08,1.77,1.36,2989,3477,4246,99,149,103,70,99,0
2917,3406,4176,-61,-66,-62,10240,0.45,-0.08,1.77,1.36,2986,3475,4244,99,149,103,70,99,0
2923,3416,4183,-65,-64,-65,10240,0.45,-0.08,1.77,1.36,2984,3473,4242,99,149,103,70,99,0
2928,3416,4191,-63,-62,-61,10240,0.45,-0.08,1.77,1.36,2982,3471,4240,99,149,103,70,99,0
2935,3416,4200,-57,-58,-53,10240,0.45,-0.08,1.77,1.36,2981,3469,4239,99,149,103,70,99,0
2941,3416,4205,-49,-54,-44,10240,0.45,-0.08,1.77,1.36,2979,3467,4237,99,149,103,70,99,0
2944,3416,4208,-43,-52,-37,10240,0.45,-0.08,1.77,1.36,2978,3466,4236,99,149,103,70,99,0
2947,3416,4210,-37,-50,-31,10240,0.45,-0.08,1.77,1.36,2977,3464,4236,99,149,103,70,99,0
2950,3416,4212,-32,-48,-27,10240,0.45,-0.08,1.77,1.36,2976,3462,4235,99,149,103,70,99,0
2955,3416,4217,-27,-47,-23,10240,0.45,-0.08,1.77,1.36,2975,3461,4234,99,149,103,70,99,0
2961,3430,4223,-22,-42,-19,10240,0.45,-0.08,1.77,1.36,2975,3460,4234,99,149,103,70,99,0
2970,3445,4232,-16,-33,-13,10240,0.45,-0.08,1.77,1.36,2975,3459,4234,99,149,103,70,99,0
2987,3472,4251,-6,-19,-3,10240,0.45,-0.08,1.77,1.36,2975,3460,4234,99,149,103,70,99,0
2994,3480,4256,2,-3,6,10240,0.45,-0.08,1.77,1.36,2976,3460,4235,99,149,103,70,99,0
2996,3491,4258,11,12,14,10240,0.45,-0.08,1.77,1.36,2977,3461,4236,99,149,103,70,99,0
2996,3497,4259,17,24,20,10240,0.45,-0.08,1.77,1.36,2977,3463,4237,99,149,103,70,99,0
3002,3505,4266,20,31,23,10240,0.45,-0.08,1.77,1.36,2978,3464,4238,99,149,103,70,99,0
3020,3526,4281,25,41,28,10240,0.45,-0.08,1.77,1.36,2979,3466,4239,99,149,103,70,99,0
3020,3529,4283,30,49,33,10240,0.45,-0.08,1.77,1.36,2981,3468,4240,99,149,103,70,99,0
3012,3519,4270,33,52,35,10240,0.45,-0.08,1.77,1.36,2982,3470,4241,99,149,103,70,99,0
2987,3473,4239,28,43,28,10240,0.45,-0.08,1.77,1.36,2982,3470,4241,99,141,103,70,99,0
2945,3417,4198,9,15,7,10240,0.45,-0.08,1.67,1.37,2981,3468,4240,99,141,103,70,99,0
2907,3383,4161,-18,-20,-22,10240,0.45,-0.08,1.67,1.37,2978,3465,4237,99,141,103,70,99,0
2903,3377,4159,-43,-53,-49,10240,0.45,-0.08,1.67,1.37,2976,3462,4235,99,141,103,70,99,0
2903,3375,4160,-62,-75,-66,10240,0.45,-0.08,1.67,1.37,2973,3460,4232,99,141,103,70,99,0
2902,3376,4162,-70,-83,-73,10240,0.45,-0.08,1.67,1.37,2971,3457,4230,99,141,103,70,99,0
2904,3378,4166,-69,-81,-69,10240,0.45,-0.08,1.67,1.37,2969,3454,4228,99,141,103,70,99,0
2923,3415,4186,-62,-70,-60,10240,0.45,-0.08,1.67,1.37,2967,3453,4226,99,141,103,70,99,0
2927,3416,4191,-54,-57,-51,10240,0.45,-0.08,1.67,1.37,2966,3452,4225,99,141,103,70,99,0
2927,3416,4191,-46,-46,-42,10240,0.45,-0.08,1.67,1.37,2965,3450,4224,99,141,103,70,99,0
2926,3416,4191,-39,-35,-34,10240,0.45,-0.08,1.67,1.37,2963,3449,4223,99,141,103,70,99,0
2927,3416,4194,-37,-33,-31,10240,0.45,-0.08,1.67,1.37,2962,3448,4222,99,141,103,70,99,0
2933,3416,4202,-34,-32,-28,10240,0.45,-0.08,1.67,1.37,2961,3447,4221,99,141,103,70,99,0
2938,3416,4208,-30,-31,-23,10240,0.45,-0.08,1.67,1.37,2960,3446,4221,99,141,103,70,99,0
2944,3416,4214,-25,-30,-16,10240,0.45,-0.08,1.67,1.37,2960,3445,4221,99,141,103,70,99,0
2951,3416,4221,-18,-29,-9,10240,0.45,-0.08,1.67,1.37,2959,3444,4221,99,141,103,70,99,0
2956,3420,4228,-12,-27,-3,10240,0.45,-0.08,1.67,1.37,2959,3443,4221,99,141,103,70,99,0
2966,3444,4240,-5,-19,4,10240,0.45,-0.08,1.67,1.37,2960,3443,4221,99,141,103,70,99,0
2971,3454,4246,1,-10,12,10240,0.45,-0.08,1.67,1.37,2960,3444,4222,99,141,103,70,99,0
2976,3463,4252,7,1,19,10240,0.45,-0.08,1.67,1.37,2961,3444,4223,99,141,103,70,99,0
2983,3472,4257,13,14,26,10240,0.45,-0.08,1.67,1.37,2961,3445,4224,99,141,103,70,99,0
2990,3480,4262,19,22,30,10240,0.45,-0.08,1.67,1.37,2962,3446,4226,99,141,103,70,99,0
2977,3463,4244,19,24,29,10240,0.45,-0.08,1.67,1.37,2963,3447,4226,99,141,103,70,99,0
2936,3417,4202,9,12,15,10240,0.45,-0.08,1.68,1.37,2962,3446,4226,97,132,103,70,99,0
2897,3377,4162,-11,-11,-7,10240,0.45,-0.08,1.68,1.37,2960,3444,4223,97,132,103,70,99,0
2871,3335,4138,-40,-46,-37,10240,0.45,-0.08,1.68,1.37,2957,3440,4221,97,132,103,70,99,0
2860,3318,4128,-67,-79,-64,10240,0.45,-0.08,1.68,1.37,2953,3436,4217,97,132,103,70,99,0
2850,3302,4121,-85,-105,-81,10240,0.45,-0.08,1.68,1.37,2950,3432,4214,97,132,103,70,99,0
2848,3301,4120,-94,-119,-89,10240,0.45,-0.08,1.68,1.37,2947,3427,4211,97,132,103,70,99,0
2851,3306,4126,-96,-122,-88,10240,0.45,-0.08,1.68,1.37,2943,3423,4208,97,132,103,70,99,0
2861,3319,4136,-92,-118,-84,10240,0.45,-0.08,1.68,1.37,2941,3420,4206,97,132,103,70,99,0
2870,3333,4147,-84,-107,-75,10240,0.45,-0.08,1.68,1.37,2938,3417,4204,97,132,103,70,99,0
2886,3358,4161,-72,-89,-62,10240,0.45,-0.08,1.68,1.37,2937,3415,4202,97,132,103,70,99,0
2893,3368,4167,-60,-71,-50,10240,0.45,-0.08,1.68,1.37,2935,3413,4201,97,132,103,70,99,0
2900,3378,4173,-48,-55,-39,10240,0.45,-0.08,1.68,1.37,2934,3412,4200,97,132,103,70,99,0
2908,3394,4181,-38,-38,-30,10240,0.45,-0.08,1.68,1.37,2933,3411,4200,97,132,103,70,99,0
2917,3412,4189,-29,-24,-22,10240,0.45,-0.08,1.68,1.37,2933,3412,4199,97,132,103,70,99,0
2936,3416,4207,-18,-11,-12,10240,0.45,-0.08,1.68,1.37,2933,3412,4200,97,132,103,70,99,0
2945,3416,4214,-6,-2,-2,10240,0.45,-0.08,1.68,1.37,2933,3412,4200,97,132,103,70,99,0
2956,3419,4223,5,3,8,10240,0.45,-0.08,1.68,1.37,2934,3412,4201,97,132,103,70,99,0
2966,3440,4233,17,10,18,10240,0.45,-0.08,1.68,1.37,2935,3413,4202,97,132,103,70,99,0
2975,3456,4242,26,20,26,10240,0.45,-0.08,1.68,1.37,2936,3414,4203,97,132,103,70,99,0
2994,3479,4258,37,34,36,10240,0.45,-0.08,1.68,1.37,2938,3417,4205,97,132,103,70,99,0
2996,3490,4257,45,50,43,10240,0.45,-0.08,1.68,1.37,2940,3419,4207,97,132,103,70,99,0
3001,3502,4262,52,63,48,10240,0.45,-0.08,1.68,1.37,2942,3422,4209,97,132,103,70,99,0
3007,3510,4267,58,74,53,10240,0.45,-0.08,1.68,1.37,2944,3425,4211,97,132,103,70,99,0
2997,3490,4251,57,74,49,10240,0.45,-0.08,1.68,1.37,2946,3427,4212,111,132,112,70,99,0
2930,3416,4183,39,54,30,10240,0.45,-0.08,1.45,1.42,2946,3426,4211,111,148,112,70,99,0
2909,3390,4163,15,25,5,10240,0.45,-0.08,1.45,1.42,2944,3425,4209,111,148,112,70,99,0
2902,3376,4159,-10,-7,-21,10240,0.45,-0.08,1.45,1.42,2943,3424,4208,111,148,112,70,99,0
2902,3374,4158,-33,-35,-42,10240,0.45,-0.08,1.45,1.42,2942,3422,4206,111,148,112,70,99,0
2903,3378,4161,-38,-43,-46,10240,0.45,-0.08,1.45,1.42,2940,3421,4205,111,148,112,70,99,0
2914,3396,4174,-35,-40,-42,10240,0.45,-0.08,1.45,1.42,2939,3420,4204,111,148,112,70,99,0
2923,3414,4185,-29,-30,-35,10240,0.45,-0.08,1.45,1.42,2939,3419,4203,111,148,112,70,99,0
2930,3416,4194,-21,-18,-25,10240,0.45,-0.08,1.45,1.42,2939,3419,4203,111,148,112,70,99,0
2934,3416,4197,-13,-8,-15,10240,0.45,-0.08,1.45,1.42,2938,3419,4202,111,148,112,70,99,0
2936,3416,4199,-7,-3,-8,10240,0.45,-0.08,1.45,1.42,2938,3419,4202,111,148,112,70,99,0
2942,3416,4205,-2,-3,-3,10240,0.45,-0.08,1.45,1.42,2938,3419,4202,111,148,112,70,99,0
2948,3416,4209,1,-3,0,10240,0.45,-0.08,1.45,1.42,2939,3419,4203,111,148,112,70,99,0
2956,3418,4217,7,-2,5,10240,0.45,-0.08,1.45,1.42,2939,3419,4203,111,148,112,70,99,0
2965,3437,4226,13,2,11,10240,0.45,-0.08,1.45,1.42,2940,3420,4204,111,148,112,70,99,0
2975,3454,4236,21,11,18,10240,0.45,-0.08,1.45,1.42,2941,3421,4205,111,148,112,70,99,0
2993,3478,4254,31,26,28,10240,0.45,-0.08,1.45,1.42,2943,3423,4207,111,148,112,70,99,0
2996,3485,4255,40,41,36,10240,0.45,-0.08,1.45,1.42,2945,3425,4208,111,148,112,70,99,0
2999,3496,4252,46,54,41,10240,0.45,-0.08,1.45,1.42,2947,3427,4210,111,148,112,70,99,0
3004,3504,4260,52,64,46,10240,0.45,-0.08,1.45,1.42,2949,3430,4211,111,148,112,70,99,0
3012,3516,4268,54,71,48,10240,0.45,-0.08,1.45,1.42,2951,3432,4213,111,148,112,70,99,0
3007,3510,4259,55,75,47,10240,0.45,-0.08,1.45,1.42,2953,3435,4215,111,148,108,70,99,0
2981,3464,4231,49,65,41,10240,0.45,-0.08,1.68,1.47,2953,3436,4215,106,141,108,70,99,0
2942,3416,4192,33,42,23,10240,0.45,-0.08,1.68,1.47,2953,3435,4214,106,141,108,70,99,0
2923,3414,4172,10,15,0,10240,0.45,-0.08,1.68,1.47,2952,3435,4213,106,141,108,70,99,0
2914,3397,4165,-12,-12,-23,10240,0.45,-0.08,1.68,1.47,2951,3433,4211,106,141,108,70,99,0
2915,3398,4169,-28,-27,-37,10240,0.45,-0.08,1.68,1.47,2950,3432,4210,106,141,108,70,99,0
2918,3407,4173,-33,-28,-41,10240,0.45,-0.08,1.68,1.47,2949,3431,4209,106,141,108,70,99,0
2925,3416,4182,-31,-27,-37,10240,0.45,-0.08,1.68,1.47,2948,3431,4208,106,141,108,70,99,0
2932,3416,4191,-26,-21,-29,10240,0.45,-0.08,1.68,1.47,2947,3430,4207,106,141,108,70,99,0
2938,3416,4196,-19,-16,-22,10240,0.45,-0.08,1.68,1.47,2947,3430,4207,106,141,108,70,99,0
2945,3416,4201,-12,-14,-14,10240,0.45,-0.08,1.68,1.47,2947,3429,4207,106,141,108,70,99,0
2947,3416,4203,-6,-13,-9,10240,0.45,-0.08,1.68,1.47,2947,3429,4207,106,141,108,70,99,0
2953,3416,4209,-1,-13,-4,10240,0.45,-0.08,1.68,1.47,2947,3429,4207,106,141,108,70,99,0
2960,3421,4215,4,-11,0,10240,0.45,-0.08,1.68,1.47,2947,3428,4207,106,141,108,70,99,0
2968,3438,4223,9,-6,5,10240,0.45,-0.08,1.68,1.47,2948,3429,4208,106,141,108,70,99,0
2986,3470,4242,19,7,14,10240,0.45,-0.08,1.68,1.47,2949,3430,4209,106,141,108,70,99,0
2996,3480,4252,28,22,24,10240,0.45,-0.08,1.68,1.47,2951,3432,4210,106,141,108,70,99,0
2998,3491,4251,36,38,32,10240,0.45,-0.08,1.68,1.47,2953,3434,4211,106,141,108,70,99,0
3002,3500,4252,43,52,38,10240,0.45,-0.08,1.68,1.47,2954,3436,4213,106,141,108,70,99,0
3011,3511,4263,48,60,42,10240,0.45,-0.08,1.68,1.47,2956,3438,4215,106,141,108,70,99,0
3027,3535,4277,54,71,46,10240,0.45,-0.08,1.68,1.47,2958,3442,4217,106,141,108,70,99,0
3030,3539,4279,60,81,51,10240,0.45,-0.08,1.68,1.47,2961,3445,4219,106,141,108,70,99,0
3011,3514,4257,60,81,51,10240,0.45,-0.08,1.68,1.47,2963,3447,4220,106,141,108,70,99,0
2976,3453,4218,49,65,38,10240,0.45,-0.08,1.68,1.47,2963,3447,4220,103,133,104,70,99,0
2938,3416,4183,26,34,14,10240,0.45,-0.08,1.57,1.41,2962,3446,4219,103,133,104,70,99,0
2912,3390,4158,-2,-2,-15,10240,0.45,-0.08,1.57,1.41,2960,3444,4217,103,133,104,70,99,0
2910,3387,4158,-27,-33,-38,10240,0.45,-0.08,1.57,1.41,2959,3443,4215,103,133,104,70,99,0
2911,3387,4159,-41,-48,-51,10240,0.45,-0.08,1.57,1.41,2957,3441,4213,103,133,104,70,99,0
2912,3388,4160,-46,-53,-55,10240,0.45,-0.08,1.57,1.41,2956,3439,4211,103,133,104,70,99,0
2918,3403,4169,-43,-49,-50,10240,0.45,-0.08,1.57,1.41,2954,3438,4210,103,133,104,70,99,0
2933,3416,4189,-36,-40,-41,10240,0.45,-0.08,1.57,1.41,2954,3437,4209,103,133,104,70,99,0
2938,3416,4192,-29,-31,-32,10240,0.45,-0.08,1.57,1.41,2953,3436,4208,103,133,104,70,99,0
2941,3416,4195,-21,-24,-22,10240,0.45,-0.08,1.57,1.41,2953,3436,4208,103,133,104,70,99,0
2944,3416,4197,-14,-20,-15,10240,0.45,-0.08,1.57,1.41,2953,3435,4208,103,133,104,70,99,0
2949,3416,4201,-9,-19,-11,10240,0.45,-0.08,1.57,1.41,2952,3434,4207,103,133,104,70,99,0
2965,3429,4216,-3,-15,-5,10240,0.45,-0.08,1.57,1.41,2953,3434,4208,103,133,104,70,99,0
2975,3448,4226,5,-7,2,10240,0.45,-0.08,1.57,1.41,2954,3435,4208,103,133,104,70,99,0
2984,3465,4237,14,4,12,10240,0.45,-0.08,1.57,1.41,2955,3436,4209,103,133,104,70,99,0
2994,3478,4249,25,19,23,10240,0.45,-0.08,1.57,1.41,2956,3437,4210,103,133,104,70,99,0
2998,3489,4251,32,33,31,10240,0.45,-0.08,1.57,1.41,2957,3439,4212,103,133,104,70,99,0
3008,3508,4261,39,46,38,10240,0.45,-0.08,1.57,1.41,2959,3441,4213,103,133,104,70,99,0
3017,3519,4268,46,58,44,10240,0.45,-0.08,1.57,1.41,2961,3444,4215,103,133,104,70,99,0
3024,3530,4274,51,69,49,10240,0.45,-0.08,1.57,1.41,2963,3446,4217,103,133,104,70,99,0
3032,3540,4282,58,79,55,10240,0.45,-0.08,1.57,1.41,2965,3450,4219,103,133,104,70,99,0
3039,3551,4290,63,86,60,10240,0.45,-0.08,1.57,1.41,2968,3453,4222,103,133,104,70,99,0
3036,3546,4280,66,90,61,10240,0.45,-0.08,1.57,1.41,2970,3456,4224,103,133,104,70,99,0
3001,3494,4242,58,78,51,10240,0.45,-0.08,1.57,1.41,2971,3457,4224,105,135,107,70,99,0
2960,3427,4202,39,49,30,10240,0.45,-0.08,1.54,1.40,2971,3456,4224,105,135,107,70,99,0
2933,3416,4178,12,14,2,10240,0.45,-0.08,1.54,1.40,2969,3455,4222,105,135,107,70,99,0
2918,3411,4168,-16,-18,-25,10240,0.45,-0.08,1.54,1.40,2968,3454,4220,105,135,107,70,99,0
2915,3396,4166,-37,-41,-42,10240,0.45,-0.08,1.54,1.40,2966,3452,4218,105,135,107,70,99,0
2913,3392,4166,-47,-49,-49,10240,0.45,-0.08,1.54,1.40,2964,3450,4217,105,135,107,70,99,0
2917,3400,4170,-49,-51,-50,10240,0.45,-0.08,1.54,1.40,2963,3448,4215,105,135,107,70,99,0
2925,3415,4180,-46,-48,-45,10240,0.45,-0.08,1.54,1.40,2961,3447,4214,105,135,107,70,99,0
2936,3416,4190,-39,-42,-38,10240,0.45,-0.08,1.54,1.40,2961,3446,4213,105,135,107,70,99,0
2939,3416,4198,-32,-34,-29,10240,0.45,-0.08,1.54,1.40,2960,3445,4213,105,135,107,70,99,0
2943,3416,4200,-24,-29,-21,10240,0.45,-0.08,1.54,1.40,2959,3444,4212,105,135,107,70,99,0
2947,3416,4203,-18,-28,-14,10240,0.45,-0.08,1.54,1.40,2959,3443,4212,105,135,107,70,99,0
2953,3416,4210,-13,-27,-9,10240,0.45,-0.08,1.54,1.40,2959,3442,4212,105,135,107,70,99,0
2970,3443,4218,-5,-20,-4,10240,0.45,-0.08,1.54,1.40,2959,3442,4212,105,135,107,70,99,0
2982,3460,4238,3,-8,5,10240,0.45,-0.08,1.54,1.40,2960,3443,4213,105,135,107,70,99,0
2991,3474,4250,14,5,16,10240,0.45,-0.08,1.54,1.40,2961,3444,4214,105,135,107,70,99,0
2998,3485,4252,24,22,26,10240,0.45,-0.08,1.54,1.40,2962,3445,4215,105,135,107,70,99,0
3000,3496,4252,31,34,33,10240,0.45,-0.08,1.54,1.40,2963,3447,4217,105,135,107,70,99,0
3019,3521,4265,39,47,38,10240,0.45,-0.08,1.54,1.40,2965,3449,4218,105,135,107,70,99,0
3026,3533,4280,46,60,44,10240,0.45,-0.08,1.54,1.40,2967,3452,4220,105,135,107,70,99,0
3032,3543,4286,53,72,51,10240,0.45,-0.08,1.54,1.40,2969,3455,4223,105,135,107,70,99,0
3041,3553,4292,61,84,59,10240,0.45,-0.08,1.54,1.40,2972,3458,4225,105,135,107,70,99,0
3049,3565,4300,66,91,65,10240,0.45,-0.08,1.54,1.40,2974,3462,4227,105,135,107,70,99,0
3031,3541,4300,65,90,68,10240,0.45,-0.08,1.54,1.40,2976,3465,4230,108,137,107,71,99,0
2995,3484,4239,54,73,54,10240,0.45,-0.08,1.54,1.40,2977,3465,4230,108,137,110,71,99,0
2958,3424,4201,32,39,31,10240,0.45,-0.08,1.52,1.40,2976,3464,4229,108,137,110,71,99,0
2937,3416,4185,4,2,2,10240,0.45,-0.08,1.52,1.40,2975,3462,4228,108,137,110,71,99,0
2931,3416,4180,-20,-28,-27,10240,0.45,-0.08,1.52,1.40,2973,3461,4226,108,137,110,71,99,0
2930,3416,4182,-35,-43,-40,10240,0.45,-0.08,1.52,1.40,2972,3459,4225,108,137,110,71,99,0
2931,3416,4185,-40,-44,-42,10240,0.45,-0.08,1.52,1.40,2971,3458,4223,108,137,110,71,99,0
2936,3416,4193,-39,-42,-39,10240,0.45,-0.08,1.52,1.40,2969,3456,4222,108,137,110,71,99,0
2943,3416,4199,-35,-41,-33,10240,0.45,-0.08,1.52,1.40,2969,3455,4222,108,137,110,71,99,0
2950,3416,4205,-29,-39,-26,10240,0.45,-0.08,1.52,1.40,2968,3454,4221,108,137,110,71,99,0
2957,3416,4211,-22,-38,-19,10240,0.45,-0.08,1.52,1.40,2968,3452,4221,108,137,110,71,99,0
2960,3419,4214,-15,-36,-13,10240,0.45,-0.08,1.52,1.40,2967,3451,4220,108,137,110,71,99,0
2965,3431,4219,-9,-31,-8,10240,0.45,-0.08,1.52,1.40,2967,3451,4220,108,137,110,71,99,0
2972,3444,4226,-3,-23,-3,10240,0.45,-0.08,1.52,1.40,2967,3450,4221,108,137,110,71,99,0
2981,3459,4235,2,-12,3,10240,0.45,-0.08,1.52,1.40,2968,3451,4221,108,137,110,71,99,0
2998,3485,4252,11,3,12,10240,0.45,-0.08,1.52,1.40,2969,3452,4222,108,137,110,71,99,0
2999,3494,4250,19,19,19,10240,0.45,-0.08,1.52,1.40,2970,3453,4223,108,137,110,71,99,0
3006,3504,4257,26,32,26,10240,0.45,-0.08,1.52,1.40,2971,3455,4224,108,137,110,71,99,0
3014,3516,4268,33,45,33,10240,0.45,-0.08,1.52,1.40,2973,3457,4226,108,137,110,71,99,0
3022,3525,4273,38,53,37,10240,0.45,-0.08,1.52,1.40,2974,3459,4227,108,137,110,71,99,0
3034,3542,4285,45,63,44,10240,0.45,-0.08,1.52,1.40,2976,3462,4229,108,137,110,71,99,0
3040,3551,4291,52,72,51,10240,0.45,-0.08,1.52,1.40,2978,3465,4231,108,137,110,71,99,0
3046,3561,4296,58,81,56,10240,0.45,-0.08,1.52,1.40,2981,3468,4233,108,137,110,71,99,0
3041,3554,4287,60,85,57,10240,0.45,-0.08,1.52,1.40,2983,3471,4235,108,137,110,71,99,0
3011,3510,4254,53,75,48,10240,0.45,-0.08,1.52,1.40,2984,3472,4236,106,135,107,71,99,0
2941,3416,4187,27,40,21,10240,0.43,-0.09,1.54,1.41,2982,3470,4234,106,135,107,71,99,0
2930,3416,4178,-1,3,-7,10240,0.43,-0.09,1.54,1.41,2980,3469,4232,106,135,107,71,99,0
2928,3416,4178,-28,-30,-33,10240,0.43,-0.09,1.54,1.41,2979,3467,4230,106,135,107,71,99,0
2930,3416,4183,-47,-51,-49,10240,0.43,-0.09,1.54,1.41,2977,3465,4229,106,135,107,71,99,0
2933,3416,4188,-47,-50,-48,10240,0.43,-0.09,1.54,1.41,2976,3464,4228,106,135,107,71,99,0
2946,3416,4201,-42,-48,-41,10240,0.43,-0.09,1.54,1.41,2975,3462,4227,106,135,107,71,99,0
2953,3416,4208,-35,-46,-32,10240,0.43,-0.09,1.54,1.41,2974,3460,4226,106,135,107,71,99,0
2958,3416,4211,-27,-45,-24,10240,0.43,-0.09,1.54,1.41,2973,3459,4225,106,135,107,71,99,0
2960,3417,4214,-19,-43,-17,10240,0.43,-0.09,1.54,1.41,2973,3458,4225,106,135,107,71,99,0
2962,3422,4215,-14,-40,-13,10240,0.43,-0.09,1.54,1.41,2972,3456,4225,106,135,107,71,99,0
2973,3445,4227,-9,-32,-8,10240,0.43,-0.09,1.54,1.41,2972,3456,4225,106,135,107,71,99,0
2981,3459,4235,-3,-20,-2,10240,0.43,-0.09,1.54,1.41,2973,3456,4225,106,135,107,71,99,0
2991,3472,4246,4,-6,5,10240,0.43,-0.09,1.54,1.41,2973,3457,4226,106,135,107,71,99,0
2998,3486,4252,12,8,14,10240,0.43,-0.09,1.54,1.41,2974,3458,4227,106,135,107,71,99,0
3001,3498,4251,19,21,19,10240,0.43,-0.09,1.54,1.41,2975,3459,4228,106,135,107,71,99,0
3020,3522,4271,27,35,27,10240,0.43,-0.09,1.54,1.41,2977,3461,4229,106,135,107,71,99,0
3027,3532,4278,35,49,34,10240,0.43,-0.09,1.54,1.41,2978,3463,4231,106,135,107,71,99,0
3034,3543,4285,43,61,41,10240,0.43,-0.09,1.54,1.41,2980,3466,4232,106,135,107,71,99,0
3041,3553,4292,51,72,50,10240,0.43,-0.09,1.54,1.41,2982,3469,4234,106,135,107,71,99,0
3058,3564,4298,58,80,54,10240,0.43,-0.09,1.54,1.41,2985,3472,4237,106,135,107,71,99,0
3070,3587,4312,67,91,61,10240,0.43,-0.09,1.54,1.41,2988,3476,4239,106,135,107,71,99,0
3060,3577,4301,71,96,63,10240,0.43,-0.09,1.54,1.41,2990,3479,4241,106,135,107,72,99,0
3022,3527,4262,64,86,53,10240,0.43,-0.09,1.54,1.41,2991,3481,4242,109,138,108,72,99,0
2979,3455,4221,42,57,33,10240,0.43,-0.09,1.56,1.43,2991,3480,4241,109,138,108,72,99,0
2929,3416,4178,7,14,0,10240,0.43,-0.09,1.56,1.43,2989,3478,4239,109,138,108,72,99,0
2925,3416,4176,-25,-25,-30,10240,0.43,-0.09,1.56,1.43,2986,3476,4237,109,138,108,72,99,0
2925,3416,4177,-48,-51,-50,10240,0.43,-0.09,1.56,1.43,2984,3474,4235,109,138,108,72,99,0
2927,3416,4180,-58,-59,-58,10240,0.43,-0.09,1.56,1.43,2982,3472,4233,109,138,108,72,99,0
2930,3416,4186,-56,-57,-54,10240,0.43,-0.09,1.56,1.43,2981,3470,4232,109,138,108,72,99,0
2943,3416,4202,-50,-55,-46,10240,0.43,-0.09,1.56,1.43,2979,3468,4231,109,138,108,72,99,0
2947,3416,4204,-43,-53,-38,10240,0.43,-0.09,1.56,1.43,2978,3467,4230,109,138,108,72,99,0
2948,3416,4205,-36,-51,-31,10240,0.43,-0.09,1.56,1.43,2977,3465,4229,109,138,108,72,99,0
2948,3416,4206,-31,-49,-25,10240,0.43,-0.09,1.56,1.43,2976,3463,4228,109,138,108,72,99,0
2951,3416,4210,-28,-48,-22,10240,0.43,-0.09,1.56,1.43,2976,3462,4227,109,138,108,72,99,0
2964,3428,4221,-23,-43,-17,10240,0.43,-0.09,1.56,1.43,2975,3461,4227,109,138,108,72,99,0
2971,3443,4229,-17,-35,-10,10240,0.43,-0.09,1.56,1.43,2975,3460,4227,109,138,108,72,99,0
2978,3458,4239,-9,-24,-2,10240,0.43,-0.09,1.56,1.43,2975,3460,4228,109,138,108,72,99,0
2987,3471,4249,0,-10,7,10240,0.43,-0.09,1.56,1.43,2976,3460,4228,109,138,108,72,99,0
2995,3478,4254,7,2,14,10240,0.43,-0.09,1.56,1.43,2976,3461,4229,109,138,108,72,99,0
3000,3498,4257,14,15,21,10240,0.43,-0.09,1.56,1.43,2977,3462,4230,109,138,108,72,99,0
3009,3510,4267,21,27,27,10240,0.43,-0.09,1.56,1.43,2978,3464,4231,109,138,108,72,99,0
3016,3519,4273,27,38,32,10240,0.43,-0.09,1.56,1.43,2979,3465,4233,109,138,108,72,99,0
3023,3529,4280,33,49,37,10240,0.43,-0.09,1.56,1.43,2981,3468,4234,109,138,108,72,99,0
3028,3538,4286,39,57,43,10240,0.43,-0.09,1.56,1.43,2982,3470,4236,109,138,108,72,99,0
3041,3556,4300,45,66,49,10240,0.43,-0.09,1.56,1.43,2984,3473,4238,109,138,108,72,99,0
3045,3564,4302,51,75,55,10240,0.43,-0.09,1.56,1.43,2986,3476,4240,109,138,108,72,99,0
3033,3547,4284,51,77,54,10240,0.43,-0.09,1.56,1.43,2988,3478,4242,109,138,109,72,99,0
2996,3490,4243,42,62,41,10240,0.43,-0.09,1.54,1.42,2988,3479,4242,109,138,109,72,99,0
2950,3422,4200,18,28,16,10240,0.43,-0.09,1.54,1.42,2987,3477,4240,109,138,109,72,99,0
2908,3385,4164,-15,-16,-17,10240,0.43,-0.09,1.54,1.42,2984,3474,4238,109,138,109,72,99,0
2905,3380,4163,-45,-56,-46,10240,0.43,-0.09,1.54,1.42,2982,3471,4235,109,138,109,72,99,0
2904,3381,4164,-66,-80,-63,10240,0.43,-0.09,1.54,1.42,2979,3468,4233,109,138,109,72,99,0
2906,3381,4166,-74,-87,-70,10240,0.43,-0.09,1.54,1.42,2977,3465,4231,109,138,109,72,99,0
2910,3388,4172,-71,-84,-65,10240,0.43,-0.09,1.54,1.42,2974,3462,4229,109,138,109,72,99,0
2924,3416,4188,-64,-72,-57,10240,0.43,-0.09,1.54,1.42,2973,3461,4228,109,138,109,72,99,0
2929,3416,4193,-56,-61,-48,10240,0.43,-0.09,1.54,1.42,2971,3459,4226,109,138,109,72,99,0
2929,3416,4195,-49,-51,-40,10240,0.43,-0.09,1.54,1.42,2970,3458,4225,109,138,109,72,99,0
2931,3416,4197,-42,-42,-32,10240,0.43,-0.09,1.54,1.42,2969,3456,4224,109,138,109,72,99,0
2935,3416,4201,-38,-41,-28,10240,0.43,-0.09,1.54,1.42,2967,3455,4224,109,138,109,72,99,0
2949,3416,4212,-32,-39,-22,10240,0.43,-0.09,1.54,1.42,2967,3454,4223,109,138,109,72,99,0
2958,3417,4220,-24,-38,-16,10240,0.43,-0.09,1.54,1.42,2967,3452,4223,109,138,109,72,99,0
2968,3438,4228,-14,-31,-8,10240,0.43,-0.09,1.54,1.42,2967,3452,4223,109,138,109,72,99,0
2976,3454,4239,-4,-21,1,10240,0.43,-0.09,1.54,1.42,2967,3452,4224,109,138,109,72,99,0
2985,3469,4249,4,-7,10,10240,0.43,-0.09,1.54,1.42,2967,3452,4225,109,138,109,72,99,0
2997,3488,4254,14,9,18,10240,0.43,-0.09,1.54,1.42,2968,3454,4226,109,138,109,72,99,0
3001,3499,4256,21,24,24,10240,0.43,-0.09,1.54,1.42,2970,3455,4227,109,138,109,72,99,0
3008,3510,4266,28,37,29,10240,0.43,-0.09,1.54,1.42,2971,3457,4228,109,138,109,72,99,0
3016,3520,4272,35,48,34,10240,0.43,-0.09,1.54,1.42,2972,3459,4229,109,138,109,72,99,0
3022,3530,4279,40,56,39,10240,0.43,-0.09,1.54,1.42,2974,3461,4231,109,138,109,72,99,0
3034,3547,4291,46,66,46,10240,0.43,-0.09,1.54,1.42,2976,3464,4233,109,138,109,72,99,0
3039,3555,4296,52,75,52,10240,0.43,-0.09,1.54,1.42,2978,3467,4235,109,138,109,72,99,0
3030,3543,4281,54,78,52,10240,0.43,-0.09,1.54,1.42,2980,3470,4237,109,138,109,72,99,0
2995,3491,4244,46,66,42,10240,0.43,-0.09,1.54,1.42,2980,3471,4237,114,144,113,72,99,0
2952,3423,4202,24,33,19,10240,0.43,-0.09,1.56,1.43,2979,3469,4236,114,144,113,72,99,0
2910,3389,4165,-7,-7,-12,10240,0.43,-0.09,1.56,1.43,2977,3466,4233,114,144,113,72,99,0
2908,3386,4165,-36,-45,-40,10240,0.43,-0.09,1.56,1.43,2975,3464,4231,114,144,113,72,99,0
2909,3388,4168,-56,-68,-57,10240,0.43,-0.09,1.56,1.43,2973,3461,4229,114,144,113,72,99,0
2911,3392,4173,-64,-73,-62,10240,0.43,-0.09,1.56,1.43,2971,3459,4227,114,144,113,72,99,0
2923,3401,4176,-59,-68,-57,10240,0.43,-0.09,1.56,1.43,2969,3457,4225,114,144,113,72,99,0
2928,3416,4193,-52,-59,-48,10240,0.43,-0.09,1.56,1.43,2968,3456,4224,114,144,113,72,99,0
2930,3416,4194,-45,-50,-40,10240,0.43,-0.09,1.56,1.43,2966,3454,4223,114,144,113,72,99,0
2930,3416,4194,-39,-42,-34,10240,0.43,-0.09,1.56,1.43,2965,3453,4222,114,144,113,72,99,0
2932,3416,4195,-35,-37,-28,10240,0.43,-0.09,1.56,1.43,2964,3452,4222,114,144,113,72,99,0
2939,3416,4203,-31,-36,-25,10240,0.43,-0.09,1.56,1.43,2963,3451,4221,114,144,113,72,99,0
2942,3416,4208,-27,-35,-21,10240,0.43,-0.09,1.56,1.43,2962,3449,4220,114,144,113,72,99,0
2957,3418,4216,-20,-33,-15,10240,0.43,-0.09,1.56,1.43,2962,3448,4220,114,144,113,72,99,0
2964,3434,4224,-11,-28,-7,10240,0.43,-0.09,1.56,1.43,2962,3448,4220,114,144,113,72,99,0
2967,3443,4230,-4,-20,0,10240,0.43,-0.09,1.56,1.43,2963,3448,4221,114,144,113,72,99,0
2989,3473,4250,6,-6,9,10240,0.43,-0.09,1.56,1.43,2963,3449,4222,114,144,113,72,99,0
2994,3480,4255,15,8,18,10240,0.43,-0.09,1.56,1.43,2964,3450,4223,114,144,113,72,99,0
2997,3488,4254,22,21,24,10240,0.43,-0.09,1.56,1.43,2966,3451,4224,114,144,113,72,99,0
3000,3496,4254,30,33,29,10240,0.43,-0.09,1.56,1.43,2967,3452,4225,114,144,113,72,99,0
3004,3504,4260,32,40,31,10240,0.43,-0.09,1.56,1.43,2968,3454,4226,114,144,113,72,99,0
3022,3527,4277,38,50,35,10240,0.43,-0.09,1.56,1.43,2970,3456,4228,114,144,113,72,99,0
3024,3532,4279,43,59,40,10240,0.43,-0.09,1.56,1.43,2972,3459,4229,114,144,113,72,99,0
3012,3516,4262,44,62,41,10240,0.43,-0.09,1.56,1.43,2973,3461,4231,114,144,113,72,99,0
2980,3461,4229,37,49,32,10240,0.43,-0.09,1.56,1.43,2973,3461,4230,112,142,110,72,99,0
2934,3416,4186,15,21,9,10240,0.43,-0.09,1.58,1.45,2972,3459,4229,112,142,110,72,99,0
2900,3371,4155,-15,-18,-21,10240,0.43,-0.09,1.58,1.45,2969,3456,4227,112,142,110,72,99,0
2900,3372,4157,-41,-52,-45,10240,0.43,-0.09,1.58,1.45,2967,3454,4224,112,142,110,72,99,0
2903,3377,4162,-59,-71,-60,10240,0.43,-0.09,1.58,1.45,2965,3451,4222,112,142,110,72,99,0
2907,3383,4166,-63,-76,-63,10240,0.43,-0.09,1.58,1.45,2963,3449,4220,112,142,110,72,99,0
2912,3392,4173,-58,-69,-56,10240,0.43,-0.09,1.58,1.45,2961,3447,4219,112,142,110,72,99,0
2926,3416,4189,-50,-56,-47,10240,0.43,-0.09,1.58,1.45,2960,3446,4218,112,142,110,72,99,0
2928,3416,4191,-42,-45,-38,10240,0.43,-0.09,1.58,1.45,2959,3445,4217,112,142,110,72,99,0
2928,3416,4191,-36,-35,-31,10240,0.43,-0.09,1.58,1.45,2958,3444,4216,112,142,110,72,99,0
2930,3416,4193,-30,-28,-25,10240,0.43,-0.09,1.58,1.45,2957,3443,4215,112,142,110,72,99,0
2933,3416,4195,-27,-27,-23,10240,0.43,-0.09,1.58,1.45,2956,3442,4215,112,142,110,72,99,0
2946,3416,4208,-22,-26,-18,10240,0.43,-0.09,1.58,1.45,2956,3441,4214,112,142,110,72,99,0
2955,3417,4216,-15,-25,-11,10240,0.43,-0.09,1.58,1.45,2956,3440,4214,112,142,110,72,99,0
2964,3430,4224,-6,-21,-3,10240,0.43,-0.09,1.58,1.45,2956,3440,4215,112,142,110,72,99,0
2972,3449,4233,3,-12,5,10240,0.43,-0.09,1.58,1.45,2957,3440,4215,112,142,110,72,99,0
2981,3464,4242,11,0,13,10240,0.43,-0.09,1.58,1.45,2958,3441,4216,112,142,110,72,99,0
2997,3482,4254,21,15,22,10240,0.43,-0.09,1.58,1.45,2959,3443,4217,112,142,110,72,99,0
2998,3493,4253,28,30,28,10240,0.43,-0.09,1.58,1.45,2960,3444,4219,112,142,110,72,99,0
3001,3502,4257,34,41,33,10240,0.43,-0.09,1.58,1.45,2962,3446,4220,112,142,110,72,99,0
3009,3511,4267,40,51,38,10240,0.43,-0.09,1.58,1.45,2963,3448,4221,112,142,110,72,99,0
3017,3522,4273,43,59,41,10240,0.43,-0.09,1.58,1.45,2965,3451,4223,112,142,110,72,99,0
3030,3541,4287,50,69,48,10240,0.43,-0.09,1.58,1.45,2967,3454,4225,112,142,110,72,99,0
3037,3550,4291,57,78,55,10240,0.43,-0.09,1.58,1.45,2969,3457,4228,112,142,110,72,99,0
3044,3560,4298,63,87,60,10240,0.43,-0.09,1.58,1.45,2972,3460,4230,112,142,110,71,99,0
3043,3559,4293,68,93,63,10240,0.43,-0.09,1.58,1.45,2974,3464,4232,112,142,110,71,99,0
3015,3520,4261,62,85,55,10240,0.43,-0.09,1.58,1.45,2976,3466,4233,117,149,114,71,99,0
2929,3415,4179,33,50,26,10240,0.43,-0.09,1.60,1.46,2974,3464,4231,117,149,114,71,99,0
2910,3389,4161,0,7,-7,10240,0.43,-0.09,1.60,1.46,2972,3461,4229,117,149,114,71,99,0
2905,3380,4157,-33,-36,-40,10240,0.43,-0.09,1.60,1.46,2970,3459,4226,117,149,114,71,99,0
2907,3382,4161,-58,-68,-63,10240,0.43,-0.09,1.60,1.46,2968,3456,4224,117,149,114,71,99,0
2910,3384,4164,-61,-73,-64,10240,0.43,-0.09,1.60,1.46,2966,3454,4222,117,149,114,71,99,0
2915,3398,4175,-57,-69,-59,10240,0.43,-0.09,1.60,1.46,2964,3452,4221,117,149,114,71,99,0
2922,3413,4181,-51,-59,-51,10240,0.43,-0.09,1.60,1.46,2963,3451,4219,117,149,114,71,99,0
2925,3416,4186,-45,-48,-43,10240,0.43,-0.09,1.60,1.46,2961,3449,4218,117,149,114,71,99,0
2927,3416,4188,-39,-39,-36,10240,0.43,-0.09,1.60,1.46,2960,3448,4217,117,149,114,71,99,0
2929,3416,4188,-35,-33,-31,10240,0.43,-0.09,1.60,1.46,2959,3447,4216,117,149,114,71,99,0
2932,3416,4195,-31,-31,-27,10240,0.43,-0.09,1.60,1.46,2958,3446,4216,117,149,114,71,99,0
2939,3416,4201,-27,-30,-23,10240,0.43,-0.09,1.60,1.46,2958,3445,4215,117,149,114,71,99,0
2948,3416,4205,-21,-29,-18,10240,0.43,-0.09,1.60,1.46,2957,3444,4215,117,149,114,71,99,0
2956,3416,4213,-13,-28,-11,10240,0.43,-0.09,1.60,1.46,2957,3443,4215,117,149,114,71,99,0
2967,3439,4228,-5,-22,-3,10240,0.43,-0.09,1.60,1.46,2958,3443,4215,117,149,114,71,99,0
2968,3446,4233,2,-14,4,10240,0.43,-0.09,1.60,1.46,2958,3443,4216,117,149,114,71,99,0
2972,3454,4238,8,-4,12,10240,0.43,-0.09,1.60,1.46,2958,3444,4216,117,149,114,71,99,0
2979,3462,4244,13,6,19,10240,0.43,-0.09,1.60,1.46,2959,3444,4217,117,149,114,71,99,0
2990,3474,4253,18,15,25,10240,0.43,-0.09,1.60,1.46,2960,3445,4219,117,149,114,71,99,0
3001,3501,4253,26,27,29,10240,0.43,-0.09,1.60,1.46,2961,3447,4220,117,149,114,71,99,0
3009,3511,4264,34,40,34,10240,0.43,-0.09,1.60,1.46,2963,3449,4221,117,149,114,71,99,0
3013,3518,4271,41,52,39,10240,0.43,-0.09,1.60,1.46,2965,3452,4223,117,149,114,71,99,0
3016,3522,4275,46,62,43,10240,0.43,-0.09,1.60,1.46,2966,3454,4225,117,149,114,71,99,0
3021,3530,4280,49,67,48,10240,0.43,-0.09,1.60,1.46,2968,3456,4226,117,149,114,71,99,0
3036,3550,4294,54,74,54,10240,0.43,-0.09,1.60,1.46,2971,3460,4229,117,149,114,71,99,0
3039,3556,4296,58,81,58,10240,0.43,-0.09,1.60,1.46,2973,3463,4231,117,149,114,71,99,0
3025,3537,4277,58,82,57,10240,0.43,-0.09,1.60,1.46,2975,3465,4232,117,149,116,71,99,0
2989,3480,4238,48,67,45,10240,0.43,-0.09,1.57,1.43,2975,3466,4233,117,150,116,71,99,0
2946,3418,4194,25,33,19,10240,0.43,-0.09,1.57,1.43,2974,3464,4231,117,150,116,71,99,0
2910,3387,4161,-6,-8,-13,10240,0.43,-0.09,1.57,1.43,2972,3462,4229,117,150,116,71,99,0
2908,3383,4161,-34,-45,-41,10240,0.43,-0.09,1.57,1.43,2970,3459,4227,117,150,116,71,99,0
2909,3385,4163,-52,-67,-58,10240,0.43,-0.09,1.57,1.43,2968,3456,4225,117,150,116,71,99,0
2910,3389,4166,-59,-71,-63,10240,0.43,-0.09,1.57,1.43,2966,3454,4223,117,150,116,71,99,0
2915,3398,4172,-56,-66,-58,10240,0.43,-0.09,1.57,1.43,2964,3452,4221,117,150,116,71,99,0
2926,3416,4188,-50,-56,-50,10240,0.43,-0.09,1.57,1.43,2963,3451,4220,117,150,116,71,99,0
2928,3416,4188,-44,-47,-42,10240,0.43,-0.09,1.57,1.43,2962,3450,4219,117,150,116,71,99,0
2928,3416,4188,-38,-39,-35,10240,0.43,-0.09,1.57,1.43,2961,3449,4218,117,150,116,71,99,0
2929,3416,4190,-33,-33,-30,10240,0.43,-0.09,1.57,1.43,2959,3448,4217,117,150,116,71,99,0
2933,3416,4193,-30,-32,-27,10240,0.43,-0.09,1.57,1.43,2959,3447,4216,117,150,116,71,99,0
2943,3416,4204,-26,-31,-23,10240,0.43,-0.09,1.57,1.43,2958,3446,4216,117,150,116,71,99,0
2950,3416,4209,-19,-30,-17,10240,0.43,-0.09,1.57,1.43,2958,3445,4215,117,150,116,71,99,0
2958,3417,4216,-12,-29,-10,10240,0.43,-0.09,1.57,1.43,2958,3444,4215,117,150,116,71,99,0
2964,3433,4223,-4,-24,-2,10240,0.43,-0.09,1.57,1.43,2958,3443,4216,117,150,116,71,99,0
2972,3446,4231,3,-15,4,10240,0.43,-0.09,1.57,1.43,2958,3443,4216,117,150,116,71,99,0
2985,3468,4246,11,-2,13,10240,0.43,-0.09,1.57,1.43,2959,3444,4217,117,150,116,71,99,0
2991,3476,4252,19,12,21,10240,0.43,-0.09,1.57,1.43,2960,3445,4218,117,150,116,71,99,0
2996,3479,4254,26,22,28,10240,0.43,-0.09,1.57,1.43,2962,3446,4220,117,150,116,71,99,0
2997,3486,4254,31,31,32,10240,0.43,-0.09,1.57,1.43,2963,3448,4221,117,150,116,71,99,0
2999,3495,4251,33,37,32,10240,0.43,-0.09,1.57,1.43,2964,3449,4222,117,150,116,71,99,0
3011,3512,4266,37,44,34,10240,0.43,-0.09,1.57,1.43,2966,3451,4223,117,150,116,71,99,0
3017,3521,4272,41,53,38,10240,0.43,-0.09,1.57,1.43,2967,3454,4225,117,150,116,71,99,0
3023,3528,4276,46,61,42,10240,0.43,-0.09,1.57,1.43,2969,3456,4226,117,150,116,71,99,0
3012,3514,4261,47,64,43,10240,0.43,-0.09,1.57,1.43,2971,3458,4228,117,150,116,71,99,0
2936,3462,4229,28,49,32,10240,0.43,-0.09,1.57,1.43,2969,3458,4228,115,147,114,71,98,0
2908,3384,4157,0,15,4,10240,0.43,-0.09,1.58,1.44,2967,3456,4225,115,147,114,71,98,0
2898,3366,4151,-29,-24,-26,10240,0.43,-0.09,1.58,1.44,2965,3453,4223,115,147,114,71,98,0
2899,3366,4152,-55,-59,-51,10240,0.43,-0.09,1.58,1.44,2963,3450,4220,115,147,114,71,98,0
2903,3373,4158,-62,-79,-67,10240,0.43,-0.09,1.58,1.44,2961,3447,4218,115,147,114,71,98,0
2912,3389,4169,-59,-75,-62,10240,0.43,-0.09,1.58,1.44,2959,3445,4217,115,147,114,70,98,0
2920,3406,4177,-51,-63,-53,10240,0.43,-0.09,1.58,1.44,2958,3444,4215,115,147,114,70,98,0
2925,3416,4183,-43,-48,-44,10240,0.43,-0.09,1.58,1.44,2957,3443,4214,115,147,114,70,98,0
2926,3416,4182,-36,-36,-37,10240,0.43,-0.09,1.58,1.44,2956,3442,4213,115,147,114,70,98,0
2926,3416,4183,-32,-29,-32,10240,0.43,-0.09,1.58,1.44,2955,3441,4212,115,147,114,70,98,0
2929,3416,4189,-29,-25,-28,10240,0.43,-0.09,1.58,1.44,2954,3441,4212,115,147,114,70,98,0
2934,3416,4195,-25,-25,-24,10240,0.43,-0.09,1.58,1.44,2953,3440,4211,115,147,114,70,98,0
2940,3416,4200,-21,-24,-19,10240,0.43,-0.09,1.58,1.44,2953,3439,4211,115,147,114,70,98,0
2947,3416,4207,-15,-23,-13,10240,0.43,-0.09,1.58,1.44,2953,3438,4210,115,147,114,70,98,0
2955,3416,4214,-9,-22,-6,10240,0.43,-0.09,1.58,1.44,2953,3438,4211,115,147,114,70,98,0
2970,3441,4229,0,-16,1,10240,0.43,-0.09,1.58,1.44,2953,3438,4211,115,147,114,70,98,0
2978,3455,4236,9,-6,10,10240,0.43,-0.09,1.58,1.44,2954,3438,4212,115,147,114,70,98,0
2985,3467,4244,18,6,19,10240,0.43,-0.09,1.58,1.44,2955,3439,4213,115,147,114,70,98,0
2993,3474,4252,27,20,27,10240,0.43,-0.09,1.58,1.44,2956,3440,4214,115,147,114,70,98,0
2996,3481,4253,32,29,32,10240,0.43,-0.09,1.58,1.44,2958,3442,4216,115,147,114,70,98,0
3000,3498,4252,36,38,35,10240,0.43,-0.09,1.58,1.44,2959,3444,4217,115,147,114,70,98,0
3008,3507,4263,40,47,38,10240,0.43,-0.09,1.58,1.44,2961,3446,4218,115,147,114,70,98,0
3017,3518,4271,45,56,42,10240,0.43,-0.09,1.58,1.44,2963,3448,4220,115,147,114,70,98,0
3024,3529,4277,50,65,46,10240,0.43,-0.09,1.58,1.44,2965,3451,4222,115,147,114,70,98,0
3028,3536,4281,55,72,52,10240,0.43,-0.09,1.58,1.44,2967,3454,4224,115,147,114,72,98,0
2984,3464,4229,47,60,42,10240,0.43,-0.09,1.58,1.44,2967,3454,4224,115,148,115,72,98,0
2936,3415,4182,26,33,19,10240,0.43,-0.09,1.57,1.42,2966,3453,4223,115,148,115,72,98,0
2907,3379,4154,-2,-4,-11,10240,0.43,-0.09,1.57,1.42,2964,3450,4221,115,148,115,72,98,0
2894,3358,4144,-34,-47,-44,10240,0.43,-0.09,1.57,1.42,2962,3447,4218,115,148,115,72,98,0
2893,3356,4144,-55,-71,-63,10240,0.43,-0.09,1.57,1.42,2960,3444,4216,115,148,115,72,98,0
2893,3356,4148,-64,-83,-69,10240,0.43,-0.09,1.57,1.42,2957,3441,4213,115,148,115,72,98,0
2894,3358,4150,-65,-85,-68,10240,0.43,-0.09,1.57,1.42,2955,3438,4211,115,148,115,72,98,0
2899,3365,4156,-61,-81,-62,10240,0.43,-0.09,1.57,1.42,2953,3436,4209,115,148,115,72,98,0
2905,3374,4162,-56,-74,-56,10240,0.43,-0.09,1.57,1.42,2952,3434,4208,115,148,115,72,98,0
2907,3378,4166,-51,-66,-50,10240,0.43,-0.09,1.57,1.42,2950,3432,4206,115,148,115,72,98,0
2906,3378,4165,-46,-59,-44,10240,0.43,-0.09,1.57,1.42,2949,3430,4205,115,148,115,72,98,0
2908,3382,4169,-43,-53,-40,10240,0.43,-0.09,1.57,1.42,2948,3429,4204,115,148,115,72,98,0
2912,3390,4173,-40,-47,-36,10240,0.43,-0.09,1.57,1.42,2946,3427,4203,115,148,115,72,98,0
2919,3406,4179,-35,-39,-32,10240,0.43,-0.09,1.57,1.42,2945,3427,4202,115,148,115,72,98,0
2927,3416,4189,-29,-28,-25,10240,0.43,-0.09,1.57,1.42,2945,3426,4202,115,148,115,72,98,0
2941,3416,4205,-20,-19,-15,10240,0.43,-0.09,1.57,1.42,2945,3426,4202,115,148,115,72,98,0
2949,3416,4211,-11,-12,-6,10240,0.43,-0.09,1.57,1.42,2945,3426,4202,115,148,115,72,98,0
2958,3416,4218,-1,-9,3,10240,0.43,-0.09,1.57,1.42,2945,3425,4202,115,148,115,72,98,0
2965,3427,4223,8,-6,12,10240,0.43,-0.09,1.57,1.42,2946,3425,4203,115,148,115,72,98,0
2979,3443,4230,17,0,17,10240,0.43,-0.09,1.57,1.42,2947,3426,4204,115,148,115,72,98,0
2987,3466,4244,25,12,25,10240,0.43,-0.09,1.57,1.42,2948,3427,4205,115,148,115,72,98,0
2994,3476,4251,33,26,32,10240,0.43,-0.09,1.57,1.42,2950,3429,4207,115,148,115,72,98,0
2998,3483,4252,40,38,38,10240,0.43,-0.09,1.57,1.42,2952,3431,4208,115,148,115,72,98,0
2999,3492,4251,43,49,42,10240,0.43,-0.09,1.57,1.42,2953,3433,4210,115,148,115,72,98,0
3010,3506,4256,47,57,43,10240,0.43,-0.09,1.57,1.42,2955,3435,4211,115,148,115,72,98,0
2998,3490,4247,47,58,41,10240,0.43,-0.09,1.57,1.42,2956,3437,4213,115,148,114,72,98,0
2959,3427,4204,36,43,28,10240,0.43,-0.09,1.59,1.44,2957,3437,4212,114,146,114,72,98,0
2917,3396,4165,15,18,6,10240,0.43,-0.09,1.59,1.44,2955,3435,4211,114,146,114,72,98,0
2891,3352,4140,-14,-19,-22,10240,0.43,-0.09,1.59,1.44,2953,3432,4208,114,146,114,72,98,0
2879,3334,4132,-42,-56,-49,10240,0.43,-0.09,1.59,1.44,2951,3429,4206,114,146,114,72,98,0
2880,3335,4135,-60,-76,-64,10240,0.43,-0.09,1.59,1.44,2948,3426,4203,114,146,114,72,98,0
2880,3336,4138,-67,-88,-68,10240,0.43,-0.09,1.59,1.44,2946,3423,4201,114,146,114,72,98,0
2884,3341,4142,-66,-88,-65,10240,0.43,-0.09,1.59,1.44,2944,3420,4199,114,146,114,72,98,0
2890,3350,4148,-61,-81,-59,10240,0.43,-0.09,1.59,1.44,2942,3418,4198,114,146,114,72,98,0
2894,3356,4153,-56,-73,-53,10240,0.43,-0.09,1.59,1.44,2940,3416,4196,114,146,114,72,98,0
2892,3354,4152,-51,-66,-48,10240,0.43,-0.09,1.59,1.44,2939,3414,4195,114,146,114,72,98,0
2893,3355,4152,-47,-61,-44,10240,0.43,-0.09,1.59,1.44,2937,3412,4193,114,146,114,72,98,0
2895,3358,4155,-44,-57,-41,10240,0.43,-0.09,1.59,1.44,2936,3410,4192,114,146,114,72,98,0
2900,3365,4160,-41,-53,-38,10240,0.43,-0.09,1.59,1.44,2935,3409,4191,114,146,114,72,98,0
2914,3388,4174,-35,-43,-31,10240,0.43,-0.09,1.59,1.44,2934,3408,4190,114,146,114,72,98,0
2921,3401,4180,-27,-30,-23,10240,0.43,-0.09,1.59,1.44,2934,3408,4190,114,146,114,72,98,0
2926,3415,4186,-18,-16,-15,10240,0.43,-0.09,1.59,1.44,2933,3408,4190,114,146,114,72,98,0
2933,3416,4195,-10,-3,-6,10240,0.43,-0.09,1.59,1.44,2933,3408,4190,114,146,114,72,98,0
2937,3416,4200,-4,4,0,10240,0.43,-0.09,1.59,1.44,2933,3408,4190,114,146,114,72,98,0
2947,3416,4207,2,7,6,10240,0.43,-0.09,1.59,1.44,2934,3409,4191,114,146,114,72,98,0
2953,3416,4211,8,7,12,10240,0.43,-0.09,1.59,1.44,2935,3409,4192,114,146,114,72,98,0
2958,3416,4215,14,7,17,10240,0.43,-0.09,1.59,1.44,2935,3409,4192,114,146,114,72,98,0
2963,3422,4220,20,8,21,10240,0.43,-0.09,1.59,1.44,2936,3410,4193,114,146,114,72,98,0
2970,3437,4226,25,13,25,10240,0.43,-0.09,1.59,1.44,2937,3411,4194,114,146,114,72,98,0
2964,3428,4217,27,15,26,10240,0.43,-0.09,1.59,1.44,2938,3411,4195,114,146,114,72,98,0
2929,3409,4181,19,13,16,10240,0.43,-0.09,1.59,1.44,2938,3411,4195,109,136,109,72,98,0
2885,3343,4135,0,-6,-4,10240,0.41,-0.09,1.53,1.43,2936,3409,4193,109,136,109,72,98,0
2858,3303,4110,-27,-38,-32,10240,0.41,-0.09,1.53,1.43,2934,3405,4190,109,136,109,72,98,0
2848,3288,4103,-54,-70,-59,10240,0.41,-0.09,1.53,1.43,2931,3401,4187,109,136,109,72,98,0
2849,3290,4107,-72,-97,-74,10240,0.41,-0.09,1.53,1.43,2928,3398,4184,109,136,109,72,98,0
2851,3291,4109,-78,-106,-78,10240,0.41,-0.09,1.53,1.43,2925,3394,4182,109,136,109,72,98,0
2855,3298,4115,-76,-104,-74,10240,0.41,-0.09,1.53,1.43,2923,3391,4180,109,136,109,72,98,0
2862,3308,4123,-70,-96,-67,10240,0.41,-0.09,1.53,1.43,2921,3388,4178,109,136,109,72,98,0
2866,3315,4129,-63,-86,-60,10240,0.41,-0.09,1.53,1.43,2919,3386,4176,109,136,109,72,98,0
2868,3317,4131,-57,-77,-52,10240,0.41,-0.09,1.53,1.43,2918,3383,4175,109,136,109,72,98,0
2870,3319,4132,-52,-69,-46,10240,0.41,-0.09,1.53,1.43,2916,3381,4173,109,136,109,72,98,0
2873,3324,4135,-47,-63,-42,10240,0.41,-0.09,1.53,1.43,2915,3379,4172,109,136,109,72,98,0
2877,3331,4137,-43,-57,-39,10240,0.41,-0.09,1.53,1.43,2913,3378,4171,109,136,109,72,98,0
2884,3341,4146,-38,-49,-34,10240,0.41,-0.09,1.53,1.43,2912,3376,4170,109,136,109,72,98,0
2900,3365,4162,-29,-37,-25,10240,0.41,-0.09,1.53,1.43,2912,3376,4170,109,136,109,72,98,0
2907,3376,4168,-20,-23,-17,10240,0.41,-0.09,1.53,1.43,2912,3376,4170,109,136,109,72,98,0
2914,3388,4175,-10,-8,-7,10240,0.41,-0.09,1.53,1.43,2912,3377,4170,109,136,109,72,98,0
2922,3404,4181,-1,6,1,10240,0.41,-0.09,1.53,1.43,2912,3377,4170,109,136,109,72,98,0
2929,3416,4187,5,18,7,10240,0.41,-0.09,1.53,1.43,2913,3379,4171,109,136,109,72,98,0
2939,3416,4198,13,27,14,10240,0.41,-0.09,1.53,1.43,2914,3380,4172,109,136,109,72,98,0
2943,3416,4202,19,33,20,10240,0.41,-0.09,1.53,1.43,2915,3381,4173,109,136,109,72,98,0
2948,3416,4204,25,35,25,10240,0.41,-0.09,1.53,1.43,2916,3382,4174,109,136,109,72,98,0
2955,3416,4210,30,34,30,10240,0.41,-0.09,1.53,1.43,2917,3383,4175,109,137,109,72,98,0
2962,3417,4215,35,33,33,10240,0.41,-0.09,1.53,1.43,2918,3385,4176,109,137,109,72,98,0
2969,3430,4220,40,35,36,10240,0.41,-0.09,1.53,1.43,2920,3386,4178,109,137,109,72,98,0
2942,3415,4189,38,34,31,10240,0.41,-0.09,1.53,1.43,2921,3387,4178,112,137,110,72,98,0
2893,3353,4140,21,17,13,10240,0.41,-0.09,1.54,1.46,2920,3386,4177,112,137,110,72,98,0
2854,3294,4102,-5,-12,-14,10240,0.41,-0.09,1.54,1.46,2918,3383,4174,112,137,110,72,98,0
2834,3267,4085,-37,-51,-46,10240,0.41,-0.09,1.54,1.46,2915,3379,4171,112,137,110,72,98,0
2830,3261,4086,-63,-87,-69,10240,0.41,-0.09,1.54,1.46,2912,3375,4168,112,137,110,72,98,0
2830,3260,4087,-76,-106,-79,10240,0.41,-0.09,1.54,1.46,2909,3371,4166,112,137,110,72,98,0
2830,3260,4087,-79,-111,-80,10240,0.41,-0.09,1.54,1.46,2907,3368,4163,112,137,110,72,98,0
2834,3267,4093,-77,-107,-76,10240,0.41,-0.09,1.54,1.46,2904,3364,4161,112,137,110,72,98,0
2848,3284,4101,-70,-98,-70,10240,0.41,-0.09,1.54,1.46,2902,3361,4159,112,137,110,72,98,0
2849,3287,4106,-63,-88,-63,10240,0.41,-0.09,1.54,1.46,2901,3359,4157,112,137,110,72,98,0
2850,3288,4107,-56,-78,-56,10240,0.41,-0.09,1.54,1.46,2899,3357,4155,112,137,110,72,98,0
2851,3291,4108,-50,-70,-50,10240,0.41,-0.09,1.54,1.46,2897,3354,4154,112,137,110,72,98,0
2857,3297,4114,-46,-65,-45,10240,0.41,-0.09,1.54,1.46,2896,3353,4152,112,137,110,72,98,0
2870,3315,4128,-39,-56,-39,10240,0.41,-0.09,1.54,1.46,2895,3351,4152,112,137,110,72,98,0
2877,3328,4136,-32,-44,-30,10240,0.41,-0.09,1.54,1.46,2895,3351,4151,112,137,110,72,98,0
2885,3339,4143,-22,-31,-21,10240,0.41,-0.09,1.54,1.46,2894,3350,4151,112,137,110,72,98,0
2893,3350,4151,-13,-17,-11,10240,0.41,-0.09,1.54,1.46,2894,3350,4151,112,137,110,72,98,0
2900,3363,4159,-5,-5,-3,10240,0.41,-0.09,1.54,1.46,2894,3351,4151,112,137,110,72,98,0
2914,3384,4172,3,8,5,10240,0.41,-0.09,1.54,1.46,2895,3352,4152,112,137,110,72,98,0
2919,3395,4176,11,21,12,10240,0.41,-0.09,1.54,1.46,2896,3353,4153,112,137,110,72,98,0
2926,3409,4182,19,35,19,10240,0.41,-0.09,1.54,1.46,2897,3355,4154,112,137,110,72,98,0
2931,3416,4187,26,46,25,10240,0.41,-0.09,1.54,1.46,2898,3357,4155,112,137,110,72,98,0
2935,3416,4193,30,53,30,10240,0.41,-0.09,1.54,1.46,2899,3359,4156,112,137,110,72,98,0
2947,3416,4203,36,56,35,10240,0.41,-0.09,1.54,1.46,2901,3361,4157,112,137,110,72,98,0
2953,3416,4209,41,56,41,10240,0.41,-0.09,1.54,1.46,2903,3363,4159,112,137,110,72,98,0
2948,3416,4201,44,54,43,10240,0.41,-0.09,1.54,1.46,2904,3364,4161,112,144,110,72,98,0
2914,3389,4163,37,46,34,10240,0.41,-0.09,1.54,1.46,2904,3365,4161,114,144,114,72,98,0
2867,3313,4115,17,19,12,10240,0.41,-0.09,1.56,1.43,2903,3364,4159,114,144,114,72,98,0
2820,3246,4073,-15,-22,-21,10240,0.41,-0.09,1.56,1.43,2900,3360,4156,114,144,114,72,98,0
2814,3240,4070,-47,-64,-52,10240,0.41,-0.09,1.56,1.43,2898,3356,4153,114,144,114,72,98,0
2813,3237,4070,-70,-99,-72,10240,0.41,-0.09,1.56,1.43,2895,3352,4151,114,144,114,72,98,0
2813,3237,4071,-81,-114,-81,10240,0.41,-0.09,1.56,1.43,2892,3348,4148,114,144,114,72,98,0
2813,3237,4072,-80,-112,-78,10240,0.41,-0.09,1.56,1.43,2889,3344,4145,114,144,114,72,98,0
2828,3260,4090,-74,-103,-71,10240,0.41,-0.09,1.56,1.43,2887,3341,4144,114,144,114,72,98,0
2834,3269,4095,-66,-92,-62,10240,0.41,-0.09,1.56,1.43,2886,3339,4142,114,144,114,72,98,0
2837,3272,4098,-58,-80,-54,10240,0.41,-0.09,1.56,1.43,2884,3337,4140,114,144,114,72,98,0
2838,3275,4100,-50,-69,-45,10240,0.41,-0.09,1.56,1.43,2882,3335,4139,114,144,114,72,98,0
2841,3279,4101,-45,-62,-41,10240,0.41,-0.09,1.56,1.43,2881,3333,4138,114,144,114,72,98,0
2855,3294,4112,-39,-54,-35,10240,0.41,-0.09,1.56,1.43,2880,3331,4137,114,144,114,72,98,0
2864,3307,4121,-31,-43,-29,10240,0.41,-0.09,1.56,1.43,2880,3331,4136,114,144,114,72,98,0
2870,3318,4129,-22,-31,-21,10240,0.41,-0.09,1.56,1.43,2879,3330,4136,114,144,114,72,98,0
2879,3330,4137,-12,-18,-11,10240,0.41,-0.09,1.56,1.43,2879,3330,4136,114,144,114,72,98,0
2895,3354,4144,-2,-3,-3,10240,0.41,-0.09,1.56,1.43,2880,3331,4137,114,144,114,72,98,0
2900,3363,4158,6,10,5,10240,0.41,-0.09,1.56,1.43,2880,3332,4137,114,144,114,72,98,0
2905,3372,4163,14,23,13,10240,0.41,-0.09,1.56,1.43,2881,3333,4138,114,144,114,72,98,0
2911,3382,4169,22,35,20,10240,0.41,-0.09,1.56,1.43,2882,3335,4139,114,144,114,72,98,0
2918,3392,4174,26,43,27,10240,0.41,-0.09,1.56,1.43,2884,3337,4140,114,144,114,72,98,0
2930,3416,4179,33,54,31,10240,0.41,-0.09,1.56,1.43,2885,3340,4142,114,144,114,72,98,0
2935,3416,4192,39,63,37,10240,0.41,-0.09,1.56,1.43,2887,3342,4143,114,144,114,72,98,0
2940,3416,4198,44,69,43,10240,0.41,-0.09,1.56,1.43,2888,3345,4145,114,144,114,72,98,0
2945,3416,4202,50,72,48,10240,0.41,-0.09,1.56,1.43,2890,3347,4147,114,144,114,72,98,0
2952,3416,4208,53,70,54,10240,0.41,-0.09,1.56,1.43,2892,3349,4149,114,155,114,72,98,0
2937,3415,4189,52,67,51,10240,0.41,-0.09,1.56,1.43,2894,3351,4150,119,155,119,73,98,0
2895,3357,4143,39,51,36,10240,0.41,-0.09,1.61,1.43,2894,3352,4150,119,155,119,73,98,0
2853,3294,4101,16,20,10,10240,0.41,-0.09,1.61,1.43,2893,3350,4149,119,155,119,73,98,0
2828,3260,4080,-14,-18,-20,10240,0.41,-0.09,1.61,1.43,2890,3347,4146,119,155,119,73,98,0
2819,3246,4073,-42,-58,-48,10240,0.41,-0.09,1.61,1.43,2888,3343,4144,119,155,119,73,98,0
2815,3242,4072,-60,-84,-63,10240,0.41,-0.09,1.61,1.43,2886,3340,4141,119,155,119,73,98,0
2814,3239,4072,-67,-95,-68,10240,0.41,-0.09,1.61,1.43,2883,3337,4139,119,155,119,73,98,0
2817,3244,4077,-68,-95,-66,10240,0.41,-0.09,1.61,1.43,2881,3334,4137,119,155,119,73,98,0
2825,3254,4085,-64,-90,-61,10240,0.41,-0.09,1.61,1.43,2879,3331,4135,119,155,119,73,98,0
2829,3262,4090,-59,-83,-55,10240,0.41,-0.09,1.61,1.43,2878,3329,4134,119,155,119,73,98,0
2832,3265,4091,-52,-73,-48,10240,0.41,-0.09,1.61,1.43,2876,3326,4132,119,155,119,73,98,0
2833,3267,4093,-47,-65,-43,10240,0.41,-0.09,1.61,1.43,2875,3324,4131,119,155,119,73,98,0
2837,3274,4097,-42,-58,-39,10240,0.41,-0.09,1.61,1.43,2873,3323,4130,119,155,119,73,98,0
2843,3280,4101,-37,-52,-35,10240,0.41,-0.09,1.61,1.43,2872,3321,4129,119,155,119,73,98,0
2850,3290,4108,-32,-44,-29,10240,0.41,-0.09,1.61,1.43,2872,3320,4128,119,155,119,73,98,0
2866,3311,4125,-23,-32,-21,10240,0.41,-0.09,1.61,1.43,2871,3320,4128,119,155,119,73,98,0
2872,3321,4132,-13,-19,-11,10240,0.41,-0.09,1.61,1.43,2871,3320,4128,119,155,119,73,98,0
2878,3331,4137,-5,-6,-2,10240,0.41,-0.09,1.61,1.43,2872,3320,4129,119,155,119,73,98,0
2883,3340,4142,3,5,5,10240,0.41,-0.09,1.61,1.43,2872,3321,4129,119,155,119,73,98,0
2889,3349,4148,8,14,10,10240,0.41,-0.09,1.61,1.43,2873,3322,4130,119,155,119,73,98,0
2899,3364,4157,14,24,16,10240,0.41,-0.09,1.61,1.43,2873,3323,4131,119,155,119,73,98,0
2905,3372,4161,21,33,21,10240,0.41,-0.09,1.61,1.43,2874,3325,4132,119,155,119,73,98,0
2911,3381,4166,27,42,26,10240,0.41,-0.09,1.61,1.43,2876,3327,4133,119,155,119,73,98,0
2917,3392,4172,33,51,31,10240,0.41,-0.09,1.61,1.43,2877,3329,4134,119,155,119,73,98,0
2924,3406,4177,37,59,35,10240,0.41,-0.09,1.61,1.43,2879,3332,4135,119,155,119,73,98,0
2904,3372,4154,36,57,32,10240,0.41,-0.09,1.61,1.43,2879,3333,4136,116,155,115,73,98,0
2863,3310,4110,23,38,18,10240,0.41,-0.09,1.67,1.45,2879,3332,4135,116,155,115,73,98,0
2828,3260,4077,1,5,-5,10240,0.41,-0.09,1.67,1.45,2877,3330,4133,116,155,115,73,98,0
2809,3233,4060,-26,-36,-33,10240,0.41,-0.09,1.67,1.45,2875,3327,4131,116,155,115,73,98,0
2808,3230,4059,-49,-69,-55,10240,0.41,-0.09,1.67,1.45,2873,3323,4128,116,155,115,73,98,0
2808,3231,4064,-60,-86,-64,10240,0.41,-0.09,1.67,1.45,2871,3320,4126,116,155,115,73,98,0
2810,3232,4067,-63,-90,-64,10240,0.41,-0.09,1.67,1.45,2869,3317,4124,116,155,115,73,98,0
2817,3242,4075,-59,-85,-59,10240,0.41,-0.09,1.67,1.45,2867,3315,4123,116,155,115,73,98,0
2825,3255,4083,-53,-76,-51,10240,0.41,-0.09,1.67,1.45,2865,3313,4121,116,155,115,73,98,0
2830,3261,4087,-45,-66,-44,10240,0.41,-0.09,1.67,1.45,2864,3311,4120,116,155,115,73,98,0
2831,3263,4088,-39,-57,-37,10240,0.41,-0.09,1.67,1.45,2863,3310,4119,116,155,115,73,98,0
2833,3267,4091,-33,-49,-32,10240,0.41,-0.09,1.67,1.45,2862,3308,4118,116,155,115,73,98,0
2839,3274,4096,-29,-42,-28,10240,0.41,-0.09,1.67,1.45,2861,3307,4117,116,155,115,73,98,0
2846,3282,4100,-24,-36,-24,10240,0.41,-0.09,1.67,1.45,2861,3306,4117,116,155,115,73,98,0
2862,3293,4109,-16,-27,-18,10240,0.41,-0.09,1.67,1.45,2861,3306,4117,116,155,115,73,98,0
2869,3315,4125,-7,-15,-9,10240,0.41,-0.09,1.67,1.45,2861,3306,4117,116,155,115,73,98,0
2876,3326,4132,2,-2,0,10240,0.41,-0.09,1.67,1.45,2862,3307,4117,116,155,115,73,98,0
2882,3335,4138,10,10,8,10240,0.41,-0.09,1.67,1.45,2862,3308,4118,116,155,115,73,98,0
2889,3346,4144,17,23,17,10240,0.41,-0.09,1.67,1.45,2863,3309,4119,116,155,115,73,98,0
2902,3356,4151,24,32,22,10240,0.41,-0.09,1.67,1.45,2865,3310,4120,116,155,115,73,98,0
2908,3375,4162,31,43,29,10240,0.41,-0.09,1.67,1.45,2866,3313,4121,116,155,115,73,98,0
2914,3385,4167,37,53,35,10240,0.41,-0.09,1.67,1.45,2868,3315,4123,116,155,115,73,98,0
2920,3396,4172,44,64,40,10240,0.41,-0.09,1.67,1.45,2869,3318,4125,116,155,115,73,98,0
2927,3411,4178,48,75,46,10240,0.41,-0.09,1.67,1.45,2871,3321,4126,116,155,115,73,98,0
2938,3416,4185,54,82,50,10240,0.41,-0.09,1.67,1.45,2873,3324,4128,116,155,115,73,98,0
2944,3416,4197,60,87,55,10240,0.41,-0.09,1.67,1.45,2876,3327,4131,116,155,115,73,98,0
2949,3416,4200,65,89,60,10240,0.41,-0.09,1.67,1.45,2878,3330,4133,116,155,115,73,98,0
2939,3416,4187,65,87,60,10240,0.41,-0.09,1.67,1.45,2880,3333,4135,116,161,115,73,98,0
2901,3365,4144,54,72,48,10240,0.41,-0.09,1.67,1.45,2881,3334,4135,119,161,117,73,98,0
2827,3257,4073,24,31,17,10240,0.41,-0.09,1.71,1.46,2879,3331,4133,119,161,117,73,98,0
2814,3239,4062,-9,-12,-17,10240,0.41,-0.09,1.71,1.46,2877,3328,4131,119,161,117,73,98,0
2810,3233,4061,-40,-56,-46,10240,0.41,-0.09,1.71,1.46,2875,3325,4128,119,161,117,73,98,0
2808,3232,4063,-61,-86,-64,10240,0.41,-0.09,1.71,1.46,2873,3322,4126,119,161,117,73,98,0
2808,3230,4061,-63,-90,-65,10240,0.41,-0.09,1.71,1.46,2870,3319,4124,119,161,117,73,98,0
2815,3240,4071,-61,-86,-61,10240,0.41,-0.09,1.71,1.46,2869,3316,4122,119,161,117,73,98,0
2825,3252,4079,-55,-79,-54,10240,0.41,-0.09,1.71,1.46,2867,3314,4121,119,161,117,73,98,0
2827,3256,4082,-49,-70,-48,10240,0.41,-0.09,1.71,1.46,2866,3312,4119,119,161,117,73,98,0
2828,3257,4083,-43,-61,-41,10240,0.41,-0.09,1.71,1.46,2865,3310,4118,119,161,117,73,98,0
2831,3260,4084,-37,-55,-36,10240,0.41,-0.09,1.71,1.46,2863,3309,4117,119,161,117,73,98,0
2837,3269,4091,-33,-49,-32,10240,0.41,-0.09,1.71,1.46,2863,3307,4116,119,161,117,73,98,0
2840,3276,4097,-29,-42,-28,10240,0.41,-0.09,1.71,1.46,2862,3306,4116,119,161,117,73,98,0
2841,3279,4099,-25,-35,-23,10240,0.41,-0.09,1.71,1.46,2861,3305,4115,119,161,117,73,98,0
2842,3281,4102,-21,-29,-18,10240,0.41,-0.09,1.71,1.46,2860,3305,4115,119,161,117,73,98,0
2847,3287,4106,-18,-24,-14,10240,0.41,-0.09,1.71,1.46,2860,3304,4114,119,161,117,73,98,0
2861,3306,4121,-12,-16,-7,10240,0.41,-0.09,1.71,1.46,2860,3304,4115,119,161,117,73,98,0
2866,3314,4126,-6,-7,-1,10240,0.41,-0.09,1.71,1.46,2860,3304,4115,119,161,117,73,98,0
2871,3321,4131,1,2,6,10240,0.41,-0.09,1.71,1.46,2861,3305,4115,119,161,117,73,98,0
2878,3332,4137,8,13,13,10240,0.41,-0.09,1.71,1.46,2861,3306,4116,119,161,117,73,98,0
2884,3341,4143,13,21,18,10240,0.41,-0.09,1.71,1.46,2862,3307,4117,119,161,117,73,98,0
2897,3360,4156,20,31,25,10240,0.41,-0.09,1.71,1.46,2863,3309,4118,119,161,117,73,98,0
2903,3371,4161,28,42,31,10240,0.41,-0.09,1.71,1.46,2864,3311,4120,119,161,117,73,98,0
2910,3381,4167,34,53,37,10240,0.41,-0.09,1.71,1.46,2866,3313,4121,119,161,117,73,98,0
2920,3398,4175,42,65,44,10240,0.41,-0.09,1.71,1.46,2868,3316,4123,119,161,117,73,98,0
2930,3415,4183,48,76,49,10240,0.41,-0.09,1.71,1.46,2870,3319,4125,119,161,117,73,98,0
2944,3416,4195,57,84,55,10240,0.41,-0.09,1.71,1.46,2872,3323,4128,119,161,117,73,98,0
2933,3413,4179,60,89,56,10240,0.41,-0.09,1.71,1.46,2874,3326,4129,119,161,117,73,98,0
2893,3351,4134,52,75,45,10240,0.41,-0.09,1.71,1.46,2875,3326,4129,120,165,118,72,98,0
2850,3289,4092,31,42,21,10240,0.41,-0.09,1.74,1.46,2874,3325,4128,120,165,118,72,98,0
2824,3252,4069,1,1,-9,10240,0.41,-0.09,1.74,1.46,2872,3323,4126,120,165,118,72,98,0
2811,3234,4063,-28,-42,-37,10240,0.41,-0.09,1.74,1.46,2870,3320,4124,120,165,118,72,98,0
2811,3235,4063,-47,-68,-53,10240,0.41,-0.09,1.74,1.46,2868,3317,4122,120,165,118,72,98,0
2809,3232,4063,-55,-80,-58,10240,0.41,-0.09,1.74,1.46,2866,3314,4120,120,165,118,72,98,0
2812,3236,4066,-56,-81,-57,10240,0.41,-0.09,1.74,1.46,2865,3312,4118,120,165,118,72,98,0
2820,3246,4074,-52,-75,-52,10240,0.41,-0.09,1.74,1.46,2863,3309,4117,120,165,118,72,98,0
2830,3261,4085,-46,-67,-45,10240,0.41,-0.09,1.74,1.46,2862,3308,4116,120,165,118,72,98,0
2832,3263,4087,-39,-57,-38,10240,0.41,-0.09,1.74,1.46,2861,3306,4115,120,165,118,72,98,0
2833,3265,4088,-32,-48,-32,10240,0.41,-0.09,1.74,1.46,2860,3305,4114,120,165,118,72,98,0
2836,3270,4092,-27,-41,-26,10240,0.41,-0.09,1.74,1.46,2859,3304,4113,120,165,118,72,98,0
2842,3279,4097,-24,-35,-22,10240,0.41,-0.09,1.74,1.46,2859,3303,4113,120,165,118,72,98,0
2858,3300,4113,-17,-25,-15,10240,0.41,-0.09,1.74,1.46,2859,3303,4113,120,165,118,72,98,0
2866,3310,4120,-8,-13,-7,10240,0.41,-0.09,1.74,1.46,2859,3303,4113,120,165,118,72,98,0
2873,3322,4128,0,0,1,10240,0.41,-0.09,1.74,1.46,2859,3304,4113,120,165,118,72,98,0
2879,3332,4134,9,12,10,10240,0.41,-0.09,1.74,1.46,2860,3305,4114,120,165,118,72,98,0
2886,3343,4141,16,22,17,10240,0.41,-0.09,1.74,1.46,2861,3306,4115,120,165,118,72,98,0
2899,3362,4153,23,34,24,10240,0.41,-0.09,1.74,1.46,2862,3308,4116,120,165,118,72,98,0
2904,3371,4158,30,44,30,10240,0.41,-0.09,1.74,1.46,2864,3310,4118,120,165,118,72,98,0
2911,3380,4164,37,55,37,10240,0.41,-0.09,1.74,1.46,2865,3312,4119,120,165,118,72,98,0
2917,3392,4170,43,65,42,10240,0.41,-0.09,1.74,1.46,2867,3315,4121,120,165,118,72,98,0
2924,3406,4175,47,73,46,10240,0.41,-0.09,1.74,1.46,2869,3318,4123,120,165,118,72,98,0
2936,3416,4189,54,82,52,10240,0.41,-0.09,1.74,1.46,2871,3321,4125,120,165,118,72,98,0
2942,3416,4194,59,88,58,10240,0.41,-0.09,1.74,1.46,2873,3324,4127,120,165,118,72,98,0
2947,3416,4196,65,91,62,10240,0.41,-0.09,1.74,1.46,2876,3327,4129,120,165,118,73,98,0
2934,3414,4179,65,90,61,10240,0.41,-0.09,1.74,1.46,2878,3330,4131,120,167,119,73,98,0
2895,3356,4136,53,72,46,10240,0.41,-0.09,1.74,1.45,2878,3331,4131,120,167,119,73,98,0
2831,3262,4075,24,32,16,10240,0.41,-0.09,1.74,1.45,2877,3329,4129,120,167,119,73,98,0
2823,3252,4069,-6,-8,-14,10240,0.41,-0.09,1.74,1.45,2875,3326,4127,120,167,119,73,98,0
2823,3253,4071,-32,-46,-40,10240,0.41,-0.09,1.74,1.45,2873,3324,4126,120,167,119,73,98,0
2826,3256,4074,-48,-69,-54,10240,0.41,-0.09,1.74,1.45,2872,3322,4124,120,167,119,73,98,0
2830,3256,4076,-47,-68,-52,10240,0.41,-0.09,1.74,1.45,2870,3319,4122,120,167,119,73,98,0
2837,3270,4088,-42,-62,-46,10240,0.41,-0.09,1.74,1.45,2869,3318,4121,120,167,119,73,98,0
2839,3274,4091,-36,-54,-39,10240,0.41,-0.09,1.74,1.45,2868,3316,4120,120,167,119,73,98,0
2839,3273,4091,-32,-48,-34,10240,0.41,-0.09,1.74,1.45,2867,3315,4119,120,167,119,73,98,0
2838,3273,4090,-29,-43,-29,10240,0.41,-0.09,1.74,1.45,2866,3313,4118,120,167,119,73,98,0
2845,3282,4095,-26,-38,-26,10240,0.41,-0.09,1.74,1.45,2866,3312,4117,120,167,119,73,98,0
2852,3289,4101,-22,-33,-23,10240,0.41,-0.09,1.74,1.45,2865,3312,4117,120,167,119,73,98,0
2859,3300,4108,-17,-26,-18,10240,0.41,-0.09,1.74,1.45,2865,3311,4117,120,167,119,73,98,0
2865,3309,4116,-10,-16,-12,10240,0.41,-0.09,1.74,1.45,2865,3311,4117,120,167,119,73,98,0
2874,3321,4123,-2,-6,-5,10240,0.41,-0.09,1.74,1.45,2865,3312,4117,120,167,119,73,98,0
2888,3343,4138,6,6,4,10240,0.41,-0.09,1.74,1.45,2866,3313,4117,120,167,119,73,98,0
2895,3354,4145,14,19,13,10240,0.41,-0.09,1.74,1.45,2867,3314,4118,120,167,119,73,98,0
2901,3364,4150,23,31,21,10240,0.41,-0.09,1.74,1.45,2868,3316,4119,120,167,119,73,98,0
2906,3371,4155,30,43,28,10240,0.41,-0.09,1.74,1.45,2869,3317,4121,120,167,119,73,98,0
2912,3381,4160,34,50,32,10240,0.41,-0.09,1.74,1.45,2871,3320,4122,120,167,119,73,98,0
2925,3407,4173,40,62,38,10240,0.41,-0.09,1.74,1.45,2873,3322,4124,120,167,119,73,98,0
2930,3416,4176,46,72,43,10240,0.41,-0.09,1.74,1.45,2875,3326,4125,120,167,119,73,98,0
2916,3391,4159,47,74,42,10240,0.41,-0.09,1.74,1.45,2876,3328,4126,120,167,113,73,98,0
2878,3329,4117,37,59,31,10240,0.41,-0.09,1.83,1.52,2876,3328,4126,114,161,113,73,98,0
2835,3269,4076,14,24,6,10240,0.41,-0.09,1.83,1.52,2875,3326,4125,114,161,113,73,98,0
2804,3226,4048,-16,-22,-24,10240,0.41,-0.09,1.83,1.52,2872,3322,4122,114,161,113,73,98,0
2806,3228,4052,-42,-60,-50,10240,0.41,-0.09,1.83,1.52,2870,3319,4120,114,161,113,73,98,0
2807,3231,4056,-58,-82,-63,10240,0.41,-0.09,1.83,1.52,2868,3316,4117,114,161,113,73,98,0
2808,3231,4059,-62,-88,-65,10240,0.41,-0.09,1.83,1.52,2866,3314,4116,114,161,113,73,98,0
2810,3233,4063,-59,-84,-59,10240,0.41,-0.09,1.83,1.52,2864,3311,4114,114,161,113,73,98,0
2824,3252,4076,-53,-75,-51,10240,0.41,-0.09,1.83,1.52,2863,3309,4113,114,161,113,73,98,0
2827,3258,4079,-46,-66,-44,10240,0.41,-0.09,1.83,1.52,2862,3307,4111,114,161,113,73,98,0
2830,3260,4080,-39,-57,-37,10240,0.41,-0.09,1.83,1.52,2860,3306,4110,114,161,113,73,98,0
2831,3262,4081,-33,-48,-31,10240,0.41,-0.09,1.83,1.52,2859,3304,4109,114,161,113,73,98,0
2835,3268,4086,-29,-43,-28,10240,0.41,-0.09,1.83,1.52,2859,3303,4109,114,161,113,73,98,0
2849,3285,4098,-22,-35,-22,10240,0.41,-0.09,1.83,1.52,2858,3302,4108,114,161,113,73,98,0
2856,3297,4107,-15,-24,-15,10240,0.41,-0.09,1.83,1.52,2858,3302,4108,114,161,113,73,98,0
2865,3308,4114,-7,-12,-7,10240,0.41,-0.09,1.83,1.52,2859,3302,4108,114,161,113,73,98,0
2872,3319,4122,2,0,2,10240,0.41,-0.09,1.83,1.52,2859,3303,4109,114,161,113,73,98,0
2880,3331,4130,9,11,9,10240,0.41,-0.09,1.83,1.52,2860,3304,4110,114,161,113,73,98,0
2895,3354,4144,18,24,18,10240,0.41,-0.09,1.83,1.52,2861,3306,4111,114,161,113,73,98,0
2901,3364,4148,26,36,25,10240,0.41,-0.09,1.83,1.52,2862,3308,4112,114,161,113,73,98,0
2908,3373,4154,34,48,32,10240,0.41,-0.09,1.83,1.52,2864,3310,4113,114,161,113,73,98,0
2913,3383,4159,41,59,38,10240,0.41,-0.09,1.83,1.52,2865,3312,4115,114,161,113,73,98,0
2920,3395,4165,46,67,42,10240,0.41,-0.09,1.83,1.52,2867,3315,4117,114,161,113,73,98,0
2933,3416,4180,52,78,48,10240,0.41,-0.09,1.83,1.52,2869,3318,4119,114,161,113,73,98,0
2937,3416,4181,57,85,53,10240,0.41,-0.09,1.83,1.52,2872,3322,4121,114,161,113,73,98,0
2919,3394,4157,57,85,51,10240,0.41,-0.09,1.83,1.52,2873,3324,4122,114,161,114,73,98,0
2873,3321,4108,43,64,35,10240,0.41,-0.09,1.75,1.43,2873,3324,4121,115,164,114,73,98,0
2806,3260,4067,11,24,7,10240,0.41,-0.09,1.75,1.43,2871,3322,4120,115,164,114,73,98,0
2801,3222,4043,-21,-22,-26,10240,0.41,-0.09,1.75,1.43,2869,3318,4117,115,164,114,73,98,0
2803,3224,4046,-49,-63,-52,10240,0.41,-0.09,1.75,1.43,2866,3315,4115,115,164,114,73,98,0
2806,3226,4050,-63,-83,-64,10240,0.41,-0.09,1.75,1.43,2864,3312,4113,115,164,114,73,98,0
2806,3226,4051,-61,-89,-66,10240,0.41,-0.09,1.75,1.43,2862,3309,4110,115,164,114,73,98,0
2815,3229,4056,-55,-84,-61,10240,0.41,-0.09,1.75,1.43,2861,3307,4109,115,164,114,73,98,0
2823,3248,4072,-49,-76,-52,10240,0.41,-0.09,1.75,1.43,2860,3305,4107,115,164,114,73,98,0
2826,3253,4074,-43,-67,-44,10240,0.41,-0.09,1.75,1.43,2859,3303,4106,115,164,114,73,98,0
2826,3254,4075,-36,-58,-37,10240,0.41,-0.09,1.75,1.43,2857,3301,4105,115,164,114,73,98,0
2829,3256,4077,-32,-49,-31,10240,0.41,-0.09,1.75,1.43,2856,3300,4104,115,164,114,73,98,0
2839,3273,4081,-27,-41,-28,10240,0.41,-0.09,1.75,1.43,2856,3299,4104,115,164,114,73,98,0
2848,3284,4096,-20,-32,-21,10240,0.41,-0.09,1.75,1.43,2856,3298,4103,115,164,114,73,98,0
2857,3296,4104,-12,-21,-14,10240,0.41,-0.09,1.75,1.43,2856,3298,4103,115,164,114,73,98,0
2866,3309,4113,-3,-8,-5,10240,0.41,-0.09,1.75,1.43,2856,3299,4104,115,164,114,73,98,0
2874,3321,4121,5,3,5,10240,0.41,-0.09,1.75,1.43,2857,3300,4104,115,164,114,73,98,0
2890,3342,4129,15,17,12,10240,0.41,-0.09,1.75,1.43,2858,3301,4105,115,164,114,73,98,0
2895,3351,4140,23,30,21,10240,0.41,-0.09,1.75,1.43,2859,3303,4106,115,164,114,73,98,0
2899,3358,4142,31,41,27,10240,0.41,-0.09,1.75,1.43,2860,3304,4107,115,164,114,73,98,0
2904,3365,4147,37,50,32,10240,0.41,-0.09,1.75,1.43,2862,3306,4109,115,164,114,73,98,0
2909,3374,4151,40,56,37,10240,0.41,-0.09,1.75,1.43,2863,3309,4110,115,164,114,73,98,0
2920,3393,4156,45,64,39,10240,0.41,-0.09,1.75,1.43,2865,3312,4112,115,164,114,73,98,0
2926,3408,4168,50,74,44,10240,0.41,-0.09,1.75,1.43,2867,3315,4114,115,164,114,73,98,0
2934,3416,4176,56,84,49,10240,0.41,-0.09,1.75,1.43,2869,3318,4116,115,164,114,73,98,0
2939,3416,4182,61,91,55,10240,0.41,-0.09,1.75,1.43,2872,3321,4118,115,164,114,73,98,0
2940,3416,4180,64,94,59,10240,0.41,-0.09,1.75,1.43,2874,3325,4120,115,164,114,74,98,0
2862,3304,4094,46,66,39,10240,0.41,-0.09,1.75,1.43,2874,3324,4119,118,169,117,74,98,0
2822,3247,4057,17,23,9,10240,0.47,-0.09,1.79,1.45,2872,3321,4117,118,169,117,74,98,0
2803,3224,4040,-15,-24,-24,10240,0.47,-0.09,1.79,1.45,2870,3318,4114,118,169,117,74,98,0
2800,3220,4039,-49,-70,-58,10240,0.47,-0.09,1.79,1.45,2867,3315,4112,118,169,117,74,98,0
2803,3223,4044,-61,-88,-68,10240,0.47,-0.09,1.79,1.45,2865,3312,4110,118,169,117,74,98,0
2805,3225,4047,-63,-90,-68,10240,0.47,-0.09,1.79,1.45,2863,3309,4108,118,169,117,74,98,0
2808,3229,4053,-60,-86,-63,10240,0.47,-0.09,1.79,1.45,2861,3306,4106,118,169,117,74,98,0
2815,3237,4061,-54,-79,-55,10240,0.47,-0.09,1.79,1.45,2860,3304,4104,118,169,117,74,98,0
2821,3244,4066,-48,-71,-48,10240,0.47,-0.09,1.79,1.45,2859,3302,4103,118,169,117,74,98,0
2823,3248,4067,-42,-63,-42,10240,0.47,-0.09,1.79,1.45,2857,3300,4102,118,169,117,74,98,0
2826,3252,4070,-36,-55,-36,10240,0.47,-0.09,1.79,1.45,2856,3298,4101,118,169,117,74,98,0
2831,3259,4075,-31,-48,-32,10240,0.47,-0.09,1.79,1.45,2855,3297,4100,118,169,117,74,98,0
2837,3268,4082,-26,-41,-27,10240,0.47,-0.09,1.79,1.45,2855,3296,4099,118,169,117,74,98,0
2844,3278,4090,-20,-32,-20,10240,0.47,-0.09,1.79,1.45,2854,3296,4099,118,169,117,74,98,0
2853,3288,4098,-13,-22,-13,10240,0.47,-0.09,1.79,1.45,2854,3295,4099,118,169,117,74,98,0
2868,3310,4113,-4,-9,-3,10240,0.47,-0.09,1.79,1.45,2855,3296,4099,118,169,117,74,98,0
2875,3320,4118,5,3,5,10240,0.47,-0.09,1.79,1.45,2856,3297,4100,118,169,117,74,98,0
2882,3330,4127,14,15,14,10240,0.47,-0.09,1.79,1.45,2856,3298,4101,118,169,117,74,98,0
2888,3339,4133,22,27,22,10240,0.47,-0.09,1.79,1.45,2858,3299,4102,118,169,117,74,98,0
2895,3350,4138,27,36,27,10240,0.47,-0.09,1.79,1.45,2859,3301,4103,118,169,117,74,98,0
2905,3367,4149,34,46,34,10240,0.47,-0.09,1.79,1.45,2860,3303,4105,118,169,117,74,98,0
2911,3375,4153,40,55,39,10240,0.47,-0.09,1.79,1.45,2862,3305,4106,118,169,117,74,98,0
2917,3387,4160,45,65,44,10240,0.47,-0.09,1.79,1.45,2864,3308,4108,118,169,117,74,98,0
2926,3404,4168,51,76,50,10240,0.47,-0.09,1.79,1.45,2866,3311,4110,118,169,117,74,98,0
2933,3416,4175,56,85,55,10240,0.47,-0.09,1.79,1.45,2868,3315,4112,118,169,117,74,98,0
2888,3341,4121,49,74,45,10240,0.47,-0.09,1.79,1.45,2869,3316,4113,118,170,119,74,98,0
2844,3277,4077,30,45,23,10240,0.47,-0.09,1.77,1.42,2868,3314,4111,118,170,119,74,98,0
2816,3239,4052,2,4,-5,10240,0.47,-0.09,1.77,1.42,2866,3312,4109,118,170,119,74,98,0
2808,3227,4044,-27,-41,-36,10240,0.47,-0.09,1.77,1.42,2864,3309,4107,118,170,119,74,98,0
2808,3226,4046,-46,-68,-53,10240,0.47,-0.09,1.77,1.42,2862,3306,4105,118,170,119,74,98,0
2809,3230,4053,-53,-77,-57,10240,0.47,-0.09,1.77,1.42,2861,3304,4103,118,170,119,74,98,0
2812,3232,4056,-52,-76,-54,10240,0.47,-0.09,1.77,1.42,2859,3301,4102,118,170,119,74,98,0
2821,3243,4064,-47,-69,-48,10240,0.47,-0.09,1.77,1.42,2858,3299,4101,118,170,119,74,98,0
2828,3254,4072,-41,-60,-40,10240,0.47,-0.09,1.77,1.42,2857,3298,4100,118,170,119,74,98,0
2833,3260,4076,-34,-51,-33,10240,0.47,-0.09,1.77,1.42,2856,3297,4099,118,170,119,74,98,0
2836,3265,4080,-27,-42,-26,10240,0.47,-0.09,1.77,1.42,2855,3296,4098,118,170,119,74,98,0
2839,3270,4083,-21,-34,-21,10240,0.47,-0.09,1.77,1.42,2855,3295,4098,118,170,119,74,98,0
2846,3280,4090,-16,-26,-15,10240,0.47,-0.09,1.77,1.42,2854,3294,4097,118,170,119,74,98,0
2855,3290,4099,-10,-18,-9,10240,0.47,-0.09,1.77,1.42,2854,3294,4098,118,170,119,74,98,0
2872,3315,4107,-1,-5,-3,10240,0.47,-0.09,1.77,1.42,2855,3295,4098,118,170,119,74,98,0
2879,3327,4124,8,8,7,10240,0.47,-0.09,1.77,1.42,2856,3296,4099,118,170,119,74,98,0
2887,3338,4132,17,22,16,10240,0.47,-0.09,1.77,1.42,2857,3297,4100,118,170,119,74,98,0
2894,3348,4138,26,35,25,10240,0.47,-0.09,1.77,1.42,2858,3299,4101,118,170,119,74,98,0
2901,3360,4145,32,45,34,10240,0.47,-0.09,1.77,1.42,2860,3301,4103,118,170,119,74,98,0
2912,3378,4150,39,55,39,10240,0.47,-0.09,1.77,1.42,2861,3304,4104,118,170,119,74,98,0
2917,3387,4161,45,65,45,10240,0.47,-0.09,1.77,1.42,2863,3306,4106,118,170,119,74,98,0
2923,3399,4166,51,76,50,10240,0.47,-0.09,1.77,1.42,2865,3309,4108,118,170,119,74,98,0
2930,3414,4172,56,86,55,10240,0.47,-0.09,1.77,1.42,2867,3313,4110,118,170,119,74,98,0
2935,3416,4179,60,93,60,10240,0.47,-0.09,1.77,1.42,2870,3316,4112,118,170,119,74,98,0
2940,3416,4181,63,96,63,10240,0.47,-0.09,1.77,1.42,2872,3320,4115,118,170,119,76,98,0
2914,3383,4148,59,89,56,10240,0.47,-0.09,1.77,1.42,2873,3322,4116,118,171,119,76,98,0
2868,3313,4102,42,62,38,10240,0.47,-0.09,1.78,1.42,2873,3321,4115,118,171,119,76,98,0
2836,3267,4070,17,24,10,10240,0.47,-0.09,1.78,1.42,2872,3320,4114,118,171,119,76,98,0
2823,3246,4059,-11,-17,-19,10240,0.47,-0.09,1.78,1.42,2870,3317,4112,118,171,119,76,98,0
2824,3250,4065,-33,-49,-38,10240,0.47,-0.09,1.78,1.42,2869,3315,4110,118,171,119,76,98,0
2827,3253,4069,-42,-62,-45,10240,0.47,-0.09,1.78,1.42,2867,3313,4109,118,171,119,76,98,0
2828,3256,4072,-42,-62,-43,10240,0.47,-0.09,1.78,1.42,2866,3311,4108,118,171,119,76,98,0
2834,3264,4079,-38,-56,-37,10240,0.47,-0.09,1.78,1.42,2865,3309,4107,118,171,119,76,98,0
2840,3274,4086,-33,-48,-31,10240,0.47,-0.09,1.78,1.42,2864,3308,4106,118,171,119,76,98,0
2841,3274,4087,-28,-41,-25,10240,0.47,-0.09,1.78,1.42,2863,3307,4106,118,171,119,76,98,0
2840,3273,4085,-25,-36,-21,10240,0.47,-0.09,1.78,1.42,2863,3306,4105,118,171,119,76,98,0
2842,3277,4087,-22,-32,-19,10240,0.47,-0.09,1.78,1.42,2862,3305,4104,118,171,119,76,98,0
2847,3282,4091,-19,-29,-17,10240,0.47,-0.09,1.78,1.42,2861,3304,4104,118,171,119,76,98,0
2854,3292,4098,-16,-23,-14,10240,0.47,-0.09,1.78,1.42,2861,3304,4104,118,171,119,76,98,0
2869,3312,4114,-8,-13,-6,10240,0.47,-0.09,1.78,1.42,2861,3304,4104,118,171,119,76,98,0
2875,3322,4120,0,-2,1,10240,0.47,-0.09,1.78,1.42,2862,3305,4105,118,171,119,76,98,0
2883,3333,4127,8,10,10,10240,0.47,-0.09,1.78,1.42,2863,3306,4105,118,171,119,76,98,0
2889,3343,4133,16,22,18,10240,0.47,-0.09,1.78,1.42,2864,3307,4106,118,171,119,76,98,0
2895,3352,4138,22,31,23,10240,0.47,-0.09,1.78,1.42,2865,3308,4107,118,171,119,76,98,0
2907,3370,4149,29,41,30,10240,0.47,-0.09,1.78,1.42,2866,3310,4109,118,171,119,76,98,0
2913,3380,4155,35,51,35,10240,0.47,-0.09,1.78,1.42,2868,3313,4110,118,171,119,76,98,0
2919,3390,4159,41,61,40,10240,0.47,-0.09,1.78,1.42,2869,3315,4112,118,171,119,76,98,0
2916,3386,4155,45,67,43,10240,0.47,-0.09,1.78,1.42,2871,3318,4113,118,171,119,76,98,0
2888,3342,4122,39,58,35,10240,0.47,-0.09,1.78,1.42,2871,3319,4114,110,160,111,76,98,0
2818,3240,4054,15,22,9,10240,0.47,-0.09,1.79,1.42,2870,3316,4112,110,160,111,76,98,0
2808,3228,4045,-12,-17,-18,10240,0.47,-0.09,1.79,1.42,2868,3313,4109,110,160,111,76,98,0
2808,3228,4047,-38,-55,-43,10240,0.47,-0.09,1.79,1.42,2866,3310,4107,110,160,111,76,98,0
2811,3233,4054,-55,-79,-58,10240,0.47,-0.09,1.79,1.42,2864,3308,4105,110,160,111,76,98,0
2815,3237,4059,-54,-77,-55,10240,0.47,-0.09,1.79,1.42,2862,3305,4104,110,160,111,76,98,0
2828,3254,4072,-47,-68,-46,10240,0.47,-0.09,1.79,1.42,2861,3303,4103,110,160,111,76,98,0
2833,3263,4078,-40,-57,-37,10240,0.47,-0.09,1.79,1.42,2860,3302,4102,110,160,111,76,98,0
2835,3266,4080,-32,-47,-30,10240,0.47,-0.09,1.79,1.42,2859,3301,4101,110,160,111,76,98,0
2836,3266,4080,-26,-39,-24,10240,0.47,-0.09,1.79,1.42,2858,3300,4101,110,160,111,76,98,0
2841,3268,4079,-22,-34,-21,10240,0.47,-0.09,1.79,1.42,2858,3299,4100,110,160,111,76,98,0
2847,3281,4090,-18,-29,-18,10240,0.47,-0.09,1.79,1.42,2857,3298,4100,110,160,111,76,98,0
2854,3290,4098,-13,-22,-13,10240,0.47,-0.09,1.79,1.42,2857,3298,4099,110,160,111,76,98,0
2863,3302,4106,-6,-13,-6,10240,0.47,-0.09,1.79,1.42,2858,3298,4100,110,160,111,76,98,0
2870,3313,4114,1,-1,2,10240,0.47,-0.09,1.79,1.42,2858,3298,4100,110,160,111,76,98,0
2885,3325,4121,10,9,9,10240,0.47,-0.09,1.79,1.42,2859,3299,4101,110,160,111,76,98,0
2893,3347,4136,19,22,18,10240,0.47,-0.09,1.79,1.42,2860,3301,4102,110,160,111,76,98,0
2900,3357,4142,27,35,26,10240,0.47,-0.09,1.79,1.42,2861,3303,4103,110,160,111,76,98,0
2905,3366,4147,35,46,33,10240,0.47,-0.09,1.79,1.42,2863,3305,4105,110,160,111,76,98,0
2910,3375,4151,40,57,40,10240,0.47,-0.09,1.79,1.42,2864,3307,4106,110,160,111,76,98,0
2922,3384,4156,45,64,43,10240,0.47,-0.09,1.79,1.42,2866,3310,4108,110,160,111,76,98,0
2930,3414,4171,51,76,49,10240,0.47,-0.09,1.79,1.42,2868,3313,4110,110,160,111,76,98,0
2930,3412,4167,56,84,52,10240,0.47,-0.09,1.79,1.42,2870,3317,4112,110,160,111,76,98,0
2902,3363,4134,52,78,46,10240,0.47,-0.09,1.79,1.42,2872,3318,4113,110,161,111,74,98,0
2858,3297,4088,34,55,28,10240,0.47,-0.09,1.80,1.42,2871,3317,4112,110,161,111,74,98,0
2806,3225,4054,3,7,-1,10240,0.47,-0.09,1.80,1.42,2869,3314,4110,110,161,111,74,98,0
2801,3220,4037,-28,-38,-32,10240,0.47,-0.09,1.80,1.42,2867,3311,4108,110,161,111,74,98,0
2799,3220,4039,-51,-72,-54,10240,0.47,-0.09,1.80,1.42,2864,3308,4105,110,161,111,74,98,0
2799,3218,4039,-64,-88,-64,10240,0.47,-0.09,1.80,1.42,2862,3305,4103,110,161,111,74,98,0
2801,3220,4042,-63,-87,-65,10240,0.47,-0.09,1.80,1.42,2860,3302,4101,110,161,111,74,98,0
2807,3228,4054,-59,-82,-58,10240,0.47,-0.09,1.80,1.42,2858,3300,4099,110,161,111,74,98,0
2809,3233,4058,-55,-76,-52,10240,0.47,-0.09,1.80,1.42,2857,3298,4098,110,161,111,74,98,0
2809,3232,4058,-51,-70,-45,10240,0.47,-0.09,1.80,1.42,2855,3295,4097,110,161,111,74,98,0
2809,3231,4059,-47,-65,-40,10240,0.47,-0.09,1.80,1.42,2854,3293,4096,110,161,111,74,98,0
2812,3235,4061,-44,-61,-37,10240,0.47,-0.09,1.80,1.42,2852,3291,4094,110,161,111,74,98,0
2822,3249,4072,-40,-55,-32,10240,0.47,-0.09,1.80,1.42,2851,3290,4094,110,161,111,74,98,0
2832,3261,4080,-33,-46,-26,10240,0.47,-0.09,1.80,1.42,2851,3289,4093,110,161,111,74,98,0
2839,3274,4090,-24,-35,-17,10240,0.47,-0.09,1.80,1.42,2850,3289,4093,110,161,111,74,98,0
2846,3283,4096,-15,-22,-8,10240,0.47,-0.09,1.80,1.42,2850,3288,4093,110,161,111,74,98,0
2853,3293,4103,-7,-11,0,10240,0.47,-0.09,1.80,1.42,2850,3289,4093,110,161,111,74,98,0
2867,3311,4116,1,1,8,10240,0.47,-0.09,1.80,1.42,2851,3289,4094,110,161,111,74,98,0
2874,3322,4122,9,13,15,10240,0.47,-0.09,1.80,1.42,2852,3290,4095,110,161,111,74,98,0
2878,3329,4127,16,23,22,10240,0.47,-0.09,1.80,1.42,2852,3292,4096,110,161,111,74,98,0
2884,3337,4131,23,33,28,10240,0.47,-0.09,1.80,1.42,2853,3293,4097,110,161,111,74,98,0
2890,3347,4136,28,41,32,10240,0.47,-0.09,1.80,1.42,2855,3295,4099,110,161,111,74,98,0
2900,3362,4148,34,49,37,10240,0.47,-0.09,1.80,1.42,2856,3297,4100,110,161,111,74,98,0
2906,3373,4154,39,58,42,10240,0.47,-0.09,1.80,1.42,2858,3300,4102,110,161,111,74,98,0
2911,3381,4157,44,67,47,10240,0.47,-0.09,1.80,1.42,2860,3302,4104,110,161,111,74,98,0
2901,3364,4144,45,69,48,10240,0.47,-0.09,1.80,1.42,2861,3304,4105,110,161,111,74,98,0
2863,3307,4100,35,53,34,10240,0.47,-0.09,1.80,1.42,2861,3305,4105,110,160,111,74,98,0
2795,3210,4034,7,12,4,10240,0.47,-0.09,1.79,1.42,2859,3301,4103,110,160,111,74,98,0
2789,3198,4029,-22,-32,-26,10240,0.47,-0.09,1.79,1.42,2857,3298,4100,110,160,111,74,98,0
2789,3197,4031,-48,-71,-53,10240,0.47,-0.09,1.79,1.42,2854,3295,4098,110,160,111,74,98,0
2791,3199,4034,-64,-95,-67,10240,0.47,-0.09,1.79,1.42,2852,3291,4096,110,160,111,74,98,0
2791,3199,4035,-63,-94,-64,10240,0.47,-0.09,1.79,1.42,2850,3288,4094,110,160,111,73,98,0
2793,3209,4040,-60,-89,-60,10240,0.47,-0.09,1.79,1.42,2848,3286,4092,110,160,111,73,98,0
2797,3216,4046,-56,-81,-54,10240,0.47,-0.09,1.79,1.42,2847,3283,4091,110,160,111,73,98,0
2799,3219,4049,-52,-73,-49,10240,0.47,-0.09,1.79,1.42,2845,3281,4089,110,160,111,73,98,0
2799,3219,4048,-48,-66,-44,10240,0.47,-0.09,1.79,1.42,2843,3279,4088,110,160,111,73,98,0
2801,3221,4049,-45,-61,-40,10240,0.47,-0.09,1.79,1.42,2842,3277,4086,110,160,111,73,98,0
2808,3231,4060,-41,-55,-35,10240,0.47,-0.09,1.79,1.42,2841,3276,4086,110,160,111,73,98,0
2815,3240,4067,-35,-49,-30,10240,0.47,-0.09,1.79,1.42,2840,3275,4085,110,160,111,73,98,0
2823,3251,4074,-28,-39,-23,10240,0.47,-0.09,1.79,1.42,2839,3274,4085,110,160,111,73,98,0
2830,3263,4082,-20,-28,-14,10240,0.47,-0.09,1.79,1.42,2839,3273,4084,110,160,111,73,98,0
2838,3274,4091,-12,-16,-6,10240,0.47,-0.09,1.79,1.42,2839,3273,4085,110,160,111,73,98,0
2852,3292,4101,-3,-3,2,10240,0.47,-0.09,1.79,1.42,2840,3274,4085,110,160,111,73,98,0
2857,3299,4106,4,8,10,10240,0.47,-0.09,1.79,1.42,2840,3275,4086,110,160,111,73,98,0
2864,3307,4112,12,18,16,10240,0.47,-0.09,1.79,1.42,2841,3276,4087,110,160,111,73,98,0
2868,3314,4116,19,27,22,10240,0.47,-0.09,1.79,1.42,2842,3277,4088,110,160,111,73,98,0
2874,3324,4122,24,34,26,10240,0.47,-0.09,1.79,1.42,2843,3279,4089,110,160,111,73,98,0
2887,3341,4133,30,43,32,10240,0.47,-0.09,1.79,1.42,2844,3281,4090,110,160,111,73,98,0
2879,3331,4123,33,47,34,10240,0.47,-0.09,1.79,1.42,2845,3282,4091,110,160,111,73,98,0
2846,3284,4086,27,38,25,10240,0.47,-0.09,1.79,1.42,2846,3283,4091,107,156,109,73,98,0
2804,3225,4042,9,13,5,10240,0.47,-0.09,1.78,1.41,2844,3281,4090,107,156,109,73,98,0
2773,3179,4021,-18,-26,-21,10240,0.47,-0.09,1.78,1.41,2842,3277,4087,107,156,109,73,98,0
2776,3182,4020,-43,-61,-46,10240,0.47,-0.09,1.78,1.41,2840,3274,4085,107,156,109,73,98,0
2779,3186,4025,-58,-82,-59,10240,0.47,-0.09,1.78,1.41,2838,3271,4083,107,156,109,73,98,0
2782,3189,4029,-61,-88,-60,10240,0.47,-0.09,1.78,1.41,2836,3268,4081,107,156,109,73,98,0
2787,3194,4034,-56,-82,-55,10240,0.47,-0.09,1.78,1.41,2834,3266,4080,107,156,109,73,98,0
2794,3211,4042,-49,-72,-48,10240,0.47,-0.09,1.78,1.41,2833,3264,4079,107,156,109,73,98,0
2797,3216,4046,-43,-62,-41,10240,0.47,-0.09,1.78,1.41,2831,3262,4077,107,156,109,73,98,0
2798,3218,4045,-38,-53,-36,10240,0.47,-0.09,1.78,1.41,2830,3261,4076,107,156,109,73,98,0
2800,3220,4048,-33,-45,-31,10240,0.47,-0.09,1.78,1.41,2829,3260,4075,107,156,109,73,98,0
2805,3226,4053,-29,-40,-27,10240,0.47,-0.09,1.78,1.41,2829,3259,4075,107,156,109,73,98,0
2818,3243,4068,-23,-32,-21,10240,0.47,-0.09,1.78,1.41,2828,3258,4074,107,156,109,73,98,0
2827,3256,4078,-16,-22,-13,10240,0.47,-0.09,1.78,1.41,2828,3258,4075,107,156,109,73,98,0
2834,3267,4086,-7,-10,-3,10240,0.47,-0.09,1.78,1.41,2828,3258,4075,107,156,109,73,98,0
2842,3278,4093,2,2,6,10240,0.47,-0.09,1.78,1.41,2829,3259,4076,107,156,109,73,98,0
2850,3288,4100,9,13,13,10240,0.47,-0.09,1.78,1.41,2830,3260,4076,107,156,109,73,98,0
2865,3307,4115,18,25,22,10240,0.47,-0.09,1.78,1.41,2831,3261,4078,107,156,109,73,98,0
2869,3315,4119,26,36,29,10240,0.47,-0.09,1.78,1.41,2832,3263,4079,107,156,109,73,98,0
2874,3323,4124,33,46,36,10240,0.47,-0.09,1.78,1.41,2833,3265,4081,107,156,109,73,98,0
2879,3331,4128,39,55,41,10240,0.47,-0.09,1.78,1.41,2835,3267,4082,107,156,109,73,98,0
2886,3341,4135,42,61,45,10240,0.47,-0.09,1.78,1.41,2837,3270,4084,107,156,109,73,98,0
2898,3360,4144,48,70,49,10240,0.47,-0.09,1.78,1.41,2839,3273,4086,107,156,109,73,98,0
2886,3341,4127,49,72,48,10240,0.47,-0.09,1.78,1.41,2840,3275,4087,107,156,109,73,98,0
2845,3283,4083,39,58,36,10240,0.47,-0.09,1.79,1.41,2840,3275,4087,108,157,109,73,98,0
2800,3218,4038,17,26,11,10240,0.47,-0.09,1.79,1.41,2839,3274,4085,108,157,109,73,98,0
2775,3181,4013,-12,-17,-20,10240,0.47,-0.09,1.79,1.41,2837,3270,4083,108,157,109,73,98,0
2768,3171,4012,-40,-58,-47,10240,0.47,-0.09,1.79,1.41,2835,3267,4081,108,157,109,73,98,0
2772,3175,4017,-57,-82,-62,10240,0.47,-0.09,1.79,1.41,2833,3264,4079,108,157,109,73,98,0
2772,3178,4019,-62,-89,-64,10240,0.47,-0.09,1.79,1.41,2830,3261,4077,108,157,109,73,98,0
2776,3183,4024,-59,-86,-60,10240,0.47,-0.09,1.79,1.41,2829,3259,4075,108,157,109,73,98,0
2786,3192,4033,-53,-78,-52,10240,0.47,-0.09,1.79,1.41,2827,3256,4073,108,157,109,73,98,0
2792,3206,4039,-46,-68,-45,10240,0.47,-0.09,1.79,1.41,2826,3255,4072,108,157,109,73,98,0
2792,3207,4039,-40,-58,-39,10240,0.47,-0.09,1.79,1.41,2825,3253,4071,108,157,109,73,98,0
2793,3208,4038,-34,-50,-34,10240,0.47,-0.09,1.79,1.41,2824,3252,4070,108,157,109,73,98,0
2795,3212,4043,-31,-44,-30,10240,0.47,-0.09,1.79,1.41,2823,3250,4069,108,157,109,73,98,0
2802,3223,4052,-28,-38,-26,10240,0.47,-0.09,1.79,1.41,2822,3249,4069,108,157,109,73,98,0
2819,3245,4071,-20,-28,-18,10240,0.47,-0.09,1.79,1.41,2822,3249,4069,108,157,109,73,98,0
2827,3258,4079,-11,-15,-7,10240,0.47,-0.09,1.79,1.41,2822,3250,4069,108,157,109,73,98,0
2835,3270,4088,-1,0,3,10240,0.47,-0.09,1.79,1.41,2823,3250,4070,108,157,109,73,98,0
2843,3281,4094,8,13,13,10240,0.47,-0.09,1.79,1.41,2823,3251,4070,108,157,109,73,98,0
2851,3289,4101,16,23,20,10240,0.47,-0.09,1.79,1.41,2824,3252,4071,108,157,109,73,98,0
2864,3308,4114,24,35,28,10240,0.47,-0.09,1.79,1.41,2826,3254,4073,108,157,109,73,98,0
2869,3316,4118,31,45,34,10240,0.47,-0.09,1.79,1.41,2827,3256,4074,108,157,109,73,98,0
2875,3326,4124,38,54,40,10240,0.47,-0.09,1.79,1.41,2829,3259,4076,108,157,109,73,98,0
2880,3333,4129,44,63,46,10240,0.47,-0.09,1.79,1.41,2830,3261,4078,108,157,109,73,98,0
2895,3343,4135,50,69,49,10240,0.47,-0.09,1.79,1.41,2833,3264,4080,108,157,109,73,98,0
2902,3366,4149,56,79,55,10240,0.47,-0.09,1.79,1.41,2835,3267,4082,108,157,109,73,98,0
2907,3375,4154,62,88,60,10240,0.47,-0.09,1.79,1.41,2837,3271,4084,108,157,109,74,98,0
2896,3357,4137,64,91,60,10240,0.47,-0.09,1.79,1.41,2839,3274,4086,108,157,109,74,98,0
2854,3295,4091,52,76,48,10240,0.47,-0.09,1.79,1.41,2840,3275,4086,112,162,113,74,98,0
2783,3191,4044,21,31,21,10240,0.47,-0.09,1.79,1.43,2838,3272,4085,112,162,113,74,98,0
2773,3179,4013,-11,-17,-13,10240,0.47,-0.09,1.79,1.43,2836,3269,4083,112,162,113,74,98,0
2775,3180,4017,-40,-59,-42,10240,0.47,-0.09,1.79,1.43,2834,3266,4080,112,162,113,74,98,0
2775,3181,4019,-58,-84,-58,10240,0.47,-0.09,1.79,1.43,2832,3263,4078,112,162,113,74,98,0
2776,3182,4021,-58,-84,-61,10240,0.47,-0.09,1.79,1.43,2830,3260,4076,112,162,113,74,98,0
2788,3194,4033,-52,-77,-54,10240,0.47,-0.09,1.79,1.43,2828,3258,4075,112,162,113,74,98,0
2792,3205,4037,-46,-68,-48,10240,0.47,-0.09,1.79,1.43,2827,3256,4074,112,162,113,74,98,0
2793,3210,4039,-40,-59,-42,10240,0.47,-0.09,1.79,1.43,2826,3255,4073,112,162,113,74,98,0
2794,3213,4041,-34,-50,-35,10240,0.47,-0.09,1.79,1.43,2825,3253,4071,112,162,113,74,98,0
2796,3216,4043,-31,-43,-32,10240,0.47,-0.09,1.79,1.43,2824,3252,4071,112,162,113,74,98,0
2806,3229,4055,-27,-35,-26,10240,0.47,-0.09,1.79,1.43,2823,3251,4070,112,162,113,74,98,0
2813,3237,4065,-21,-28,-19,10240,0.47,-0.09,1.79,1.43,2823,3251,4070,112,162,113,74,98,0
2822,3251,4072,-14,-18,-11,10240,0.47,-0.09,1.79,1.43,2823,3251,4070,112,162,113,74,98,0
2830,3263,4082,-5,-6,-1,10240,0.47,-0.09,1.79,1.43,2823,3251,4070,112,162,113,74,98,0
2838,3274,4090,2,5,7,10240,0.47,-0.09,1.79,1.43,2824,3252,4071,112,162,113,74,98,0
2852,3292,4103,11,18,16,10240,0.47,-0.09,1.79,1.43,2825,3253,4072,112,162,113,74,98,0
2860,3303,4110,20,30,24,10240,0.47,-0.09,1.79,1.43,2826,3255,4073,112,162,113,74,98,0
2865,3310,4115,28,40,31,10240,0.47,-0.09,1.79,1.43,2827,3257,4075,112,162,113,74,98,0
2870,3318,4120,35,49,38,10240,0.47,-0.09,1.79,1.43,2829,3259,4076,112,162,113,74,98,0
2875,3326,4125,39,56,42,10240,0.47,-0.09,1.79,1.43,2830,3261,4078,112,162,113,74,98,0
2888,3344,4136,45,64,46,10240,0.47,-0.09,1.79,1.43,2832,3264,4080,112,162,113,74,98,0
2894,3355,4142,50,73,51,10240,0.47,-0.09,1.79,1.43,2834,3267,4082,112,162,113,74,98,0
2902,3366,4149,56,82,57,10240,0.47,-0.09,1.79,1.43,2836,3270,4084,112,162,113,74,98,0
2908,3377,4155,62,91,62,10240,0.47,-0.09,1.79,1.43,2839,3274,4086,112,162,113,74,98,0
2898,3361,4140,63,92,61,10240,0.47,-0.09,1.79,1.43,2841,3277,4088,112,162,115,72,98,0
2814,3241,4052,41,62,37,10240,0.47,-0.09,1.76,1.40,2840,3275,4087,114,166,115,72,98,0
2794,3206,4032,14,21,8,10240,0.47,-0.09,1.76,1.40,2838,3273,4085,114,166,115,72,98,0
2785,3193,4025,-16,-23,-23,10240,0.47,-0.09,1.76,1.40,2837,3270,4083,114,166,115,72,98,0
2786,3193,4027,-42,-63,-50,10240,0.47,-0.09,1.76,1.40,2835,3268,4081,114,166,115,72,98,0
2789,3195,4031,-47,-72,-53,10240,0.47,-0.09,1.76,1.40,2833,3265,4080,114,166,115,72,98,0
2791,3199,4036,-46,-71,-50,10240,0.47,-0.09,1.76,1.40,2832,3263,4078,114,166,115,72,98,0
2793,3208,4038,-43,-65,-46,10240,0.47,-0.09,1.76,1.40,2831,3261,4077,114,166,115,72,98,0
2798,3218,4045,-38,-57,-40,10240,0.47,-0.09,1.76,1.40,2830,3260,4076,114,166,115,72,98,0
2802,3224,4050,-34,-48,-34,10240,0.47,-0.09,1.76,1.40,2829,3259,4075,114,166,115,72,98,0
2805,3229,4052,-30,-39,-29,10240,0.47,-0.09,1.76,1.40,2828,3258,4074,114,166,115,72,98,0
2806,3232,4058,-25,-32,-23,10240,0.47,-0.09,1.76,1.40,2827,3257,4074,114,166,115,72,98,0
2812,3238,4064,-21,-26,-18,10240,0.47,-0.09,1.76,1.40,2827,3256,4073,114,166,115,72,98,0
2820,3250,4072,-16,-19,-12,10240,0.47,-0.09,1.76,1.40,2826,3256,4073,114,166,115,72,98,0
2829,3262,4081,-9,-10,-4,10240,0.47,-0.09,1.76,1.40,2826,3256,4074,114,166,115,72,98,0
2845,3284,4090,0,2,3,10240,0.47,-0.09,1.76,1.40,2827,3257,4074,114,166,115,72,98,0
2853,3295,4104,10,16,12,10240,0.47,-0.09,1.76,1.40,2828,3258,4075,114,166,115,72,98,0
2861,3305,4110,19,28,21,10240,0.47,-0.09,1.76,1.40,2829,3260,4076,114,166,115,72,98,0
2866,3314,4117,27,40,29,10240,0.47,-0.09,1.76,1.40,2830,3262,4078,114,166,115,72,98,0
2873,3324,4124,33,48,36,10240,0.47,-0.09,1.76,1.40,2832,3264,4079,114,166,115,72,98,0
2885,3342,4135,40,58,43,10240,0.47,-0.09,1.76,1.40,2833,3266,4081,114,166,115,72,98,0
2891,3351,4140,46,67,48,10240,0.47,-0.09,1.76,1.40,2835,3269,4083,114,166,115,72,98,0
2899,3363,4147,52,77,54,10240,0.47,-0.09,1.76,1.40,2838,3272,4085,114,166,115,72,98,0
2905,3373,4153,58,86,59,10240,0.47,-0.09,1.76,1.40,2840,3276,4087,114,166,115,72,98,0
2911,3385,4160,62,94,63,10240,0.47,-0.09,1.76,1.40,2842,3279,4090,114,166,115,72,98,0
2920,3400,4164,67,102,67,10240,0.47,-0.09,1.76,1.40,2845,3283,4092,114,166,115,72,98,0
2895,3359,4135,64,98,62,10240,0.47,-0.09,1.76,1.40,2846,3286,4094,114,168,116,72,98,0
2852,3294,4090,49,76,44,10240,0.51,-0.08,1.80,1.41,2847,3286,4094,114,168,116,72,98,0
2815,3242,4054,24,38,17,10240,0.51,-0.08,1.80,1.41,2846,3285,4092,114,168,116,72,98,0
2797,3221,4038,-6,-6,-13,10240,0.51,-0.08,1.80,1.41,2844,3283,4090,114,168,116,72,98,0
2794,3214,4038,-30,-40,-36,10240,0.51,-0.08,1.80,1.41,2842,3280,4089,114,168,116,72,98,0
2794,3215,4039,-43,-58,-47,10240,0.51,-0.08,1.80,1.41,2841,3278,4087,114,168,116,72,98,0
2796,3217,4042,-46,-62,-48,10240,0.51,-0.08,1.80,1.41,2839,3276,4086,114,168,116,72,98,0
2799,3222,4048,-44,-60,-44,10240,0.51,-0.08,1.80,1.41,2838,3274,4084,114,168,116,72,98,0
2805,3230,4055,-40,-54,-39,10240,0.51,-0.08,1.80,1.41,2837,3273,4083,114,168,116,72,98,0
2807,3231,4057,-35,-48,-33,10240,0.51,-0.08,1.80,1.41,2836,3272,4082,114,168,116,72,98,0
2806,3231,4056,-32,-43,-28,10240,0.51,-0.08,1.80,1.41,2835,3270,4082,114,168,116,72,98,0
2807,3232,4059,-29,-40,-25,10240,0.51,-0.08,1.80,1.41,2834,3269,4081,114,168,116,72,98,0
2808,3235,4062,-27,-37,-22,10240,0.51,-0.08,1.80,1.41,2833,3268,4080,114,168,116,72,98,0
2814,3242,4068,-24,-33,-19,10240,0.51,-0.08,1.80,1.41,2832,3267,4080,114,168,116,72,98,0
2830,3264,4084,-18,-24,-12,10240,0.51,-0.08,1.80,1.41,2832,3267,4080,114,168,116,72,98,0
2835,3273,4091,-10,-13,-3,10240,0.51,-0.08,1.80,1.41,2832,3267,4080,114,168,116,72,98,0
2842,3281,4096,-2,-2,4,10240,0.51,-0.08,1.80,1.41,2833,3267,4081,114,168,116,72,98,0
2846,3288,4101,5,9,12,10240,0.51,-0.08,1.80,1.41,2833,3268,4081,114,168,116,72,98,0
2852,3297,4108,10,17,18,10240,0.51,-0.08,1.80,1.41,2834,3269,4082,114,168,116,72,98,0
2862,3311,4118,16,25,23,10240,0.51,-0.08,1.80,1.41,2835,3271,4084,114,168,116,72,98,0
2866,3317,4121,22,33,29,10240,0.51,-0.08,1.80,1.41,2836,3272,4085,114,168,116,72,98,0
2871,3323,4126,27,40,34,10240,0.51,-0.08,1.80,1.41,2837,3274,4086,114,168,116,72,98,0
2874,3329,4130,31,46,38,10240,0.51,-0.08,1.80,1.41,2838,3276,4088,114,168,116,72,98,0
2883,3337,4133,35,51,40,10240,0.51,-0.08,1.80,1.41,2840,3278,4089,114,168,116,72,98,0
2877,3334,4128,37,54,41,10240,0.51,-0.08,1.80,1.41,2841,3279,4090,114,168,116,72,98,0
2845,3289,4092,29,44,31,10240,0.51,-0.08,1.80,1.41,2841,3280,4091,107,155,110,72,98,0
2804,3230,4048,11,18,10,10240,0.51,-0.08,1.76,1.40,2840,3278,4089,107,155,110,72,98,0
2779,3193,4025,-13,-16,-16,10240,0.51,-0.08,1.76,1.40,2838,3275,4087,107,155,110,72,98,0
2764,3171,4015,-40,-55,-43,10240,0.51,-0.08,1.76,1.40,2835,3272,4085,107,155,110,72,98,0
2765,3173,4017,-58,-81,-59,10240,0.51,-0.08,1.76,1.40,2833,3269,4082,107,155,110,72,98,0
2766,3173,4019,-65,-92,-64,10240,0.51,-0.08,1.76,1.40,2831,3265,4080,107,155,110,72,98,0
2769,3177,4024,-66,-93,-62,10240,0.51,-0.08,1.76,1.40,2829,3262,4078,107,155,110,72,98,0
2777,3189,4033,-60,-86,-56,10240,0.51,-0.08,1.76,1.40,2827,3260,4077,107,155,110,72,98,0
2786,3198,4042,-53,-77,-48,10240,0.51,-0.08,1.76,1.40,2825,3258,4076,107,155,110,72,98,0
2785,3197,4041,-47,-68,-41,10240,0.51,-0.08,1.76,1.40,2824,3256,4074,107,155,110,72,98,0
2784,3196,4040,-41,-62,-36,10240,0.51,-0.08,1.76,1.40,2823,3254,4073,107,155,110,72,98,0
2785,3197,4041,-38,-58,-32,10240,0.51,-0.08,1.76,1.40,2822,3252,4072,107,155,110,72,98,0
2787,3203,4043,-37,-54,-31,10240,0.51,-0.08,1.76,1.40,2820,3250,4071,107,155,110,72,98,0
2794,3219,4056,-33,-47,-26,10240,0.51,-0.08,1.76,1.40,2820,3249,4071,107,155,110,72,98,0
2803,3230,4065,-28,-37,-20,10240,0.51,-0.08,1.76,1.40,2819,3249,4071,107,155,110,72,98,0
2806,3237,4072,-22,-26,-12,10240,0.51,-0.08,1.76,1.40,2819,3248,4071,107,155,110,72,98,0
2811,3245,4077,-15,-15,-3,10240,0.51,-0.08,1.76,1.40,2818,3248,4071,107,155,110,72,98,0
2815,3250,4081,-9,-7,2,10240,0.51,-0.08,1.76,1.40,2818,3248,4071,107,155,110,72,98,0
2824,3263,4090,-4,0,8,10240,0.51,-0.08,1.76,1.40,2818,3249,4072,107,155,110,72,98,0
2828,3270,4095,1,8,14,10240,0.51,-0.08,1.76,1.40,2819,3249,4073,107,155,110,72,98,0
2833,3276,4099,6,15,19,10240,0.51,-0.08,1.76,1.40,2819,3250,4073,107,155,110,72,98,0
2839,3282,4102,12,23,23,10240,0.51,-0.08,1.76,1.40,2820,3251,4074,107,155,110,72,98,0
2845,3291,4108,16,29,27,10240,0.51,-0.08,1.76,1.40,2821,3253,4076,107,155,110,72,98,0
2860,3314,4122,23,38,32,10240,0.51,-0.08,1.76,1.40,2822,3255,4077,107,155,110,72,98,0
2858,3309,4116,29,45,35,10240,0.51,-0.08,1.76,1.40,2823,3257,4078,107,155,110,72,98,0
2828,3267,4082,25,39,29,10240,0.51,-0.08,1.76,1.40,2823,3257,4079,104,151,107,72,98,0
2790,3211,4039,11,19,12,10240,0.51,-0.08,1.77,1.40,2822,3255,4077,104,151,107,72,98,0
2759,3168,4011,-13,-16,-15,10240,0.51,-0.08,1.77,1.40,2820,3252,4075,104,151,107,72,98,0
2747,3151,3998,-39,-54,-43,10240,0.51,-0.08,1.77,1.40,2818,3249,4072,104,151,107,72,98,0
2750,3153,4002,-57,-79,-61,10240,0.51,-0.08,1.77,1.40,2815,3246,4070,104,151,107,72,98,0
2749,3154,4002,-65,-91,-68,10240,0.51,-0.08,1.77,1.40,2813,3243,4068,104,151,107,72,98,0
2751,3156,4007,-65,-91,-66,10240,0.51,-0.08,1.77,1.40,2811,3240,4066,104,151,107,72,98,0
2756,3163,4015,-60,-85,-60,10240,0.51,-0.08,1.77,1.40,2809,3237,4064,104,151,107,72,98,0
2768,3179,4027,-54,-75,-52,10240,0.51,-0.08,1.77,1.40,2808,3235,4063,104,151,107,72,98,0
2770,3180,4027,-47,-67,-44,10240,0.51,-0.08,1.77,1.40,2807,3234,4062,104,151,107,72,98,0
2771,3182,4028,-41,-58,-38,10240,0.51,-0.08,1.77,1.40,2805,3232,4061,104,151,107,72,98,0
2774,3188,4031,-35,-50,-33,10240,0.51,-0.08,1.77,1.40,2804,3230,4060,104,151,107,72,98,0
2783,3195,4040,-30,-45,-29,10240,0.51,-0.08,1.77,1.40,2804,3229,4059,104,151,107,72,98,0
2795,3218,4053,-23,-34,-21,10240,0.51,-0.08,1.77,1.40,2803,3229,4059,104,151,107,72,98,0
2804,3230,4063,-14,-21,-12,10240,0.51,-0.08,1.77,1.40,2803,3229,4059,104,151,107,72,98,0
2809,3239,4070,-5,-8,-2,10240,0.51,-0.08,1.77,1.40,2804,3229,4059,104,151,107,72,98,0
2818,3250,4077,3,5,6,10240,0.51,-0.08,1.77,1.40,2804,3230,4060,104,151,107,72,98,0
2825,3261,4084,10,15,13,10240,0.51,-0.08,1.77,1.40,2805,3231,4061,104,151,107,72,98,0
2838,3279,4095,17,26,21,10240,0.51,-0.08,1.77,1.40,2806,3233,4062,104,151,107,72,98,0
2844,3285,4100,25,36,27,10240,0.51,-0.08,1.77,1.40,2807,3234,4063,104,151,107,72,98,0
