665640,1190642,1371525,669686.75,1194038.37,1373582.12
665490,1191210,1371949,669445.38,1193805.12,1373436.50
666181,1191563,1372155,669199.88,1193579.75,1373296.75
666549,1191872,1372254,668958.00,1193366.00,1373164.75
665990,1192149,1372668,668726.38,1193166.00,1373041.62
666529,1192229,1372406,668506.25,1192981.00,1372927.87
667026,1192066,1372218,668298.63,1192811.25,1372823.25
667085,1192279,1372599,668105.19,1192656.62,1372727.00
667349,1192244,1372357,667927.38,1192516.87,1372639.50
667418,1192101,1372263,667765.75,1192391.25,1372560.00
667328,1191996,1372468,667620.38,1192278.50,1372488.25
666905,1191878,1372565,667489.38,1192177.00,1372424.62
667114,1191804,1372109,667370.88,1192086.12,1372368.37
667110,1191548,1372004,667264.25,1192003.75,1372317.50
667149,1191604,1372239,667169.00,1191928.37,1372270.25
666976,1191960,1371978,667084.38,1191860.00,1372226.25
667509,1191859,1372137,667010.19,1191799.50,1372185.62
667461,1191901,1371968,666947.25,1191746.75,1372148.87
666893,1192165,1372103,666895.00,1191702.25,1372115.75
667626,1192264,1372091,666852.25,1191666.50,1372086.12
668150,1192385,1372397,666820.25,1191639.75,1372060.62
668338,1193273,1372533,666801.00,1191621.87,1372039.62
668609,1193105,1372614,666795.38,1191613.75,1372023.50
668845,1193070,1372695,666803.69,1191616.50,1372012.75
669017,1193331,1372730,666825.75,1191630.25,1372008.25
668924,1193710,1372998,666858.56,1191655.00,1372010.00
669252,1193804,1373133,666898.81,1191691.25,1372018.50
669411,1194072,1373166,666949.00,1191739.12,1372034.00
669418,1194650,1373529,667010.81,1191798.00,1372056.00
669487,1194307,1373329,667082.88,1191867.50,1372083.75
669674,1194464,1373361,667164.13,1191946.50,1372117.50
669936,1194637,1373676,667254.38,1192034.75,1372156.12
670090,1194774,1373321,667353.38,1192131.75,1372199.00
670224,1194906,1373368,667460.88,1192236.75,1372245.25
670332,1195074,1373354,667575.88,1192349.00,1372294.25
670310,1194982,1374043,667697.31,1192468.00,1372346.00
670698,1195010,1373476,667824.31,1192592.75,1372400.87
670959,1195047,1373432,667957.13,1192721.12,1372457.62
670766,1195030,1373886,668095.56,1192851.37,1372514.87
670663,1195440,1373677,668237.50,1192983.12,1372572.50
670938,1195482,1373861,668381.13,1193116.75,1372631.25
671281,1195315,1373720,668526.88,1193251.75,1372691.37
670370,1195682,1373542,668674.31,1193387.25,1372751.87
671314,1195866,1373852,668822.25,1193524.00,1372812.00
671604,1195570,1373573,668971.00,1193661.25,1372871.75
671373,1194055,1372676,669120.50,1193795.75,1372929.25
670422,1192682,1371552,669267.75,1193920.25,1372980.00
669367,1191570,1370873,669405.94,1194023.25,1373016.00
668372,1190583,1370395,669527.75,1194096.37,1373032.50
666608,1189637,1370040,669625.50,1194135.37,1373028.00
665715,1189313,1369758,669691.38,1194138.00,1373002.25
664880,1189073,1369830,669720.63,1194105.12,1372956.50
663825,1189159,1369758,669711.38,1194039.25,1372892.75
663684,1188974,1369722,669663.44,1193943.50,1372813.25
663332,1188977,1369940,669577.88,1193822.25,1372720.87
662982,1189086,1370423,669456.63,1193680.25,1372618.37
662708,1189145,1369963,669302.38,1193521.00,1372508.00
663082,1189332,1369970,669119.13,1193348.50,1372391.62
663082,1189451,1370042,668912.50,1193167.00,1372271.25
662931,1190050,1370773,668686.25,1192980.25,1372150.12
663231,1189977,1370421,668443.25,1192792.87,1372031.00
663780,1190090,1370357,668190.13,1192607.12,1371914.75
664103,1190334,1371165,667934.00,1192425.00,1371800.75
663695,1190786,1370671,667678.56,1192249.12,1371690.25
664396,1190786,1370685,667425.94,1192082.50,1371584.75
664410,1190988,1370570,667179.50,1191926.12,1371484.87
664174,1191055,1370750,666940.63,1191781.75,1371390.50
664911,1191179,1370942,666709.94,1191650.25,1371302.50
665084,1191079,1370906,666491.50,1191531.12,1371221.75
665203,1191335,1370915,666288.25,1191423.00,1371147.75
665296,1191118,1370801,666100.88,1191325.50,1371080.00
665500,1190851,1370565,665929.75,1191237.50,1371017.50
665166,1191057,1370713,665774.63,1191157.75,1370959.75
665386,1190973,1370742,665633.88,1191086.12,1370906.75
665483,1190912,1370600,665506.88,1191022.00,1370858.50
665632,1191027,1370775,665394.38,1190965.00,1370814.50
665382,1191546,1370906,665296.44,1190915.12,1370774.75
665791,1191397,1370729,665212.63,1190873.00,1370739.00
665850,1191381,1370864,665142.63,1190839.00,1370707.25
665899,1191726,1371491,665086.00,1190813.75,1370680.50
666171,1191937,1371121,665042.38,1190798.00,1370659.25
666397,1192078,1371232,665012.00,1190792.25,1370644.00
666736,1192354,1371263,664995.56,1190796.75,1370634.50
666518,1192922,1371907,664990.63,1190812.50,1370632.25
667137,1192841,1371494,664994.88,1190840.25,1370637.75
667485,1192952,1371633,665011.75,1190879.50,1370650.00
667507,1193124,1372410,665044.13,1190929.50,1370668.00
667610,1193445,1371786,665090.88,1190989.75,1370691.25
667983,1193702,1371959,665151.06,1191061.00,1370719.75
668042,1193886,1372040,665224.31,1191143.00,1370754.00
667918,1194099,1372189,665309.13,1191235.62,1370793.62
668389,1194204,1372300,665403.75,1191338.25,1370838.87
668485,1194130,1372112,665508.31,1191449.75,1370888.87
668543,1194639,1372705,665622.31,1191568.25,1370942.62
668714,1194614,1372403,665744.50,1191693.50,1370999.62
668821,1194644,1372312,665874.00,1191825.25,1371059.87
669009,1194754,1372488,666010.06,1191962.12,1371122.62
669217,1195115,1372616,666151.88,1192103.87,1371188.00
669282,1195116,1372600,666298.75,1192250.50,1371255.75
669413,1195126,1372547,666450.00,1192400.75,1371325.25
669588,1195607,1372727,666605.75,1192553.50,1371395.87
669522,1195645,1372791,666765.13,1192708.37,1371467.12
669924,1195505,1372741,666927.25,1192865.25,1371539.25
670165,1195553,1372924,667092.00,1193023.50,1371612.00
670246,1195899,1373273,667259.63,1193182.25,1371686.25
670338,1195974,1372979,667429.44,1193341.75,1371762.25
670525,1196206,1372983,667600.81,1193502.00,1371838.75
670064,1196960,1373842,667770.88,1193664.00,1371916.00
670711,1196495,1373476,667936.75,1193828.75,1371995.62
670671,1196571,1373483,668100.81,1193994.50,1372077.25
670733,1196305,1373045,668264.56,1194159.00,1372159.12
670413,1194292,1371829,668426.50,1194316.75,1372237.50
669658,1192618,1370943,668583.13,1194456.50,1372304.75
668513,1191303,1370123,668728.63,1194567.00,1372354.25
666252,1189905,1369492,668854.75,1194642.00,1372382.12
665239,1189224,1369143,668952.00,1194677.75,1372386.00
664447,1189081,1368908,669012.38,1194672.00,1372366.00
663760,1188693,1369015,669032.44,1194625.50,1372323.25
662050,1188722,1368916,669009.75,1194541.62,1372260.50
661837,1188556,1369028,668941.50,1194424.50,1372180.75
661599,1188702,1368768,668829.25,1194279.00,1372086.50
661571,1188928,1369037,668677.50,1194109.75,1371980.12
661598,1188927,1368976,668491.25,1193922.12,1371864.00
661624,1189043,1369030,668276.25,1193720.12,1371740.50
661571,1189491,1369313,668037.63,1193507.75,1371611.75
661767,1189418,1369255,667780.13,1193288.50,1371479.50
661980,1189584,1369208,667508.75,1193066.50,1371346.12
662135,1189807,1369355,667228.69,1192845.25,1371213.00
662561,1190334,1369828,666944.63,1192628.25,1371082.50
662836,1190418,1369851,666661.56,1192419.00,1370957.37
663099,1190687,1369858,666383.69,1192220.25,1370838.75
662163,1191628,1370767,666111.13,1192034.12,1370728.25
663298,1191218,1370330,665843.63,1191863.50,1370628.00
663590,1191159,1370222,665586.31,1191708.25,1370537.50
663585,1191255,1370147,665344.00,1191567.25,1370455.50
664055,1191333,1370115,665118.13,1191440.75,1370380.50
664065,1191147,1369963,664910.13,1191327.50,1370312.37
664152,1191070,1369936,664720.50,1191226.62,1370249.75
663577,1190999,1369807,664546.94,1191136.62,1370192.00
663977,1191047,1369794,664386.88,1191057.00,1370138.25
664047,1190897,1369849,664241.31,1190986.37,1370088.50
664016,1191188,1370003,664111.13,1190924.00,1370042.50
664125,1191015,1369880,663995.81,1190869.12,1370000.00
664437,1191040,1369993,663895.31,1190821.75,1369961.25
664561,1191146,1369954,663810.25,1190781.75,1369927.25
664043,1191576,1370150,663739.88,1190749.50,1369897.75
664693,1191498,1370131,663682.94,1190726.37,1369873.25
665083,1191807,1370273,663640.00,1190712.25,1369853.75
665410,1192304,1370588,663612.13,1190707.37,1369839.50
665510,1192476,1370439,663599.25,1190713.00,1369830.87
665801,1192708,1370740,663601.81,1190730.25,1369828.12
666131,1192745,1370734,663620.25,1190759.62,1369831.75
666398,1193335,1370916,663654.75,1190801.00,1369842.00
666462,1193259,1370934,663704.94,1190855.00,1369858.50
666384,1193578,1370960,663769.13,1190920.75,1369881.00
665194,1194439,1371868,663843.38,1190998.75,1369909.75
666544,1194300,1371536,663924.38,1191089.25,1369946.25
667034,1194348,1371587,664014.00,1191192.50,1369990.25
667116,1194432,1371574,664114.44,1191306.75,1370040.75
667771,1194703,1371556,664226.13,1191430.87,1370096.75
667831,1194603,1371593,664349.50,1191563.62,1370157.12
667710,1194875,1371658,664483.63,1191703.75,1370220.87
667451,1195028,1372057,664623.13,1191850.37,1370288.25
668043,1195099,1371940,664764.13,1192002.50,1370359.75
668376,1195200,1372044,664909.94,1192159.50,1370434.87
668523,1195439,1371969,665063.69,1192320.50,1370513.00
668658,1195480,1372171,665224.69,1192485.12,1370593.87
668701,1195423,1371961,665391.75,1192652.25,1370676.37
669000,1195504,1372032,665563.94,1192820.25,1370759.12
668785,1195637,1372091,665739.94,1192988.37,1370841.50
669015,1195695,1372160,665918.00,1193156.00,1370923.37
669198,1195797,1372202,666097.63,1193322.50,1371004.75
669012,1196314,1372917,666278.63,1193488.00,1371085.50
669588,1196409,1372441,666460.94,1193653.00,1371166.00
669636,1196628,1372528,666644.25,1193818.75,1371246.37
669577,1196620,1372439,666827.88,1193985.25,1371326.50
669341,1197111,1372808,667007.50,1194152.25,1371406.12
669924,1196964,1372610,667180.44,1194320.25,1371485.75
669952,1196722,1372412,667350.00,1194487.75,1371564.25
668110,1195615,1371878,667516.63,1194652.25,1371640.25
668885,1193483,1370594,667675.69,1194806.50,1371710.25
668016,1192094,1369738,667823.25,1194936.25,1371765.87
666881,1190979,1368714,667954.50,1195030.50,1371800.12
664874,1189855,1368313,668060.88,1195084.00,1371809.50
663305,1189331,1368095,668132.25,1195094.00,1371792.75
662742,1189125,1368196,668161.75,1195061.37,1371751.50
660068,1188815,1368363,668146.50,1194989.50,1371689.25
661195,1188850,1368236,668085.13,1194882.25,1371609.25
661322,1188843,1368182,667981.00,1194744.00,1371514.25
660988,1189324,1368357,667839.44,1194578.87,1371406.25
660809,1189153,1368286,667664.63,1194392.25,1371287.37
661189,1189275,1368328,667461.25,1194189.12,1371160.50
661104,1189472,1368295,667234.88,1193974.00,1371027.50
661265,1189721,1368568,666989.56,1193751.25,1370890.75
661446,1189711,1368488,666729.00,1193524.50,1370752.37
661516,1189880,1368433,666459.00,1193297.00,1370613.75
661894,1190561,1369393,666185.13,1193071.12,1370476.12
662274,1190463,1369034,665911.88,1192850.37,1370342.25
662571,1190892,1368987,665644.00,1192638.25,1370214.00
662596,1190908,1369057,665384.50,1192437.37,1370092.00
662568,1191291,1369393,665132.75,1192249.50,1369977.25
662949,1191232,1369265,664888.13,1192076.00,1369870.75
663463,1191233,1369115,664656.13,1191916.50,1369772.25
662786,1191907,1369522,664439.25,1191771.75,1369681.12
662755,1191317,1369279,664234.50,1191642.25,1369597.25
663329,1191133,1369207,664042.75,1191525.75,1369520.62
663498,1191196,1369445,663867.63,1191420.75,1369450.75
663291,1191061,1369100,663709.50,1191326.00,1369386.75
663424,1191072,1369225,663567.63,1191240.50,1369328.50
663719,1191244,1369291,663441.50,1191164.25,1369276.00
661759,1191224,1369268,663331.00,1191097.25,1369229.75
663548,1191329,1369133,663234.31,1191039.25,1369189.12
663884,1191243,1369151,663151.38,1190989.75,1369153.00
664140,1191834,1369601,663083.44,1190948.50,1369121.37
664587,1191818,1369305,663031.50,1190915.87,1369094.25
664606,1191832,1369329,662996.25,1190893.00,1369071.62
664882,1192020,1369229,662977.44,1190880.00,1369053.37
665181,1192244,1369532,662973.69,1190876.87,1369039.25
665137,1192516,1369743,662983.81,1190884.25,1369030.25
665501,1192600,1369801,663008.13,1190902.25,1369027.12
665353,1193293,1370413,663047.00,1190930.75,1369029.75
666129,1193271,1369986,663099.88,1190970.00,1369037.50
666161,1193315,1369917,663167.25,1191020.75,1369050.75
665990,1193305,1370128,663248.38,1191082.25,1369069.12
666371,1193791,1370287,663339.63,1191153.62,1369093.12
666385,1193771,1370301,663438.75,1191235.00,1369122.75
666620,1193898,1370272,663546.69,1191325.75,1369157.50
666235,1194821,1370489,663662.25,1191425.00,1369196.50
667010,1194435,1370560,663783.00,1191532.87,1369239.50
667055,1194363,1370478,663910.75,1191649.00,1369286.75
667416,1194465,1370897,664047.13,1191771.75,1369337.50
666992,1194703,1370712,664190.69,1191899.87,1369392.00
667549,1194655,1370769,664339.75,1192033.00,1369450.00
667589,1194810,1370813,664493.75,1192170.00,1369510.75
666592,1195174,1371205,664652.38,1192310.75,1369574.50
667597,1195084,1371132,664814.00,1192455.50,1369641.87
668168,1195267,1371142,664978.06,1192603.00,1369712.50
668435,1195684,1371325,665145.63,1192752.50,1369785.12
668586,1195506,1371220,665317.50,1192903.37,1369859.50
668501,1195572,1371235,665492.63,1193055.37,1369935.12
667936,1195666,1371259,665668.38,1193208.00,1370011.50
669029,1195963,1371230,665842.13,1193361.25,1370087.75
668903,1196104,1371347,666014.63,1193515.00,1370163.75
669235,1195954,1371503,666187.94,1193669.37,1370239.50
669164,1195903,1371255,666362.44,1193822.50,1370315.12
668978,1194314,1370327,666536.75,1193970.50,1370388.00
668432,1192668,1369358,666707.88,1194103.50,1370452.25
666976,1191308,1368382,666869.75,1194211.00,1370500.75
664845,1189843,1367576,667013.63,1194284.37,1370528.50
663890,1189384,1367307,667129.69,1194318.50,1370532.25
662711,1188994,1367139,667209.38,1194312.75,1370512.25
660783,1188824,1366895,667246.13,1194269.50,1370469.50
660253,1188373,1366691,667235.38,1194191.50,1370405.50
660024,1188267,1366939,667176.00,1194081.00,1370322.50
659546,1188237,1367238,667070.81,1193941.00,1370223.75
658991,1188648,1367225,666922.75,1193776.62,1370112.75
659520,1188715,1367069,666736.00,1193593.25,1369992.75
659091,1188653,1367038,666516.63,1193395.62,1369865.50
658661,1189124,1367520,666269.88,1193187.50,1369733.62
659336,1189043,1367369,666000.88,1192973.50,1369599.75
659528,1189062,1367262,665715.00,1192756.12,1369465.25
659811,1189797,1367566,665417.50,1192537.75,1369330.75
660436,1189737,1367671,665114.50,1192322.00,1369197.87
660547,1189969,1367765,664811.88,1192112.37,1369068.87
660383,1189979,1367842,664513.00,1191911.25,1368945.50
660984,1190404,1368058,664219.81,1191720.25,1368828.75
661073,1190272,1367929,663935.38,1191541.25,1368719.25
660961,1190343,1367856,663662.50,1191374.25,1368617.00
661306,1190894,1368532,663402.69,1191219.37,1368521.25
661215,1190490,1368017,663157.25,1191077.25,1368432.62
661615,1190352,1367679,662927.19,1190947.25,1368350.37
661659,1190145,1367608,662713.88,1190828.00,1368273.50
661516,1190141,1367478,662517.25,1190718.12,1368200.50
661346,1190126,1367564,662335.63,1190617.00,1368131.12
661304,1189987,1367451,662167.88,1190523.75,1368065.50
661172,1190581,1367720,662013.69,1190438.12,1368003.25
661439,1190224,1367733,661872.88,1190360.25,1367944.75
661694,1190370,1367521,661745.63,1190290.75,1367890.62
662169,1190391,1368205,661633.44,1190229.62,1367841.12
661942,1190736,1367749,661537.00,1190177.50,1367796.50
662325,1190867,1367961,661455.88,1190135.12,1367757.50
662669,1190975,1367891,661390.63,1190103.00,1367723.75
662789,1191764,1368383,661341.44,1190082.00,1367696.37
663011,1191634,1368291,661307.75,1190073.25,1367676.00
663504,1191829,1368350,661290.44,1190077.25,1367663.00
663366,1192286,1368903,661290.25,1190093.50,1367656.62
663857,1192399,1368756,661306.38,1190122.12,1367657.37
664202,1192366,1368646,661339.00,1190163.25,1367665.50
664113,1192358,1368772,661388.00,1190215.62,1367680.25
664209,1192849,1368869,661450.38,1190278.62,1367701.25
664792,1192920,1368903,661524.25,1190352.50,1367728.12
664694,1192930,1368949,661611.00,1190436.62,1367760.50
665184,1193969,1369685,661711.25,1190529.62,1367797.75
664911,1193400,1369165,661823.75,1190631.37,1367839.25
665378,1193352,1369140,661947.00,1190741.00,1367885.50
665629,1193467,1369098,662080.44,1190857.25,1367935.25
666063,1193824,1369089,662223.63,1190979.37,1367987.75
666108,1193901,1369240,662375.63,1191107.50,1368042.62
666072,1193897,1369292,662535.94,1191240.75,1368099.50
666109,1194336,1369565,662704.13,1191378.25,1368158.25
666342,1194048,1369226,662879.06,1191518.62,1368217.87
666334,1194195,1369416,663059.00,1191661.25,1368278.25
666534,1194297,1369752,663242.25,1191805.75,1368339.25
667014,1194348,1369648,663428.50,1191951.25,1368401.25
666884,1194466,1369587,663618.13,1192097.50,1368464.50
667070,1194448,1369522,663810.00,1192243.50,1368528.50
667297,1195054,1369905,664003.00,1192389.25,1368593.25
667315,1194980,1369737,664196.75,1192535.50,1368658.75
667390,1195035,1369700,664390.38,1192682.37,1368724.87
667814,1195382,1370633,664583.88,1192829.50,1368791.00
667744,1195569,1370333,664777.38,1192977.00,1368858.12
667938,1195674,1370206,664970.50,1193126.00,1368927.50
667971,1195728,1370264,665162.25,1193275.87,1368998.25
667762,1196073,1370248,665349.50,1193427.50,1369070.00
667860,1195416,1369790,665528.63,1193580.50,1369141.00
667902,1194619,1369351,665701.56,1193729.50,1369208.62
667324,1192159,1367992,665869.19,1193866.50,1369268.25
664823,1190450,1366940,666024.25,1193979.62,1369313.25
664032,1189619,1366340,666155.50,1194057.00,1369337.00
662651,1189071,1366013,666254.81,1194093.50,1369336.50
660981,1188223,1365619,666316.88,1194088.25,1369311.50
660213,1187974,1365588,666337.00,1194042.00,1369263.25
659196,1187697,1365619,666310.75,1193956.50,1369194.00
656254,1187639,1365859,666234.88,1193836.00,1369106.37
657168,1187718,1365784,666107.25,1193684.75,1369003.37
657310,1187805,1365635,665930.56,1193507.50,1368888.25
657353,1187955,1365950,665711.38,1193309.50,1368763.12
657338,1188099,1365742,665456.63,1193095.50,1368630.50
657310,1188196,1365890,665172.25,1192870.00,1368492.50
657401,1188208,1365890,664864.06,1192636.50,1368351.50
657594,1188649,1366135,664536.88,1192398.37,1368209.50
657885,1188607,1365846,664196.13,1192159.00,1368068.00
658129,1188759,1366276,663848.50,1191921.75,1367928.25
658357,1188876,1366808,663499.63,1191689.00,1367791.87
658796,1189213,1366368,663154.50,1191463.25,1367660.37
658685,1189510,1366510,662816.88,1191247.50,1367534.75
659152,1189645,1366541,662489.75,1191044.00,1367416.25
659134,1189755,1366561,662173.25,1190855.12,1367305.12
658800,1189621,1366533,661866.50,1190682.00,1367201.50
659097,1189609,1366608,661572.13,1190522.62,1367105.37
659433,1189990,1367073,661294.25,1190375.50,1367016.50
659153,1189642,1366411,661034.13,1190240.62,1366933.75
659426,1189518,1366253,660791.75,1190117.00,1366856.87
659240,1189358,1366242,660567.00,1190003.50,1366784.87
659576,1189368,1366357,660359.38,1189898.87,1366717.50
659399,1189280,1366299,660168.50,1189802.37,1366655.25
659444,1189380,1366376,659994.38,1189713.75,1366597.75
657994,1189638,1366697,659836.44,1189633.12,1366545.25
659503,1189745,1366316,659694.06,1189561.00,1366497.12
659956,1189873,1366443,659567.63,1189498.75,1366453.50
660257,1190034,1366593,659458.56,1189446.37,1366414.50
660732,1190422,1366815,659368.38,1189405.00,1366380.75
660814,1190530,1366908,659298.06,1189375.25,1366353.25
660845,1190712,1366945,659247.00,1189357.75,1366333.00
660972,1191171,1367227,659213.63,1189352.00,1366320.25
661584,1191049,1367247,659197.56,1189358.25,1366315.00
661851,1191360,1367133,659200.13,1189376.37,1366317.00
662002,1191517,1367847,659221.50,1189406.50,1366325.25
662187,1191684,1367350,659260.81,1189448.75,1366339.25
662083,1191840,1367379,659316.38,1189502.25,1366359.25
662534,1191974,1367497,659386.75,1189566.50,1366384.25
662684,1192357,1367883,659468.75,1189642.00,1366415.25
662915,1192424,1367719,659559.75,1189729.37,1366452.25
663188,1192500,1367773,659662.13,1189826.75,1366494.62
663352,1193079,1368253,659778.13,1189932.75,1366541.50
663654,1192863,1368271,659906.94,1190046.50,1366593.00
663692,1192952,1368016,660047.63,1190167.50,1366649.50
663940,1192913,1367966,660198.75,1190294.25,1366709.75
663922,1193095,1367861,660357.38,1190426.00,1366771.87
664029,1193021,1367961,660520.19,1190561.25,1366835.25
664119,1193081,1367968,660687.88,1190698.75,1366899.25
663031,1193428,1368190,660861.06,1190838.25,1366963.62
664335,1193662,1368315,661038.69,1190979.75,1367029.00
664534,1193582,1368211,661219.81,1191123.50,1367095.37
664167,1193587,1368329,661402.88,1191268.50,1367162.25
664978,1193929,1368195,661586.88,1191414.25,1367229.25
664977,1193979,1368203,661772.63,1191560.62,1367295.25
665235,1193994,1368371,661960.50,1191707.50,1367360.75
665259,1194334,1368744,662149.75,1191854.12,1367426.12
665272,1194385,1368583,662339.00,1192000.37,1367492.50
665595,1194299,1368652,662527.88,1192146.25,1367559.50
665901,1194534,1369130,662717.00,1192291.50,1367626.50
665411,1194804,1368829,662905.88,1192436.12,1367693.62
665878,1194751,1368875,663092.63,1192580.50,1367761.00
666141,1195129,1368729,663277.44,1192724.50,1367828.12
666158,1195407,1369116,663459.00,1192869.50,1367895.00
666434,1195476,1369102,663635.00,1193016.50,1367962.25
666581,1195561,1369358,663808.50,1193164.75,1368030.50
666651,1196206,1369450,663981.75,1193312.87,1368099.50
667058,1196142,1369484,664154.81,1193461.25,1368169.37
667031,1195956,1369409,664328.00,1193610.62,1368240.00
667365,1196070,1369561,664501.44,1193760.25,1368311.25
667119,1195398,1368990,664672.13,1193907.75,1368381.87
667271,1194210,1368263,664837.00,1194047.87,1368448.37
666458,1192710,1367110,664996.31,1194172.25,1368505.00
662793,1190241,1365997,665146.63,1194271.25,1368545.50
662542,1189256,1365165,665276.81,1194335.50,1368564.37
661584,1188597,1364961,665374.63,1194357.25,1368558.12
660197,1188100,1364891,665432.44,1194334.75,1368526.25
658388,1187711,1364727,665444.38,1194269.37,1368471.50
657435,1187581,1364649,665404.94,1194164.25,1368395.62
657025,1187372,1364467,665312.75,1194023.00,1368301.12
656314,1187521,1365202,665170.63,1193850.75,1368191.25
656217,1187649,1364914,664982.38,1193652.87,1368070.62
656250,1187622,1364984,664752.75,1193434.25,1367941.62
656031,1187767,1365189,664487.44,1193199.12,1367805.25
655673,1188042,1365003,664191.13,1192952.00,1367662.75
656243,1187952,1364742,663868.94,1192697.50,1367516.25
656401,1188258,1364926,663528.00,1192438.50,1367367.37
655746,1188484,1365036,663174.38,1192180.00,1367218.00
656411,1188441,1365109,662812.06,1191925.50,1367070.12
656812,1188591,1365219,662445.88,1191676.50,1366925.25
657275,1189428,1365222,662081.56,1191434.00,1366784.50
657582,1189100,1365339,661724.50,1191200.75,1366648.62
657657,1189143,1365342,661378.50,1190978.75,1366518.62
657829,1189137,1365298,661046.13,1190769.37,1366395.25
657761,1189339,1365549,660726.38,1190573.00,1366278.87
658006,1189176,1365430,660418.50,1190390.00,1366170.12
657769,1189026,1365157,660126.00,1190219.50,1366068.50
657548,1189129,1365329,659851.63,1190060.75,1365972.62
658174,1188901,1365147,659596.38,1189913.00,1365882.25
658117,1188875,1365166,659360.50,1189775.62,1365797.37
657743,1188959,1365239,659142.56,1189647.87,1365717.25
657895,1189132,1365196,658941.00,1189530.25,1365641.50
658162,1189112,1365136,658755.50,1189423.00,1365571.00
658320,1189146,1365130,658587.31,1189326.25,1365505.50
658437,1189485,1365876,658436.63,1189240.00,1365446.25
658607,1189490,1365460,658303.25,1189164.75,1365395.12
659079,1189488,1365407,658188.13,1189100.87,1365351.00
659255,1189737,1365956,658092.44,1189047.75,1365313.00
659206,1190316,1365720,658016.13,1189006.50,1365281.25
659787,1190287,1365798,657958.56,1188978.50,1365256.25
659994,1190548,1365851,657920.50,1188964.12,1365238.25
659403,1191084,1366083,657901.31,1188963.62,1365227.12
660037,1191047,1366092,657899.13,1188978.12,1365223.25
660694,1191150,1366214,657913.63,1189006.50,1365226.25
660852,1191922,1366653,657945.88,1189047.50,1365235.75
661145,1191764,1366571,657995.88,1189101.25,1365251.75
661433,1191853,1366584,658063.00,1189167.75,1365274.75
661475,1191987,1366533,658146.50,1189246.25,1365304.50
661588,1192342,1366590,658243.38,1189336.12,1365340.00
662078,1192432,1366795,658351.56,1189437.00,1365380.75
662005,1192467,1366740,658472.00,1189547.75,1365426.75
662333,1192690,1366930,658604.63,1189666.75,1365476.75
662442,1192733,1366732,658747.88,1189792.50,1365530.12
662508,1192794,1366855,658901.00,1189924.62,1365586.00
662600,1192655,1367178,659062.50,1190061.75,1365644.37
662864,1192891,1366982,659231.31,1190202.50,1365704.75
663078,1192949,1366786,659406.81,1190346.00,1365766.75
663217,1193042,1367042,659588.44,1190491.87,1365829.75
663318,1193539,1367742,659774.63,1190639.87,1365894.37
663497,1193460,1367287,659963.88,1190790.50,1365961.75
663623,1193494,1367224,660156.06,1190943.25,1366030.87
663723,1193633,1367769,660351.06,1191097.00,1366101.00
663645,1194054,1367338,660547.50,1191251.75,1366172.00
664053,1194141,1367411,660744.50,1191408.12,1366243.25
664562,1194369,1367620,660942.75,1191566.50,1366315.00
663692,1194532,1367834,661142.44,1191727.12,1366387.75
664314,1194754,1367787,661341.50,1191890.25,1366462.25
664638,1194636,1367862,661539.13,1192055.12,1366537.75
665041,1195310,1368042,661736.38,1192220.12,1366614.37
665148,1195241,1368129,661934.13,1192385.37,1366692.00
665239,1195320,1368201,662132.25,1192551.75,1366770.75
665412,1195327,1368072,662330.00,1192718.62,1366850.50
665629,1195707,1368492,662526.44,1192885.75,1366930.75
665049,1195937,1368356,662719.38,1193053.75,1367012.00
665787,1195788,1368355,662908.38,1193222.25,1367093.87
665896,1196123,1368619,663095.31,1193390.62,1367175.75
666056,1195706,1368199,663281.19,1193557.25,1367256.75
666115,1194738,1367718,663465.56,1193719.00,1367334.75
665671,1193172,1366411,663646.75,1193868.00,1367405.50
663366,1190379,1365031,663818.25,1193992.25,1367461.75
662396,1189308,1364530,663968.63,1194078.50,1367496.00
661164,1188832,1364209,664089.50,1194121.00,1367504.75
658686,1188249,1364666,664173.00,1194120.50,1367489.25
658177,1187752,1363784,664211.25,1194079.75,1367451.25
657627,1187504,1363658,664201.38,1193999.00,1367391.75
656977,1187434,1364475,664144.31,1193880.50,1367312.25
656194,1187610,1363859,664041.25,1193729.25,1367215.75
656081,1187553,1363708,663894.19,1193550.50,1367105.75
656135,1187633,1363930,663707.50,1193349.00,1366984.37
656073,1187896,1363934,663486.75,1193130.00,1366854.50
656328,1187939,1364063,663237.50,1192898.25,1366718.62
656315,1188024,1363928,662966.19,1192657.87,1366578.87
656761,1188454,1364525,662678.88,1192411.50,1366436.50
656473,1188426,1364263,662380.56,1192162.75,1366293.62
656849,1188633,1364414,662075.25,1191915.50,1366152.50
657069,1188602,1364272,661767.25,1191672.87,1366014.62
657370,1189115,1364454,661460.25,1191437.25,1365880.75
657580,1189309,1364552,661157.69,1191211.50,1365752.00
657880,1189358,1364622,660863.75,1190998.12,1365629.50
658054,1189713,1364658,660582.38,1190797.75,1365513.75
658215,1189507,1364670,660316.00,1190610.75,1365405.00
658251,1189291,1364509,660065.38,1190437.00,1365303.00
658153,1189171,1364558,659830.69,1190275.50,1365207.62
658308,1188958,1364294,659611.69,1190124.75,1365118.12
658245,1188919,1364272,659408.38,1189983.25,1365033.50
658223,1188911,1364262,659220.50,1189850.75,1364953.25
657273,1189446,1364974,659044.69,1189727.75,1364878.50
658127,1188937,1364409,658877.88,1189614.75,1364810.37
658439,1188935,1364422,658723.25,1189510.75,1364748.25
658170,1189005,1364394,658583.63,1189415.00,1364690.87
658759,1189466,1364500,658458.88,1189328.00,1364638.50
658820,1189441,1364656,658350.06,1189251.50,1364591.12
658753,1189629,1364685,658257.13,1189185.62,1364549.50
659214,1190148,1365034,658178.13,1189131.00,1364514.50
659778,1190200,1364973,658113.13,1189089.00,1364486.50
660362,1190373,1365105,658066.50,1189060.00,1364465.75
660357,1190985,1365413,658041.00,1189044.25,1364452.00
660495,1191138,1365470,658035.63,1189042.50,1364445.37
660810,1191266,1365457,658049.25,1189055.75,1364446.50
661156,1191295,1365578,658081.56,1189083.50,1364455.00
660893,1191779,1365761,658131.56,1189124.87,1364471.00
661490,1191981,1365859,658197.63,1189180.37,1364494.50
661674,1192233,1365751,658279.50,1189249.87,1364524.75
661966,1192559,1366414,658377.00,1189332.87,1364561.12
662072,1192470,1366110,658489.25,1189428.25,1364603.75
662451,1192534,1366112,658615.25,1189534.62,1364652.25
662494,1192521,1365944,658754.00,1189650.37,1364705.50
662778,1192801,1366297,658903.31,1189774.00,1364762.37
663001,1192802,1366251,659061.63,1189904.75,1364823.25
662826,1193000,1366230,659228.63,1190041.87,1364887.25
661275,1193658,1366816,659400.63,1190185.00,1364954.25
662810,1193389,1366429,659573.19,1190334.25,1365024.00
663083,1193189,1366301,659747.63,1190487.87,1365095.62
663267,1193353,1366206,659925.88,1190644.00,1365168.00
663887,1193535,1366171,660108.38,1190801.62,1365240.25
663882,1193368,1366388,660296.06,1190960.12,1365311.37
663905,1193595,1366427,660488.00,1191118.37,1365381.87
663618,1193804,1366820,660679.50,1191276.25,1365452.25
664360,1193767,1366414,660867.19,1191433.75,1365523.25
664274,1193982,1366701,661054.56,1191590.25,1365593.50
664536,1194438,1366979,661244.13,1191745.62,1365663.25
664759,1194415,1366972,661435.50,1191900.12,1365733.25
664831,1194526,1366902,661628.50,1192054.37,1365803.50
664995,1194528,1366989,661822.38,1192208.50,1365874.00
665005,1194847,1367076,662016.38,1192362.00,1365944.25
664996,1194998,1367351,662209.25,1192515.50,1366014.87
665322,1195079,1367345,662400.38,1192669.00,1366086.50
665463,1195402,1367844,662590.13,1192822.00,1366158.25
665409,1195054,1367092,662778.25,1192973.75,1366228.87
665564,1194293,1366489,662964.00,1193121.50,1366296.37
665162,1192956,1365791,663145.94,1193259.50,1366357.12
662829,1190208,1364131,663317.00,1193376.37,1366405.00
662201,1189099,1363745,663466.00,1193459.50,1366432.87
660994,1188539,1363478,663586.44,1193501.75,1366438.00
657524,1188479,1363450,663672.00,1193503.75,1366421.25
658262,1187547,1363077,663715.06,1193467.25,1366383.25
657632,1187433,1362943,663713.06,1193393.25,1366325.87
657449,1187323,1363515,663667.63,1193284.25,1366250.25
656730,1187495,1363021,663581.00,1193145.00,1366158.50
656230,1187457,1363001,663454.75,1192980.25,1366054.12
656287,1187607,1363135,663291.56,1192794.75,1365939.87
654975,1187721,1363619,663094.88,1192593.62,1365819.25
656440,1187944,1363370,662869.19,1192381.50,1365695.25
656813,1188062,1363417,662622.13,1192162.00,1365569.37
657018,1188409,1363716,662361.13,1191938.50,1365442.50
657315,1188398,1363659,662091.88,1191713.75,1365316.00
657700,1188451,1363710,661819.38,1191490.87,1365191.75
657807,1188964,1363746,661548.19,1191272.75,1365071.37
658214,1189208,1364189,661280.38,1191062.75,1364956.12
658312,1189353,1364018,661017.81,1190863.75,1364847.62
658471,1189352,1364131,660764.75,1190676.75,1364746.37
658805,1189829,1364566,660524.88,1190502.25,1364652.25
658916,1189757,1364314,660300.06,1190341.50,1364566.25
658909,1189765,1364176,660091.25,1190195.00,1364487.75
659057,1189414,1364109,659898.63,1190061.75,1364416.50
658760,1189651,1364222,659719.13,1189940.50,1364351.62
659156,1189692,1364037,659550.13,1189831.00,1364292.87
659181,1189509,1363886,659395.00,1189732.75,1364239.12
658759,1190101,1364356,659254.13,1189645.50,1364190.00
658895,1189868,1364308,659124.06,1189569.50,1364146.12
659363,1189744,1364050,659006.75,1189504.37,1364107.87
659704,1190045,1364670,658905.56,1189449.25,1364074.50
659894,1190302,1364334,658821.81,1189405.00,1364046.25
660050,1190462,1364381,658755.63,1189372.25,1364023.25
660067,1190509,1364447,658706.44,1189351.25,1364005.75
659079,1190915,1365005,658673.13,1189341.62,1363994.25
660405,1191061,1364751,658654.88,1189343.87,1363990.00
661124,1191218,1365077,658652.56,1189358.25,1363992.87
661342,1191784,1365121,658667.63,1189384.25,1364003.00
661647,1191828,1365251,658700.69,1189422.25,1364020.37
661622,1191846,1365208,658750.75,1189472.25,1364044.50
661561,1192025,1365231,658815.88,1189534.12,1364074.50
662309,1192446,1365576,658894.06,1189607.50,1364110.00
662454,1192618,1365531,658985.06,1189692.50,1364151.50
662599,1192685,1365739,659089.88,1189788.75,1364198.50
662590,1193482,1366129,659207.88,1189895.12,1364250.75
662976,1193342,1365916,659337.38,1190011.25,1364307.75
663168,1193357,1365947,659478.06,1190137.50,1364369.25
663209,1193412,1366052,659628.88,1190272.50,1364435.25
663375,1193480,1366097,659787.75,1190414.50,1364505.25
663670,1193682,1366162,659952.75,1190562.75,1364578.62
663787,1193705,1365970,660124.63,1190716.00,1364654.50
663871,1194294,1366034,660302.13,1190873.75,1364731.75
663946,1193916,1366165,660483.06,1191034.75,1364810.00
663884,1193873,1366146,660667.00,1191197.75,1364889.00
664325,1194069,1366541,660853.88,1191361.62,1364968.00
663861,1193939,1366211,661042.50,1191525.62,1365046.75
664115,1194038,1366222,661231.00,1191688.50,1365124.75
664501,1194138,1366351,661418.75,1191849.25,1365201.87
664482,1194750,1366718,661606.13,1192009.00,1365278.75
664684,1194609,1366558,661792.81,1192168.75,1365356.25
664849,1194668,1366452,661978.63,1192327.75,1365433.62
664800,1194849,1366750,662163.25,1192485.50,1365509.87
665335,1194498,1366307,662346.50,1192640.75,1365584.50
664987,1193781,1365873,662528.63,1192790.75,1365655.50
664472,1192487,1365066,662707.00,1192929.25,1365719.12
662813,1190102,1363739,662877.25,1193049.00,1365769.50
661891,1189322,1363354,663032.13,1193141.00,1365801.00
660937,1188634,1362852,663162.25,1193196.87,1365810.50
660054,1188525,1363096,663261.00,1193213.37,1365798.00
657798,1187690,1362680,663322.25,1193191.25,1365764.75
657503,1187356,1362573,663339.44,1193131.75,1365712.75
656795,1187406,1362602,663311.25,1193037.50,1365644.00
656025,1187212,1362484,663238.88,1192912.87,1365560.75
655699,1187161,1362398,663123.75,1192761.25,1365465.00
655747,1187305,1362621,662968.88,1192587.00,1365358.50
655317,1187773,1362786,662778.88,1192394.12,1365243.75
655802,1187652,1362496,662559.13,1192187.25,1365122.50
655652,1187677,1362480,662315.00,1191971.00,1364996.00
655678,1187567,1362715,662051.00,1191748.37,1364866.00
655548,1187700,1362595,661771.13,1191521.75,1364733.75
656124,1187953,1362646,661479.88,1191293.87,1364601.00
656366,1188123,1362673,661182.94,1191068.12,1364469.50
656530,1188746,1363138,660884.88,1190847.62,1364341.12
656784,1188673,1362987,660589.13,1190635.37,1364217.75
657188,1188787,1363107,660299.94,1190433.50,1364100.37
657249,1189172,1363810,660021.25,1190243.25,1363989.25
657427,1188761,1363175,659755.25,1190064.62,1363885.00
657240,1188792,1363089,659502.75,1189897.62,1363787.50
657175,1188720,1362906,659263.44,1189742.00,1363696.00
657205,1188988,1362956,659035.19,1189598.37,1363610.12
657600,1188609,1362932,658817.13,1189467.25,1363529.25
657641,1188631,1362801,658613.00,1189346.75,1363453.50
657554,1189212,1363310,658425.50,1189235.37,1363382.25
657350,1188798,1362890,658253.44,1189133.12,1363316.25
657692,1188756,1362762,658095.88,1189040.25,1363254.87
658073,1188855,1362751,657954.00,1188956.25,1363197.37
658084,1189149,1362936,657828.25,1188881.75,1363143.75
658430,1189125,1363048,657718.50,1188817.50,1363094.75
658290,1189400,1363037,657625.31,1188763.37,1363050.87
657607,1189808,1363524,657548.31,1188719.75,1363012.50
658776,1189597,1363272,657486.94,1188686.25,1362979.87
659290,1189824,1363197,657442.31,1188663.50,1362953.00
659401,1190157,1363555,657415.75,1188652.00,1362931.50
659689,1190434,1363359,657407.06,1188652.75,1362915.00
659972,1190602,1363448,657416.13,1188666.25,1362903.62
659971,1190613,1363666,657442.25,1188692.12,1362897.87
660150,1191269,1363966,657484.38,1188729.75,1362898.50
660502,1191282,1363814,657541.63,1188779.25,1362906.25
660626,1191181,1363880,657613.63,1188840.50,1362920.00
660706,1191326,1364465,657699.13,1188912.25,1362939.00
661332,1191581,1364085,657797.50,1188993.50,1362962.62
661308,1191582,1364087,657909.13,1189083.50,1362991.25
661475,1191662,1364150,658032.88,1189181.37,1363024.75
661247,1192069,1364201,658164.38,1189286.75,1363062.50
661441,1191987,1364192,658299.25,1189399.87,1363104.00
661915,1192031,1364134,658439.69,1189519.25,1363148.62
662020,1192826,1364443,658588.38,1189642.75,1363195.50
662229,1192215,1364256,658744.88,1189769.62,1363244.25
662215,1192263,1364173,658908.06,1189899.25,1363294.50
662438,1192266,1364244,659076.75,1190030.75,1363345.50
662229,1192573,1364431,659247.94,1190163.75,1363397.37
662613,1192931,1364363,659418.88,1190299.00,1363450.25
662795,1192837,1364563,659591.25,1190436.87,1363504.12
661783,1193000,1364673,659766.75,1190576.75,1363559.25
662919,1193211,1364720,659944.63,1190718.37,1363616.12
663335,1193057,1364511,660124.25,1190861.25,1363673.75
662905,1192725,1364294,660304.75,1191003.00,1363730.75
662316,1190791,1363239,660482.75,1191137.75,1363783.12
661327,1189508,1362532,660652.63,1191255.50,1363826.00
660340,1188672,1361952,660807.50,1191347.50,1363854.50
658188,1187810,1361860,660940.44,1191409.50,1363866.75
657261,1187063,1361198,661043.56,1191439.25,1363861.75
656249,1186782,1361173,661108.63,1191434.75,1363839.00
655189,1186535,1361519,661130.31,1191396.75,1363799.37
653614,1186296,1361013,661105.13,1191327.75,1363744.25
653332,1186220,1361053,661030.38,1191230.25,1363675.75
653114,1186261,1360991,660908.25,1191107.87,1363595.87
652875,1186585,1361102,660741.56,1190965.37,1363506.50
652951,1186526,1361141,660533.88,1190808.00,1363410.00
653031,1186732,1361153,660293.31,1190638.62,1363308.25
652863,1187185,1360958,660027.31,1190460.25,1363202.37
653446,1187012,1361112,659741.50,1190276.50,1363093.75
653664,1187093,1361135,659442.38,1190090.00,1362983.25
653640,1187215,1361285,659135.69,1189903.50,1362872.50
653750,1187462,1361489,658822.25,1189719.50,1362763.12
654232,1187742,1361712,658503.75,1189540.50,1362657.37
653972,1187853,1361480,658187.19,1189369.12,1362556.25
654092,1188455,1362154,657878.38,1189207.00,1362460.00
655064,1188378,1361813,657581.25,1189056.25,1362369.50
655010,1188420,1361840,657299.38,1188918.00,1362285.50
655166,1188341,1361783,657034.25,1188792.12,1362208.00
655325,1188313,1361687,656786.50,1188677.75,1362136.50
655192,1188199,1361630,656556.63,1188574.12,1362070.25
655209,1188196,1361532,656344.00,1188480.00,1362008.50
655143,1188203,1362052,656148.13,1188395.12,1361951.50
655371,1188227,1361632,655968.81,1188319.50,1361900.25
655465,1188093,1361536,655806.13,1188251.75,1361853.75
655478,1187999,1361807,655659.94,1188191.00,1361810.75
655321,1188365,1361616,655529.25,1188137.00,1361771.50
655435,1188446,1361908,655412.81,1188090.25,1361736.50
655950,1188565,1361901,655310.94,1188051.75,1361706.25
655442,1188966,1361989,655224.13,1188022.37,1361681.25
656440,1189120,1361821,655152.50,1188003.25,1361660.87
656912,1189296,1361882,655098.06,1187994.75,1361644.50
656910,1190046,1362304,655062.44,1187997.00,1361631.75
657478,1189807,1362205,655045.50,1188010.25,1361623.12
657501,1189931,1362147,655047.44,1188035.00,1361619.00
657511,1190024,1362162,655067.00,1188070.75,1361619.50
658074,1190331,1362493,655100.63,1188116.75,1361624.25
658366,1190426,1362450,655146.25,1188173.50,1361634.25
658252,1190598,1362538,655206.63,1188240.12,1361649.25
658762,1191215,1362646,655282.88,1188316.00,1361668.75
659141,1191127,1362617,655374.13,1188401.00,1361692.50
658430,1191227,1362801,655479.69,1188495.25,1361720.25
659286,1191403,1363237,655597.31,1188598.50,1361752.50
659274,1191380,1363018,655726.56,1188709.75,1361789.37
659585,1191625,1363098,655867.19,1188828.00,1361830.87
659494,1191750,1362912,656017.81,1188952.75,1361876.25
659636,1192024,1363586,656176.56,1189083.87,1361925.25
660052,1191833,1363333,656342.44,1189220.75,1361978.87
660223,1191936,1363234,656515.50,1189361.75,1362036.25
660524,1192045,1363598,656695.63,1189504.75,1362095.75
660174,1192321,1363174,656881.50,1189650.00,1362156.12
660412,1192208,1363110,657070.69,1189797.00,1362216.75
660369,1192417,1363296,657261.63,1189945.00,1362277.25
660173,1192538,1363368,657453.38,1190094.25,1362337.87
660985,1192519,1363459,657646.00,1190244.75,1362398.87
661113,1192590,1363488,657839.88,1190395.37,1362460.50
661267,1193194,1363767,658035.00,1190544.62,1362522.12
661518,1193081,1363539,658231.13,1190693.25,1362583.50
661696,1193113,1363661,658428.06,1190841.50,1362644.50
661817,1193289,1363546,658625.75,1190989.37,1362705.50
661931,1193709,1364036,658822.88,1191137.12,1362766.50
662034,1193749,1363997,659018.00,1191285.62,1362828.75
662054,1193873,1363984,659211.38,1191435.00,1362892.37
662480,1193566,1363766,659403.38,1191584.25,1362956.50
662152,1192464,1362952,659593.56,1191729.62,1363018.62
661123,1191095,1362181,659778.63,1191863.25,1363073.50
660057,1189841,1361385,659951.81,1191975.75,1363115.37
658038,1188294,1360772,660103.63,1192058.87,1363140.12
656603,1187605,1360322,660223.63,1192106.25,1363145.00
655473,1187408,1360308,660303.63,1192116.00,1363129.50
652858,1187070,1360754,660336.75,1192091.00,1363096.00
652082,1186684,1360010,660315.88,1192034.25,1363047.12
651284,1186599,1359830,660237.63,1191946.75,1362982.62
650589,1186423,1360592,660103.38,1191830.25,1362903.12
649652,1186689,1360287,659914.75,1191688.50,1362811.75
649637,1186448,1360135,659674.81,1191526.00,1362711.50
649566,1186631,1360066,659389.50,1191346.00,1362604.50
649211,1186875,1360055,659065.38,1191153.25,1362491.50
649611,1186740,1359985,658708.88,1190951.75,1362373.87
649648,1186937,1359985,658327.00,1190744.12,1362252.62
649489,1187182,1360419,657926.13,1190532.75,1362129.00
649345,1187167,1359967,657510.63,1190320.25,1362004.25
649759,1187274,1359894,657085.00,1190109.62,1361879.25
649797,1187517,1360024,656655.00,1189903.00,1361754.50
650312,1187823,1360252,656225.38,1189703.50,1361632.00
650310,1187733,1360198,655800.38,1189512.75,1361513.25
650825,1187947,1360285,655385.25,1189332.00,1361399.00
650814,1188344,1360448,654984.13,1189162.00,1361290.00
650363,1187939,1360302,654598.00,1189003.50,1361186.62
650701,1188096,1360396,654227.31,1188856.25,1361089.37
650778,1188084,1360112,653873.88,1188720.25,1360997.75
650820,1188057,1360244,653539.13,1188595.62,1360911.12
650987,1188080,1360164,653224.00,1188481.75,1360829.50
650946,1188075,1360115,652929.13,1188378.00,1360752.62
650638,1188620,1360863,652651.69,1188285.25,1360680.50
650835,1188330,1360285,652388.88,1188203.87,1360613.87
651459,1188339,1360210,652144.25,1188133.25,1360552.37
651073,1188259,1360369,651921.44,1188072.37,1360496.00
651439,1188533,1360234,651719.94,1188020.50,1360444.87
651707,1188673,1360362,651539.75,1187978.37,1360398.50
651669,1188634,1360129,651381.44,1187945.75,1360356.75
652038,1188937,1360622,651244.13,1187923.00,1360319.50
652433,1189206,1360516,651128.13,1187910.75,1360287.87
652620,1189262,1360430,651034.50,1187909.25,1360261.50
652597,1189573,1360826,650963.13,1187917.75,1360239.87
652805,1189702,1360864,650912.50,1187936.25,1360223.00
653308,1189847,1360621,650882.25,1187965.12,1360211.75
653409,1189975,1360776,650872.50,1188004.25,1360205.50
653549,1190073,1361009,650881.88,1188053.37,1360204.50
653863,1190181,1361014,650908.88,1188111.50,1360208.87
654131,1190305,1361063,650953.50,1188178.00,1360218.75
654246,1190805,1361375,651015.88,1188252.50,1360233.50
654500,1190867,1361020,651094.88,1188335.25,1360252.37
654636,1190785,1361019,651189.25,1188426.12,1360274.50
654875,1190905,1361189,651298.00,1188524.00,1360300.00
654976,1191186,1361291,651420.00,1188628.12,1360328.75
655015,1191205,1361348,651553.50,1188738.25,1360361.12
655245,1191148,1361480,651697.13,1188853.50,1360397.00
653944,1191961,1362069,651847.00,1188973.25,1360437.25
655329,1191628,1361761,651999.50,1189098.50,1360483.00
655652,1191731,1361513,652156.56,1189228.00,1360533.00
655853,1191659,1361633,652320.50,1189360.50,1360584.25
656099,1191943,1361562,652491.25,1189494.75,1360635.75
656248,1192014,1361643,652668.13,1189631.00,1360687.75
656208,1191909,1361626,652850.13,1189768.37,1360740.50
656246,1191993,1361806,653033.25,1189905.75,1360794.00
656595,1192259,1361661,653214.69,1190043.00,1360847.75
657052,1192266,1361680,653397.63,1190179.75,1360901.62
657197,1192682,1362122,653585.25,1190316.00,1360955.00
657210,1192606,1361969,653777.00,1190451.25,1361008.75
657267,1192680,1361929,653971.50,1190586.00,1361062.75
657215,1192931,1361913,654167.06,1190720.62,1361116.87
657546,1193207,1362157,654362.13,1190855.62,1361171.00
657705,1193360,1362197,654556.00,1190991.75,1361225.50
658209,1193392,1362296,654750.25,1191129.00,1361281.00
657837,1193920,1362932,654946.13,1191267.00,1361337.12
658278,1193808,1362520,655142.88,1191406.00,1361394.12
658598,1193716,1362556,655339.94,1191545.62,1361452.50
658649,1192978,1362114,655537.25,1191683.75,1361511.12
656595,1190987,1360808,655730.75,1191812.75,1361565.75
655771,1190064,1360154,655911.13,1191922.62,1361609.50
654873,1189384,1359691,656069.50,1192006.50,1361638.00
650776,1188654,1359578,656198.00,1192062.00,1361649.75
650522,1188174,1359249,656285.25,1192087.75,1361644.87
649394,1187783,1359013,656321.63,1192082.75,1361623.50
648547,1187550,1358886,656303.63,1192047.25,1361585.75
647048,1187599,1358810,656229.75,1191983.37,1361532.75
646614,1187546,1358999,656099.25,1191894.75,1361466.75
646347,1187558,1358836,655915.06,1191784.87,1361389.62
644926,1187571,1358878,655679.50,1191657.00,1361303.25
645698,1187547,1358810,655395.44,1191514.00,1361209.00
645669,1187584,1358762,655071.50,1191359.00,1361108.25
645579,1187783,1358956,654716.63,1191194.50,1361002.12
645618,1187896,1358586,654336.75,1191023.25,1360891.50
645621,1187869,1358714,653937.63,1190848.75,1360777.50
645702,1187779,1358529,653524.50,1190672.62,1360661.12
645741,1187892,1358820,653100.88,1190496.37,1360543.75
645807,1188030,1358894,652669.88,1190321.75,1360427.00
645939,1188109,1358547,652237.69,1190150.75,1360312.00
645817,1188417,1359160,651809.63,1189984.75,1360198.25
646105,1188327,1358714,651388.63,1189824.75,1360085.75
646474,1188327,1358742,650978.56,1189672.25,1359976.25
646332,1188310,1358686,650582.75,1189527.62,1359870.50
645972,1188243,1358718,650199.75,1189391.00,1359768.75
646194,1188171,1358585,649827.63,1189262.00,1359670.75
646110,1188149,1358504,649469.88,1189140.25,1359576.50
645074,1188705,1359106,649127.25,1189026.25,1359485.50
645829,1188325,1358425,648797.31,1188920.87,1359398.25
645956,1188259,1358440,648482.63,1188823.75,1359314.37
646022,1188342,1358757,648186.25,1188734.25,1359234.25
646219,1188540,1358594,647909.00,1188652.50,1359158.75
646156,1188465,1358590,647651.38,1188579.00,1359087.87
646458,1188579,1358443,647413.63,1188513.75,1359021.50
645008,1188827,1358765,647195.63,1188456.37,1358959.50
646604,1188962,1358552,646996.63,1188408.00,1358902.25
646925,1188952,1358546,646817.63,1188368.75,1358849.62
647352,1189324,1358672,646660.63,1188338.75,1358801.00
647373,1189392,1358631,646526.38,1188318.00,1358756.37
647613,1189386,1358611,646414.38,1188307.00,1358715.87
647398,1189488,1358731,646323.50,1188305.50,1358679.62
647804,1189659,1358976,646252.06,1188312.87,1358648.25
647933,1189899,1358999,646199.25,1188329.37,1358622.50
647994,1189943,1359029,646164.88,1188355.12,1358602.62
647864,1190326,1359516,646147.63,1188389.37,1358587.75
648597,1190338,1359269,646146.50,1188431.50,1358577.75
648662,1190513,1359237,646162.13,1188482.25,1358573.12
648545,1190379,1359021,646194.00,1188541.25,1358573.50
648574,1190715,1359335,646237.25,1188607.62,1358578.25
648890,1190726,1359207,646288.38,1188681.12,1358587.00
649319,1190686,1359138,646350.38,1188760.75,1358599.50
648944,1191555,1359398,646423.88,1188846.37,1358614.50
649086,1191070,1359348,646505.00,1188938.00,1358631.50
649613,1191091,1359187,646594.75,1189034.87,1358650.87
649948,1191008,1359889,646695.63,1189135.25,1358672.50
649846,1191266,1359483,646807.69,1189238.00,1358696.00
650002,1191264,1359441,646929.31,1189343.25,1358722.00
650248,1191400,1359540,647059.25,1189450.25,1358750.50
649007,1191505,1359605,647197.00,1189559.25,1358781.37
650322,1191589,1359561,647341.13,1189670.00,1358814.37
650907,1191696,1359386,647491.25,1189782.00,1358848.75
650617,1193089,1359617,647647.13,1189894.62,1358883.75
651523,1192166,1359681,647808.63,1190008.12,1358919.00
651181,1192103,1359637,647976.13,1190123.12,1358955.25
651410,1192267,1359685,648148.44,1190239.50,1358992.50
651711,1192492,1360070,648323.88,1190357.25,1359031.25
651843,1192812,1359935,648501.88,1190477.25,1359071.87
652140,1192978,1360078,648683.13,1190599.75,1359114.62
652090,1193767,1360934,648867.75,1190725.25,1359159.25
652350,1193607,1360628,649054.94,1190854.00,1359206.75
652523,1193506,1360461,649244.06,1190986.50,1359257.75
652509,1193233,1360291,649434.75,1191121.62,1359311.75
651873,1191656,1359394,649624.00,1191254.00,1359365.00
651193,1190633,1358692,649807.00,1191374.75,1359412.75
650620,1190001,1358356,649978.50,1191476.75,1359450.25
648706,1189285,1357704,650133.50,1191556.25,1359475.25
647918,1188764,1357544,650264.75,1191611.25,1359486.50
647197,1188452,1357611,650365.00,1191640.00,1359483.00
646398,1188229,1357642,650430.13,1191642.00,1359466.12
644904,1188040,1357468,650456.88,1191619.00,1359437.12
645222,1188253,1357300,650443.13,1191573.25,1359397.00
644997,1188281,1357505,650391.88,1191508.00,1359346.87
644070,1188597,1357827,650306.75,1191427.50,1359289.50
644361,1188462,1357412,650190.00,1191334.75,1359226.62
644400,1188420,1357277,650044.81,1191232.00,1359158.50
644574,1188653,1357640,649875.63,1191121.25,1359084.75
644866,1188638,1357370,649687.63,1191004.75,1359007.00
644905,1188877,1357334,649486.00,1190885.00,1358926.25
644594,1188800,1357433,649273.75,1190764.00,1358843.50
644977,1188929,1357560,649052.88,1190643.12,1358760.12
644973,1189076,1357532,648826.00,1190524.00,1358677.50
644759,1189309,1357532,648596.56,1190408.37,1358596.25
645331,1189955,1357958,648367.38,1190297.75,1358516.62
644922,1189670,1357514,648141.00,1190193.25,1358439.12
645254,1189471,1357353,647919.00,1190096.00,1358363.62
645323,1189485,1357430,647703.00,1190005.75,1358290.00
645547,1189599,1357409,647494.88,1189922.62,1358218.50
645504,1189380,1357475,647295.56,1189846.12,1358149.75
645378,1189503,1357567,647106.00,1189775.75,1358084.00
645192,1189819,1357622,646926.50,1189711.50,1358022.00
645554,1189483,1357366,646757.38,1189652.87,1357963.75
645310,1189360,1357401,646598.63,1189599.75,1357908.25
645260,1189345,1357403,646449.50,1189551.25,1357855.25
645447,1189529,1357295,646309.63,1189507.37,1357804.50
645719,1189557,1357107,646179.88,1189468.50,1357755.75
645901,1189529,1357339,646061.94,1189434.62,1357708.75
645429,1190048,1357502,645955.81,1189406.25,1357664.37
645823,1189919,1357390,645860.75,1189383.87,1357623.50
646163,1189991,1357310,645776.94,1189368.12,1357585.75
645957,1190304,1357996,645704.75,1189358.50,1357550.75
646505,1190388,1357707,645644.25,1189355.12,1357519.00
646393,1190467,1357629,645595.88,1189359.00,1357491.75
646631,1190587,1357512,645559.75,1189370.62,1357468.62
646524,1190992,1357864,645533.00,1189390.50,1357449.37
646756,1191005,1357867,645513.31,1189419.75,1357434.75
647003,1191027,1357661,645503.06,1189457.50,1357424.50
647163,1191810,1358484,645504.75,1189502.37,1357418.00
647138,1191556,1358016,645518.13,1189554.37,1357414.75
647461,1191474,1357921,645542.38,1189614.00,1357415.62
647233,1191344,1357709,645576.81,1189680.25,1357419.87
647613,1191816,1357974,645619.69,1189752.00,1357426.50
647570,1191574,1357990,645669.88,1189829.00,1357436.00
647749,1191677,1358005,645727.63,1189910.50,1357448.37
646386,1191957,1358499,645792.75,1189995.00,1357463.50
647748,1191918,1357967,645863.75,1190082.50,1357481.12
648177,1191904,1357917,645940.63,1190172.50,1357500.25
648229,1192088,1358233,646024.25,1190265.12,1357520.75
648450,1192055,1358026,646114.50,1190359.75,1357542.50
648486,1192113,1358224,646210.88,1190456.00,1357565.75
648763,1192288,1358084,646313.06,1190553.25,1357590.50
648592,1192586,1358387,646420.50,1190651.50,1357616.75
648652,1192467,1358137,646531.88,1190750.50,1357644.50
648953,1192438,1358149,646646.38,1190850.25,1357673.25
649202,1192505,1358770,646764.25,1190950.12,1357702.00
649101,1192780,1358353,646885.38,1191050.00,1357731.50
649024,1193042,1358406,647008.69,1191150.75,1357762.00
649607,1193189,1358732,647133.50,1191253.25,1357794.25
649361,1193607,1358973,647258.13,1191359.00,1357829.25
649873,1193780,1358753,647380.75,1191469.25,1357867.50
650054,1193831,1358919,647504.50,1191584.00,1357908.62
649837,1193892,1358976,647631.75,1191701.25,1357951.50
649737,1193025,1358317,647760.31,1191818.25,1357994.50
649703,1192262,1357917,647888.44,1191930.25,1358034.62
649263,1191805,1357461,648014.06,1192032.00,1358069.12
648465,1191014,1357353,648132.44,1192119.50,1358095.75
648008,1190651,1357017,648237.94,1192189.50,1358113.25
647629,1190477,1356840,648328.56,1192240.50,1358121.12
645237,1190240,1356760,648402.81,1192272.25,1358119.00
646285,1190036,1356742,648457.75,1192285.37,1358107.62
646282,1190226,1356683,648491.38,1192281.12,1358087.75
645801,1190305,1356976,648504.13,1192262.12,1358060.25
646025,1190479,1356865,648496.88,1192231.25,1358026.75
645836,1190445,1356875,648471.69,1192190.75,1357988.75
645928,1190593,1356879,648430.63,1192142.62,1357947.00
645804,1190761,1357212,648375.63,1192088.50,1357903.00
646299,1190645,1356917,648309.31,1192030.25,1357858.12
646009,1190729,1356781,648234.50,1191969.00,1357811.75
646009,1190706,1357373,648152.75,1191905.37,1357763.75
645956,1190990,1356936,648064.88,1191841.12,1357714.25
646264,1191032,1357001,647972.38,1191777.62,1357664.50
646297,1191123,1356960,647877.88,1191716.25,1357615.50
646250,1191356,1357043,647781.75,1191658.12,1357567.75
646547,1191535,1356903,647684.50,1191604.75,1357521.25
646415,1191299,1356869,647588.75,1191556.75,1357476.00
646656,1191783,1357065,647496.25,1191512.75,1357431.50
646470,1191401,1356864,647407.69,1191473.00,1357388.25
646596,1191296,1356916,647323.25,1191436.75,1357346.50
646755,1191250,1357027,647243.38,1191404.00,1357306.37
646313,1191311,1357017,647166.31,1191374.00,1357268.75
646446,1191431,1357044,647089.25,1191347.25,1357233.75
646557,1191453,1357054,647014.63,1191323.87,1357201.50
646303,1191589,1357020,646945.13,1191304.25,1357171.75
646630,1191632,1357109,646880.94,1191288.62,1357144.00
646806,1191517,1356881,646822.56,1191276.75,1357118.25
646849,1191634,1357012,646770.69,1191268.50,1357094.50
646512,1191713,1356995,646724.75,1191263.75,1357072.00
646749,1191742,1356811,646683.75,1191262.87,1357050.87
646886,1191828,1356890,646647.81,1191265.75,1357031.12
647003,1192237,1357638,646617.50,1191272.50,1357013.75
647132,1192412,1357045,646592.88,1191284.50,1357000.75
647360,1192276,1357192,646575.00,1191302.62,1356990.75
647226,1192334,1357490,646564.25,1191326.00,1356983.00
647227,1192664,1357095,646559.75,1191354.50,1356976.62
647508,1192726,1357465,646561.25,1191388.75,1356972.50
647770,1192946,1357401,646569.50,1191429.12,1356971.75
646946,1193059,1357634,646584.75,1191476.00,1356974.62
647710,1193235,1357680,646606.13,1191530.00,1356981.75
647925,1193188,1357533,646633.19,1191590.25,1356992.62
648269,1193835,1357857,646666.81,1191655.50,1357006.87
648446,1193570,1357759,646707.88,1191725.50,1357024.50
648535,1193522,1357789,646756.75,1191800.25,1357045.37
648354,1193773,1357902,646812.38,1191879.25,1357069.50
648659,1193898,1357937,646871.94,1191962.75,1357096.62
648661,1193960,1357878,646933.75,1192050.37,1357126.62
648419,1194039,1358056,646998.75,1192141.75,1357159.00
648596,1194400,1358226,647066.88,1192236.25,1357193.50
648925,1194172,1357870,647137.50,1192333.50,1357229.37
648723,1194290,1357993,647211.56,1192432.87,1357265.87
648812,1194143,1358570,647288.50,1192533.75,1357303.12
648977,1194156,1358092,647367.75,1192634.75,1357341.25
649288,1194388,1358147,647449.75,1192735.50,1357380.25
649269,1194399,1358038,647534.94,1192836.12,1357420.00
648738,1194816,1358862,647620.75,1192937.50,1357461.00
649216,1194691,1358213,647704.31,1193040.12,1357503.87
649794,1194813,1358234,647788.13,1193143.75,1357547.75
649638,1194830,1358736,647875.50,1193247.12,1357591.62
649395,1195333,1358734,647965.38,1193350.87,1357635.75
649891,1195325,1358357,648056.44,1193456.00,1357681.12
650023,1195435,1358468,648149.63,1193562.75,1357727.00
649801,1195860,1358554,648245.00,1193671.00,1357772.87
650218,1195659,1358486,648341.63,1193781.50,1357818.75
650050,1195745,1358527,648439.63,1193893.12,1357864.37
650116,1195447,1358739,648538.38,1194005.25,1357909.50
649888,1195015,1358160,648636.50,1194115.87,1357953.50
649727,1194335,1357961,648732.44,1194220.25,1357994.12
649633,1193917,1357509,648824.50,1194313.62,1358029.37
648857,1193379,1357154,648911.00,1194393.00,1358057.00
648191,1193022,1357032,648988.25,1194455.75,1358075.00
648191,1192823,1356752,649052.31,1194501.12,1358083.25
647256,1192888,1356830,649101.63,1194528.50,1358081.00
647152,1192797,1356765,649134.81,1194539.25,1358069.00
647340,1192556,1356861,649150.88,1194534.75,1358049.00
646996,1192681,1356886,649150.94,1194517.00,1358022.50
646759,1192538,1356831,649135.38,1194487.50,1357990.75
647219,1192897,1357067,649105.50,1194448.25,1357954.50
647174,1192947,1356963,649064.44,1194401.50,1357915.50
646860,1193616,1357538,649011.88,1194350.37,1357875.25
647321,1193342,1357136,648947.13,1194296.87,1357835.00
647762,1193377,1357144,648876.06,1194242.62,1357795.00
647245,1193234,1357023,648803.44,1194188.12,1357754.87
647451,1193343,1356888,648729.25,1194133.37,1357714.37
647511,1193468,1357076,648654.13,1194079.25,1357673.37
647560,1193488,1357125,648579.44,1194027.00,1357632.50
647558,1193581,1356974,648505.13,1193977.37,1357592.50
647824,1193535,1357055,648431.38,1193931.50,1357552.87
647874,1193716,1357282,648360.63,1193889.00,1357514.50
647934,1193794,1357352,648294.63,1193849.75,1357478.25
647500,1193684,1357216,648232.75,1193813.75,1357444.00
647966,1193661,1357021,648174.50,1193780.87,1357411.25
648036,1193617,1357014,648120.81,1193751.00,1357380.00
647197,1193594,1357070,648072.31,1193723.75,1357349.75
647595,1193546,1357029,648027.75,1193698.50,1357320.75
647747,1193605,1356999,647986.00,1193675.50,1357293.25
647968,1193726,1357180,647947.63,1193654.50,1357266.75
647714,1193690,1357053,647913.31,1193635.62,1357241.37
647992,1193559,1357100,647882.63,1193618.87,1357217.75
647921,1193748,1356932,647855.75,1193604.25,1357195.50
648283,1193869,1357089,647832.00,1193592.25,1357174.50
647939,1193873,1357147,647810.38,1193583.50,1357155.25
648193,1193903,1356967,647791.88,1193578.00,1357137.75
646133,1194924,1357318,647775.69,1193576.37,1357121.75
647870,1194447,1357171,647759.00,1193580.25,1357107.50
647823,1194435,1357287,647743.13,1193589.87,1357095.50
648112,1194328,1357391,647730.38,1193604.37,1357086.25
648428,1194563,1357230,647722.00,1193623.00,1357079.00
648573,1194677,1357289,647719.38,1193646.25,1357074.00
649051,1194659,1357314,647723.94,1193674.00,1357071.00
648388,1194798,1357652,647733.81,1193706.00,1357070.75
648939,1194894,1357461,647746.13,1193742.50,1357073.75
649149,1195173,1357489,647763.25,1193783.62,1357079.50
649154,1195576,1357582,647788.25,1193829.50,1357087.25
649379,1195360,1357592,647820.63,1193880.25,1357096.75
649381,1195360,1357540,647860.13,1193935.50,1357108.25
649318,1195365,1357668,647906.13,1193994.75,1357121.75
649522,1195503,1357738,647957.25,1194057.25,1357137.50
649518,1195462,1357600,648013.13,1194122.75,1357155.50
649470,1195508,1357566,648073.13,1194190.37,1357174.62
649350,1195674,1358090,648136.13,1194259.75,1357195.12
649508,1195531,1357629,648201.13,1194330.00,1357217.00
649765,1195614,1357732,648268.25,1194400.87,1357239.75
649938,1195553,1357638,648338.25,1194472.12,1357263.25
649693,1195676,1357740,648408.50,1194543.25,1357287.00
650105,1195722,1357980,648476.13,1194614.25,1357311.50
650039,1195614,1357768,648544.25,1194684.62,1357337.25
649247,1196331,1358385,648613.06,1194754.75,1357364.12
650060,1196125,1357817,648679.38,1194825.75,1357392.00
650074,1195975,1357919,648745.63,1194897.50,1357420.25
650561,1196103,1358143,648814.63,1194969.25,1357448.50
650393,1196513,1357959,648887.13,1195041.37,1357476.75
650440,1196611,1358062,648962.50,1195115.25,1357505.00
650567,1196816,1358199,649040.00,1195191.50,1357534.25
649072,1197139,1358473,649118.63,1195270.50,1357565.25
650841,1196731,1358235,649197.88,1195351.25,1357598.25
650912,1196400,1357911,649278.88,1195432.37,1357631.87
650905,1195581,1357517,649362.13,1195510.75,1357664.00
650406,1195046,1357157,649446.00,1195581.87,1357692.12
649970,1194540,1356918,649527.25,1195641.25,1357713.75
649391,1194332,1356779,649601.88,1195686.25,1357727.25
648618,1194067,1356799,649665.75,1195716.00,1357732.50
648277,1193869,1356572,649715.06,1195730.25,1357730.00
648148,1193849,1356663,649748.25,1195729.50,1357719.75
647898,1194102,1357020,649765.69,1195715.12,1357702.87
647625,1193970,1356542,649767.38,1195689.00,1357680.25
647787,1194161,1356593,649753.94,1195653.50,1357652.37
647541,1194155,1356615,649727.00,1195610.87,1357619.87
647541,1194405,1356829,649686.81,1195563.00,1357584.25
647463,1194298,1356776,649633.88,1195511.75,1357546.75
647880,1194368,1356642,649571.50,1195458.00,1357507.75
647731,1195081,1356957,649501.88,1195403.00,1357467.37
647877,1194475,1356825,649426.13,1195348.37,1357425.75
647986,1194523,1356754,649346.88,1195294.25,1357384.00
648117,1194663,1356967,649266.94,1195241.12,1357343.12
647373,1194574,1356886,649186.38,1195189.50,1357303.62
648320,1194587,1356787,649105.13,1195139.50,1357265.75
648497,1194801,1356709,649026.13,1195091.87,1357228.75
647912,1194888,1356995,648951.94,1195047.87,1357193.00
648473,1194825,1356887,648882.19,1195008.50,1357159.25
648656,1194945,1356910,648817.63,1194973.37,1357127.75
648641,1195197,1357036,648759.06,1194941.75,1357098.00
648568,1195027,1356983,648706.38,1194914.00,1357069.25
648680,1194676,1356874,648659.25,1194889.25,1357042.50
648622,1194815,1356668,648617.38,1194866.75,1357017.62
648721,1194811,1357043,648580.88,1194846.25,1356994.00
648941,1194986,1356891,648550.06,1194828.12,1356972.75
648839,1194924,1356874,648525.19,1194812.87,1356953.50
648772,1195563,1357293,648505.56,1194800.75,1356936.37
648917,1195299,1356841,648490.63,1194791.75,1356921.50
649003,1195174,1356957,648480.38,1194787.00,1356908.25
649093,1195286,1356771,648475.25,1194786.00,1356896.37
649172,1195454,1356847,648474.88,1194788.75,1356885.37
649428,1195406,1356708,648479.50,1194795.75,1356875.00
649456,1195473,1356863,648489.88,1194806.62,1356865.25
649026,1196245,1356999,648505.94,1194821.25,1356856.25
649549,1195818,1357103,648527.06,1194839.87,1356849.25
649903,1195880,1356992,648553.56,1194863.25,1356844.50
649597,1195990,1357327,648585.63,1194891.25,1356841.75
649638,1195984,1357128,648622.00,1194924.00,1356841.00
649761,1196074,1357164,648661.63,1194960.75,1356842.50
649911,1196178,1357275,648704.75,1195001.25,1356846.25
649941,1196710,1357536,648751.38,1195046.25,1356853.00
650107,1196492,1357367,648801.31,1195095.87,1356863.25
650397,1196429,1357426,648855.13,1195149.75,1356876.37
650500,1196687,1357792,648913.56,1195207.00,1356891.50
650444,1196584,1357441,648976.44,1195267.00,1356908.00
650226,1196665,1357575,649042.38,1195329.75,1356926.25
650577,1196650,1357419,649110.31,1195394.62,1356946.62
650525,1196836,1357546,649179.13,1195462.00,1356968.50
650750,1196659,1357361,649247.75,1195531.62,1356991.50
651042,1196792,1357492,649318.38,1195602.50,1357015.00
651210,1197235,1357843,649393.00,1195673.50,1357039.12
650634,1196883,1357502,649470.88,1195744.37,1357063.75
651226,1196955,1357495,649550.25,1195815.25,1357088.62
651205,1197198,1357475,649631.50,1195886.50,1357113.50
651448,1197314,1357693,649714.38,1195958.62,1357138.75
651552,1197317,1357401,649798.25,1196032.00,1357164.00
651467,1197418,1357564,649883.94,1196106.50,1357188.75
650706,1197749,1357949,649971.56,1196181.62,1357213.50
651522,1197469,1357621,650060.38,1196257.25,1357238.25
651966,1197648,1357767,650150.38,1196333.25,1357263.50
651971,1197666,1357818,650242.31,1196409.50,1357289.00
651845,1198048,1357830,650335.88,1196486.87,1357315.50
651986,1197973,1357948,650430.00,1196565.62,1357342.75
652194,1198054,1357993,650524.50,1196645.75,1357371.25
652225,1198573,1358287,650619.81,1196726.87,1357401.25
652373,1198404,1358207,650715.75,1196809.37,1357433.50
652452,1198296,1358053,650812.44,1196893.37,1357467.75
652611,1198135,1358199,650909.88,1196977.62,1357502.25
652249,1197286,1357396,651007.38,1197059.25,1357535.37
651881,1196731,1357052,651102.50,1197133.50,1357564.00
651566,1196157,1356906,651192.38,1197196.00,1357586.00
650181,1195666,1356663,651271.13,1197245.12,1357600.12
650070,1195185,1356563,651332.63,1197279.62,1357606.00
649904,1195180,1356356,651376.25,1197296.87,1357603.50
649283,1195331,1356364,651403.19,1197296.50,1357591.87
649059,1195151,1356161,651412.13,1197280.12,1357571.25
649071,1195138,1356369,651403.19,1197250.00,1357543.00
649120,1195301,1356406,651378.25,1197208.12,1357509.25
649427,1195403,1356653,651339.06,1197157.25,1357471.62
649410,1195506,1356633,651287.38,1197099.50,1357432.00
649154,1195690,1356620,651226.38,1197036.87,1357391.25
648223,1195775,1356769,651158.00,1196971.25,1357349.75
649214,1195740,1356650,651083.50,1196903.87,1357308.50
649451,1195727,1356794,651004.50,1196835.50,1357267.75
649507,1195747,1356771,650923.13,1196767.25,1357227.75
649768,1196066,1356831,650841.25,1196700.12,1357188.62
649818,1196174,1356713,650760.75,1196635.75,1357151.00
649907,1196073,1356663,650682.88,1196575.37,1357114.62
649913,1196552,1357157,650608.25,1196518.75,1357080.25
650280,1196511,1356769,650538.00,1196466.87,1357049.00
650240,1196286,1356786,650473.25,1196420.50,1357020.00
650128,1196345,1357041,650414.31,1196379.00,1356992.75
649678,1196463,1356798,650359.56,1196342.25,1356967.25
649986,1196246,1356611,650307.63,1196310.25,1356943.25
650242,1196434,1356844,650259.38,1196282.12,1356920.25
650076,1196535,1356947,650213.63,1196258.75,1356899.25
650261,1196399,1356639,650168.69,1196240.75,1356880.25
650179,1196395,1356679,650127.00,1196226.75,1356862.25
650192,1196683,1357132,650090.75,1196215.50,1356845.00
650521,1196519,1356667,650060.13,1196207.25,1356828.25
650355,1196595,1356700,650035.50,1196202.25,1356812.25
650608,1196549,1356549,650016.88,1196200.50,1356796.87
650519,1196752,1356679,650001.44,1196201.75,1356782.12
650565,1196717,1356849,649986.38,1196206.75,1356768.50
650768,1196814,1356691,649974.94,1196214.87,1356756.25
650072,1197062,1357144,649970.25,1196226.25,1356746.12
650867,1196981,1357014,649972.31,1196241.00,1356738.50
651064,1197100,1356834,649980.88,1196259.25,1356733.75
651096,1197096,1357362,649996.13,1196281.37,1356730.75
651361,1197489,1357096,650018.00,1196307.50,1356730.00
651443,1197446,1357062,650046.81,1196338.50,1356731.75
651332,1197400,1357033,650082.13,1196374.00,1356735.75
651670,1197810,1357843,650122.63,1196413.12,1356743.00
651561,1197770,1357365,650167.88,1196456.00,1356755.00
651716,1197870,1357448,650217.88,1196503.25,1356771.25
651872,1197794,1357619,650273.06,1196554.62,1356790.25
651783,1197993,1357442,650333.00,1196609.50,1356811.50
652141,1197921,1357378,650397.38,1196667.75,1356834.50
652224,1198134,1357562,650466.44,1196728.75,1356859.25
651386,1198160,1357516,650539.25,1196793.75,1356885.75
652027,1198057,1357459,650613.75,1196863.25,1356913.75
652330,1198348,1357587,650689.88,1196935.12,1356942.87
652423,1198977,1357586,650768.63,1197008.25,1356972.75
652597,1198735,1357673,650850.50,1197082.87,1357003.12
652828,1198481,1357708,650935.63,1197159.37,1357034.50
652680,1198435,1357500,651023.88,1197237.00,1357066.62
652419,1198454,1357820,651111.50,1197314.50,1357099.12
652871,1198475,1357716,651195.31,1197391.00,1357132.37
652892,1198697,1357640,651278.63,1197467.00,1357166.00
652775,1199028,1357845,651364.13,1197542.62,1357199.75
653120,1199026,1357847,651451.63,1197618.50,1357234.00
653252,1199030,1357994,651541.13,1197695.25,1357269.00
653331,1198955,1358184,651632.50,1197772.50,1357304.75
653489,1199096,1357954,651725.75,1197849.75,1357340.75
653566,1199265,1357939,651820.88,1197927.25,1357376.50
653682,1199348,1358145,651917.63,1198005.12,1357412.75
653567,1199553,1358772,652015.25,1198084.25,1357450.87
653726,1199620,1358287,652112.75,1198165.00,1357492.00
653930,1199588,1358347,652210.38,1198247.00,1357535.25
654205,1199733,1358824,652309.25,1198329.50,1357579.50
653786,1199986,1358438,652409.19,1198412.75,1357624.75
654433,1199820,1358349,652509.38,1198497.00,1357670.50
654421,1199512,1358045,652610.75,1198580.75,1357715.50
652981,1198228,1357264,652712.69,1198661.50,1357756.75
653031,1197665,1356921,652811.00,1198734.00,1357790.25
652658,1197090,1356714,652900.50,1198791.75,1357813.75
652122,1196996,1356695,652977.50,1198831.00,1357826.50
651446,1196457,1356516,653038.88,1198850.75,1357828.50
651075,1196268,1356430,653082.00,1198851.00,1357820.50
650808,1196294,1356487,653105.50,1198832.62,1357803.62
649854,1196321,1356512,653107.38,1198798.00,1357778.87
650113,1196339,1356620,653085.50,1198749.25,1357748.00
650075,1196487,1356377,653043.06,1198688.87,1357711.75
650075,1196936,1356659,652984.50,1198619.37,1357670.75
650173,1196704,1356509,652912.88,1198543.12,1357626.00
650491,1196980,1356678,652830.50,1198462.62,1357578.50
650684,1196913,1356982,652740.38,1198380.12,1357529.75
650716,1196938,1356734,652645.63,1198296.75,1357480.37
650665,1197006,1356695,652547.63,1198213.25,1357431.12
650775,1196993,1356527,652447.69,1198130.62,1357382.00
650695,1197453,1357417,652347.00,1198050.50,1357334.00
650958,1197341,1356714,652246.88,1197975.00,1357288.62
650850,1197287,1356766,652148.56,1197904.25,1357245.37
650869,1197256,1356994,652052.50,1197837.12,1357203.50
650823,1197520,1356730,651958.88,1197774.25,1357162.87
650939,1197375,1356743,651868.25,1197716.25,1357123.75
651178,1197357,1356850,651781.63,1197662.62,1357086.62
650683,1197416,1356705,651699.88,1197613.75,1357051.62
651090,1197363,1356807,651622.81,1197570.25,1357018.62
651085,1197252,1356468,651550.50,1197530.75,1356987.00
651228,1197424,1356767,651483.56,1197494.00,1356956.25
651115,1197378,1356681,651422.13,1197460.00,1356926.25
651185,1197265,1356582,651365.94,1197428.75,1356897.62
651110,1197255,1356683,651314.75,1197400.25,1356870.25
651594,1197766,1356725,651267.75,1197374.87,1356844.75
651061,1197503,1356601,651224.13,1197354.00,1356821.00
651346,1197503,1356848,651184.63,1197337.25,1356799.12
651427,1198024,1356840,651150.44,1197324.00,1356779.50
651603,1197875,1356814,651122.13,1197315.75,1356762.12
651595,1197928,1356832,651100.25,1197312.25,1356747.00
651754,1198048,1357356,651084.81,1197314.00,1356734.25
651746,1198182,1356972,651075.75,1197321.00,1356724.00
651911,1198253,1356976,651073.06,1197333.25,1356716.50
651851,1198223,1356920,651076.38,1197350.75,1356711.75
651828,1198730,1357438,651083.13,1197373.50,1356710.37
652293,1198570,1357178,651091.75,1197402.25,1356713.37
652388,1198509,1357098,651105.50,1197436.25,1356720.00
652521,1198541,1357472,651127.13,1197474.37,1356728.50
652193,1198607,1357138,651155.56,1197516.00,1356738.50
652521,1198642,1356967,651189.44,1197560.50,1356749.75
652562,1198712,1357088,651228.63,1197607.87,1356761.62
652407,1198876,1356974,651272.88,1197658.00,1356774.12
652787,1198708,1357106,651322.00,1197710.62,1356787.00
652767,1198881,1357076,651375.75,1197765.00,1356800.62
652857,1199053,1357332,651433.50,1197821.00,1356814.50
652757,1199027,1357348,651494.63,1197878.75,1356829.25
652936,1198954,1357251,651558.25,1197937.87,1356845.37
653218,1199007,1357245,651624.75,1197997.75,1356862.75
653481,1199133,1357193,651694.38,1198058.00,1356880.75
653433,1199048,1357097,651766.94,1198118.75,1356898.75
653608,1199158,1357313,651842.94,1198179.50,1356916.50
653491,1199571,1357564,651922.50,1198240.00,1356934.75
653341,1199313,1357185,652004.25,1198300.12,1356952.87
653894,1199275,1357336,652087.63,1198360.12,1356970.87
653762,1199499,1357385,652173.25,1198420.25,1356989.25
653951,1199692,1357484,652261.00,1198481.25,1357008.50
653664,1199716,1357203,652350.00,1198543.75,1357028.25
653662,1199576,1357342,652438.63,1198607.00,1357047.75
653146,1200426,1357960,652523.88,1198671.75,1357068.12
654096,1200086,1357655,652604.13,1198739.25,1357091.12
654469,1200121,1357544,652683.69,1198809.25,1357116.00
654101,1199881,1357716,652765.75,1198880.00,1357141.25
654317,1199823,1357403,652848.94,1198950.25,1357166.50
654374,1199058,1357000,652932.88,1199017.25,1357190.00
653948,1198504,1356436,653016.63,1199077.12,1357209.25
652356,1197458,1355878,653095.31,1199126.00,1357220.50
652282,1197199,1355509,653162.44,1199160.75,1357221.12
651708,1196780,1355570,653214.44,1199177.87,1357209.87
651203,1196717,1355746,653249.44,1199176.00,1357187.75
649769,1196497,1355610,653263.69,1199155.75,1357156.37
649694,1196395,1355415,653253.19,1199118.75,1357116.75
649579,1196249,1355522,653217.88,1199066.00,1357070.00
648282,1196620,1355752,653159.00,1198999.87,1357017.50
649088,1196554,1355680,653077.63,1198923.25,1356961.50
648952,1196743,1355821,652976.00,1198838.75,1356903.00
648684,1196856,1355980,652857.63,1198748.12,1356843.50
648846,1196786,1355818,652725.25,1198652.75,1356784.00
649044,1197029,1356121,652581.13,1198555.00,1356725.37
649064,1196833,1355759,652427.75,1198456.62,1356667.87
648972,1197030,1355846,652267.50,1198358.75,1356611.25
649252,1197165,1355970,652102.63,1198262.50,1356555.75
649341,1197157,1355744,651935.75,1198169.12,1356502.00
647442,1197955,1356345,651767.00,1198080.25,1356450.25
649018,1197349,1355877,651594.75,1197997.25,1356402.00
649407,1197271,1355779,651422.75,1197919.62,1356356.00
649280,1197396,1355886,651255.19,1197846.75,1356311.50
649494,1197469,1355794,651093.44,1197779.00,1356268.62
649327,1197474,1355846,650938.25,1197716.75,1356227.50
649374,1197288,1355914,650789.88,1197659.75,1356188.25
648832,1197366,1355993,650645.50,1197607.12,1356151.75
649424,1197339,1355741,650503.00,1197558.87,1356117.75
649334,1197193,1355757,650366.13,1197514.50,1356085.50
649507,1197413,1355903,650238.25,1197473.12,1356054.50
649572,1197335,1355552,650119.75,1197434.75,1356024.62
649514,1197243,1355810,650011.00,1197399.75,1355995.75
649805,1197463,1355787,649911.88,1197368.25,1355968.25
649643,1197481,1355634,649823.00,1197340.75,1355942.50
649633,1197613,1355840,649743.75,1197317.75,1355918.12
650033,1197638,1355756,649674.00,1197299.50,1355895.50
649955,1197779,1356336,649614.00,1197286.12,1355875.00
650248,1197981,1355957,649564.00,1197278.25,1355856.75
650555,1198068,1356164,649524.94,1197276.12,1355841.50
650237,1198235,1356006,649496.75,1197280.25,1355829.75
650327,1198314,1356050,649475.56,1197290.75,1355821.00
650910,1198456,1356321,649458.88,1197307.50,1355815.50
650811,1198527,1356196,649450.94,1197330.62,1355813.50
649247,1198971,1356730,649451.88,1197360.50,1355814.87
650819,1198687,1356305,649458.31,1197397.12,1355819.25
651148,1198728,1356337,649472.38,1197439.50,1355826.50
651191,1198797,1356358,649496.50,1197486.50,1355836.50
651190,1198947,1356305,649530.19,1197537.62,1355848.37
650926,1199023,1356301,649571.56,1197593.00,1355862.00
651568,1199099,1356360,649619.69,1197652.37,1355877.50
650107,1199008,1356729,649673.63,1197715.50,1355895.25
651261,1199064,1356505,649731.25,1197781.37,1355915.75
651804,1199266,1356641,649793.13,1197849.62,1355939.12
651990,1199571,1356776,649861.88,1197919.75,1355964.37
651753,1199453,1356783,649937.38,1197991.75,1355991.75
651988,1199311,1356601,650018.13,1198065.50,1356021.00
652146,1199523,1356639,650103.63,1198140.25,1356051.50
652481,1199733,1356703,650193.25,1198216.25,1356082.75
652635,1199838,1356714,650286.25,1198294.50,1356114.87
652613,1199895,1356764,650384.06,1198374.50,1356147.62
652853,1200179,1357404,650487.19,1198456.50,1356181.00
652627,1200036,1356989,650594.69,1198539.50,1356215.25
652925,1200153,1356675,650705.38,1198624.00,1356250.00
653220,1200261,1356931,650819.38,1198709.62,1356285.00
653159,1200534,1357036,650934.38,1198796.87,1356320.25
653367,1200510,1357111,651047.38,1198886.12,1356356.50
653453,1200606,1357084,651161.38,1198977.00,1356393.87
653048,1201293,1357630,651276.31,1199069.75,1356432.00
652981,1200917,1357489,651388.44,1199165.25,1356471.25
653391,1200911,1357305,651498.44,1199262.62,1356512.25
653811,1201075,1357690,651609.44,1199361.00,1356554.75
653819,1200920,1357380,651722.75,1199459.75,1356598.37
653821,1200695,1357002,651838.13,1199557.50,1356642.12
653664,1199846,1356684,651954.13,1199650.75,1356683.50
651184,1198488,1355993,652068.13,1199735.12,1356719.25
652044,1197815,1355467,652175.19,1199804.62,1356745.87
651555,1197458,1355246,652269.63,1199853.50,1356760.50
650662,1197092,1355113,652347.00,1199879.12,1356762.50
649272,1196588,1354783,652402.13,1199881.37,1356751.75
648538,1196452,1354855,652429.06,1199860.00,1356728.50
648242,1196499,1354906,652425.19,1199816.50,1356694.25
647484,1196514,1355052,652390.88,1199754.00,1356651.12
647741,1196789,1355071,652327.75,1199675.50,1356601.00
647399,1196875,1354891,652238.00,1199584.75,1356545.37
647226,1197286,1355800,652123.63,1199484.75,1356484.62
647399,1197008,1355148,651987.44,1199378.00,1356420.25
647540,1196872,1355025,651833.63,1199265.87,1356353.50
647425,1197011,1355015,651666.00,1199150.00,1356285.25
647521,1197324,1355175,651486.56,1199032.37,1356215.87
647360,1197181,1355122,651297.13,1198915.12,1356146.75
647426,1197184,1355260,651100.63,1198799.25,1356078.62
647317,1197712,1355413,650899.13,1198685.37,1356012.12
647510,1197457,1355192,650693.81,1198575.25,1355947.62
647938,1197438,1355112,650488.81,1198469.50,1355885.00
647846,1197455,1355364,650288.25,1198369.00,1355824.37
647311,1197498,1355192,650092.50,1198273.37,1355766.12
647868,1197559,1355201,649901.38,1198183.37,1355710.50
647852,1197687,1355287,649716.75,1198099.50,1355657.87
647158,1197668,1355508,649540.25,1198022.37,1355608.87
647707,1197449,1355124,649372.19,1197951.75,1355563.75
647894,1197415,1355126,649212.38,1197886.25,1355521.50
647787,1197823,1355257,649061.13,1197825.25,1355481.00
647748,1197488,1355191,648918.44,1197768.75,1355442.50
647726,1197449,1354980,648783.88,1197716.75,1355406.25
647842,1197471,1355164,648657.63,1197669.00,1355371.62
648150,1197538,1355163,648540.31,1197625.50,1355339.37
648011,1197722,1355098,648432.50,1197586.62,1355309.50
648102,1197830,1355113,648334.25,1197553.25,1355281.75
648116,1198341,1355557,648245.75,1197525.75,1355256.12
648046,1197963,1355192,648166.50,1197504.00,1355232.87
648376,1198019,1355345,648096.38,1197488.00,1355212.25
648536,1198096,1355253,648036.19,1197478.00,1355194.50
648497,1198378,1355542,647986.13,1197474.00,1355180.00
648823,1198206,1355446,647945.88,1197476.12,1355169.00
648848,1198501,1355436,647915.94,1197484.25,1355161.50
648586,1198902,1355479,647896.25,1197498.50,1355156.50
648975,1198561,1355371,647886.00,1197518.75,1355153.00
649386,1198602,1355637,647885.38,1197544.50,1355151.50
649392,1198456,1355707,647895.00,1197574.75,1355153.12
649063,1198871,1355605,647913.88,1197608.87,1355157.50
649701,1198710,1355536,647940.75,1197647.25,1355164.25
649901,1198830,1355539,647976.63,1197689.37,1355173.00
649656,1199316,1355813,648021.25,1197735.50,1355184.00
649944,1198975,1355547,648073.13,1197786.12,1355197.25
650120,1198903,1355531,648132.13,1197840.00,1355211.87
650037,1199055,1355877,648198.38,1197895.50,1355227.25
650091,1198962,1355701,648270.50,1197952.50,1355243.62
650008,1198836,1355527,648347.25,1198010.00,1355260.75
650062,1198798,1355353,648427.38,1198067.00,1355278.00
650335,1199081,1355666,648510.25,1198123.50,1355294.50
650481,1199008,1355595,648595.88,1198180.50,1355311.25
650245,1198763,1355385,648684.31,1198237.00,1355327.87
650528,1199410,1355803,648774.75,1198291.00,1355343.00
650364,1199098,1355504,648866.63,1198343.12,1355356.50
650480,1198845,1355413,648959.13,1198393.75,1355368.75
650851,1199055,1355484,649052.44,1198442.50,1355380.37
651062,1199098,1355520,649147.50,1198489.50,1355391.12
651061,1199341,1355669,649244.75,1198536.00,1355401.75
651205,1199342,1355618,649344.06,1198582.50,1355412.75
651077,1199890,1355786,649445.50,1198629.12,1355424.00
651207,1199539,1355607,649548.75,1198676.25,1355435.12
651507,1199285,1355549,649653.13,1198723.37,1355446.00
651195,1198934,1355159,649757.63,1198769.00,1355455.75
650394,1197682,1354545,649859.50,1198808.75,1355462.12
649944,1197179,1354263,649954.00,1198836.87,1355461.50
648929,1196492,1353801,650036.31,1198849.25,1355452.00
646607,1195997,1353814,650100.25,1198844.00,1355432.37
645894,1195679,1353740,650137.63,1198820.00,1355403.00
644711,1195487,1353372,650140.50,1198776.87,1355364.50
644069,1195381,1353869,650104.31,1198714.87,1355316.75
642489,1195321,1353428,650026.50,1198635.87,1355260.75
641806,1195154,1353355,649904.25,1198541.75,1355198.00
641845,1195239,1353461,649738.44,1198434.25,1355129.25
641034,1195394,1353292,649530.38,1198316.25,1355056.00
640823,1195194,1353329,649281.00,1198190.50,1354978.75
640724,1195349,1353374,648996.75,1198058.25,1354898.50
640709,1195820,1353449,648685.50,1197921.37,1354815.62
640087,1195345,1353291,648351.25,1197781.25,1354730.50
640289,1195401,1353363,647997.19,1197639.75,1354644.50
640410,1195426,1353150,647628.13,1197498.25,1354558.50
640268,1195392,1353043,647248.81,1197358.25,1354472.62
640361,1195378,1353149,646862.63,1197220.25,1354386.75
640432,1195528,1353132,646473.88,1197085.25,1354301.62
638997,1195445,1353359,646085.25,1196954.25,1354217.75
640239,1195620,1353173,645698.13,1196828.00,1354135.62
640669,1195512,1353006,645316.50,1196707.12,1354055.50
640647,1195532,1353287,644944.88,1196591.75,1353977.62
640599,1195365,1353054,644585.25,1196482.00,1353902.00
640667,1195429,1352928,644238.88,1196377.25,1353828.87
640823,1195460,1352957,643907.13,1196277.75,1353758.00
640390,1195751,1353243,643591.13,1196184.25,1353690.00
640673,1195519,1353087,643291.00,1196097.25,1353626.00
640677,1195608,1352821,643006.81,1196016.50,1353565.25
640595,1195666,1353620,642738.75,1195942.25,1353506.75
640753,1195866,1353022,642486.88,1195874.75,1353450.37
640783,1195844,1353146,642251.63,1195815.00,1353397.37
641019,1195868,1353313,642033.56,1195762.37,1353348.75
641063,1196224,1353688,641830.88,1195718.12,1353306.00
641323,1196174,1353273,641642.13,1195683.50,1353269.50
641292,1196145,1352999,641470.25,1195657.25,1353237.75
641660,1196675,1353695,641317.88,1195637.50,1353208.50
641898,1196568,1353189,641185.75,1195624.12,1353182.00
641955,1196429,1353209,641074.00,1195618.00,1353158.50
642188,1196454,1353109,640982.00,1195618.87,1353137.75
642261,1196687,1353251,640908.00,1195626.12,1353119.75
642445,1196851,1353279,640849.75,1195640.25,1353104.62
642792,1196860,1353409,640808.88,1195661.25,1353092.75
641292,1197042,1353632,640786.88,1195689.12,1353084.25
642696,1197194,1353773,640782.50,1195724.25,1353079.87
643182,1197415,1353733,640794.06,1195766.50,1353080.50
642883,1197323,1353967,640820.25,1195815.25,1353085.50
643791,1197619,1353829,640860.63,1195870.12,1353094.25
643863,1197540,1353804,640916.25,1195930.50,1353106.75
644100,1197691,1353793,640987.13,1195996.00,1353123.00
644181,1198072,1354187,641071.75,1196066.50,1353143.00
644770,1198024,1354026,641169.25,1196142.00,1353167.25
644652,1198074,1353907,641279.88,1196222.50,1353195.00
644751,1198120,1354490,641402.63,1196307.12,1353225.25
644940,1198355,1354174,641535.63,1196395.37,1353258.00
645330,1198202,1353952,641678.31,1196487.00,1353293.25
645454,1198376,1354080,641830.50,1196581.00,1353329.75
645354,1198595,1354356,641988.88,1196677.75,1353367.75
645606,1198720,1354206,642150.00,1196778.75,1353408.00
645767,1198850,1354199,642315.38,1196882.75,1353449.37
645932,1199299,1353937,642486.63,1196988.50,1353491.75
646216,1199018,1354247,642663.19,1197095.87,1353534.50
646407,1199157,1354278,642844.94,1197204.50,1353577.75
646335,1199240,1354397,643030.94,1197314.50,1353621.00
646229,1199222,1354424,643217.00,1197425.50,1353664.87
646503,1199145,1354496,643399.63,1197536.50,1353709.12
646761,1198721,1354069,643581.19,1197645.75,1353753.12
645133,1197190,1353375,643763.56,1197749.25,1353794.37
645095,1196436,1352787,643942.00,1197840.25,1353829.25
644419,1195996,1352498,644109.00,1197912.25,1353853.75
643256,1195506,1352397,644257.75,1197961.75,1353865.25
641070,1194841,1351964,644379.94,1197987.00,1353863.50
640315,1194567,1351831,644466.13,1197987.00,1353848.37
639205,1194499,1351779,644511.25,1197962.37,1353820.37
637717,1194691,1352398,644512.69,1197915.75,1353781.87
637576,1194484,1351831,644469.00,1197850.00,1353735.62
637099,1194299,1351719,644380.63,1197767.37,1353681.62
637031,1194477,1352190,644250.13,1197669.75,1353620.25
636533,1194615,1351892,644081.25,1197560.00,1353553.25
636531,1194571,1352078,643877.81,1197441.25,1353482.25
636462,1194520,1351803,643644.38,1197315.50,1353408.50
635803,1194622,1351865,643385.63,1197185.00,1353332.50
636421,1194745,1351662,643105.81,1197052.50,1353254.00
636573,1194689,1351777,642810.00,1196919.12,1353173.75
636837,1195518,1351879,642503.38,1196785.00,1353092.25
636851,1195099,1351736,642190.88,1196651.87,1353010.75
636988,1195006,1351806,641876.13,1196522.00,1352929.50
637286,1195059,1351940,641562.88,1196396.37,1352849.75
637075,1195060,1351799,641251.63,1196275.75,1352772.12
637124,1195154,1351836,640942.06,1196160.50,1352696.87
637168,1195205,1352032,640638.44,1196051.25,1352624.50
637297,1195262,1351905,640345.44,1195948.62,1352555.12
637158,1195116,1351670,640064.63,1195852.50,1352488.00
636783,1195037,1351770,639795.25,1195762.25,1352423.00
637230,1194962,1352179,639537.00,1195677.25,1352360.62
637133,1194852,1351905,639291.13,1195596.87,1352301.25
637212,1194931,1351760,639058.56,1195520.87,1352245.12
637507,1195032,1351635,638840.25,1195449.62,1352192.25
637364,1195504,1352241,638636.88,1195384.25,1352142.50
637718,1195294,1352064,638448.94,1195326.50,1352097.87
637871,1195326,1351710,638277.31,1195275.75,1352057.75
638183,1195429,1352385,638123.13,1195231.37,1352020.62
637988,1195883,1352109,637986.50,1195194.37,1351986.37
638189,1195723,1351968,637866.63,1195165.62,1351956.12
638509,1196071,1351919,637763.50,1195145.25,1351929.75
638217,1196130,1351816,637677.38,1195134.25,1351906.25
638984,1196087,1352023,637608.81,1195133.50,1351885.50
639358,1196064,1351985,637558.25,1195140.50,1351867.75
639719,1196695,1352268,637526.81,1195154.00,1351852.75
639617,1196508,1352310,637514.25,1195174.25,1351840.75
639674,1196560,1352158,637518.88,1195201.50,1351832.75
640003,1196669,1352171,637539.19,1195235.50,1351828.12
640237,1196892,1352498,637574.13,1195276.25,1351827.25
640133,1196817,1352143,637622.13,1195323.62,1351830.00
640444,1196925,1352396,637682.88,1195376.75,1351835.87
640783,1197242,1352524,637756.75,1195434.75,1351844.87
640965,1197290,1352278,637844.00,1195497.75,1351857.00
641067,1197184,1352366,637943.75,1195565.50,1351871.37
641590,1197160,1353034,638055.38,1195637.50,1351887.25
641535,1197324,1352540,638178.75,1195712.50,1351904.75
641852,1197338,1352574,638312.88,1195790.25,1351924.37
641774,1197330,1352542,638456.38,1195870.00,1351946.25
641972,1197791,1353367,638606.13,1195952.25,1351971.00
642257,1197671,1352559,638759.38,1196037.50,1351998.75
642303,1197670,1352744,638918.00,1196125.25,1352028.75
642480,1197630,1353053,639083.00,1196213.87,1352059.62
642944,1198066,1352877,639254.06,1196303.37,1352091.50
642969,1198088,1352957,639431.25,1196394.50,1352125.00
643208,1198028,1352997,639614.00,1196487.25,1352160.62
643092,1198369,1352977,639801.13,1196580.75,1352198.00
643218,1198190,1352792,639991.25,1196674.87,1352236.50
643522,1197873,1352729,640183.25,1196768.50,1352274.75
643172,1196704,1352176,640375.94,1196858.75,1352311.12
642001,1195900,1351665,640565.00,1196940.25,1352343.00
641228,1195254,1351134,640743.13,1197006.00,1352366.25
640466,1194713,1350976,640903.94,1197051.37,1352378.25
638384,1194138,1350793,641041.88,1197074.25,1352378.75
636648,1193874,1350727,641148.13,1197073.62,1352367.75
635425,1193536,1350727,641211.44,1197049.50,1352346.00
634104,1193715,1350528,641226.50,1197003.00,1352314.25
633594,1193518,1350405,641192.63,1196936.00,1352272.37
633336,1193323,1350416,641109.13,1196851.50,1352221.50
633008,1193425,1350334,640978.50,1196751.62,1352163.12
632754,1193540,1350451,640805.00,1196639.12,1352098.62
632641,1193536,1350309,640593.19,1196517.00,1352029.12
632446,1193601,1350266,640347.88,1196387.50,1351955.25
631364,1194302,1351029,640071.75,1196253.50,1351878.87
632048,1193796,1350482,639767.25,1196118.25,1351802.00
632449,1193767,1350496,639441.25,1195982.25,1351725.00
632392,1193831,1350425,639101.50,1195846.25,1351647.75
632911,1194067,1350453,638753.56,1195711.75,1351570.50
633022,1193939,1350367,638402.88,1195580.50,1351494.00
632615,1194058,1350506,638053.06,1195453.00,1351418.50
632975,1194232,1350608,637704.50,1195330.50,1351345.00
633294,1194167,1350574,637359.63,1195214.50,1351274.75
633609,1194314,1350698,637024.13,1195105.00,1351207.75
633372,1194418,1350741,636702.00,1195002.25,1351144.12
633417,1194105,1350600,636393.75,1194905.50,1351083.75
633713,1194238,1350550,636100.38,1194814.75,1351026.75
633689,1194304,1350453,635823.25,1194730.25,1350972.75
633637,1194418,1350500,635563.19,1194652.75,1350921.50
633987,1194379,1350550,635320.50,1194582.25,1350873.37
633686,1194298,1350370,635095.50,1194518.25,1350828.00
634115,1194776,1351038,634887.63,1194461.00,1350785.50
634136,1194816,1350648,634697.31,1194410.75,1350746.75
634620,1194722,1350625,634525.75,1194368.62,1350711.87
634385,1194886,1350673,634373.75,1194334.50,1350680.62
634690,1195285,1351087,634239.56,1194309.00,1350653.75
635041,1195121,1351087,634122.25,1194292.50,1350632.25
635258,1195490,1351114,634024.00,1194285.00,1350616.87
633891,1196259,1351567,633944.06,1194286.87,1350607.00
635561,1195728,1351204,633879.88,1194298.75,1350602.37
635527,1195778,1351351,633833.00,1194319.75,1350603.00
636209,1195861,1351381,633805.25,1194349.12,1350608.50
636640,1196247,1351336,633798.00,1194386.75,1350618.25
636879,1196242,1351472,633811.94,1194432.75,1350632.25
637201,1196241,1351576,633846.88,1194486.62,1350650.62
637134,1196552,1351936,633899.19,1194547.62,1350674.12
637676,1196542,1351549,633965.38,1194615.50,1350702.75
637960,1196650,1351766,634048.13,1194689.50,1350735.25
637988,1196810,1352057,634149.31,1194769.25,1350771.00
638317,1196732,1351938,634267.25,1194853.50,1350810.00
638557,1196845,1351516,634400.88,1194942.00,1350851.50
638542,1196866,1351701,634548.75,1195033.75,1350894.00
638967,1196861,1351705,634708.88,1195128.12,1350937.25
639268,1196842,1351865,634880.13,1195224.12,1350981.25
639165,1196956,1351897,635062.13,1195320.87,1351026.25
639339,1197227,1352296,635253.38,1195418.25,1351072.50
639735,1197178,1351928,635452.44,1195516.00,1351119.62
639959,1197244,1351978,635659.19,1195614.25,1351167.25
639665,1197349,1351897,635872.13,1195713.00,1351215.00
639898,1197559,1352139,636085.75,1195812.25,1351262.75
640410,1197721,1352071,636296.38,1195912.62,1351310.75
640590,1197744,1352286,636508.75,1196014.25,1351359.25
639401,1198375,1352502,636724.00,1196117.50,1351408.25
640856,1198021,1352415,636939.50,1196223.12,1351458.25
641216,1197732,1352196,637156.81,1196329.50,1351508.50
640904,1197230,1351782,637377.13,1196433.37,1351557.62
640251,1196024,1350986,637596.75,1196529.50,1351601.75
639156,1195136,1350660,637809.25,1196611.37,1351636.75
638382,1194763,1350362,638007.25,1196673.62,1351660.62
634307,1193673,1350457,638182.50,1196714.50,1351673.00
634267,1193251,1350023,638323.63,1196731.75,1351674.00
633113,1193270,1349860,638420.25,1196723.50,1351663.25
632073,1192978,1349886,638467.00,1196690.50,1351640.37
630354,1192837,1349508,638460.13,1196634.25,1351605.50
629913,1192911,1349672,638397.06,1196557.50,1351559.87
629530,1192849,1349718,638279.44,1196462.75,1351505.62
629022,1193118,1349869,638110.88,1196353.25,1351444.75
628843,1192750,1349700,637895.38,1196231.75,1351379.00
628975,1192972,1349552,637638.94,1196100.00,1351308.62
628843,1193083,1350168,637348.75,1195960.50,1351233.87
628644,1192777,1349706,637030.13,1195814.75,1351155.75
628522,1193218,1349585,636687.69,1195665.25,1351075.75
628522,1193081,1349429,636325.88,1195514.00,1350994.25
628734,1193241,1349643,635947.38,1195363.50,1350911.37
629089,1193413,1349545,635556.13,1195215.00,1350828.50
629304,1193449,1349753,635160.75,1195070.50,1350746.50
629092,1194003,1350283,634766.38,1194931.50,1350666.25
628745,1193764,1349989,634373.25,1194799.75,1350589.00
629030,1193430,1349667,633984.56,1194675.50,1350515.37
629510,1193416,1350064,633605.50,1194557.12,1350444.37
629270,1193475,1349797,633239.63,1194444.50,1350375.50
629511,1193443,1349705,632888.50,1194337.62,1350310.00
629667,1193432,1349817,632553.69,1194236.75,1350248.00
628465,1193443,1349876,632236.81,1194142.25,1350189.87
629427,1193543,1349783,631938.00,1194054.50,1350136.00
629761,1193444,1349485,631656.94,1193973.12,1350085.62
629943,1193788,1349919,631394.69,1193897.75,1350037.50
630169,1193534,1349840,631152.63,1193828.12,1349992.25
630295,1193599,1349668,630931.56,1193764.50,1349950.25
630593,1193695,1349790,630732.13,1193707.25,1349911.75
630590,1194033,1349856,630553.69,1193657.00,1349876.75
631010,1194155,1350012,630395.69,1193615.00,1349845.75
631202,1194229,1349948,630259.50,1193581.87,1349819.37
630956,1194914,1350554,630145.31,1193557.37,1349797.25
631826,1194651,1350193,630052.50,1193541.62,1349780.00
632132,1194635,1350141,629982.56,1193535.25,1349767.50
632274,1194705,1350127,629936.25,1193537.75,1349759.25
632755,1194960,1350287,629911.63,1193548.75,1349755.00
632844,1194963,1350202,629907.25,1193568.50,1349754.50
632961,1195156,1350176,629923.44,1193596.50,1349757.50
633215,1195951,1350226,629958.63,1193632.75,1349763.37
633129,1195471,1350460,630009.75,1193678.25,1349772.00
633633,1195252,1350259,630077.19,1193731.00,1349783.87
634134,1195409,1350492,630162.75,1193789.62,1349798.50
633425,1195409,1350420,630265.00,1193852.87,1349815.87
634085,1195634,1350534,630381.00,1193920.50,1349835.75
634421,1195786,1350501,630509.81,1193992.62,1349858.25
634236,1195849,1350806,630651.75,1194069.25,1349883.25
634815,1195761,1350713,630805.75,1194149.75,1349911.50
635318,1195847,1350869,630971.38,1194233.00,1349942.75
635687,1196349,1350708,631149.25,1194318.62,1349976.25
635842,1196235,1350646,631339.00,1194407.12,1350011.25
636091,1196238,1350783,631539.63,1194498.50,1350047.00
636090,1196125,1350648,631749.63,1194591.75,1350083.50
636642,1196563,1351182,631967.19,1194686.25,1350121.12
637018,1196764,1351086,632192.13,1194783.00,1350161.00
637225,1196897,1350919,632425.19,1194882.62,1350202.75
637329,1197532,1351780,632665.88,1194985.25,1350245.50
637527,1197439,1351498,632912.56,1195091.25,1350290.00
637957,1197289,1351322,633164.63,1195201.12,1350337.12
638012,1197112,1351285,633421.38,1195313.25,1350386.25
637608,1196222,1350749,633681.06,1195424.12,1350435.12
637042,1195299,1350216,633938.94,1195527.87,1350480.50
636145,1194623,1349837,634188.81,1195618.25,1350519.00
632997,1194018,1349189,634423.06,1195691.00,1350548.00
632015,1193042,1348938,634630.38,1195742.87,1350565.75
630861,1192474,1348922,634797.50,1195769.75,1350570.50
629227,1192201,1348867,634915.25,1195770.00,1350562.00
627050,1191986,1348595,634976.63,1195744.12,1350540.50
626198,1191860,1348492,634975.25,1195694.00,1350507.00
625364,1191720,1348515,634909.81,1195621.62,1350463.00
624504,1192063,1348875,634782.63,1195529.62,1350410.50
624483,1191702,1348517,634597.50,1195420.75,1350351.62
624150,1191724,1348637,634360.00,1195297.75,1350287.00
624060,1191690,1348855,634076.13,1195163.00,1350217.62
623839,1191752,1348492,633752.00,1195019.12,1350144.37
623830,1191697,1348411,633393.69,1194868.12,1350067.75
623617,1191711,1348320,633007.06,1194711.75,1349988.00
623799,1191948,1348750,632597.31,1194552.50,1349906.25
624054,1191845,1348509,632170.25,1194393.37,1349824.25
624274,1192160,1348549,631733.38,1194235.50,1349743.00
624496,1192685,1349202,631293.13,1194080.50,1349662.50
624528,1192517,1348747,630854.44,1193930.75,1349584.25
624873,1192530,1348824,630421.44,1193787.62,1349508.75
625125,1192612,1348809,629998.50,1193652.25,1349437.25
624974,1192472,1348915,629588.63,1193524.75,1349369.50
625215,1192358,1348854,629193.94,1193404.62,1349306.25
625290,1192321,1348922,628816.13,1193291.00,1349247.12
625003,1192692,1348910,628456.50,1193183.75,1349192.00
625230,1192430,1348595,628115.50,1193083.25,1349139.50
625283,1192500,1348654,627793.50,1192989.87,1349089.50
625673,1192490,1348993,627491.44,1192903.75,1349042.12
625675,1192648,1348830,627210.81,1192824.87,1348998.12
625959,1192801,1348898,626952.38,1192754.00,1348958.00
626041,1192670,1348800,626716.56,1192691.25,1348922.00
626163,1193260,1349142,626503.56,1192636.75,1348890.00
626628,1193285,1349072,626313.69,1192591.50,1348863.00
626782,1193236,1348795,626147.75,1192556.25,1348840.25
627306,1193641,1349470,626006.69,1192530.00,1348820.75
627748,1193581,1349308,625891.50,1192512.75,1348805.25
627752,1193801,1349313,625802.63,1192505.25,1348794.75
628183,1193982,1349258,625739.13,1192507.87,1348789.25
628366,1194495,1349398,625697.50,1192521.75,1348788.00
628884,1194399,1349628,625674.88,1192548.00,1348791.75
629125,1194496,1349624,625674.88,1192585.12,1348800.62
629141,1194967,1350198,625699.69,1192631.62,1348814.50
629430,1194772,1349720,625747.25,1192686.25,1348832.62
630030,1194813,1349624,625816.81,1192749.25,1348854.62
630317,1194884,1349875,625908.44,1192820.00,1348880.25
630868,1195277,1349912,626020.94,1192898.25,1348909.75
630933,1195197,1350000,626152.50,1192983.75,1348943.25
631103,1195251,1349831,626302.75,1193075.50,1348980.00
629620,1195455,1350415,626469.38,1193172.75,1349019.37
631484,1195526,1350127,626649.38,1193274.87,1349061.25
631941,1195533,1350077,626843.00,1193381.25,1349105.50
631987,1195644,1350253,627050.50,1193491.25,1349152.00
632360,1195904,1350245,627270.38,1193604.25,1349199.87
632600,1195881,1350398,627501.50,1193720.50,1349249.75
632916,1196021,1350191,627743.00,1193839.00,1349301.62
633262,1196761,1350614,627993.31,1193959.50,1349355.00
633573,1196463,1350742,628251.44,1194081.75,1349410.75
633662,1196397,1350750,628517.13,1194206.37,1349469.62
633837,1196468,1351327,628789.38,1194332.50,1349530.50
634197,1196709,1350862,629067.06,1194459.87,1349592.50
634283,1196690,1350710,629349.13,1194588.25,1349655.75
634831,1196864,1350627,629635.13,1194717.12,1349719.25
635073,1197395,1351060,629922.63,1194847.75,1349783.00
635368,1197167,1350950,630209.25,1194981.00,1349847.62
635716,1197416,1351188,630497.63,1195115.75,1349913.37
635958,1198032,1351558,630790.25,1195251.50,1349980.50
636113,1197616,1351296,631086.25,1195388.00,1350049.00
636207,1197099,1350944,631384.13,1195523.75,1350118.00
635965,1196190,1350389,631681.81,1195654.50,1350184.50
633913,1194475,1349491,631973.50,1195772.25,1350244.00
633070,1193785,1348921,632249.13,1195868.75,1350291.75
632085,1193241,1349046,632499.00,1195938.87,1350325.00
627590,1192534,1348783,632715.50,1195981.50,1350344.25
627468,1192119,1348406,632887.88,1195995.50,1350349.87
626717,1191946,1348292,633004.63,1195980.75,1350341.12
625071,1192045,1348675,633060.06,1195938.75,1350318.50
624382,1191861,1348342,633052.25,1195872.62,1350283.75
623892,1191576,1348267,632982.38,1195784.62,1350238.75
623723,1191674,1348362,632854.69,1195676.87,1350184.75
623384,1192144,1348827,632675.38,1195552.25,1350124.50
623533,1191972,1348385,632451.13,1195414.87,1350060.00
623498,1191745,1348434,632188.00,1195267.50,1349991.87
623516,1191824,1348887,631892.31,1195112.25,1349920.25
623337,1192007,1348467,631569.63,1194951.25,1349846.00
623596,1192080,1348510,631225.31,1194787.37,1349770.37
623670,1192034,1348352,630865.25,1194622.75,1349694.00
623886,1192525,1348765,630492.81,1194460.00,1349617.75
624389,1192520,1348605,630111.88,1194302.25,1349543.25
624502,1192423,1348554,629730.88,1194150.25,1349470.75
624448,1193180,1348842,629356.00,1194003.87,1349400.12
624824,1192649,1348685,628989.88,1193863.87,1349332.25
625202,1192827,1348803,628636.31,1193731.62,1349267.50
625073,1192681,1348811,628298.13,1193607.75,1349207.00
624694,1192626,1348859,627973.44,1193491.75,1349150.62
625192,1192756,1348714,627660.13,1193383.25,1349098.50
624783,1192681,1348725,627361.63,1193282.62,1349049.87
624628,1192865,1349359,627080.75,1193189.25,1349004.62
625656,1192861,1348802,626818.88,1193103.50,1348963.00
625674,1192726,1348708,626578.38,1193025.25,1348924.75
626053,1193078,1348864,626360.00,1192955.00,1348889.75
626308,1193059,1348978,626164.88,1192893.12,1348858.62
626566,1193159,1349051,625993.63,1192840.00,1348831.75
626701,1193473,1349047,625846.44,1192796.00,1348809.62
626887,1193890,1349882,625722.88,1192761.75,1348793.25
627270,1193872,1349418,625622.81,1192738.00,1348784.50
627678,1194078,1349348,625546.63,1192725.12,1348782.12
628260,1194193,1349918,625495.25,1192723.50,1348784.50
627920,1194506,1349538,625468.50,1192733.25,1348791.87
628549,1194565,1349771,625464.50,1192754.25,1348804.25
628925,1194553,1349735,625483.13,1192786.00,1348821.75
628767,1195033,1350023,625524.00,1192828.00,1348844.50
629851,1195096,1349890,625586.69,1192881.00,1348872.50
629843,1195163,1350078,625671.44,1192944.25,1348905.00
630250,1195719,1350190,625777.50,1193016.37,1348942.12
630596,1195480,1350167,625903.75,1193097.12,1348983.25
630840,1195547,1350238,626049.38,1193185.75,1349028.37
631063,1195711,1350280,626212.88,1193281.37,1349077.00
631183,1195782,1350447,626390.19,1193383.37,1349129.00
631517,1195887,1350174,626577.44,1193491.00,1349183.75
631716,1195880,1350479,626776.25,1193603.50,1349240.50
632255,1196258,1350569,626988.25,1193719.50,1349299.00
632390,1196174,1350445,627212.63,1193838.75,1349358.75
632082,1196066,1350586,627447.38,1193960.25,1349419.62
632783,1196150,1351081,627690.38,1194083.37,1349481.75
633095,1196379,1350624,627941.50,1194207.50,1349544.87
633279,1196484,1350472,628200.63,1194332.62,1349608.25
633490,1196620,1350711,628466.63,1194458.87,1349671.50
633948,1197032,1351524,628738.50,1194586.50,1349735.50
634531,1197004,1351200,629016.63,1194716.37,1349802.50
634515,1197107,1351085,629301.38,1194848.00,1349872.00
634573,1197111,1351679,629591.00,1194980.37,1349942.25
634916,1197460,1351311,629883.63,1195113.50,1350012.75
635419,1197604,1351300,630179.06,1195247.87,1350083.75
635391,1197594,1351521,630477.25,1195383.50,1350155.75
635288,1197937,1351390,630777.38,1195520.25,1350228.75
635920,1197766,1351473,631078.88,1195658.25,1350302.00
636290,1197719,1351558,631381.06,1195796.00,1350375.25
636139,1197071,1351052,631682.75,1195931.50,1350448.00
635200,1196051,1350465,631980.25,1196060.12,1350517.12
634751,1195064,1349979,632267.38,1196174.50,1350578.37
633723,1194292,1349353,632537.88,1196267.62,1350627.75
631078,1193312,1348968,632784.50,1196335.00,1350662.62
629191,1192800,1348904,632995.44,1196373.25,1350681.50
627833,1192325,1348669,633156.88,1196381.00,1350685.00
625589,1192216,1348664,633260.88,1196358.25,1350673.62
624548,1191931,1348423,633302.63,1196307.00,1350648.37
623886,1192056,1348412,633278.13,1196229.87,1350610.25
623433,1191952,1349187,633188.13,1196131.00,1350560.50
623533,1192054,1348652,633038.38,1196013.50,1350501.12
623392,1192109,1348684,632836.19,1195880.62,1350434.87
623363,1191986,1348498,632588.88,1195735.37,1350363.25
623386,1192544,1349038,632300.63,1195581.00,1350287.37
623585,1192280,1348547,631976.38,1195421.00,1350209.00
623649,1192331,1348569,631626.00,1195257.50,1350128.50
623617,1192335,1348882,631258.13,1195091.62,1350046.00
623970,1192512,1348565,630878.25,1194925.25,1349962.87
624050,1192505,1348656,630491.81,1194760.50,1349879.50
624263,1192708,1348684,630103.88,1194599.00,1349797.00
624408,1192901,1348753,629718.19,1194443.12,1349716.00
624816,1192900,1348707,629338.88,1194295.00,1349637.25
624910,1192938,1348754,628970.00,1194154.50,1349561.00
624758,1192890,1348968,628614.31,1194021.50,1349487.50
624975,1192891,1348919,628272.75,1193895.75,1349417.00
625204,1192908,1348717,627947.13,1193777.25,1349350.25
625594,1192789,1348811,627639.88,1193666.00,1349287.12
625401,1192960,1348872,627352.38,1193562.00,1349228.00
625418,1193001,1348773,627084.38,1193465.50,1349172.87
625495,1193017,1348957,626835.50,1193376.75,1349121.75
625784,1193526,1348999,626606.63,1193296.00,1349075.25
625971,1193322,1348817,626398.75,1193223.25,1349032.62
626382,1193428,1348922,626212.63,1193159.62,1348993.75
626530,1193424,1349007,626049.13,1193105.25,1348958.87
626862,1193901,1349286,625908.63,1193060.37,1348928.75
627126,1194008,1349398,625791.50,1193026.25,1348904.62
627286,1193989,1349163,625697.63,1193003.25,1348886.25
626279,1195006,1349869,625624.13,1192991.25,1348873.75
627803,1194730,1349484,625568.31,1192991.50,1348867.75
628356,1194574,1349609,625533.50,1193004.00,1348867.87
628578,1194711,1349724,625522.88,1193027.00,1348873.00
629198,1195074,1349791,625536.50,1193060.00,1348883.37
629520,1195104,1349791,625574.75,1193103.37,1348898.75
629224,1195081,1350014,625636.25,1193156.00,1348919.37
629977,1195384,1350140,625716.88,1193217.00,1348945.50
630439,1195404,1350090,625814.88,1193285.25,1348976.87
630718,1195621,1349974,625932.94,1193361.00,1349012.50
630980,1195817,1350234,626072.13,1193443.87,1349051.37
631119,1195716,1349941,626230.75,1193532.87,1349092.62
631247,1196000,1350294,626406.44,1193627.50,1349136.00
631421,1196056,1350153,626597.00,1193728.00,1349181.87
632092,1196293,1350396,626801.13,1193834.12,1349230.25
632412,1196214,1350346,627018.63,1193945.25,1349280.75
632589,1196405,1350344,627249.38,1194060.37,1349333.50
632803,1196630,1350923,627492.31,1194179.00,1349387.50
633062,1196531,1350591,627745.75,1194300.75,1349443.00
633348,1196497,1350422,628008.44,1194424.37,1349499.75
633502,1196572,1350309,628279.13,1194549.00,1349556.75
633758,1196974,1350766,628554.63,1194674.25,1349613.50
634155,1197066,1350720,628832.38,1194801.12,1349671.00
634291,1197229,1350736,629114.13,1194929.75,1349729.75
633066,1198135,1351777,629398.56,1195060.75,1349789.50
634642,1197834,1351111,629682.25,1195195.00,1349851.00
634613,1197966,1351179,629966.38,1195332.75,1349914.50
635407,1197959,1351397,630252.75,1195473.37,1349980.00
635808,1198373,1351419,630542.50,1195616.50,1350047.50
635998,1198356,1351527,630836.44,1195762.25,1350117.25
636127,1198063,1351218,631133.50,1195909.37,1350188.25
635381,1196678,1350690,631430.13,1196054.75,1350258.00
635253,1195798,1349943,631720.69,1196192.25,1350322.37
634405,1195080,1349458,632001.13,1196312.75,1350377.00
633524,1194041,1349204,632266.13,1196410.50,1350418.75
631293,1193465,1348975,632506.88,1196481.75,1350446.62
629999,1193071,1348658,632712.13,1196523.75,1350460.25
628807,1192851,1348763,632873.75,1196535.75,1350459.87
627191,1192489,1348529,632987.00,1196519.25,1350446.50
626720,1192382,1348556,633049.00,1196475.50,1350421.12
626466,1192666,1348646,633059.00,1196407.75,1350385.12
626398,1192533,1349109,633020.00,1196320.12,1350340.37
626291,1192634,1348655,632937.00,1196216.00,1350288.25
626170,1192751,1348607,632815.06,1196098.12,1350230.25
626216,1192858,1348577,632659.13,1195969.50,1350167.25
625890,1193123,1348689,632471.50,1195833.50,1350100.12
626500,1193224,1348541,632255.25,1195693.25,1350030.25
626567,1193295,1348890,632019.13,1195551.25,1349958.50
625519,1194138,1349440,631769.25,1195410.25,1349886.75
627287,1193916,1349202,631509.13,1195273.50,1349817.25
627382,1193853,1349104,631246.00,1195142.50,1349750.87
627866,1194039,1349442,630986.25,1195018.00,1349687.50
628476,1194202,1349230,630734.38,1194900.75,1349627.50
627900,1194215,1349175,630493.31,1194791.87,1349571.00
628459,1194156,1349088,630263.63,1194691.25,1349518.37
627376,1194094,1349616,630045.13,1194599.00,1349469.75
628286,1194084,1349339,629837.56,1194514.75,1349426.62
628835,1194096,1349251,629642.88,1194437.50,1349388.12
628790,1194272,1349541,629464.00,1194366.62,1349353.37
629156,1194179,1349349,629301.88,1194302.00,1349322.00
629095,1194033,1349099,629156.94,1194243.25,1349294.00
629156,1193970,1349270,629028.75,1194190.12,1349268.62
629736,1194252,1349498,628916.31,1194142.25,1349246.25
629623,1194290,1349408,628819.50,1194100.25,1349227.75
629712,1194625,1349419,628739.13,1194065.25,1349213.00
629967,1195145,1349911,628675.50,1194037.87,1349201.25
630655,1195040,1349475,628629.69,1194019.25,1349192.25
630891,1195035,1349682,628603.25,1194009.62,1349186.62
630980,1195235,1349741,628596.31,1194009.12,1349185.00
631303,1195475,1350085,628605.44,1194017.75,1349188.00
631764,1195746,1349987,628628.25,1194036.00,1349196.50
632050,1195839,1349900,628668.38,1194064.25,1349209.87
632121,1196646,1350277,628726.50,1194103.12,1349227.25
632204,1196418,1350311,628799.50,1194153.25,1349249.50
632849,1196367,1350327,628888.31,1194214.00,1349276.50
633251,1196322,1350754,628995.25,1194283.50,1349307.87
633459,1196776,1350501,629120.38,1194360.50,1349343.00
633774,1196710,1350416,629262.81,1194445.37,1349381.75
634022,1196896,1350464,629421.50,1194537.37,1349423.75
632844,1196783,1350974,629594.50,1194635.87,1349469.25
634373,1196975,1350708,629779.88,1194740.12,1349519.00
634800,1197078,1350538,629977.13,1194848.87,1349571.75
635044,1197281,1350858,630186.13,1194960.75,1349625.87
635050,1197193,1350595,630405.75,1195075.25,1349680.25
635524,1197210,1350654,630634.44,1195191.25,1349735.00
635609,1197386,1350563,630871.38,1195308.87,1349789.75
635848,1197384,1351066,631114.81,1195427.50,1349844.87
636155,1197386,1350928,631363.00,1195546.50,1349901.25
636376,1197456,1350870,631616.38,1195665.25,1349958.75
636508,1198074,1351590,631874.63,1195783.00,1350016.25
636776,1197864,1351096,632136.81,1195900.25,1350073.25
637065,1197943,1351070,632402.19,1196017.75,1350130.75
637279,1198105,1351171,632670.44,1196135.50,1350188.37
637323,1198419,1351242,632939.88,1196254.25,1350246.37
637792,1198337,1351464,633208.88,1196374.25,1350305.12
638203,1198649,1351401,633478.88,1196495.12,1350365.00
637810,1198764,1351056,633749.75,1196617.50,1350425.37
637941,1197980,1350843,634018.00,1196739.87,1350484.37
637750,1197029,1350290,634282.25,1196856.87,1350539.00
637001,1196000,1349575,634539.88,1196961.25,1350585.50
634230,1194521,1349168,634781.63,1197045.62,1350620.75
633857,1194085,1348835,634995.38,1197103.50,1350641.75
632796,1193568,1348589,635174.38,1197132.50,1350647.25
629865,1193169,1348672,635314.88,1197133.00,1350637.75
629223,1192671,1348295,635409.50,1197105.87,1350614.00
628592,1192636,1348256,635451.00,1197051.25,1350576.62
628282,1192824,1348508,635438.00,1196970.37,1350526.37
627543,1192780,1348361,635373.38,1196867.25,1350465.00
627516,1192813,1348509,635260.38,1196745.87,1350395.12
627384,1192773,1348416,635103.75,1196609.75,1350319.25
627350,1192932,1348678,634909.13,1196462.00,1350239.00
627465,1193064,1348347,634682.25,1196305.75,1350155.75
627573,1192967,1348484,634429.13,1196143.50,1350069.87
627477,1193693,1348693,634155.13,1195977.50,1349982.00
627730,1193417,1348603,633865.06,1195809.75,1349893.62
627985,1193477,1348680,633564.13,1195643.50,1349806.00
628264,1193468,1348598,633257.75,1195480.75,1349720.00
628775,1193775,1348777,632950.31,1195323.00,1349636.37
629118,1193935,1348674,632646.25,1195172.00,1349555.87
629239,1193855,1348713,632350.75,1195029.50,1349478.62
628618,1194313,1348848,632066.88,1194895.25,1349404.50
629231,1193860,1348849,631795.75,1194769.62,1349334.00
629436,1193841,1348561,631538.13,1194652.25,1349267.00
629516,1193682,1349075,631295.06,1194542.37,1349203.50
629557,1193881,1348777,631067.44,1194439.75,1349143.12
629628,1193837,1348902,630855.50,1194344.62,1349087.25
629736,1193822,1348638,630659.44,1194257.00,1349035.75
629510,1193990,1348948,630479.19,1194176.75,1348988.50
629943,1193921,1348588,630314.50,1194103.50,1348945.25
630086,1194047,1348705,630166.00,1194037.75,1348905.25
630498,1194793,1349286,630034.88,1193979.50,1348868.25
631026,1194655,1349186,629922.75,1193929.50,1348834.62
630940,1194545,1348946,629830.75,1193889.37,1348806.12
631122,1194799,1349089,629758.06,1193859.37,1348782.62
631715,1195054,1349259,629702.31,1193840.25,1348764.25
632038,1195148,1349197,629662.75,1193832.75,1348751.25
632125,1195239,1349223,629642.38,1193836.25,1348743.12
632367,1196027,1349722,629642.88,1193849.75,1348739.25
632717,1195867,1349704,629663.38,1193873.50,1348739.75
633216,1195840,1349480,629704.13,1193908.37,1348745.50
633386,1195927,1349704,629765.19,1193953.50,1348756.87
633933,1196430,1349725,629845.75,1194008.37,1348773.50
634217,1196332,1349775,629945.00,1194073.50,1348795.12
634383,1196388,1349862,630063.06,1194147.75,1348821.50
633877,1196718,1350108,630199.13,1194229.87,1348852.37
634854,1196852,1350218,630351.88,1194319.50,1348888.12
635119,1196653,1349929,630519.75,1194416.00,1348928.50
635411,1196918,1350211,630701.75,1194518.50,1348972.50
635784,1197105,1350301,630896.88,1194626.37,1349020.00
635927,1197271,1350157,631104.50,1194739.75,1349070.75
636109,1197214,1350125,631323.13,1194857.87,1349123.75
636144,1197590,1350412,631550.88,1194979.62,1349178.50
636434,1197312,1350251,631785.75,1195104.00,1349235.00
636660,1197370,1350319,632027.00,1195230.00,1349292.75
636745,1197491,1350965,632273.56,1195357.00,1349351.25
636921,1197835,1350392,632524.13,1195485.00,1349410.25
637134,1197819,1350603,632777.50,1195614.75,1349470.00
637464,1197986,1350565,633033.25,1195745.62,1349530.50
637716,1198242,1350645,633288.13,1195878.25,1349591.75
637468,1198444,1350763,633538.13,1196013.50,1349653.50
637970,1198479,1350659,633785.75,1196150.75,1349715.87
638455,1199320,1351538,634034.88,1196289.50,1349778.25
638751,1199143,1351122,634286.75,1196429.62,1349841.00
638825,1198826,1351054,634541.38,1196571.75,1349905.00
639197,1198345,1350788,634798.13,1196713.50,1349969.62
638011,1196510,1349458,635055.13,1196848.00,1350030.75
637082,1195321,1348981,635306.50,1196965.50,1350082.00
636132,1194443,1348537,635542.50,1197057.75,1350119.50
632412,1193576,1348305,635755.13,1197120.50,1350141.37
632259,1193112,1347996,635934.88,1197151.87,1350147.12
631206,1193025,1347797,636070.00,1197151.25,1350136.75
630532,1192740,1347939,636154.38,1197120.00,1350110.75
628730,1192424,1347725,636185.63,1197060.50,1350071.37
628362,1192436,1347751,636161.25,1196974.50,1350019.75
628082,1192467,1347874,636082.88,1196865.50,1349957.75
627512,1192775,1348046,635955.00,1196737.50,1349888.00
627837,1192741,1347824,635782.94,1196594.75,1349812.12
627742,1192649,1347742,635572.56,1196440.37,1349730.87
628059,1192712,1348433,635330.38,1196276.50,1349645.37
627880,1192723,1347980,635062.38,1196105.87,1349557.50
628032,1192895,1347864,634774.00,1195930.75,1349468.50
627952,1192802,1347964,634469.63,1195753.50,1349378.50
628070,1193234,1347827,634151.06,1195576.75,1349288.25
628529,1193283,1348096,633821.06,1195403.50,1349198.62
628813,1193460,1348156,633488.25,1195235.50,1349111.00
629011,1194209,1348443,633160.06,1195074.25,1349026.75
629443,1193916,1348331,632840.44,1194921.25,1348946.37
629751,1193650,1348362,632533.19,1194777.62,1348870.75
629714,1193749,1348269,632241.00,1194643.25,1348800.12
629546,1193749,1348208,631962.50,1194518.00,1348733.75
629918,1193785,1348172,631696.13,1194402.00,1348671.50
630126,1193731,1348313,631445.81,1194294.75,1348613.12
628420,1193876,1348535,631214.56,1194196.00,1348558.75
629992,1193818,1348285,631001.88,1194105.50,1348508.12
630330,1193721,1348171,630807.25,1194023.12,1348461.25
630324,1193821,1348288,630631.50,1193948.50,1348418.00
630726,1194078,1348452,630474.75,1193882.00,1348378.25
630938,1194259,1348531,630337.94,1193824.50,1348343.50
631217,1194364,1348372,630221.63,1193776.75,1348313.75
631472,1194708,1348756,630125.44,1193739.25,1348288.87
631692,1194627,1348774,630048.63,1193712.00,1348269.62
632225,1194810,1348615,629992.56,1193695.00,1348256.00
632387,1194983,1349430,629958.75,1193688.12,1348247.25
632473,1195221,1349005,629946.50,1193691.50,1348243.62
632780,1195413,1349135,629954.63,1193705.75,1348245.75
633174,1195408,1349061,629982.63,1193730.62,1348253.75
633165,1195933,1349204,630029.25,1193765.87,1348267.25
633754,1196098,1349211,630093.25,1193812.75,1348285.50
634168,1196162,1349347,630175.50,1193870.75,1348308.75
634699,1196921,1349541,630277.63,1193938.50,1348336.50
635007,1196605,1349532,630399.63,1194015.12,1348368.50
635162,1196581,1349454,630540.81,1194100.75,1348404.87
635380,1196844,1349459,630699.38,1194195.00,1348444.75
635581,1196926,1349668,630870.94,1194297.25,1348487.62
635872,1196943,1350005,631051.88,1194406.50,1348534.50
636132,1197050,1349939,631244.19,1194521.87,1348585.75
636063,1197566,1349994,631449.75,1194642.25,1348641.12
636673,1197403,1350094,631667.75,1194767.00,1348699.37
637068,1197310,1350012,631897.00,1194895.87,1348760.37
637041,1197369,1350397,632136.44,1195027.50,1348823.50
637303,1197686,1350255,632384.25,1195161.25,1348888.12
637427,1197861,1350125,632638.75,1195297.75,1348954.50
637504,1197692,1350185,632898.31,1195436.25,1349021.87
637589,1198125,1350852,633160.94,1195575.75,1349091.00
638134,1198128,1350289,633425.56,1195716.25,1349162.75
638315,1198254,1350545,633692.75,1195857.75,1349235.75
638488,1198354,1350851,633962.38,1196000.25,1349309.00
638591,1198811,1350640,634233.38,1196143.75,1349382.12
638994,1198743,1350671,634505.06,1196289.00,1349455.50
639225,1198788,1350710,634777.38,1196435.50,1349529.00
638425,1198745,1350602,635050.00,1196582.75,1349602.25
639166,1198380,1350459,635321.31,1196729.87,1349674.25
639161,1197284,1349759,635589.13,1196871.50,1349742.37
638095,1195552,1348804,635849.75,1196999.75,1349802.50
636240,1194583,1348244,636094.75,1197106.37,1349849.12
635179,1193919,1347975,636313.50,1197184.00,1349879.37
634011,1193351,1347660,636498.13,1197228.75,1349892.00
631639,1192765,1347642,636641.69,1197239.75,1349887.50
630682,1192622,1347260,636736.13,1197217.50,1349866.25
629910,1192511,1347232,636776.50,1197164.25,1349829.12
629015,1192689,1347353,636762.50,1197083.12,1349777.25
628741,1192556,1347495,636696.25,1196977.25,1349713.25
628691,1192456,1347281,636580.88,1196850.75,1349639.50
628594,1192539,1348084,636421.25,1196707.25,1349557.75
628650,1192725,1347585,636223.25,1196550.25,1349469.87
628859,1192783,1347471,635993.50,1196383.50,1349378.00
628964,1192836,1347465,635738.25,1196209.75,1349283.25
629031,1193347,1348094,635461.56,1196032.75,1349187.25
629286,1193215,1347758,635167.13,1195855.75,1349091.75
629368,1193229,1347661,634862.06,1195680.37,1348997.75
629629,1193321,1348231,634552.88,1195507.75,1348905.00
629648,1193847,1348114,634243.56,1195340.25,1348814.62
630041,1193580,1347801,633937.56,1195179.87,1348728.25
630348,1193686,1347876,633638.75,1195027.25,1348646.00
630171,1193685,1347755,633350.31,1194883.25,1348567.25
630515,1193621,1347689,633074.00,1194748.75,1348492.00
630861,1193712,1347785,632811.63,1194622.75,1348420.00
630671,1193517,1347867,632564.88,1194504.00,1348351.50
630644,1193489,1347548,632333.38,1194392.00,1348286.00
630937,1193478,1347839,632117.31,1194286.37,1348223.50
630892,1193482,1347832,631917.38,1194187.25,1348165.12
631029,1193723,1347596,631733.00,1194095.00,1348110.62
631062,1193908,1347726,631563.69,1194010.75,1348059.50
631351,1193749,1347648,631410.38,1193935.00,1348011.62
631607,1194378,1348019,631274.31,1193867.25,1347967.00
631627,1194367,1347880,631155.50,1193808.00,1347926.25
632067,1194466,1348099,631054.63,1193759.00,1347890.00
632484,1194530,1348083,630972.94,1193721.00,1347859.25
632750,1194881,1348306,630911.56,1193693.75,1347834.25
632987,1194811,1348041,630870.75,1193677.75,1347814.75
633197,1195095,1348399,630850.25,1193672.50,1347800.25
632848,1195859,1349032,630846.63,1193678.87,1347792.00
633927,1195592,1348759,630857.38,1193698.12,1347791.50
634123,1195513,1348542,630886.13,1193729.12,1347797.87
634194,1195456,1348560,630935.00,1193769.50,1347809.50
634828,1195833,1348623,631002.88,1193818.25,1347825.25
635004,1195972,1348770,631090.00,1193875.62,1347845.25
635390,1196107,1348728,631195.94,1193941.75,1347869.37
635487,1196245,1348900,631317.63,1194016.00,1347897.25
635765,1196264,1348876,631451.88,1194098.25,1347929.00
