485659,1074175,1128031,484646.22,1071922.50,1126849.12
485848,1075518,1128459,484618.50,1071895.87,1126844.00
486163,1075392,1128784,484601.81,1071893.62,1126851.00
486452,1075791,1129045,484597.66,1071916.87,1126870.87
486447,1075901,1129699,484607.03,1071965.25,1126904.37
486501,1076771,1129756,484628.88,1072038.25,1126951.87
486853,1077129,1129861,484662.41,1072136.25,1127013.62
487019,1077665,1130104,484707.72,1072259.75,1127089.25
486790,1078352,1130558,484764.44,1072408.00,1127178.62
487398,1078409,1130485,484832.03,1072580.12,1127281.25
487683,1078686,1130826,484910.44,1072774.75,1127396.00
487876,1079433,1131083,484999.75,1072989.75,1127521.87
487855,1079609,1131082,485099.25,1073224.25,1127657.75
488159,1079672,1131154,485207.84,1073477.00,1127802.50
488018,1079868,1131325,485324.44,1073745.75,1127955.00
488649,1080348,1131674,485447.81,1074028.25,1128114.50
488570,1080354,1131581,485577.34,1074322.87,1128280.50
488682,1080475,1131714,485713.25,1074627.37,1128451.75
488701,1081236,1131922,485854.75,1074938.75,1128626.00
488777,1080946,1131913,486000.56,1075255.25,1128802.25
488898,1081030,1131892,486149.72,1075575.50,1128979.62
489168,1081155,1131978,486301.72,1075898.25,1129157.75
489053,1081640,1132240,486455.31,1076222.25,1129336.12
489324,1081684,1132158,486608.91,1076547.12,1129514.12
489373,1081691,1132072,486763.09,1076871.25,1129690.50
489338,1082272,1132501,486917.25,1077193.75,1129863.87
489361,1082246,1132397,487069.38,1077514.12,1130033.75
489343,1082084,1132103,487219.41,1077831.25,1130199.87
489188,1081664,1131480,487367.19,1078142.00,1130360.75
487811,1078982,1130313,487508.69,1078437.87,1130511.75
487523,1076926,1128989,487637.81,1078704.25,1130644.25
486662,1074692,1127596,487749.94,1078925.87,1130749.00
483821,1070607,1125467,487840.63,1079090.87,1130817.00
484025,1068801,1124539,487903.53,1079186.00,1130840.12
483549,1067301,1123734,487932.75,1079198.37,1130814.75
483109,1066125,1123010,487926.56,1079123.25,1130740.87
482538,1065750,1123025,487885.56,1078964.12,1130621.12
482334,1065741,1123044,487810.94,1078728.00,1130460.25
482265,1066168,1123378,487705.22,1078425.50,1130264.50
482593,1067122,1124041,487572.19,1078069.75,1130041.87
482898,1067743,1124267,487416.88,1077675.00,1129800.75
483013,1068157,1124531,487245.69,1077253.50,1129547.50
483033,1069531,1125772,487063.44,1076815.00,1129287.25
483489,1069875,1125529,486873.88,1076370.00,1129026.00
483876,1070467,1125894,486681.63,1075928.62,1128769.50
484030,1071278,1126447,486491.00,1075499.50,1128522.12
484568,1072867,1127243,486303.94,1075091.12,1128289.00
484969,1073475,1127768,486122.97,1074712.62,1128075.25
485332,1073956,1128161,485953.25,1074369.25,1127884.00
485069,1075366,1128429,485796.63,1074063.50,1127716.75
485610,1074850,1128430,485652.38,1073797.12,1127573.62
485962,1074938,1128396,485523.31,1073569.50,1127453.25
485818,1074734,1128732,485411.69,1073378.25,1127353.62
485390,1074511,1128298,485315.56,1073219.12,1127272.50
485516,1074417,1128219,485232.34,1073088.37,1127208.00
485656,1074274,1128110,485161.00,1072982.50,1127158.50
484585,1074491,1128374,485101.31,1072899.12,1127122.50
485475,1074511,1128253,485052.31,1072836.50,1127099.00
485912,1074637,1128322,485013.25,1072793.62,1127087.12
486063,1075611,1128753,484984.81,1072769.62,1127085.75
486359,1075665,1128763,484967.88,1072765.25,1127094.75
486447,1075947,1128995,484962.69,1072781.75,1127114.75
486487,1076296,1129154,484968.94,1072819.75,1127146.00
486951,1077104,1129803,484985.81,1072879.50,1127189.25
487188,1077409,1129924,485013.56,1072962.25,1127245.37
487266,1077880,1130142,485053.19,1073068.00,1127314.75
487484,1078813,1130722,485104.56,1073196.75,1127396.50
487916,1079108,1130877,485167.75,1073348.37,1127490.50
488236,1079315,1130841,485243.44,1073523.25,1127597.00
488304,1079499,1131007,485331.66,1073720.25,1127715.25
488422,1080420,1131537,485429.44,1073937.50,1127844.25
488514,1080497,1131476,485533.75,1074175.25,1127984.25
488715,1080685,1131509,485645.94,1074431.62,1128133.50
488631,1081839,1132082,485765.81,1074704.50,1128290.00
488529,1081790,1131962,485890.44,1074993.50,1128452.75
488971,1081622,1132003,486019.72,1075297.37,1128621.50
489262,1081756,1132383,486155.16,1075612.37,1128795.50
489311,1081992,1132461,486297.00,1075935.62,1128973.62
489355,1082072,1132253,486444.25,1076265.00,1129155.50
489496,1082190,1132332,486595.69,1076598.25,1129339.12
488484,1082434,1132747,486749.59,1076933.62,1129523.75
489527,1082507,1132620,486904.09,1077269.75,1129709.37
489550,1082566,1132570,487058.94,1077605.00,1129894.75
489754,1083202,1132690,487214.13,1077937.62,1130078.25
489924,1083196,1132665,487369.69,1078267.00,1130259.25
490031,1083259,1132947,487525.56,1078593.25,1130437.37
490210,1083457,1133186,487681.56,1078915.62,1130612.75
490268,1083782,1133285,487837.22,1079233.62,1130786.25
490291,1084017,1133353,487991.56,1079547.50,1130957.50
490603,1084092,1133407,488144.75,1079856.87,1131126.00
490610,1084529,1133962,488297.44,1080161.25,1131291.50
490428,1084152,1133492,488448.78,1080459.12,1131452.87
490317,1083666,1133061,488597.00,1080748.50,1131609.25
489828,1082317,1132098,488739.75,1081023.50,1131757.00
488126,1077817,1129243,488871.69,1081270.25,1131886.50
487019,1075050,1127593,488984.13,1081465.75,1131983.75
485793,1072378,1126203,489069.03,1081591.62,1132037.75
483696,1068601,1123951,489119.13,1081636.75,1132043.00
483407,1066838,1123071,489128.38,1081592.00,1131994.00
482812,1065630,1122530,489094.88,1081449.12,1131887.75
482525,1064919,1122426,489019.88,1081208.25,1131726.00
481973,1064936,1122407,488905.69,1080877.62,1131514.62
481853,1065072,1122538,488754.97,1080469.37,1131261.37
481880,1065417,1122727,488571.69,1079996.75,1130974.12
480914,1066092,1123606,488360.38,1079473.12,1130661.50
482063,1066551,1123685,488125.63,1078912.00,1130332.50
482384,1066966,1123816,487873.75,1078325.75,1129993.37
482339,1067807,1124232,487610.59,1077724.50,1129648.75
482635,1068047,1124412,487340.31,1077117.50,1129303.25
482897,1068632,1124699,487067.25,1076514.50,1128962.00
482991,1069150,1125189,486795.38,1075924.50,1128630.00
483364,1070504,1126068,486527.44,1075355.50,1128312.50
483837,1071238,1126317,486266.69,1074816.75,1128014.50
484058,1071683,1126699,486017.69,1074314.25,1127739.50
484246,1072387,1127538,485783.44,1073851.50,1127488.75
484383,1072592,1127143,485565.31,1073430.00,1127263.37
484652,1072681,1127208,485364.38,1073051.00,1127063.37
484513,1072640,1127156,485181.06,1072713.37,1126887.62
484262,1072736,1127111,485012.63,1072415.12,1126734.50
484674,1072761,1127099,484856.66,1072154.00,1126602.00
484709,1072730,1127020,484715.44,1071927.87,1126488.75
483860,1073408,1127412,484589.47,1071734.75,1126392.75
484671,1073141,1127391,484476.69,1071573.75,1126313.50
484782,1073356,1127549,484377.59,1071443.25,1126251.00
485206,1073465,1127873,484293.66,1071342.00,1126205.00
485339,1074225,1127823,484225.69,1071269.25,1126174.00
485190,1074608,1128123,484173.31,1071225.75,1126158.50
485592,1074833,1128351,484135.53,1071212.00,1126159.12
485016,1075683,1128738,484110.69,1071227.12,1126176.00
485948,1076059,1129081,484097.50,1071271.25,1126209.50
486419,1076493,1129210,484098.19,1071345.12,1126259.75
486576,1077628,1129794,484115.19,1071447.75,1126325.50
487242,1077762,1129746,484149.13,1071579.25,1126406.00
487341,1078237,1130213,484200.66,1071739.75,1126501.50
487256,1078545,1130211,484268.81,1071928.75,1126612.00
487698,1079218,1130825,484351.09,1072144.75,1126737.12
487869,1079456,1130959,484446.38,1072386.37,1126876.50
488108,1079860,1131024,484554.94,1072651.62,1127029.25
488002,1080280,1131678,484676.19,1072938.25,1127193.25
488271,1080390,1131462,484808.19,1073243.25,1127366.75
488407,1080611,1131392,484949.81,1073564.50,1127548.87
488610,1080714,1131455,485100.25,1073899.62,1127738.00
488448,1081133,1131800,485255.75,1074245.75,1127932.62
488853,1081220,1131778,485412.78,1074601.12,1128132.00
488808,1081448,1131889,485573.44,1074963.50,1128335.00
487648,1081861,1132161,485737.38,1075331.25,1128540.25
488637,1081969,1132054,485900.88,1075703.25,1128746.50
488696,1081984,1132154,486064.03,1076077.50,1128953.00
489109,1082211,1132383,486227.91,1076451.50,1129158.75
489395,1082465,1132375,486393.44,1076823.87,1129363.12
489458,1082670,1132474,486561.06,1077193.75,1129565.62
489344,1082736,1132447,486729.91,1077560.00,1129765.50
488960,1083234,1133008,486896.78,1077921.87,1129962.50
489738,1083411,1132954,487059.69,1078278.87,1130157.50
489893,1083662,1133033,487221.16,1078631.50,1130350.37
489918,1084348,1133303,487383.00,1078979.37,1130540.25
490135,1084339,1133404,487544.78,1079322.62,1130727.25
490168,1084165,1133171,487706.19,1079661.00,1130911.00
489874,1083627,1132743,487866.13,1079992.00,1131089.25
488898,1080551,1130822,488022.06,1080306.25,1131256.00
488079,1078138,1129360,488169.06,1080586.50,1131401.00
486873,1075514,1127763,488298.84,1080815.75,1131513.62
484726,1070707,1125508,488403.16,1080979.50,1131586.25
483983,1068638,1124069,488474.81,1081062.25,1131611.00
483300,1067128,1123156,488507.25,1081049.75,1131580.50
482860,1065913,1122519,488498.25,1080937.50,1131492.37
481788,1065132,1122279,488447.06,1080729.12,1131349.75
481931,1065062,1122304,488353.88,1080432.37,1131158.00
481652,1065179,1122359,488223.06,1080058.25,1130924.00
480924,1066443,1123344,488059.06,1079621.00,1130655.75
481727,1066549,1123296,487865.59,1079135.75,1130362.25
481376,1066863,1123485,487648.16,1078615.50,1130051.12
481797,1067110,1124273,487411.75,1078070.00,1129728.50
482459,1067903,1124218,487162.44,1077509.25,1129400.00
482580,1068188,1124578,486906.94,1076943.12,1129071.75
482473,1068873,1124873,486649.38,1076380.00,1128748.87
482984,1070392,1126025,486390.50,1075827.75,1128437.25
483375,1070846,1126170,486132.75,1075295.50,1128142.50
483676,1071507,1126315,485882.81,1074792.00,1127868.00
483933,1072635,1127114,485645.97,1074323.00,1127614.50
484265,1072919,1127238,485424.50,1073892.75,1127384.37
484662,1073075,1127319,485220.63,1073504.50,1127179.25
484627,1073178,1127285,485035.81,1073158.50,1126998.75
484480,1073280,1127376,484869.94,1072853.12,1126842.00
484483,1073102,1126972,484721.94,1072586.25,1126706.50
484712,1073117,1127273,484590.41,1072354.75,1126590.00
484550,1073382,1127627,484474.81,1072156.00,1126492.00
484885,1073328,1127413,484374.88,1071987.75,1126411.50
484815,1073665,1127479,484289.94,1071849.25,1126348.00
484830,1073817,1127477,484219.00,1071740.00,1126300.00
484968,1074449,1127984,484159.81,1071659.62,1126267.12
485345,1074555,1127907,484111.56,1071608.12,1126249.75
485436,1074954,1128319,484076.28,1071584.87,1126247.25
484329,1076274,1129069,484053.59,1071589.25,1126259.50
485615,1076171,1128727,484041.44,1071622.50,1126286.50
485925,1076384,1128950,484041.16,1071684.50,1126327.75
486272,1076755,1129278,484054.75,1071773.75,1126383.00
486778,1077755,1129590,484083.31,1071890.25,1126452.12
487088,1077952,1129950,484127.81,1072034.50,1126535.75
487034,1078321,1130087,484188.13,1072205.50,1126634.00
487016,1079042,1130584,484260.44,1072401.25,1126746.75
487591,1079538,1130752,484341.94,1072621.25,1126873.87
487819,1079767,1130852,484435.19,1072865.00,1127014.25
487787,1080334,1131385,484541.81,1073130.62,1127166.37
487999,1080523,1131292,484660.06,1073415.87,1127328.87
488246,1080761,1131426,484789.00,1073719.25,1127501.00
488526,1080850,1131461,484928.13,1074038.25,1127681.50
488365,1081175,1131591,485076.50,1074370.00,1127868.75
488652,1081439,1131660,485232.41,1074712.75,1128061.00
488741,1081442,1131608,485394.69,1075064.00,1128257.00
488585,1081831,1132109,485562.44,1075421.00,1128454.75
488665,1081894,1132039,485733.94,1075781.87,1128653.75
488880,1082104,1132015,485907.44,1076145.00,1128853.50
489132,1082161,1132060,486082.44,1076508.87,1129053.12
489119,1082820,1132441,486258.69,1076872.50,1129252.00
489098,1082898,1132502,486435.25,1077236.00,1129450.12
489289,1083073,1132419,486610.97,1077598.50,1129647.25
488388,1084034,1132881,486784.00,1077959.50,1129842.37
489410,1083792,1132930,486952.59,1078319.50,1130036.25
489791,1083702,1132821,487118.53,1078677.00,1130228.25
489578,1083620,1132484,487283.50,1079029.50,1130416.50
489507,1082514,1131932,487446.13,1079372.37,1130598.00
489098,1080790,1131017,487604.19,1079696.87,1130767.75
488237,1078820,1129567,487753.81,1079990.87,1130918.25
485754,1074199,1126939,487887.44,1080241.12,1131039.25
485058,1071975,1125692,487995.03,1080430.37,1131118.50
484436,1070290,1124799,488069.63,1080540.75,1131149.25
483886,1067674,1123507,488109.03,1080563.50,1131130.00
482664,1066988,1123091,488111.69,1080497.00,1131060.25
482542,1066697,1123137,488076.19,1080342.12,1130941.75
482638,1066773,1123200,488004.75,1080106.37,1130780.25
482030,1067672,1123790,487902.09,1079802.25,1130583.12
482528,1067914,1123861,487772.47,1079443.75,1130358.50
482722,1068574,1124227,487620.09,1079043.87,1130113.00
482711,1069592,1124990,487449.94,1078613.75,1129853.12
483025,1069991,1125093,487266.69,1078164.75,1129584.75
483356,1070479,1125429,487074.50,1077707.75,1129314.62
483648,1070917,1125752,486877.56,1077251.25,1129047.62
484166,1072456,1126770,486680.50,1076804.00,1128789.00
484418,1073035,1127026,486487.69,1076375.50,1128544.75
484697,1073797,1127527,486302.38,1075973.25,1128318.50
484288,1075506,1128556,486124.81,1075602.75,1128113.00
485219,1075228,1128216,485955.25,1075268.62,1127930.50
485399,1075054,1128238,485797.84,1074972.25,1127771.25
485494,1075251,1128197,485655.81,1074712.00,1127634.25
485603,1075131,1128236,485529.28,1074485.50,1127518.25
485470,1075034,1128112,485417.69,1074290.50,1127421.00
485367,1075060,1128276,485319.63,1074123.87,1127340.75
485400,1075026,1128020,485232.88,1073983.87,1127275.87
485581,1075203,1128095,485156.13,1073869.00,1127224.75
485562,1075352,1128298,485090.31,1073777.75,1127186.12
485541,1075792,1128572,485035.69,1073708.75,1127160.00
485695,1076012,1128606,484991.47,1073661.50,1127146.37
486082,1076269,1128677,484958.00,1073636.50,1127144.75
486179,1076582,1128946,484936.13,1073633.75,1127154.87
486722,1077442,1129479,484925.81,1073653.87,1127177.50
486845,1077818,1129712,484927.16,1073698.50,1127213.62
487119,1078055,1129754,484941.72,1073767.75,1127263.50
486998,1079127,1130398,484970.31,1073860.50,1127326.12
487361,1079252,1130495,485012.38,1073977.12,1127401.50
487800,1079741,1130562,485067.34,1074118.12,1127490.12
488008,1080018,1130737,485135.44,1074283.37,1127591.00
488320,1080967,1131313,485216.75,1074472.37,1127703.75
488406,1081103,1131410,485310.84,1074685.25,1127828.75
488505,1081380,1131585,485416.56,1074920.25,1127965.50
488355,1082608,1132314,485530.38,1075176.25,1128113.37
488794,1082393,1132145,485649.38,1075452.50,1128272.37
488917,1082447,1132037,485775.25,1075747.25,1128441.00
489006,1082622,1132575,485909.25,1076056.50,1128616.50
489341,1082944,1132279,486050.69,1076378.00,1128797.50
489612,1082997,1132393,486199.44,1076709.25,1128982.50
489411,1083020,1132460,486354.88,1077047.75,1129170.87
489448,1083358,1132585,486514.56,1077390.87,1129361.25
489563,1083505,1132467,486676.50,1077737.37,1129552.50
489908,1083710,1132544,486840.69,1078085.75,1129743.25
489921,1084227,1133123,487007.44,1078434.00,1129932.00
489728,1084394,1133211,487175.56,1078781.37,1130119.75
490200,1084523,1133139,487343.88,1079128.00,1130307.00
490123,1084655,1133246,487512.31,1079473.62,1130493.50
490328,1084954,1133476,487680.44,1079816.87,1130678.25
490295,1085161,1133442,487847.38,1080157.25,1130861.50
490385,1085124,1133308,488012.63,1080494.00,1131041.87
490006,1084547,1132742,488176.06,1080824.25,1131217.50
489243,1082644,1131598,488334.94,1081141.25,1131384.00
488810,1080374,1130281,488483.47,1081431.50,1131533.00
488152,1077887,1128696,488616.56,1081679.62,1131654.75
485763,1072951,1125920,488727.50,1081866.50,1131738.37
485100,1070836,1124887,488806.88,1081971.25,1131772.87
484188,1069046,1123815,488849.38,1081982.75,1131752.75
482612,1067215,1123066,488850.75,1081900.00,1131678.25
482507,1066478,1122631,488807.38,1081724.50,1131551.25
482412,1066269,1122632,488722.19,1081460.87,1131375.50
482255,1066350,1123379,488600.72,1081117.50,1131156.75
482102,1067127,1123369,488447.06,1080707.75,1130903.50
482385,1067441,1123464,488265.81,1080245.75,1130624.00
482519,1067714,1123816,488062.50,1079744.12,1130325.37
482359,1068591,1124221,487841.81,1079213.75,1130014.25
482696,1068778,1124292,487607.44,1078665.25,1129696.75
482914,1069017,1124568,487364.31,1078108.00,1129377.12
483009,1070307,1125616,487116.88,1077550.00,1129060.00
483169,1070590,1125781,486868.47,1076999.87,1128751.25
483707,1071511,1126147,486622.84,1076467.00,1128456.25
483821,1072193,1126495,486383.94,1075960.00,1128179.00
484427,1073374,1127117,486154.50,1075485.62,1127922.50
484377,1073613,1127339,485936.75,1075049.75,1127689.25
484768,1073976,1127418,485733.22,1074654.75,1127480.75
484723,1074404,1127474,485545.69,1074300.62,1127296.00
484945,1074310,1127473,485374.53,1073986.75,1127134.12
485125,1074190,1127508,485220.19,1073711.25,1126993.75
485090,1074295,1127887,485082.88,1073472.25,1126873.75
485224,1074264,1127549,484962.03,1073266.87,1126773.00
485297,1074250,1127618,484857.19,1073093.00,1126690.12
485316,1074391,1127691,484767.72,1072948.25,1126623.75
485033,1075126,1128320,484691.13,1072832.00,1126573.50
485208,1075259,1128166,484624.59,1072744.75,1126539.25
485492,1075407,1128139,484569.25,1072686.00,1126520.50
485903,1075818,1128894,484527.38,1072654.50,1126516.50
485997,1076567,1128952,484499.88,1072650.50,1126527.37
486315,1076870,1128982,484487.00,1072674.75,1126553.87
486834,1077374,1129328,484489.38,1072727.25,1126595.75
486517,1078368,1129983,484506.94,1072808.00,1126653.00
487008,1078710,1129959,484538.19,1072917.37,1126726.87
487026,1078818,1130169,484582.75,1073055.25,1126816.12
487332,1079913,1130702,484640.50,1073220.00,1126919.50
487695,1080153,1130775,484711.31,1073410.75,1127036.37
487923,1080433,1130836,484795.38,1073627.50,1127166.37
488214,1080782,1131018,484892.56,1073868.75,1127308.25
488385,1081472,1131393,485001.50,1074132.75,1127461.00
488112,1081684,1131352,485119.81,1074418.75,1127623.75
488492,1081725,1131525,485246.44,1074724.12,1127795.25
488799,1082388,1131852,485381.38,1075045.25,1127974.00
488934,1082483,1132058,485524.38,1075379.75,1128160.00
488974,1082474,1132141,485675.00,1075726.12,1128352.75
489032,1082557,1132759,485832.13,1076081.37,1128550.00
489113,1083021,1132398,485994.31,1076443.00,1128750.50
489291,1083098,1132274,486160.41,1076809.75,1128953.37
489257,1083145,1132387,486329.56,1077179.25,1129157.00
489307,1084016,1133115,486499.44,1077550.00,1129361.12
489786,1083804,1132853,486668.72,1077921.37,1129565.75
489819,1083974,1132714,486839.13,1078292.25,1129770.12
489868,1084256,1133465,487011.38,1078661.37,1129972.50
489782,1084765,1133041,487184.06,1079028.62,1130172.12
490082,1084861,1133366,487356.25,1079394.00,1130369.50
490191,1085131,1133366,487527.78,1079757.00,1130565.12
489776,1085355,1133335,487698.25,1080116.75,1130758.25
490282,1085269,1133331,487866.63,1080472.50,1130947.50
490282,1084828,1132960,488032.50,1080821.25,1131131.25
490007,1082107,1131183,488194.88,1081157.00,1131306.25
488540,1079430,1129586,488349.31,1081466.00,1131463.50
487090,1076843,1127997,488487.06,1081726.75,1131590.25
486282,1074334,1126707,488599.63,1081921.25,1131676.50
484503,1070220,1124565,488681.31,1082034.50,1131714.50
483810,1068519,1123573,488726.88,1082052.50,1131698.00
483091,1067419,1123132,488732.19,1081970.50,1131624.87
482402,1066885,1122904,488696.53,1081792.50,1131498.50
482325,1066785,1122824,488622.00,1081526.50,1131323.87
481996,1066785,1123004,488510.59,1081183.87,1131107.75
482269,1067281,1124013,488365.69,1080777.00,1130858.25
482493,1068098,1123931,488193.06,1080319.50,1130583.50
482493,1068331,1124033,487998.59,1079825.25,1130291.37
482693,1068748,1124299,487786.97,1079305.25,1129988.25
482672,1069568,1125033,487562.31,1078769.37,1129679.25
482785,1069779,1125005,487328.06,1078227.25,1129370.37
483265,1070379,1125334,487088.50,1077687.25,1129065.87
483388,1071078,1126639,486848.41,1077157.25,1128770.00
483892,1072668,1126812,486611.84,1076646.75,1128487.75
484188,1073258,1126868,486382.72,1076165.00,1128224.62
484412,1073753,1127469,486164.28,1075718.25,1127983.37
484461,1074734,1127657,485958.63,1075310.25,1127766.00
484859,1074894,1128001,485767.47,1074943.75,1127573.50
485270,1074809,1127825,485592.44,1074619.25,1127405.75
485184,1075138,1128337,485434.63,1074334.50,1127261.25
485106,1074957,1127860,485293.53,1074087.50,1127138.12
485366,1075088,1127923,485168.25,1073876.12,1127035.00
485229,1074901,1127766,485058.34,1073697.75,1126950.00
485403,1075211,1127999,484962.69,1073550.00,1126881.75
485448,1075396,1128247,484880.25,1073431.50,1126829.75
485451,1075635,1128235,484811.13,1073341.25,1126793.75
485641,1076365,1128807,484755.16,1073278.50,1126773.00
486010,1076692,1128834,484712.75,1073243.75,1126767.25
485908,1076905,1128833,484684.00,1073237.25,1126777.00
486066,1077294,1129789,484668.03,1073258.75,1126801.00
486544,1077984,1129579,484664.75,1073307.75,1126839.50
486873,1078520,1129698,484675.38,1073384.87,1126893.00
486966,1078738,1129948,484700.38,1073490.00,1126960.75
487178,1079890,1131019,484738.81,1073622.00,1127043.25
487780,1080253,1130812,484790.44,1073781.00,1127140.87
487707,1080524,1130994,484856.28,1073967.62,1127253.75
487934,1080899,1131654,484935.78,1074180.50,1127380.25
488023,1081578,1131522,485027.66,1074418.12,1127519.75
488491,1081972,1131647,485131.38,1074679.75,1127671.50
488736,1082104,1131624,485247.06,1074963.50,1127834.12
488044,1082761,1132035,485374.25,1075267.37,1128006.37
488891,1082814,1131965,485511.25,1075589.25,1128187.00
488871,1083153,1132106,485656.56,1075926.75,1128374.50
489075,1083768,1132627,485808.75,1076277.00,1128567.25
489465,1083668,1132493,485967.31,1076637.50,1128764.50
489262,1083557,1132503,486131.81,1077005.87,1128965.50
489377,1083703,1132628,486300.50,1077379.62,1129169.12
489335,1084100,1132731,486470.13,1077756.25,1129374.00
489768,1084026,1132682,486638.59,1078134.12,1129579.12
489665,1084302,1132842,486807.69,1078511.50,1129783.37
489752,1084963,1133271,486978.50,1078886.75,1129985.75
489953,1084910,1133163,487150.44,1079259.50,1130186.25
490131,1085252,1133400,487323.00,1079629.75,1130384.75
490229,1085439,1133837,487495.75,1079997.25,1130582.00
490473,1085896,1133736,487668.50,1080362.00,1130777.50
490561,1086137,1133840,487841.19,1080724.25,1130971.50
490622,1086233,1133779,488013.50,1081083.12,1131163.37
490556,1086363,1134341,488184.53,1081437.75,1131353.25
490866,1086341,1134094,488353.69,1081786.75,1131541.12
490557,1085978,1133474,488520.38,1082127.50,1131725.00
490056,1084881,1132163,488682.06,1082455.25,1131900.00
488687,1080765,1130213,488833.22,1082756.75,1132057.62
487833,1078231,1128804,488966.53,1083011.25,1132185.37
486695,1075734,1127503,489075.41,1083201.00,1132273.62
484474,1071635,1125047,489153.94,1083315.25,1132314.50
484427,1069904,1124327,489196.69,1083343.25,1132300.50
483757,1068744,1123796,489200.25,1083275.00,1132230.25
483459,1068344,1123741,489164.22,1083109.75,1132107.25
483002,1068412,1123601,489090.41,1082856.50,1131937.00
482969,1068586,1123874,488981.47,1082527.25,1131726.25
483033,1068916,1124166,488841.50,1082134.87,1131483.00
482848,1069975,1124721,488673.44,1081693.25,1131215.00
483271,1070365,1125108,488480.44,1081216.50,1130930.75
483229,1070802,1125528,488269.53,1080716.25,1130637.25
483245,1071600,1125862,488047.06,1080201.75,1130339.87
483955,1072158,1126173,487817.81,1079682.25,1130043.25
484216,1072830,1126477,487586.81,1079167.75,1129752.50
484158,1073429,1127655,487357.63,1078667.00,1129472.00
485032,1074806,1127819,487133.63,1078188.25,1129207.00
485267,1075452,1128149,486919.34,1077739.50,1128962.00
485387,1076050,1128407,486717.88,1077326.50,1128739.50
485729,1076768,1129439,486530.50,1076952.00,1128542.25
485835,1076717,1128877,486358.25,1076617.25,1128371.62
485881,1076655,1128630,486202.06,1076321.75,1128225.25
486001,1076435,1129032,486061.94,1076063.12,1128099.37
485709,1076578,1128699,485937.03,1075838.25,1127992.25
485998,1076497,1128600,485826.19,1075644.50,1127902.62
485899,1076459,1128695,485728.84,1075480.00,1127829.00
485498,1076674,1128767,485643.63,1075342.75,1127770.25
485991,1076785,1128694,485569.06,1075232.00,1127725.50
486107,1076982,1128884,485505.69,1075146.00,1127693.37
486391,1077680,1129199,485454.41,1075083.75,1127673.50
486787,1077698,1129273,485416.22,1075044.75,1127665.25
486831,1078025,1129359,485391.88,1075029.50,1127669.25
486852,1078390,1129444,485380.88,1075038.12,1127685.25
486926,1078908,1130059,485379.72,1075070.50,1127713.12
487266,1079240,1130046,485385.88,1075126.75,1127753.75
487293,1079705,1130203,485402.19,1075206.75,1127806.75
487241,1080265,1130825,485430.97,1075309.75,1127871.25
487814,1080638,1130814,485472.13,1075435.00,1127947.00
488060,1080760,1130859,485525.63,1075582.37,1128034.37
488119,1081396,1131552,485591.06,1075751.25,1128132.50
488586,1081956,1131514,485668.09,1075941.50,1128241.50
488770,1082196,1131636,485756.91,1076153.00,1128361.25
489050,1082724,1131919,485857.53,1076384.25,1128491.25
489063,1083252,1132540,485968.75,1076634.00,1128631.75
489211,1083431,1132412,486088.94,1076900.62,1128783.00
489267,1083464,1132207,486217.25,1077182.75,1128943.00
489535,1083641,1133078,486353.25,1077477.87,1129109.00
489475,1083953,1132735,486495.94,1077783.75,1129280.25
489722,1084098,1132712,486644.25,1078098.50,1129456.50
489938,1084266,1132788,486797.63,1078420.25,1129635.87
490013,1085053,1133160,486954.56,1078748.50,1129818.00
490248,1085255,1133259,487113.38,1079083.75,1130002.50
490321,1085363,1133124,487275.06,1079424.87,1130188.87
490362,1086333,1133594,487440.03,1079769.87,1130375.87
490521,1086085,1133660,487607.25,1080118.00,1130563.75
490654,1086120,1133766,487776.13,1080468.25,1130752.25
490793,1086259,1133766,487946.28,1080819.12,1130940.62
490372,1085689,1133481,488115.09,1081167.37,1131127.00
490252,1084691,1132749,488278.81,1081507.00,1131307.75
489782,1083000,1131657,488435.94,1081828.87,1131477.25
486592,1078233,1129151,488583.41,1082120.00,1131627.50
486495,1076025,1127721,488712.53,1082361.37,1131747.37
485827,1073909,1126553,488813.19,1082532.37,1131826.12
485169,1072222,1124786,488880.22,1082621.00,1131857.50
484024,1069794,1124355,488911.34,1082621.87,1131838.50
483657,1069105,1123987,488904.47,1082532.00,1131768.75
483386,1068802,1123712,488860.19,1082355.00,1131650.25
483470,1069388,1124496,488781.06,1082100.87,1131489.50
483477,1069818,1124593,488671.00,1081782.25,1131295.25
483677,1070245,1124934,488535.56,1081412.75,1131075.12
483600,1070660,1125820,488380.00,1081005.12,1130835.75
483728,1071747,1125784,488208.03,1080570.75,1130583.62
484188,1072251,1126236,488024.06,1080121.62,1130325.75
484453,1072731,1126383,487833.28,1079667.50,1130067.62
484490,1074074,1127263,487638.13,1079216.87,1129814.12
485117,1074766,1127725,487440.81,1078778.87,1129571.00
485528,1075600,1128138,487247.69,1078362.25,1129342.75
485729,1077097,1128982,487064.19,1077974.00,1129132.25
485929,1077328,1129074,486892.47,1077619.50,1128942.00
486169,1077417,1129261,486733.94,1077302.37,1128774.25
486296,1077860,1129422,486589.63,1077024.00,1128629.50
486540,1077988,1129576,486458.94,1076783.75,1128507.75
486602,1077877,1129308,486341.16,1076580.12,1128407.00
486503,1077879,1129278,486237.44,1076410.00,1128325.25
485675,1077811,1129326,486147.78,1076270.50,1128259.75
486493,1077669,1129223,486070.75,1076158.00,1128208.50
486574,1077729,1129214,486005.81,1076070.12,1128170.50
486180,1077862,1129471,485951.72,1076004.75,1128144.75
486841,1078423,1129613,485907.59,1075961.25,1128130.50
486935,1078486,1129552,485874.44,1075940.25,1128128.00
487110,1078790,1129769,485853.06,1075940.50,1128136.75
487158,1079684,1130493,485843.13,1075962.00,1128157.25
487595,1080029,1130537,485844.56,1076005.50,1128191.50
488000,1080376,1130605,485858.56,1076072.37,1128238.75
487927,1080679,1131474,485885.69,1076162.87,1128298.25
487960,1081462,1131402,485924.75,1076276.75,1128370.25
488492,1082014,1131582,485975.06,1076414.75,1128455.50
488707,1082486,1131890,486037.28,1076577.50,1128554.00
488926,1083298,1132258,486109.63,1076764.50,1128665.25
489224,1083458,1132412,486190.06,1076975.50,1128789.50
489510,1083569,1132366,486281.06,1077208.75,1128925.25
489901,1084687,1132839,486385.25,1077461.75,1129070.75
489877,1084526,1132939,486502.19,1077732.87,1129225.25
489864,1084570,1132868,486630.16,1078021.00,1129388.25
489998,1084617,1133025,486767.00,1078323.25,1129557.87
490095,1085111,1133320,486910.47,1078636.87,1129733.25
490360,1085351,1133243,487058.84,1078960.75,1129913.75
490248,1085415,1133232,487212.38,1079293.00,1130097.62
489251,1085524,1133603,487370.19,1079630.87,1130283.50
490299,1085523,1133582,487530.38,1079971.75,1130470.75
490591,1085747,1133599,487692.34,1080313.50,1130659.00
490488,1085810,1133743,487855.81,1080654.62,1130846.50
490693,1086255,1133820,488019.94,1080994.25,1131032.25
490834,1086352,1133821,488184.28,1081331.75,1131216.25
491084,1086563,1133898,488348.94,1081666.75,1131397.87
491105,1087017,1134345,488513.69,1081998.37,1131577.25
491273,1087025,1134387,488678.06,1082326.25,1131755.00
491248,1087094,1134254,488841.66,1082649.75,1131930.75
491259,1087283,1134647,489003.69,1082968.00,1132103.50
490834,1086623,1134046,489162.47,1083279.00,1132271.50
490834,1085442,1133210,489315.63,1083577.12,1132431.75
490251,1083388,1131884,489460.88,1083852.25,1132578.00
487874,1078638,1128980,489592.31,1084092.50,1132699.25
486695,1075969,1127582,489699.50,1084279.87,1132781.75
485896,1073609,1126236,489773.56,1084390.75,1132816.62
485157,1070093,1124387,489810.72,1084410.50,1132799.62
483617,1068483,1123559,489808.00,1084331.75,1132727.75
483357,1067649,1123310,489762.66,1084150.50,1132599.50
482940,1067468,1123025,489675.50,1083871.00,1132418.12
482576,1067647,1123414,489548.38,1083505.00,1132190.75
482651,1067998,1123508,489384.03,1083066.12,1131925.25
482531,1068222,1123708,489188.38,1082568.25,1131629.50
481672,1068816,1124206,488967.06,1082024.00,1131310.75
482339,1069054,1124393,488724.06,1081445.62,1130976.25
482660,1069264,1124411,488463.69,1080843.87,1130632.25
482807,1069549,1124874,488191.06,1080228.00,1130283.50
483034,1070560,1125009,487911.19,1079607.62,1129934.75
483306,1071201,1125588,487628.50,1078993.12,1129591.25
483497,1071800,1125805,487347.19,1078393.50,1129258.00
483817,1073258,1126993,487070.44,1077816.37,1128940.37
484287,1073762,1127202,486801.59,1077269.00,1128644.00
484566,1074076,1127336,486545.00,1076758.75,1128371.62
484866,1074486,1128180,486304.06,1076288.75,1128123.75
484781,1074926,1127730,486080.16,1075860.75,1127901.00
484938,1074880,1127781,485873.44,1075475.25,1127702.75
485019,1074896,1127652,485683.94,1075130.75,1127528.25
484809,1075287,1128078,485509.56,1074826.12,1127376.00
485031,1075331,1128020,485347.94,1074561.00,1127246.00
485374,1075376,1127889,485201.50,1074333.25,1127136.75
485387,1076614,1128511,485072.84,1074140.50,1127046.25
485724,1076376,1128729,484962.19,1073982.75,1126974.75
485969,1076902,1128872,484869.91,1073861.00,1126923.50
486045,1077431,1129004,484796.19,1073775.75,1126892.50
486657,1078081,1129452,484739.94,1073727.50,1126881.00
486862,1078865,1129796,484701.00,1073717.00,1126889.75
486963,1079419,1130250,484680.94,1073745.00,1126918.75
486293,1080182,1130688,484679.94,1073810.75,1126968.25
487377,1080604,1130948,484697.00,1073913.50,1127037.62
487668,1081082,1130982,484731.69,1074052.50,1127126.50
487954,1081425,1131500,484783.75,1074226.50,1127233.87
488462,1082252,1131562,484853.31,1074433.50,1127358.50
488661,1082656,1131977,484940.56,1074672.75,1127499.50
488752,1083078,1132092,485044.63,1074942.25,1127656.12
489043,1083728,1132631,485163.63,1075240.50,1127827.75
489227,1083959,1132645,485296.16,1075565.50,1128013.25
489294,1084124,1132667,485441.38,1075913.75,1128211.00
489629,1084514,1133380,485598.25,1076281.75,1128418.25
489682,1084644,1133108,485765.69,1076666.25,1128633.37
489780,1085026,1133150,485942.28,1077064.62,1128855.50
489811,1085305,1133185,486126.09,1077474.25,1129083.00
489895,1085372,1133577,486313.56,1077893.50,1129314.50
490188,1085562,1133467,486501.91,1078319.75,1129549.00
490401,1085717,1133403,486693.19,1078749.75,1129785.00
490410,1086730,1133773,486888.75,1079180.25,1130019.87
490295,1086425,1133846,487086.94,1079610.37,1130253.12
490438,1086438,1133808,487285.81,1080039.00,1130484.50
490707,1086638,1133937,487484.69,1080464.50,1130713.50
490669,1087021,1134035,487682.66,1080885.75,1130939.00
490866,1087194,1134052,487878.50,1081302.00,1131160.75
490803,1087258,1134350,488072.13,1081712.50,1131378.00
489915,1086932,1134169,488263.13,1082115.25,1131590.75
490505,1086173,1133508,488449.63,1082506.37,1131797.00
490158,1084795,1132475,488629.19,1082878.00,1131991.12
489464,1082626,1129700,488798.19,1083218.75,1132165.62
487314,1077601,1128198,488949.63,1083509.87,1132309.62
486410,1075415,1126954,489073.56,1083729.00,1132410.00
485488,1073260,1125980,489163.50,1083861.50,1132459.00
483896,1070285,1124386,489215.81,1083901.75,1132454.00
483543,1069150,1123703,489227.31,1083845.87,1132392.00
483116,1068608,1123637,489196.75,1083692.50,1132274.87
483025,1068481,1124333,489125.91,1083447.37,1132108.62
482876,1069013,1124125,489018.63,1083122.75,1131901.00
482736,1069332,1124285,488879.03,1082732.37,1131660.50
482860,1069686,1124318,488711.31,1082289.87,1131393.87
483076,1070890,1125204,488518.56,1081808.50,1131108.37
483270,1071070,1125370,488304.25,1081301.75,1130812.00
483335,1071553,1125542,488075.94,1080779.87,1130510.50
483770,1073051,1126476,487840.34,1080251.75,1130208.00
483902,1073516,1126688,487602.06,1079727.50,1129909.75
484291,1074244,1127277,487365.13,1079217.87,1129622.25
484575,1074891,1127566,487133.25,1078731.50,1129350.75
485091,1076339,1128392,486908.69,1078275.50,1129099.12
485396,1076720,1128499,486693.56,1077856.75,1128870.50
485725,1077114,1128835,486492.56,1077479.00,1128666.25
484734,1077552,1129047,486308.75,1077142.25,1128486.75
485606,1077575,1128913,486141.69,1076846.50,1128331.87
485815,1077408,1129023,485990.75,1076590.00,1128199.62
485766,1077372,1128873,485855.78,1076369.75,1128088.25
485913,1077155,1128699,485736.34,1076182.37,1127995.25
485955,1077191,1128692,485632.00,1076024.50,1127918.37
486239,1077332,1128673,485542.69,1075893.75,1127856.25
485866,1077787,1129122,485467.69,1075789.00,1127808.12
486108,1077727,1129093,485405.31,1075709.00,1127774.37
486221,1078056,1129110,485355.09,1075653.25,1127754.50
486624,1078379,1130002,485317.63,1075621.50,1127747.25
486830,1079059,1129665,485293.75,1075614.50,1127753.12
486879,1079251,1129846,485283.66,1075632.37,1127772.12
487062,1079776,1129923,485286.63,1075675.25,1127804.00
487223,1080746,1130678,485300.19,1075743.87,1127848.75
487648,1081127,1130729,485322.56,1075840.00,1127907.75
488124,1081565,1130967,485357.38,1075963.50,1127981.00
488161,1082816,1131741,485407.50,1076113.25,1128067.25
488628,1082616,1131696,485472.72,1076288.25,1128166.50
488565,1082697,1131698,485552.38,1076487.75,1128279.00
488673,1083063,1131978,485645.06,1076709.87,1128403.87
489072,1083762,1132247,485748.38,1076953.00,1128540.25
489347,1083947,1132379,485861.34,1077216.50,1128687.25
489333,1084206,1132435,485984.88,1077498.37,1128844.00
488435,1084717,1132677,486118.63,1077796.25,1129009.00
489396,1084814,1132868,486260.69,1078108.37,1129181.25
489728,1085050,1132794,486409.66,1078432.75,1129359.75
489848,1085370,1133115,486565.06,1078767.62,1129542.87
490199,1085798,1133186,486726.66,1079111.75,1129729.75
490436,1085774,1133241,486894.50,1079463.75,1129919.62
490329,1085858,1133259,487068.00,1079820.75,1130111.50
490182,1086393,1133715,487245.06,1080180.25,1130304.75
490316,1086164,1133316,487423.75,1080540.75,1130498.75
490214,1085832,1133172,487602.44,1080899.25,1130691.00
489963,1084921,1132258,487779.00,1081250.75,1130878.12
488978,1081656,1130740,487949.50,1081583.50,1131053.62
487903,1079455,1129130,488107.34,1081879.87,1131206.75
486810,1076922,1127764,488245.19,1082123.00,1131327.12
484917,1073010,1125876,488354.81,1082301.87,1131406.25
484440,1071192,1124684,488428.91,1082404.75,1131437.00
483916,1069982,1124013,488464.94,1082419.25,1131415.75
483479,1069513,1123867,488463.66,1082342.12,1131343.25
482951,1069131,1123763,488425.91,1082179.25,1131223.75
482841,1069404,1124003,488353.28,1081940.87,1131064.00
482994,1069741,1124268,488249.34,1081638.75,1130871.25
483356,1070751,1125053,488118.38,1081286.25,1130653.75
483440,1071358,1125333,487965.19,1080897.25,1130420.00
483335,1071851,1125564,487795.38,1080483.87,1130176.25
482832,1072956,1126469,487613.56,1080055.75,1129927.75
483991,1073543,1126688,487424.09,1079622.50,1129679.87
484351,1074245,1127073,487231.75,1079194.50,1129438.50
484685,1075086,1128008,487040.81,1078781.00,1129208.25
485434,1076622,1128155,486855.81,1078390.00,1128992.50
485689,1077281,1128657,486681.19,1078030.50,1128795.50
485715,1077633,1128972,486519.38,1077707.00,1128620.50
486122,1078541,1129538,486370.94,1077421.12,1128468.75
486258,1078494,1129517,486236.81,1077173.50,1128341.75
486401,1078272,1129351,486118.25,1076963.25,1128238.00
486268,1078211,1129619,486015.13,1076787.62,1128154.50
486374,1078278,1129241,485926.38,1076643.25,1128089.00
486371,1078168,1129082,485851.13,1076527.37,1128039.12
486424,1078163,1129149,485788.56,1076437.25,1128003.12
486363,1078491,1129568,485735.97,1076371.50,1127980.50
486400,1078654,1129476,485690.63,1076329.75,1127971.12
486646,1078892,1129531,485654.31,1076310.50,1127974.12
486804,1079972,1130163,485629.38,1076312.50,1127988.50
487227,1079975,1130169,485616.44,1076336.00,1128014.25
487438,1080335,1130303,485616.41,1076382.50,1128052.37
487572,1080660,1130527,485629.56,1076452.37,1128102.50
487861,1081393,1131035,485654.94,1076545.62,1128165.25
488080,1081864,1131249,485691.94,1076663.00,1128241.00
488227,1082189,1131316,485741.22,1076804.25,1128329.50
487432,1083105,1131983,485803.06,1076968.75,1128429.75
488610,1083170,1132007,485876.84,1077155.50,1128541.50
488968,1083506,1132083,485962.31,1077364.00,1128664.87
489029,1083639,1132465,486059.22,1077592.62,1128798.87
489279,1084226,1132350,486166.81,1077839.50,1128942.25
489449,1084481,1132381,486284.44,1078103.50,1129093.50
489599,1084591,1132591,486411.38,1078383.00,1129251.25
489849,1085333,1133124,486546.19,1078675.62,1129415.75
489872,1085253,1132831,486687.50,1078979.75,1129586.37
490127,1085392,1133087,486835.19,1079294.00,1129761.75
490072,1085545,1133619,486989.13,1079615.87,1129940.50
490254,1086142,1133598,487147.97,1079944.25,1130122.25
490314,1086398,1133556,487310.69,1080279.00,1130307.00
490466,1086698,1133600,487476.50,1080619.25,1130494.00
490546,1087070,1133973,487642.72,1080964.50,1130682.50
490770,1087066,1133995,487807.22,1081314.25,1130872.25
490828,1087122,1134024,487971.94,1081665.50,1131062.62
490734,1086520,1133455,488138.00,1082015.25,1131252.00
490210,1085027,1132517,488302.75,1082357.00,1131436.12
489448,1082833,1131273,488461.75,1082677.87,1131606.75
488454,1080412,1129618,488608.88,1082961.87,1131754.25
486204,1075099,1126803,488736.63,1083188.62,1131866.75
485303,1072614,1125443,488835.88,1083334.75,1131931.75
484356,1070181,1124061,488898.81,1083385.50,1131941.50
482025,1067779,1123010,488921.47,1083335.25,1131893.75
482403,1067277,1122774,488901.56,1083184.00,1131789.50
482239,1067071,1122635,488838.25,1082936.25,1131632.25
482095,1067341,1123028,488734.13,1082602.25,1131428.25
482139,1067896,1123053,488593.94,1082196.25,1131185.50
482203,1068369,1123603,488423.03,1081733.00,1130912.25
482245,1068730,1123893,488226.63,1081226.25,1130617.00
482039,1069672,1124416,488009.22,1080687.75,1130307.75
482351,1069945,1124419,487774.97,1080128.62,1129990.62
482593,1070224,1124521,487528.56,1079559.62,1129670.12
482527,1070594,1125763,487274.38,1078989.25,1129349.75
483145,1071963,1125839,487016.50,1078426.25,1129034.75
483234,1072682,1126145,486759.56,1077880.50,1128731.75
483538,1073183,1126438,486507.38,1077360.50,1128445.50
483955,1074549,1127363,486261.06,1076872.25,1128179.25
484339,1074992,1127500,486022.44,1076421.75,1127936.75
484604,1075327,1127658,485797.06,1076013.12,1127719.62
484526,1075956,1128013,485588.78,1075647.25,1127527.25
484700,1075663,1127871,485397.63,1075323.62,1127358.87
484843,1075660,1127681,485223.72,1075040.25,1127213.37
484723,1075527,1127687,485066.97,1074794.50,1127088.62
484948,1075613,1127737,484925.88,1074583.25,1126983.00
484737,1075543,1127700,484798.97,1074404.12,1126895.00
484799,1075549,1127578,484686.19,1074254.37,1126823.00
483923,1076038,1128021,484587.25,1074131.87,1126765.75
484985,1076280,1128114,484501.63,1074035.75,1126722.50
485122,1076611,1128221,484429.44,1073966.87,1126694.25
485211,1076809,1128600,484370.69,1073925.12,1126680.62
485902,1077707,1128753,484326.03,1073910.62,1126681.75
485874,1078004,1128847,484296.88,1073924.50,1126697.50
486031,1078284,1128996,484283.00,1073966.62,1126727.50
486298,1079563,1129848,484283.41,1074036.00,1126771.62
486573,1079769,1129891,484297.88,1074133.37,1126831.75
486984,1080103,1130069,484327.25,1074259.62,1126907.25
486839,1080528,1131065,484371.56,1074414.00,1126997.50
487178,1081404,1130721,484429.66,1074595.87,1127101.75
487264,1081545,1130914,484500.56,1074805.00,1127220.00
487599,1081927,1131197,484583.84,1075039.25,1127351.50
487634,1082634,1131477,484676.63,1075296.75,1127495.75
487871,1082745,1131369,484776.13,1075576.37,1127651.50
488241,1082992,1131682,484884.63,1075875.75,1127817.00
488289,1083801,1132305,485004.38,1076191.75,1127991.00
488556,1083748,1132166,485134.50,1076522.50,1128172.75
488638,1083903,1132203,485274.00,1076866.50,1128361.75
488796,1084113,1132479,485421.94,1077221.75,1128557.00
489173,1084735,1132428,485576.94,1077586.62,1128757.50
489222,1084739,1132664,485738.19,1077960.00,1128962.00
489405,1085064,1132792,485905.56,1078339.62,1129169.25
488114,1085374,1133126,486078.06,1078723.75,1129378.50
489466,1085558,1133009,486253.63,1079111.00,1129589.00
489755,1085514,1133182,486432.00,1079499.50,1129799.87
489831,1085792,1132828,486613.38,1079887.00,1130010.50
489496,1084585,1132478,486796.25,1080269.50,1130218.12
488971,1083029,1131294,486977.13,1080638.00,1130417.00
488095,1080841,1129778,487150.72,1080979.87,1130598.50
485752,1075983,1127163,487310.44,1081280.25,1130750.62
484780,1073226,1125696,487447.13,1081519.75,1130860.75
484098,1070792,1124311,487551.06,1081675.75,1130920.37
483160,1068806,1122923,487617.06,1081734.75,1130925.25
481790,1066829,1122436,487641.94,1081692.12,1130874.25
481419,1066615,1122215,487622.94,1081549.00,1130768.75
481344,1066487,1122331,487561.31,1081313.75,1130613.50
480886,1067205,1122517,487459.31,1080999.25,1130416.12
480797,1067479,1122968,487319.13,1080620.00,1130184.50
481077,1067713,1123132,487147.00,1080189.25,1129926.75
481308,1068983,1123737,486950.50,1079718.25,1129649.87
481409,1069001,1123923,486735.56,1079218.75,1129360.37
481465,1069270,1123932,486506.75,1078702.25,1129064.25
481429,1069680,1124271,486267.75,1078177.37,1128765.75
482053,1071016,1125068,486022.06,1077653.75,1128470.37
482294,1071781,1125617,485774.44,1077141.75,1128184.25
482729,1072536,1125977,485530.25,1076650.75,1127912.50
482290,1073977,1126949,485293.25,1076187.00,1127658.75
483225,1074299,1127138,485065.91,1075756.87,1127426.37
483440,1074710,1127271,484851.06,1075365.25,1127218.00
483502,1074760,1127310,484650.78,1075014.25,1127034.50
483651,1074912,1127217,484465.75,1074702.75,1126874.00
483898,1074906,1127145,484296.63,1074428.87,1126734.75
483937,1074754,1127385,484144.06,1074190.50,1126615.25
483800,1075011,1127270,484007.44,1073984.75,1126514.75
483740,1074808,1127078,483885.25,1073809.75,1126431.50
483931,1074837,1127325,483776.69,1073662.75,1126363.50
483981,1075305,1127641,483681.75,1073541.75,1126309.75
484076,1075500,1127595,483600.19,1073445.87,1126269.37
484183,1075594,1127624,483531.75,1073375.37,1126242.75
484486,1076061,1127841,483476.44,1073330.12,1126229.62
484262,1076967,1128243,483432.25,1073311.00,1126230.25
484720,1077219,1128474,483396.97,1073319.50,1126245.12
484870,1077685,1128790,483373.19,1073356.00,1126274.87
485036,1078866,1129556,483363.19,1073419.75,1126319.12
485261,1078979,1129435,483366.69,1073510.75,1126377.87
485642,1079249,1129651,483383.94,1073630.00,1126451.50
485814,1079700,1129790,483415.28,1073776.50,1126539.87
486098,1080553,1130269,483460.25,1073950.00,1126642.12
486368,1080757,1130246,483518.38,1074150.25,1126758.00
486661,1080969,1130525,483590.13,1074375.50,1126886.50
485995,1081814,1131101,483675.63,1074622.87,1127026.50
486921,1081963,1131061,483773.88,1074891.25,1127177.50
487106,1082099,1131189,483883.75,1075179.25,1127338.75
487294,1082345,1131329,484004.31,1075484.37,1127509.50
487627,1082697,1131438,484135.06,1075804.00,1127687.87
487481,1083052,1131576,484275.19,1076136.50,1127872.87
487598,1083110,1131580,484422.78,1076480.25,1128063.00
487613,1083584,1131707,484575.88,1076832.25,1128256.75
487950,1083708,1131870,484733.38,1077190.50,1128453.12
488090,1084067,1132088,484895.31,1077554.37,1128651.50
488099,1084341,1132672,485061.38,1077922.50,1128851.87
488301,1084492,1132524,485230.59,1078293.25,1129054.00
488201,1084411,1132477,485401.88,1078664.87,1129257.12
488373,1084760,1132436,485574.06,1079035.75,1129460.00
487961,1083691,1131663,485744.34,1079404.50,1129659.62
487932,1082110,1130746,485909.38,1079764.25,1129850.12
487219,1080153,1129467,486067.56,1080100.50,1130024.25
486190,1075761,1127063,486215.00,1080397.00,1130173.75
484226,1073159,1125556,486343.31,1080636.00,1130288.87
483471,1070772,1124376,486443.25,1080796.37,1130358.50
482579,1068842,1123467,486509.50,1080865.37,1130376.75
481419,1067150,1122511,486539.31,1080838.75,1130342.12
480911,1066886,1122224,486530.38,1080717.75,1130255.62
480870,1067063,1122584,486482.75,1080510.50,1130121.75
480064,1067783,1123174,486399.88,1080229.37,1129947.75
480753,1068193,1123334,486286.38,1079888.00,1129742.12
480744,1068667,1123434,486146.06,1079500.37,1129512.62
480932,1068942,1124182,485983.06,1079078.62,1129266.00
481414,1070060,1124292,485802.69,1078633.75,1129008.50
481609,1070503,1124718,485610.88,1078177.00,1128746.50
481853,1071084,1125052,485412.38,1077718.00,1128485.50
482225,1073022,1126120,485210.81,1077265.25,1128231.37
482637,1073540,1126478,485010.19,1076829.12,1127990.37
483047,1074242,1126853,484815.25,1076419.00,1127766.50
483190,1075616,1127939,484629.75,1076041.00,1127562.25
483681,1075694,1127838,484456.06,1075699.50,1127380.00
483607,1076040,1127902,484296.06,1075397.25,1127221.37
483864,1076073,1128008,484150.44,1075134.50,1127086.50
483598,1076177,1127746,484017.44,1074910.25,1126973.50
483819,1075830,1127527,483895.19,1074721.87,1126879.62
483713,1075723,1127455,483784.75,1074564.75,1126801.75
483699,1076024,1127800,483686.94,1074434.62,1126738.25
483694,1075795,1127614,483600.69,1074329.25,1126688.25
483811,1075751,1127476,483525.44,1074246.75,1126650.87
483939,1076007,1127599,483461.13,1074185.50,1126624.25
484155,1076549,1127968,483407.75,1074145.25,1126608.50
484434,1076772,1128255,483365.69,1074126.62,1126604.25
484611,1077132,1128303,483335.94,1074129.75,1126612.25
484383,1078338,1128838,483318.69,1074154.50,1126631.75
484837,1078462,1129019,483313.38,1074201.50,1126662.75
485401,1078828,1129176,483320.50,1074273.00,1126706.75
485379,1079160,1129866,483340.94,1074369.50,1126763.50
485496,1080083,1129962,483374.13,1074490.75,1126833.25
485849,1080653,1130190,483419.38,1074638.00,1126917.00
486059,1080803,1130433,483476.84,1074811.37,1127014.75
486405,1082001,1131004,483546.06,1075009.12,1127126.75
486748,1082058,1130990,483626.84,1075230.75,1127252.87
486999,1082435,1131118,483720.19,1075476.00,1127391.87
487026,1083036,1131763,483826.13,1075743.25,1127541.75
487095,1083233,1131581,483943.19,1076030.87,1127701.50
486743,1083241,1131728,484068.75,1076336.75,1127870.37
487232,1083630,1131817,484200.75,1076658.00,1128047.50
487543,1084056,1131961,484337.78,1076992.87,1128231.62
487769,1084168,1132162,484479.31,1077340.00,1128421.50
487911,1084288,1132177,484626.81,1077696.75,1128616.25
488024,1085142,1132853,484781.03,1078059.75,1128814.00
488078,1085080,1132548,484940.75,1078427.25,1129014.00
488427,1085119,1132530,485105.25,1078799.12,1129215.75
488587,1085286,1132713,485274.44,1079173.75,1129418.50
488745,1086046,1133091,485447.75,1079550.37,1129621.87
488695,1086255,1132935,485624.00,1079929.25,1129826.00
488827,1086263,1133106,485802.13,1080309.75,1130029.37
488909,1086927,1133751,485981.56,1080689.62,1130231.50
489133,1086388,1133241,486161.91,1081067.25,1130431.62
489035,1085655,1132938,486342.38,1081438.50,1130628.25
488393,1084212,1130627,486520.38,1081795.87,1130817.50
486474,1079479,1128764,486688.88,1082123.00,1130988.75
485201,1076353,1127030,486837.28,1082395.25,1131126.37
484267,1073525,1125377,486956.91,1082592.12,1131218.00
481888,1068885,1122951,487042.50,1082700.25,1131254.62
481225,1066954,1122101,487088.22,1082708.00,1131229.25
480738,1066191,1121766,487088.34,1082605.62,1131140.75
480310,1065885,1122189,487042.09,1082396.12,1130994.62
479821,1066027,1122035,486951.91,1082091.25,1130798.00
479914,1066107,1121996,486821.19,1081704.50,1130559.50
479770,1066502,1122082,486654.81,1081249.50,1130286.50
479761,1067397,1122898,486457.00,1080740.50,1129986.87
480041,1067465,1122807,486232.25,1080191.12,1129669.00
480051,1067693,1123076,485987.19,1079613.00,1129338.75
480146,1068988,1123609,485727.63,1079015.50,1129001.00
479985,1069170,1123670,485457.19,1078409.00,1128661.00
480407,1069496,1123934,485179.50,1077804.50,1128323.87
480434,1070098,1124414,484898.72,1077210.50,1127994.50
481050,1071540,1125255,484618.69,1076635.75,1127678.25
481427,1072208,1125676,484343.81,1076089.50,1127380.62
481641,1072914,1125981,484078.94,1075579.12,1127105.25
481949,1073931,1126446,483827.06,1075108.75,1126853.50
482353,1073856,1126506,483590.47,1074681.00,1126627.00
482234,1073898,1126490,483371.22,1074296.50,1126425.50
482173,1073754,1126673,483169.47,1073953.87,1126248.00
482034,1073735,1126342,482983.94,1073650.25,1126092.75
482267,1073738,1126452,482813.91,1073382.75,1125958.00
482395,1073695,1126365,482659.63,1073149.25,1125842.25
482178,1074273,1126456,482520.97,1072947.75,1125744.25
482288,1074128,1126572,482396.94,1072777.75,1125663.00
482471,1074261,1126754,482286.94,1072637.62,1125598.00
482546,1075002,1127241,482190.94,1072526.00,1125549.12
482966,1075364,1127334,482109.44,1072442.75,1125516.25
482932,1075614,1127394,482042.94,1072389.50,1125499.75
482997,1076013,1127679,481990.94,1072366.50,1125499.37
483494,1076858,1128173,481953.09,1072373.50,1125515.37
483999,1077368,1128446,481930.84,1072412.00,1125548.62
483826,1077833,1128557,481925.00,1072482.25,1125598.75
484103,1079128,1129231,481934.63,1072583.25,1125665.12
484204,1079261,1129286,481958.63,1072714.87,1125747.25
484738,1079658,1129552,481997.03,1072877.87,1125845.25
484955,1080104,1129764,482050.41,1073071.50,1125958.87
485334,1081146,1130439,482118.28,1073294.87,1126087.75
485628,1081482,1130614,482200.03,1073548.25,1126232.50
485594,1081806,1130894,482295.91,1073829.75,1126392.50
485297,1082873,1131269,482405.19,1074137.00,1126566.25
486146,1082815,1131317,482526.94,1074467.75,1126752.25
486325,1083192,1131490,482660.66,1074820.25,1126949.50
486458,1083254,1131862,482805.44,1075192.25,1127156.62
486342,1083694,1131760,482959.50,1075580.25,1127371.75
486725,1083828,1131678,483121.13,1075981.75,1127593.25
486798,1084158,1131875,483289.63,1076393.75,1127819.25
486907,1084877,1132583,483463.75,1076814.62,1128049.25
487231,1084804,1132447,483642.41,1077242.87,1128284.00
487443,1085075,1132388,483825.81,1077676.50,1128521.75
487523,1086042,1133016,484014.00,1078113.50,1128760.50
487534,1086150,1132935,484205.63,1078554.00,1129000.00
487925,1086492,1133135,484399.81,1078997.75,1129240.00
488057,1086636,1133295,484596.56,1079444.00,1129480.25
488305,1087431,1133774,484795.31,1079891.75,1129721.00
488450,1087215,1133681,484995.25,1080340.37,1129962.00
488246,1087253,1133637,485195.88,1080787.00,1130202.25
488162,1085444,1132458,485395.56,1081227.50,1130438.37
486780,1082981,1130815,485589.66,1081650.25,1130663.00
485959,1080243,1129133,485770.75,1082034.75,1130863.37
484719,1077234,1127475,485931.19,1082360.37,1131027.75
482518,1071876,1124564,486064.06,1082606.12,1131144.50
481866,1069329,1123261,486162.00,1082749.62,1131202.25
480961,1067707,1122509,486218.44,1082779.87,1131196.25
479585,1066853,1121999,486229.88,1082698.00,1131127.87
479614,1066650,1121912,486195.88,1082511.50,1131001.50
479385,1066590,1121896,486118.25,1082231.37,1130823.50
479611,1067094,1122749,486001.28,1081870.75,1130602.00
479048,1067666,1122750,485849.81,1081444.37,1130346.25
479416,1068233,1123100,485668.09,1080967.25,1130065.00
479618,1068528,1123232,485461.63,1080452.25,1129765.25
479706,1069421,1123784,485236.16,1079910.87,1129453.75
479852,1069701,1123875,484996.34,1079353.87,1129136.25
480038,1070369,1124218,484746.84,1078791.62,1128818.25
480219,1071976,1125268,484492.13,1078233.62,1128503.75
480688,1072440,1125481,484236.56,1077689.25,1128198.75
481121,1073189,1126048,483984.94,1077169.25,1127909.12
481385,1073779,1126474,483741.56,1076680.50,1127639.50
481686,1074974,1126982,483509.19,1076229.12,1127393.25
481967,1075138,1126968,483289.97,1075819.50,1127171.87
482115,1075236,1127067,483086.19,1075452.87,1126975.25
481935,1075443,1127408,482898.56,1075127.25,1126801.75
481811,1075086,1126808,482726.00,1074840.37,1126649.37
481957,1074910,1126842,482567.47,1074588.75,1126516.25
482035,1074803,1126713,482422.94,1074369.00,1126400.75
482002,1074960,1126709,482291.63,1074178.62,1126301.37
482244,1075008,1126855,482172.75,1074016.12,1126216.87
482208,1074994,1126803,482067.13,1073879.75,1126146.62
481945,1075671,1126885,481974.69,1073768.62,1126090.00
482249,1075691,1127091,481894.25,1073682.75,1126046.87
482433,1075946,1127429,481825.81,1073621.75,1126017.00
482576,1076426,1128067,481769.75,1073585.25,1126000.62
482557,1077203,1128204,481725.88,1073574.25,1125998.25
483124,1077553,1128285,481694.31,1073590.50,1126011.25
483288,1077978,1128621,481676.13,1073633.75,1126039.62
483078,1079046,1129253,481671.56,1073704.25,1126084.25
483728,1079254,1129287,481680.06,1073801.87,1126145.75
484032,1079639,1129366,481702.25,1073927.50,1126223.00
484145,1080418,1129913,481738.56,1074080.00,1126314.25
484427,1080731,1129971,481788.50,1074258.37,1126418.25
484640,1080949,1129986,481851.75,1074462.25,1126535.37
484482,1081319,1130129,481927.31,1074690.00,1126664.25
485109,1082120,1130719,482013.38,1074940.25,1126804.12
485100,1082255,1130789,482109.38,1075212.37,1126955.25
485452,1082425,1130831,482215.88,1075504.25,1127116.75
485534,1083300,1131577,482333.06,1075812.50,1127286.75
485675,1083204,1131309,482460.06,1076135.50,1127464.25
485925,1083380,1131330,482595.88,1076471.50,1127648.50
485951,1083560,1131505,482739.75,1076818.75,1127838.25
486161,1083908,1131742,482890.13,1077174.87,1128032.75
486262,1083990,1131789,483045.75,1077538.00,1128231.25
486262,1084107,1131604,483206.00,1077905.75,1128432.00
486369,1084875,1131885,483369.66,1078276.25,1128633.25
486420,1084465,1131782,483535.19,1078648.00,1128833.87
486653,1084163,1131941,483702.34,1079018.25,1129032.87
486317,1083387,1130498,483870.44,1079381.75,1129228.25
484842,1080247,1129145,484034.69,1079727.62,1129413.00
484204,1077750,1127860,484187.06,1080038.00,1129575.50
483402,1075623,1126309,484321.41,1080295.75,1129706.00
481231,1070781,1123890,484433.28,1080488.75,1129794.75
480633,1068497,1122556,484516.53,1080601.75,1129831.75
480064,1067530,1122327,484564.19,1080619.75,1129813.37
479469,1066935,1122047,484573.31,1080541.00,1129742.00
479221,1066684,1121829,484544.63,1080373.25,1129622.00
479001,1066672,1122001,484480.38,1080125.75,1129459.50
478733,1067503,1122449,484383.56,1079810.50,1129262.00
479373,1068962,1123640,484257.66,1079443.25,1129039.12
479573,1069219,1123729,484108.63,1079040.12,1128800.75
479674,1069562,1123766,483943.00,1078612.75,1128553.25
479732,1070965,1124799,483765.50,1078169.25,1128300.25
479788,1071193,1124816,483579.28,1077719.50,1128046.75
480100,1071948,1125246,483387.63,1077273.87,1127798.75
480360,1072656,1125639,483194.31,1076841.50,1127561.00
480765,1074267,1126475,483002.31,1076430.75,1127338.00
481221,1074853,1127035,482814.94,1076050.62,1127134.25
481170,1075295,1126990,482636.16,1075706.00,1126952.37
481613,1076412,1127356,482467.91,1075399.12,1126793.00
481580,1075988,1127328,482311.09,1075131.00,1126655.62
481891,1075886,1127460,482167.34,1074900.50,1126539.62
482017,1075875,1127492,482038.13,1074704.25,1126443.50
481507,1075635,1127157,481922.69,1074539.25,1126365.00
481672,1075569,1127116,481819.00,1074401.75,1126302.00
481847,1075327,1126997,481726.44,1074288.75,1126252.00
481459,1075862,1127332,481644.59,1074197.25,1126214.25
481962,1075962,1127348,481572.72,1074126.75,1126188.50
482054,1076292,1127483,481511.41,1074077.87,1126174.50
482235,1076888,1127960,481461.44,1074050.75,1126171.50
482617,1077211,1128031,481423.31,1074045.50,1126180.00
482711,1077592,1128277,481397.91,1074063.75,1126200.75
482668,1078015,1128468,481384.81,1074105.50,1126234.00
483275,1079182,1129252,481383.47,1074172.50,1126280.87
483539,1079418,1129186,481394.69,1074266.50,1126342.37
483504,1079647,1129036,481419.38,1074387.25,1126417.25
483646,1081461,1130476,481456.75,1074532.50,1126503.62
484202,1081696,1130507,481506.50,1074703.62,1126602.50
484654,1081896,1130699,481569.94,1074903.25,1126716.75
484696,1082131,1130727,481647.72,1075130.62,1126846.50
484853,1082893,1131095,481738.56,1075383.62,1126990.00
485070,1083251,1131382,481840.88,1075661.12,1127146.62
485338,1083738,1131605,481954.50,1075961.87,1127315.75
485693,1084836,1131861,482078.84,1076284.25,1127496.25
485669,1084603,1131926,482212.50,1076626.75,1127686.75
486099,1085165,1132301,482355.66,1076987.75,1127886.25
486281,1085483,1132889,482509.00,1077365.75,1128094.75
486236,1085694,1132689,482671.50,1077758.50,1128311.50
486566,1085936,1132739,482841.75,1078163.50,1128534.87
486783,1085971,1132748,483019.09,1078577.37,1128762.75
486294,1086478,1133318,483202.97,1078997.75,1128994.00
486694,1086571,1133317,483391.69,1079423.12,1129228.87
486880,1086674,1133254,483583.09,1079850.87,1129466.00
487078,1087465,1133498,483776.22,1080278.62,1129703.00
487301,1087576,1133758,483970.88,1080705.25,1129939.12
487626,1087907,1133793,484167.25,1081131.50,1130174.50
487766,1088246,1133970,484365.59,1081557.37,1130409.00
487865,1088119,1133993,484565.63,1081981.50,1130641.75
487766,1087544,1133521,484766.25,1082399.87,1130870.87
487291,1086159,1132625,484964.78,1082805.37,1131091.75
486579,1081610,1130225,485156.63,1083186.25,1131296.75
484291,1078202,1127974,485333.50,1083521.25,1131473.75
483436,1075007,1126212,485484.63,1083782.50,1131607.12
482374,1072084,1124558,485602.69,1083949.50,1131685.50
480266,1068018,1122350,485682.59,1084007.87,1131701.50
479650,1067022,1121946,485718.72,1083948.00,1131650.50
479098,1066670,1121713,485707.56,1083772.62,1131534.75
478490,1067331,1121996,485649.00,1083493.50,1131361.62
478549,1067043,1121850,485545.56,1083125.00,1131139.25
478503,1067338,1122355,485402.59,1082682.00,1130876.25
478421,1067672,1123025,485225.88,1082178.75,1130581.00
478219,1068541,1123080,485019.81,1081629.50,1130262.37
478341,1068738,1123303,484788.81,1081047.50,1129928.00
478534,1069162,1123422,484537.84,1080444.12,1129584.12
478434,1069875,1124223,484272.63,1079829.00,1129236.75
478935,1070324,1124253,483998.50,1079211.87,1128892.00
479069,1071047,1124608,483719.63,1078602.12,1128554.25
479601,1072666,1125692,483440.16,1078008.62,1128227.37
479856,1073323,1125991,483164.88,1077440.75,1127916.00
479989,1073733,1126194,482897.41,1076907.25,1127625.62
480071,1074381,1126447,482639.94,1076413.50,1127358.87
480687,1075031,1126951,482394.13,1075963.00,1127117.25
480869,1075131,1126920,482162.41,1075557.37,1126901.62
480857,1075266,1126795,481947.31,1075196.25,1126711.25
480872,1075602,1127440,481749.50,1074877.75,1126544.00
480914,1075134,1126972,481568.50,1074598.62,1126399.00
481075,1075173,1126913,481404.16,1074356.37,1126274.75
481200,1075034,1126703,481256.59,1074148.00,1126169.50
481055,1075391,1126849,481125.06,1073971.75,1126081.00
481204,1075698,1127074,481008.31,1073826.25,1126008.75
481257,1075980,1127217,480906.19,1073711.50,1125952.50
481323,1077202,1127554,480818.28,1073627.25,1125912.25
481733,1077310,1127868,480744.44,1073574.50,1125888.50
482007,1077813,1128402,480685.88,1073554.87,1125882.25
482130,1078124,1129111,480643.63,1073568.25,1125894.25
482347,1079239,1128984,480617.34,1073615.00,1125924.75
482805,1079563,1129239,480607.25,1073695.87,1125973.75
482991,1079954,1129558,480613.91,1073810.25,1126041.00
482868,1081183,1130267,480637.47,1073957.12,1126126.75
483515,1081641,1130431,480677.69,1074137.00,1126231.75
483752,1082129,1130614,480734.06,1074350.00,1126355.12
484173,1083054,1131167,480806.19,1074595.00,1126495.25
484435,1083168,1131361,480894.25,1074870.00,1126651.00
484426,1083579,1131538,480997.38,1075173.00,1126822.37
484619,1083965,1131821,481113.81,1075502.00,1127008.25
485057,1084777,1132184,481242.09,1075855.12,1127207.62
485310,1084962,1132282,481381.56,1076231.00,1127419.50
485364,1085282,1132422,481532.44,1076626.75,1127642.25
485707,1086209,1132978,481694.19,1077039.75,1127873.62
485757,1086134,1132879,481865.81,1077467.75,1128112.25
486050,1086305,1132962,482046.19,1077908.25,1128357.00
486192,1086530,1132993,482234.47,1078358.75,1128606.75
486483,1086855,1133281,482429.34,1078816.25,1128859.75
486603,1087072,1133203,482629.63,1079278.75,1129114.75
486415,1087213,1133218,482834.41,1079744.00,1129370.00
486634,1088082,1133781,483041.59,1080209.87,1129624.00
486893,1088073,1133927,483249.88,1080675.62,1129877.12
487062,1088325,1134011,483459.69,1081140.62,1130129.75
487096,1088496,1134412,483671.00,1081603.50,1130381.25
487098,1089241,1134435,483882.56,1082063.62,1130630.75
487738,1089404,1134498,484094.00,1082521.25,1130878.37
487814,1089679,1134687,484306.31,1082975.75,1131123.50
487467,1089502,1134748,484519.38,1083425.75,1131365.75
487469,1088232,1133735,484731.25,1083866.75,1131602.37
486716,1086511,1132474,484937.72,1084287.50,1131826.50
486123,1081324,1129444,485133.25,1084673.75,1132028.00
483761,1078077,1127724,485309.88,1085003.62,1132194.50
482742,1075120,1126074,485456.94,1085249.50,1132311.37
481145,1072483,1124457,485565.81,1085393.00,1132369.00
480015,1068914,1122913,485631.41,1085423.62,1132362.00
479432,1068223,1122415,485651.22,1085335.00,1132288.75
479116,1068005,1122547,485624.69,1085132.50,1132153.00
478914,1068706,1123041,485553.88,1084829.00,1131962.75
478647,1068907,1123275,485442.63,1084439.62,1131727.50
478844,1069209,1123269,485295.56,1083981.37,1131456.75
479076,1069812,1123566,485118.63,1083469.37,1131158.37
479262,1070693,1124174,484917.00,1082918.00,1130840.00
479402,1071004,1124539,484695.13,1082340.87,1130509.75
479505,1071328,1124626,484459.34,1081748.50,1130174.00
479401,1072965,1125371,484213.88,1081150.50,1129838.00
479759,1073524,1125848,483961.44,1080558.00,1129507.00
480288,1074270,1126163,483707.44,1079982.50,1129187.50
480495,1075012,1127405,483457.63,1079432.75,1128884.12
480671,1076360,1127519,483215.41,1078916.25,1128601.87
481069,1076937,1127837,482983.38,1078440.12,1128344.25
481262,1077283,1127978,482764.13,1078008.50,1128113.00
480772,1077793,1128320,482559.69,1077622.37,1127908.00
481565,1077527,1128168,482371.19,1077281.50,1127729.25
481795,1077597,1128068,482199.19,1076982.87,1127574.75
481749,1077539,1128095,482043.88,1076723.50,1127442.25
481595,1077332,1127930,481904.38,1076500.25,1127329.62
481465,1077324,1127677,481779.06,1076309.50,1127234.37
481585,1077618,1127724,481666.59,1076149.00,1127154.00
482069,1077843,1128232,481566.63,1076018.00,1127088.25
482091,1078119,1128373,481479.78,1075916.00,1127037.75
482130,1078405,1128541,481406.88,1075841.87,1127003.25
482370,1079354,1129307,481348.16,1075795.50,1126983.87
482653,1079506,1129281,481303.91,1075776.75,1126979.87
482985,1079927,1129528,481274.75,1075787.00,1126992.50
483132,1080348,1129716,481261.25,1075826.37,1127022.00
483315,1081363,1130056,481262.13,1075895.25,1127068.00
483739,1081815,1130301,481276.66,1075995.00,1127130.25
483894,1082282,1130654,481306.13,1076125.75,1127208.75
483774,1083558,1130655,481349.41,1076286.75,1127302.50
484310,1083686,1131058,481404.25,1076478.25,1127410.87
484682,1084075,1131332,481472.44,1076699.50,1127533.00
484716,1084367,1132125,481555.53,1076948.62,1127669.00
485082,1085223,1132155,481652.59,1077223.87,1127818.75
485258,1085692,1132289,481763.03,1077524.62,1127982.25
485568,1085935,1132491,481886.34,1077849.50,1128158.25
484465,1086822,1133155,482021.16,1078196.00,1128346.00
485616,1086988,1133232,482165.41,1078562.25,1128546.00
485882,1087210,1133225,482317.94,1078946.62,1128756.50
486064,1087709,1133624,482478.53,1079346.25,1128975.00
486189,1087742,1133528,482646.44,1079758.25,1129199.75
486394,1087888,1133692,482820.69,1080179.75,1129429.75
486629,1088158,1133762,483000.75,1080608.50,1129663.62
486780,1088412,1134090,483185.81,1081042.12,1129900.50
487055,1088664,1134139,483375.06,1081478.87,1130140.00
487109,1088878,1134203,483568.31,1081916.87,1130380.50
487136,1089602,1134856,483764.78,1082354.50,1130620.75
487492,1089471,1134489,483963.50,1082790.25,1130859.75
487435,1089881,1134676,484163.97,1083224.00,1131097.25
487755,1089847,1134572,484365.56,1083654.75,1131332.50
487591,1090366,1135029,484566.44,1084081.25,1131565.00
487946,1090617,1135085,484764.81,1084503.25,1131794.75
488061,1090877,1135112,484961.75,1084920.62,1132021.50
487810,1091600,1135487,485156.69,1085333.75,1132244.75
488117,1091420,1135431,485347.44,1085742.87,1132464.00
488411,1091447,1135552,485535.13,1086146.12,1132679.25
488466,1091596,1135602,485721.38,1086541.00,1132889.87
487837,1089801,1134415,485904.69,1086923.00,1133092.62
487331,1087485,1133024,486080.84,1087280.37,1133280.50
486342,1084663,1131227,486244.63,1087596.25,1133443.75
482792,1079097,1128357,486388.94,1087854.25,1133569.75
482900,1076324,1126457,486504.19,1088033.75,1133644.50
482197,1073642,1125203,486581.81,1088112.12,1133659.25
481379,1070658,1123634,486618.06,1088076.75,1133610.37
480110,1069743,1123214,486610.88,1087925.75,1133498.00
479600,1069624,1123268,486558.38,1087662.75,1133325.00
479679,1069833,1123507,486462.25,1087299.25,1133099.25
479723,1070777,1124173,486327.31,1086852.00,1132830.50
479638,1071292,1124350,486159.00,1086338.75,1132529.00
479822,1071914,1124655,485962.88,1085775.87,1132203.25
480160,1073147,1125739,485745.16,1085177.50,1131860.62
480304,1073606,1125980,485511.72,1084557.25,1131509.25
480544,1074143,1126172,485267.75,1083928.50,1131157.25
480839,1074880,1126560,485017.91,1083302.25,1130810.25
481034,1076545,1127517,484764.72,1082689.37,1130474.00
481453,1077285,1127907,484510.56,1082101.75,1130154.50
481820,1078087,1128295,484261.88,1081547.75,1129856.00
482138,1079482,1129079,484022.81,1081033.50,1129581.12
482351,1079597,1129243,483794.63,1080563.75,1129332.00
482585,1079674,1129238,483581.06,1080141.00,1129110.25
482811,1079797,1129555,483385.25,1079764.37,1128915.25
482647,1079785,1129202,483207.50,1079431.87,1128745.00
482863,1079447,1129150,483047.16,1079140.37,1128598.00
482745,1079384,1129158,482903.66,1078885.75,1128472.25
481645,1079388,1129184,482775.88,1078664.75,1128366.25
482667,1079281,1129013,482662.41,1078474.75,1128278.25
482716,1079479,1129047,482562.34,1078313.25,1128206.37
482877,1080230,1129447,482475.34,1078179.25,1128149.37
483227,1080497,1129512,482401.81,1078073.25,1128107.25
483279,1080875,1129631,482342.44,1077996.50,1128079.87
483508,1081107,1129787,482297.13,1077949.62,1128067.25
483897,1082105,1130637,482265.69,1077932.75,1128069.75
484025,1082291,1130573,482248.06,1077947.00,1128089.25
484082,1082684,1130693,482244.75,1077991.50,1128124.87
484309,1083924,1131625,482255.56,1078065.37,1128175.62
484811,1083982,1131694,482280.59,1078168.50,1128241.87
484938,1084602,1131813,482320.56,1078301.62,1128324.75
485258,1084879,1131977,482375.31,1078464.50,1128423.37
485311,1085703,1132483,482443.13,1078656.25,1128537.00
485702,1086083,1132562,482522.25,1078876.25,1128665.50
485629,1086513,1132777,482613.38,1079123.25,1128807.62
485879,1087642,1133306,482714.81,1079395.37,1128961.75
486275,1087572,1133291,482824.38,1079691.50,1129126.75
486404,1087832,1133451,482944.19,1080010.25,1129302.25
486612,1088210,1134098,483075.41,1080349.00,1129487.50
486647,1088703,1134070,483216.81,1080705.62,1129681.37
486862,1088916,1133945,483367.06,1081078.50,1129883.37
487276,1089296,1134281,483525.59,1081465.25,1130092.25
486217,1089672,1134711,483692.00,1081863.50,1130307.50
487193,1089844,1134678,483864.41,1082271.00,1130528.87
487442,1089825,1134525,484041.28,1082685.50,1130754.37
487543,1090289,1134773,484222.06,1083104.00,1130981.37
487801,1090260,1134570,484406.19,1083523.75,1131207.87
487882,1090415,1134872,484593.25,1083943.50,1131433.00
488120,1090576,1135095,484782.69,1084361.25,1131656.50
488101,1090957,1135329,484973.44,1084775.87,1131879.25
488064,1091154,1135226,485163.63,1085186.87,1132100.25
488267,1091383,1135329,485352.72,1085593.25,1132318.62
488458,1092173,1135821,485540.94,1085994.50,1132533.25
488550,1092028,1135744,485728.25,1086390.00,1132744.00
488883,1092366,1135879,485914.69,1086780.25,1132951.50
488725,1092470,1135872,486100.09,1087165.25,1133155.75
488773,1092809,1136126,486282.50,1087544.50,1133356.50
488940,1092824,1136028,486460.38,1087917.00,1133553.25
488968,1092569,1135908,486634.47,1088281.37,1133745.00
487802,1090277,1134409,486803.19,1088634.25,1133929.37
487188,1087293,1132622,486960.75,1088963.87,1134098.50
486336,1084561,1130777,487101.19,1089246.75,1134238.50
485165,1081574,1127888,487219.00,1089461.75,1134337.00
482919,1076504,1126473,487306.00,1089590.00,1134383.50
482244,1074351,1125243,487353.63,1089612.87,1134369.00
481807,1072788,1124579,487358.69,1089522.37,1134290.50
479644,1072004,1124071,487322.00,1089322.00,1134150.25
480566,1072078,1124292,487244.38,1089021.00,1133954.25
480713,1072346,1124633,487128.19,1088632.25,1133710.75
480865,1073858,1125459,486978.75,1088170.25,1133429.25
480923,1074206,1125698,486801.88,1087651.87,1133119.75
481234,1074729,1126227,486603.22,1087094.50,1132791.62
481407,1075248,1126524,486388.31,1086512.00,1132453.62
481408,1076690,1127290,486162.06,1085917.00,1132112.62
481849,1077516,1127708,485928.88,1085323.25,1131775.75
482392,1078320,1128243,485693.59,1084742.12,1131448.75
482649,1080154,1129992,485461.25,1084182.25,1131136.37
483376,1080702,1129734,485236.38,1083652.75,1130843.50
483617,1081278,1130010,485023.44,1083162.25,1130575.37
483705,1081696,1130045,484824.88,1082715.00,1130334.00
483719,1082172,1130525,484640.19,1082313.00,1130119.75
484038,1082069,1130409,484468.78,1081955.87,1129932.62
484035,1081965,1130437,484312.69,1081641.50,1129771.00
483963,1082134,1130022,484172.06,1081366.75,1129632.50
483749,1081493,1129846,484044.94,1081128.12,1129513.50
483748,1081190,1129618,483930.28,1080920.50,1129410.75
483845,1081101,1129849,483827.94,1080739.75,1129322.00
483369,1081152,1129702,483736.69,1080583.00,1129245.75
483837,1081347,1129747,483655.19,1080449.00,1129181.50
484041,1081561,1129881,483584.06,1080337.50,1129129.12
483811,1082180,1130558,483524.47,1080248.25,1129089.37
484314,1082306,1130508,483476.50,1080181.87,1129063.62
484571,1082767,1130561,483440.38,1080139.00,1129051.62
484743,1083686,1131193,483416.66,1080120.25,1129052.25
485089,1084034,1131273,483405.72,1080126.37,1129065.62
485252,1084437,1131433,483408.06,1080159.37,1129092.75
485133,1085030,1131672,483423.06,1080220.25,1129134.00
485803,1085903,1132240,483449.72,1080309.50,1129189.50
486034,1086298,1132547,483488.50,1080428.50,1129260.50
486368,1086768,1132738,483541.00,1080576.62,1129346.75
486526,1088089,1133748,483607.69,1080752.50,1129448.25
486879,1088111,1133536,483688.25,1080955.62,1129564.62
486955,1088291,1133749,483782.19,1081185.75,1129696.25
487192,1088538,1133865,483888.63,1081441.12,1129841.87
487476,1089389,1134299,484006.31,1081719.50,1130000.50
487421,1089446,1134275,484133.88,1082019.87,1130171.12
487683,1089768,1134389,484270.56,1082339.75,1130352.00
487745,1090611,1134421,484415.31,1082676.50,1130541.25
488016,1090505,1134601,484566.81,1083028.12,1130737.25
488272,1090381,1134726,484725.25,1083392.25,1130938.75
488256,1090816,1135000,484890.56,1083765.75,1131144.12
488031,1090739,1134950,485060.75,1084146.00,1131352.50
488514,1090841,1134917,485234.03,1084530.25,1131562.75
488638,1091029,1134995,485410.31,1084915.75,1131773.00
488285,1091732,1135630,485589.56,1085301.25,1131983.25
488810,1091860,1135428,485770.94,1085686.37,1132193.75
488830,1092094,1135529,485953.19,1086071.25,1132404.00
489076,1092486,1135826,486135.53,1086454.62,1132612.50
489263,1092447,1135910,486317.91,1086835.25,1132819.00
489324,1092386,1135792,486500.22,1087211.50,1133023.00
489091,1092153,1135635,486681.25,1087581.25,1133223.50
488582,1090045,1134205,486858.69,1087937.75,1133415.50
487648,1087614,1132708,487028.16,1088267.12,1133590.87
486712,1084808,1130899,487182.75,1088552.50,1133738.62
485418,1079485,1128201,487315.19,1088776.87,1133848.37
483497,1076458,1126449,487417.00,1088920.00,1133909.25
482676,1074196,1125172,487480.25,1088961.25,1133911.12
481760,1072456,1124365,487500.75,1088890.50,1133849.75
480740,1071342,1123785,487477.13,1088709.00,1133726.50
480554,1071388,1123924,487409.25,1088423.75,1133546.25
480738,1071811,1124156,487300.31,1088048.12,1133317.00
480745,1073251,1124859,487155.56,1087598.00,1133047.75
480964,1073582,1125289,486980.84,1087090.75,1132748.50
481205,1074001,1125675,486782.41,1086542.50,1132429.00
481285,1074574,1126318,486566.13,1085967.12,1132097.50
481317,1075938,1126684,486336.44,1085377.25,1131760.87
481760,1076463,1127054,486097.75,1084786.00,1131426.00
482157,1077303,1127441,485855.19,1084203.75,1131098.50
482412,1078991,1128536,485613.66,1083639.50,1130783.75
482785,1079527,1128890,485377.00,1083102.75,1130488.25
483117,1080149,1129273,485148.91,1082601.62,1130215.75
483575,1081594,1130056,484932.94,1082141.75,1129968.12
483791,1081610,1129967,484731.94,1081727.25,1129746.62
483987,1081716,1130018,484547.56,1081359.50,1129552.00
484041,1081910,1130110,484380.47,1081037.75,1129383.75
484175,1081749,1130279,484230.53,1080759.50,1129240.62
484178,1081956,1130055,484097.38,1080521.75,1129121.00
484165,1081688,1129898,483980.38,1080321.50,1129022.50
484133,1081903,1130061,483878.38,1080155.37,1128941.87
484104,1081681,1130013,483790.19,1080020.25,1128877.50
484275,1081760,1129922,483715.00,1079913.62,1128828.50
484169,1081927,1130103,483652.25,1079833.00,1128793.75
484483,1082359,1130264,483600.69,1079777.75,1128772.62
484753,1082510,1130343,483560.22,1079747.25,1128764.62
484874,1082713,1130369,483532.28,1079740.75,1128769.00
484946,1083943,1130985,483517.06,1079757.50,1128785.00
485178,1084059,1131316,483513.75,1079798.75,1128813.50
485472,1084503,1131436,483522.84,1079866.00,1128856.00
485660,1085019,1132115,483544.94,1079959.25,1128912.50
485579,1085838,1132174,483579.44,1080079.25,1128983.25
486180,1086379,1132500,483625.78,1080226.75,1129068.75
486565,1086793,1132715,483685.00,1080401.75,1129169.25
486308,1087776,1133226,483757.44,1080603.50,1129284.25
486862,1088067,1133456,483842.13,1080831.25,1129414.12
487111,1088468,1133713,483938.69,1081085.00,1129558.37
487518,1089349,1134035,484047.44,1081362.62,1129716.12
487900,1089719,1134112,484168.81,1081663.00,1129886.12
487851,1089971,1134412,484302.44,1081985.75,1130067.37
487994,1090150,1134488,484446.69,1082329.00,1130258.75
488270,1090761,1134735,484599.94,1082690.00,1130459.00
488435,1090705,1134787,484761.25,1083066.37,1130666.50
488065,1090919,1134934,484929.25,1083455.12,1130880.12
488432,1091663,1135389,485101.81,1083852.50,1131098.00
488666,1091365,1135147,485278.28,1084256.00,1131318.75
489004,1091582,1135283,485459.00,1084663.75,1131541.50
489052,1091480,1135266,485643.94,1085073.62,1131765.12
489140,1092158,1135408,485831.94,1085483.75,1131988.50
489118,1092243,1135511,486021.19,1085893.62,1132210.50
489308,1092296,1135546,486211.00,1086301.75,1132430.62
489166,1093374,1136142,486400.94,1086706.50,1132648.12
489645,1093081,1136124,486590.59,1087107.25,1132863.12
489561,1093067,1136174,486779.66,1087504.25,1133076.25
489790,1093367,1136520,486967.47,1087895.75,1133287.25
489924,1093621,1136288,487153.75,1088281.50,1133495.25
489972,1093610,1136372,487338.31,1088660.50,1133699.50
489944,1092939,1135880,487520.34,1089030.12,1133898.37
488691,1089911,1133930,487697.63,1089384.25,1134085.75
487799,1086725,1132043,487864.31,1089707.75,1134250.00
486435,1083803,1130356,488011.25,1089975.50,1134379.25
485340,1077986,1127572,488129.88,1090166.75,1134464.00
483448,1075305,1125962,488212.75,1090262.25,1134494.37
482352,1073134,1124595,488252.50,1090243.00,1134461.25
481757,1071943,1123961,488245.31,1090102.75,1134361.12
480863,1071360,1123986,488191.47,1089848.00,1134197.87
480827,1071731,1124211,488092.81,1089491.25,1133979.50
480656,1071987,1124496,487952.84,1089046.75,1133715.25
480831,1073816,1125402,487776.50,1088530.25,1133414.50
480676,1073869,1125478,487569.41,1087958.87,1133086.25
481210,1074329,1125667,487337.44,1087349.87,1132739.50
481402,1074820,1126015,487087.19,1086717.12,1132382.00
481968,1076131,1126799,486824.81,1086073.00,1132020.62
481984,1076627,1127383,486555.63,1085430.25,1131663.00
482230,1077211,1127562,486284.38,1084798.75,1131315.50
482842,1079000,1128654,486015.31,1084185.75,1130981.50
483300,1079608,1128843,485752.94,1083600.75,1130665.12
483398,1080212,1129354,485502.06,1083053.00,1130371.75
483744,1080946,1129837,485265.63,1082549.00,1130105.00
483915,1081544,1130021,485045.50,1082092.25,1129866.25
484078,1081577,1129957,484842.88,1081684.00,1129655.75
484093,1081683,1129975,484658.13,1081322.87,1129472.25
484168,1081856,1129916,484490.63,1081007.12,1129313.87
484233,1081511,1129743,484339.56,1080734.00,1129178.25
484392,1081410,1129691,484205.19,1080499.25,1129063.00
484341,1081463,1130088,484087.56,1080298.75,1128965.75
484227,1081385,1129738,483985.44,1080129.25,1128885.25
484072,1081579,1129959,483897.03,1079989.00,1128820.75
484495,1081824,1130109,483821.28,1079877.00,1128771.87
484731,1082515,1130393,483757.50,1079793.00,1128738.75
484890,1082749,1130486,483705.19,1079738.12,1128721.25
484998,1083077,1130583,483666.09,1079711.75,1128718.75
485162,1084071,1131450,483641.44,1079712.87,1128730.50
485405,1084402,1131442,483630.91,1079741.50,1128756.75
485685,1084606,1131539,483634.69,1079799.12,1128798.75
486086,1085234,1131862,483653.25,1079885.87,1128856.25
486327,1086007,1132274,483686.69,1080001.87,1128929.25
486337,1086511,1132431,483734.25,1080147.62,1129017.62
486644,1086808,1132758,483795.44,1080322.50,1129121.00
486439,1087934,1133236,483869.88,1080524.50,1129238.75
487159,1088061,1133493,483957.31,1080752.25,1129370.50
487394,1088386,1133503,484057.59,1081006.00,1129516.25
487285,1088644,1134102,484169.94,1081284.00,1129674.50
487742,1089585,1134153,484292.91,1081584.37,1129844.12
488144,1089646,1134405,484426.63,1081906.50,1130025.25
488040,1089796,1134537,484570.91,1082247.50,1130216.75
488347,1090419,1134702,484724.00,1082604.25,1130417.50
488545,1090448,1134730,484884.69,1082974.25,1130625.87
488511,1090530,1134622,485052.50,1083355.25,1130839.50
488715,1090971,1135483,485226.34,1083744.25,1131056.37
488826,1090894,1135063,485405.19,1084138.50,1131275.62
488871,1091081,1135156,485587.94,1084536.00,1131496.75
489152,1091329,1135109,485773.69,1084934.75,1131718.50
489007,1092041,1135530,485959.81,1085334.50,1131939.87
489425,1092048,1135328,486143.69,1085735.00,1132160.50
489523,1092343,1135638,486327.63,1086135.37,1132379.25
489490,1093120,1136184,486513.06,1086533.62,1132595.50
489479,1092854,1136026,486698.63,1086928.75,1132808.87
489885,1093008,1136061,486883.53,1087320.00,1133019.87
490040,1093313,1136026,487068.25,1087707.37,1133228.25
490254,1093606,1136359,487252.66,1088090.37,1133433.37
490044,1093541,1136312,487435.66,1088468.00,1133635.00
489997,1092933,1136107,487616.06,1088837.62,1133832.50
488049,1089909,1134038,487792.31,1089192.75,1134022.00
487725,1086942,1132312,487958.75,1089518.25,1134194.25
486663,1084425,1130551,488105.59,1089791.25,1134334.50
485843,1081330,1127569,488225.13,1089991.75,1134430.87
483819,1076492,1126348,488311.03,1090102.25,1134473.87
482974,1074744,1125337,488356.13,1090105.87,1134455.25
482313,1073446,1124871,488356.94,1089997.50,1134373.00
481580,1072898,1124678,488313.72,1089782.00,1134231.50
481612,1072953,1124669,488228.56,1089469.50,1134036.87
481596,1073437,1125113,488105.31,1089073.37,1133797.25
481670,1073994,1126341,487949.09,1088609.50,1133522.00
481823,1075211,1126332,487765.38,1088094.25,1133221.00
481990,1075797,1126639,487559.78,1087544.00,1132903.62
482194,1076533,1126937,487337.63,1086972.75,1132577.75
482309,1077747,1127553,487101.19,1086392.75,1132249.25
482741,1078241,1127862,486853.06,1085815.87,1131924.37
483046,1078820,1128395,486601.22,1085251.25,1131608.25
483369,1080895,1129359,486352.94,1084706.00,1131305.50
483762,1081292,1129694,486112.06,1084189.25,1131020.62
484176,1081794,1130037,485882.31,1083709.62,1130758.37
484426,1082369,1130378,485666.69,1083272.25,1130521.50
484675,1082756,1130551,485467.03,1082879.50,1130311.12
484799,1082739,1130471,485284.25,1082531.00,1130126.75
484887,1082655,1130316,485119.00,1082224.75,1129966.25
483419,1082175,1130131,484970.50,1081957.25,1129827.62
484569,1082058,1129957,484836.69,1081724.50,1129708.50
484666,1081862,1129790,484716.53,1081521.75,1129605.75
484667,1081858,1130055,484609.94,1081345.75,1129516.75
484674,1081896,1129919,484516.28,1081194.00,1129440.50
484666,1081970,1130044,484434.72,1081065.50,1129376.87
485005,1082208,1130105,484365.06,1080958.75,1129325.50
485153,1082953,1130699,484307.47,1080873.75,1129286.75
485141,1083219,1130699,484261.72,1080811.50,1129261.87
485588,1083515,1130906,484228.19,1080773.25,1129250.75
485514,1083839,1131536,484207.56,1080759.75,1129253.00
485849,1084636,1131543,484199.69,1080771.00,1129269.00
485989,1085294,1131808,484204.44,1080809.12,1129299.50
486260,1085650,1131889,484221.91,1080875.00,1129344.50
486452,1086459,1132250,484250.00,1080968.75,1129403.25
486642,1086722,1132464,484286.75,1081090.75,1129475.75
487043,1087217,1132762,484334.69,1081240.00,1129561.75
486980,1088160,1133663,484395.97,1081415.00,1129660.75
487311,1088174,1133354,484469.69,1081614.62,1129772.75
487469,1088451,1133545,484555.25,1081838.25,1129897.25
487939,1088752,1133783,484652.69,1082083.87,1130033.87
488007,1089361,1134088,484761.81,1082350.25,1130182.00
488151,1089521,1134013,484881.69,1082635.75,1130340.75
488331,1089838,1134232,485011.34,1082938.50,1130508.25
487186,1090219,1134644,485149.16,1083256.25,1130683.00
488274,1090444,1134674,485292.81,1083586.87,1130864.25
488764,1090667,1134741,485441.84,1083928.75,1131051.50
489101,1090825,1135057,485597.44,1084279.50,1131244.00
489076,1091545,1135149,485759.75,1084638.12,1131441.12
489151,1091532,1135056,485927.50,1085003.75,1131641.75
489253,1091533,1135175,486099.19,1085374.37,1131844.12
489341,1092128,1135728,486273.75,1085747.25,1132048.00
489545,1091952,1135433,486450.44,1086121.00,1132253.50
489713,1092121,1135408,486628.91,1086493.75,1132458.50
489579,1091541,1134920,486808.47,1086862.50,1132660.75
488869,1089031,1133516,486986.19,1087218.75,1132855.25
487810,1086680,1131933,487156.25,1087546.87,1133032.00
486643,1084103,1130622,487310.94,1087829.75,1133180.37
484724,1078850,1127892,487441.38,1088052.50,1133290.12
483883,1076485,1126474,487539.06,1088197.25,1133349.87
483378,1074493,1125334,487599.34,1088245.37,1133352.75
482756,1073129,1124631,487621.44,1088188.75,1133297.75
481768,1072422,1124466,487604.72,1088030.37,1133187.25
481516,1072431,1124459,487548.56,1087778.00,1133026.25
481529,1072658,1124697,487455.38,1087443.37,1132822.00
481436,1073576,1125227,487328.91,1087041.00,1132582.75
481657,1074148,1125503,487173.44,1086586.75,1132317.37
481757,1074440,1125812,486994.94,1086094.25,1132033.25
481039,1075638,1126580,486799.00,1085574.75,1131736.75
482034,1076068,1126692,486589.81,1085039.75,1131434.12
482279,1076705,1126968,486371.81,1084501.00,1131131.50
482535,1077544,1127836,486149.47,1083968.75,1130834.62
482896,1079001,1128119,485926.94,1083453.00,1130548.75
483273,1079486,1128519,485708.38,1082963.50,1130278.50
483572,1080099,1128928,485497.50,1082506.00,1130027.12
483878,1081376,1129927,485297.00,1082085.00,1129798.12
484247,1081600,1129873,485109.31,1081704.00,1129595.00
484314,1081538,1129890,484936.50,1081365.50,1129417.75
484484,1081689,1130177,484779.56,1081068.37,1129264.87
484325,1081447,1129914,484638.28,1080809.75,1129134.37
484329,1081402,1129674,484511.56,1080586.75,1129024.37
484329,1081114,1129523,484398.38,1080395.12,1128932.25
484199,1081467,1129598,484295.97,1080233.25,1128855.75
484379,1081480,1129631,484201.97,1080099.87,1128793.50
484460,1081656,1129617,484118.38,1079993.25,1128744.50
484594,1082607,1130307,484047.16,1079911.25,1128708.00
484788,1082524,1130361,483988.44,1079853.75,1128684.50
485065,1082739,1130472,483942.56,1079821.50,1128675.00
485243,1083265,1130644,483910.13,1079815.00,1128679.75
485389,1084103,1131053,483890.00,1079835.12,1128698.87
485567,1084353,1131358,483880.94,1079883.00,1128732.75
486044,1084912,1131612,483884.63,1079958.62,1128781.62
485185,1085765,1132207,483902.75,1080061.50,1128845.37
486315,1086390,1132274,483934.81,1080192.50,1128923.75
486677,1086828,1132524,483980.63,1080352.37,1129017.00
486750,1087387,1133095,484040.31,1080541.25,1129124.75
487425,1088137,1133211,484113.88,1080758.37,1129247.00
487668,1088388,1133363,484202.31,1081003.25,1129383.50
487732,1088692,1133585,484305.38,1081273.37,1129533.00
487842,1089419,1134295,484421.41,1081566.12,1129695.62
488076,1089702,1134195,484548.84,1081879.62,1129871.37
488257,1089802,1134253,484686.91,1082212.50,1130058.50
488493,1090160,1134874,484835.00,1082562.25,1130254.50
488085,1090379,1134690,484991.31,1082926.25,1130458.00
488687,1090610,1134701,485153.78,1083302.25,1130668.25
488820,1090828,1134827,485322.19,1083687.50,1130883.37
488817,1091185,1134963,485494.28,1084080.50,1131102.25
488869,1091364,1135035,485666.69,1084479.75,1131323.50
489164,1091666,1135095,485840.84,1084883.25,1131546.00
489220,1092113,1135387,486018.44,1085288.50,1131768.25
489473,1092206,1135431,486199.00,1085694.00,1131989.50
489475,1092395,1135527,486381.88,1086098.87,1132209.50
489777,1092718,1135608,486566.50,1086502.75,1132428.00
489883,1093100,1135973,486751.31,1086904.75,1132644.75
490059,1093177,1135886,486934.88,1087304.25,1132859.50
490218,1093169,1136046,487118.44,1087699.75,1133071.75
488802,1091934,1135265,487302.69,1088088.25,1133280.00
489084,1090254,1134236,487484.28,1088461.75,1133479.50
488321,1087692,1132527,487656.75,1088804.62,1133660.75
486756,1084963,1129077,487812.41,1089098.75,1133812.50
484886,1078907,1127607,487941.53,1089322.00,1133921.75
483814,1076213,1126210,488034.59,1089449.00,1133975.25
482913,1074149,1125092,488086.19,1089465.50,1133966.25
481665,1072136,1124165,488094.00,1089369.25,1133893.75
481273,1071670,1124115,488056.91,1089163.50,1133760.00
480997,1071729,1124009,487975.50,1088855.75,1133571.50
480890,1071864,1124945,487852.91,1088459.00,1133335.75
480312,1072531,1124725,487692.88,1087988.25,1133062.12
480688,1073066,1124941,487499.38,1087459.37,1132759.25
480982,1073346,1125207,487278.56,1086886.75,1132434.87
480890,1074082,1125722,487035.13,1086282.87,1132096.00
481086,1074538,1126023,486772.31,1085659.75,1131750.00
481172,1074860,1126057,486496.75,1085028.00,1131402.00
481494,1076512,1126901,486214.97,1084396.50,1131056.62
481770,1077041,1127280,485931.63,1083776.00,1130718.87
482251,1077656,1127800,485651.44,1083177.37,1130395.25
482456,1078442,1128283,485378.75,1082608.87,1130090.25
482883,1079741,1129004,485115.25,1082077.37,1129808.37
483220,1080030,1129066,484862.69,1081589.25,1129552.37
483179,1080239,1129005,484625.25,1081147.00,1129322.62
482223,1080551,1129288,484405.38,1080749.50,1129117.75
483222,1080438,1129312,484202.94,1080395.75,1128936.62
483387,1080454,1129324,484017.50,1080083.50,1128779.00
483361,1080522,1129306,483848.88,1079810.75,1128643.50
483714,1080706,1129134,483697.16,1079575.50,1128527.87
483653,1080751,1129414,483562.56,1079375.75,1128430.75
483778,1081150,1129449,483444.81,1079210.12,1128351.75
483711,1082141,1130139,483343.28,1079078.37,1128291.25
484117,1082320,1130175,483258.00,1078981.25,1128250.25
484837,1082758,1130518,483189.94,1078919.75,1128228.62
484702,1083147,1131374,483140.31,1078893.25,1128226.00
484957,1084176,1131466,483108.69,1078902.25,1128242.75
485264,1084473,1131327,483094.38,1078947.50,1128279.50
485488,1085065,1131801,483097.44,1079028.50,1128335.50
485822,1085965,1132310,483116.13,1079144.50,1128410.25
486008,1086278,1132436,483148.69,1079295.75,1128504.00
486248,1086662,1132711,483196.69,1079480.25,1128616.00
486305,1087527,1132878,483261.13,1079695.50,1128744.25
486614,1087550,1133052,483340.69,1079938.50,1128887.25
486871,1087910,1133095,483434.81,1080208.25,1129043.50
486887,1088169,1133328,483542.63,1080502.37,1129211.50
487076,1088491,1133568,483660.72,1080818.25,1129389.75
487443,1088707,1133825,483786.66,1081153.00,1129577.75
487532,1088770,1133888,483922.25,1081503.50,1129774.37
486565,1089160,1134100,484067.88,1081865.87,1129977.75
487478,1089096,1134010,484221.16,1082236.50,1130185.50
487744,1089213,1133953,484380.56,1082613.50,1130396.50
487721,1089488,1134162,484545.41,1082994.75,1130609.00
488118,1089730,1134210,484714.88,1083378.87,1130822.25
488329,1089853,1134276,484889.06,1083764.12,1131035.00
488283,1090066,1134317,485067.50,1084149.00,1131246.62
488322,1090653,1134781,485248.31,1084532.00,1131456.75
488683,1090752,1134795,485430.13,1084913.00,1131665.62
488764,1090859,1134803,485613.50,1085291.50,1131873.00
488676,1091216,1135889,485798.09,1085666.62,1132077.75
488745,1091522,1135378,485982.38,1086038.37,1132280.50
488962,1091767,1135177,486165.56,1086406.50,1132481.00
489285,1091970,1135302,486347.91,1086770.62,1132678.37
489115,1092204,1135609,486528.06,1087130.75,1132872.12
489171,1091720,1135128,486703.63,1087485.50,1133061.75
488772,1090731,1134343,486874.38,1087829.37,1133243.62
488278,1086858,1131888,487038.84,1088152.62,1133411.87
486178,1083862,1130244,487190.16,1088437.50,1133556.25
485609,1080827,1128707,487319.13,1088659.25,1133662.12
484218,1078116,1127211,487418.97,1088798.12,1133719.50
481816,1073479,1124720,487482.00,1088839.00,1133720.62
481278,1072278,1124274,487500.00,1088769.12,1133659.50
480970,1071780,1124123,487470.94,1088588.00,1133537.37
479707,1071790,1124242,487397.50,1088305.75,1133360.75
480191,1072129,1124514,487282.53,1087935.75,1133137.75
480414,1072512,1124745,487130.19,1087493.12,1132877.25
480345,1072796,1125385,486946.03,1086992.75,1132587.37
480606,1073869,1125564,486735.75,1086448.75,1132275.75
480628,1074113,1125633,486504.88,1085874.87,1131950.37
480685,1074461,1125862,486258.13,1085282.50,1131617.25
480923,1075655,1126828,485999.66,1084680.87,1131282.25
481184,1076157,1126968,485734.00,1084080.50,1130952.50
481531,1076989,1127292,485466.19,1083492.00,1130632.75
481873,1077682,1128525,485200.97,1082924.87,1130326.00
482180,1078965,1128654,484942.44,1082386.87,1130036.75
482670,1079476,1128896,484694.31,1081885.50,1129769.87
482618,1079785,1128931,484459.50,1081425.00,1129527.50
482716,1080043,1129074,484238.19,1081006.87,1129309.50
482549,1079757,1128776,484029.56,1080631.00,1129114.50
482617,1079510,1128605,483834.19,1080293.50,1128940.12
482572,1079585,1128579,483652.59,1079989.75,1128783.75
482716,1079147,1128473,483484.75,1079716.75,1128643.50
482620,1079043,1128358,483330.50,1079471.62,1128518.25
482542,1079112,1128368,483189.19,1079252.50,1128406.75
482363,1079356,1128560,483058.13,1079058.37,1128308.25
482853,1079493,1128689,482935.94,1078889.00,1128223.00
482965,1079812,1128833,482825.38,1078744.00,1128151.12
482415,1080508,1129368,482728.22,1078624.00,1128092.75
483216,1080984,1129427,482643.88,1078530.25,1128048.00
483411,1081150,1129598,482573.06,1078464.00,1128018.00
483695,1081521,1130142,482516.91,1078425.50,1128003.25
483835,1082448,1130310,482475.69,1078415.25,1128004.00
483931,1082867,1130383,482449.13,1078435.00,1128020.75
484356,1083405,1130664,482437.13,1078484.75,1128053.12
484570,1084266,1131307,482439.75,1078564.75,1128101.50
484774,1084497,1131401,482456.63,1078674.50,1128166.62
485103,1084838,1131582,482488.25,1078813.25,1128248.00
485115,1085123,1132121,482534.75,1078979.87,1128344.12
485233,1085536,1131868,482594.88,1079172.00,1128453.75
485482,1085864,1131996,482667.50,1079388.00,1128575.25
485678,1086241,1132260,482752.09,1079626.12,1128708.00
485820,1086964,1132718,482846.88,1079885.50,1128851.50
486193,1087197,1132750,482950.19,1080165.50,1129005.75
486191,1087552,1132922,483063.25,1080464.50,1129169.50
486526,1088410,1133422,483186.53,1080780.00,1129341.62
486982,1088439,1133393,483320.00,1081110.25,1129521.75
486966,1088708,1133578,483463.75,1081454.87,1129709.00
487172,1089082,1133844,483616.69,1081812.25,1129902.75
487285,1089621,1134239,483775.38,1082181.25,1130103.00
487489,1090052,1134241,483937.06,1082561.25,1130309.25
487644,1090268,1134400,484103.50,1082951.00,1130520.37
486951,1090293,1134542,484276.41,1083348.25,1130735.00
487561,1089834,1134294,484454.25,1083749.50,1130951.25
487520,1089019,1133605,484634.38,1084147.50,1131165.62
486917,1087380,1131171,484813.44,1084533.25,1131372.00
485124,1082618,1129693,484984.78,1084888.62,1131559.25
484173,1079773,1128115,485138.56,1085189.37,1131713.00
483076,1076780,1126605,485267.00,1085415.00,1131822.75
480909,1072591,1124439,485364.19,1085552.00,1131880.12
480350,1071218,1123926,485423.94,1085589.75,1131879.25
479879,1070715,1123535,485441.50,1085522.75,1131820.75
479716,1070609,1124275,485416.88,1085356.00,1131709.25
479141,1070982,1123893,485352.69,1085102.00,1131551.87
479463,1071150,1123988,485252.22,1084773.87,1131356.75
479347,1071538,1124254,485120.38,1084385.00,1131131.00
479141,1072611,1124901,484960.50,1083948.50,1130882.00
479319,1072828,1125005,484775.50,1083478.00,1130617.50
479362,1073071,1125115,484570.94,1082984.37,1130343.00
479493,1074206,1125877,484352.44,1082476.25,1130062.50
479773,1074562,1125992,484124.25,1081962.50,1129780.75
480080,1075117,1126454,483891.09,1081453.75,1129503.87
480343,1075786,1126736,483657.31,1080958.50,1129236.75
480624,1077415,1127656,483424.63,1080485.25,1128984.00
480795,1077743,1127929,483194.44,1080042.75,1128749.75
481109,1078372,1128204,482971.88,1079635.62,1128537.00
480740,1079000,1128704,482761.38,1079266.75,1128346.75
481416,1079026,1128588,482564.38,1078937.37,1128179.50
481442,1078917,1128463,482381.69,1078646.62,1128034.50
481381,1078940,1128511,482213.38,1078392.25,1127909.50
481849,1078835,1128353,482059.69,1078171.50,1127802.50
481778,1078901,1128442,481921.47,1077981.75,1127712.25
481654,1078782,1128302,481798.31,1077820.75,1127637.37
481756,1079252,1128752,481689.00,1077686.25,1127577.25
481952,1079368,1128656,481593.38,1077577.50,1127531.87
482164,1079681,1128736,481511.69,1077494.50,1127500.25
482177,1079892,1129505,481444.00,1077437.00,1127481.75
482254,1080640,1129368,481389.75,1077405.12,1127476.37
482682,1081041,1129681,481348.78,1077400.00,1127485.25
482750,1081364,1129815,481321.72,1077422.00,1127509.00
482852,1082311,1130305,481307.41,1077471.62,1127547.25
483297,1082656,1130466,481304.88,1077550.00,1127600.75
483242,1082875,1130566,481315.31,1077656.25,1127668.75
483433,1083854,1131103,481339.13,1077788.50,1127750.00
484087,1083952,1131143,481376.25,1077945.62,1127843.25
484099,1084351,1131520,481427.69,1078127.75,1127949.25
484304,1084513,1131632,481492.97,1078333.50,1128068.62
484295,1084846,1131794,481568.81,1078560.75,1128200.00
484798,1084939,1131682,481652.69,1078806.75,1128342.00
485007,1085147,1131888,481747.19,1079069.12,1128492.25
484203,1084989,1132019,481853.63,1079344.50,1128649.25
484638,1084897,1131864,481969.00,1079629.00,1128811.50
484796,1084746,1131612,482090.81,1079918.75,1128976.50
484745,1084653,1131782,482217.75,1080209.75,1129142.00
485020,1084854,1131774,482348.94,1080499.75,1129306.75
485368,1085092,1131792,482484.38,1080787.75,1129470.25
485206,1084931,1131862,482624.13,1081072.75,1129631.50
485311,1085768,1132436,482766.91,1081354.00,1129791.00
485554,1085782,1132456,482911.97,1081631.75,1129950.25
485632,1086128,1132406,483059.13,1081907.50,1130109.00
485799,1086282,1133331,483208.00,1082181.50,1130266.50
485926,1086971,1132845,483358.31,1082454.25,1130422.75
486201,1087279,1133160,483510.06,1082727.50,1130578.50
486453,1087721,1133315,483663.66,1083002.12,1130734.62
486668,1088285,1133662,483818.75,1083279.62,1130891.75
486973,1088622,1133738,483974.94,1083561.50,1131050.25
487003,1088805,1133900,484133.41,1083847.25,1131209.87
487177,1089498,1134108,484294.56,1084136.25,1131370.50
487323,1089006,1133814,484457.81,1084427.25,1131530.75
487080,1088207,1133257,484622.22,1084716.37,1131688.25
486565,1086615,1132223,484784.81,1084995.62,1131837.87
484490,1081413,1129746,484938.38,1085247.50,1131970.12
483628,1078254,1127810,485072.56,1085445.37,1132071.62
482158,1075165,1126107,485179.19,1085567.62,1132130.50
479939,1071047,1124181,485252.13,1085600.75,1132139.25
479561,1069955,1123421,485285.72,1085535.25,1132093.62
478873,1069404,1123345,485275.25,1085367.75,1131992.50
478485,1069297,1123536,485219.69,1085103.87,1131840.12
478156,1069354,1123401,485121.50,1084755.62,1131643.25
478059,1069593,1123645,484984.28,1084335.75,1131409.25
477747,1069837,1123827,484812.13,1083857.25,1131145.87
477586,1070458,1124352,484609.13,1083332.50,1130860.50
477718,1070564,1124222,484380.00,1082772.75,1130559.62
477759,1070740,1124448,484129.25,1082189.00,1130248.50
477686,1071075,1124934,483861.13,1081590.12,1129930.50
477618,1071776,1125010,483579.25,1080985.25,1129610.25
477889,1072324,1125073,483287.44,1080383.50,1129292.62
478097,1072959,1125447,482990.25,1079793.75,1128982.00
478222,1074209,1126152,482691.44,1079223.50,1128682.50
478637,1074879,1126552,482394.63,1078681.25,1128399.00
478920,1075119,1126867,482104.34,1078173.37,1128135.00
479118,1076188,1127159,481824.66,1077702.75,1127892.62
479207,1075787,1127135,481557.75,1077271.00,1127672.50
479058,1075555,1126946,481304.53,1076878.12,1127473.75
479217,1075540,1126903,481065.13,1076521.87,1127294.75
478883,1075417,1126886,480837.72,1076200.12,1127133.75
478947,1075447,1126773,480620.13,1075910.62,1126989.75
478764,1075384,1126712,480413.66,1075651.62,1126861.00
478630,1075605,1127078,480220.19,1075421.00,1126746.50
479086,1075624,1126954,480040.31,1075217.12,1126646.00
479283,1076071,1127182,479874.81,1075040.50,1126559.75
479218,1076261,1127422,479723.91,1074891.62,1126487.75
479544,1076952,1127627,479587.69,1074771.25,1126430.62
479777,1077301,1127838,479467.00,1074680.25,1126388.62
479814,1077596,1128148,479362.31,1074619.00,1126362.25
480197,1078631,1129097,479273.59,1074587.50,1126353.37
480405,1078994,1128992,479201.16,1074586.62,1126363.62
480501,1079250,1129053,479145.56,1074617.25,1126392.25
480611,1079708,1129670,479106.41,1074678.62,1126437.25
480886,1080573,1129588,479083.13,1074770.25,1126497.37
481066,1080779,1129799,479075.63,1074892.50,1126572.75
481371,1081207,1129956,479083.81,1075044.00,1126662.87
481032,1081838,1130284,479107.06,1075223.25,1126766.75
481701,1082025,1130473,479144.38,1075429.62,1126884.00
482003,1082475,1130536,479195.81,1075660.75,1127013.50
482097,1083520,1130651,479261.38,1075913.75,1127153.75
482334,1083223,1130807,479340.25,1076186.50,1127303.00
482622,1083347,1130996,479431.88,1076477.75,1127460.62
482692,1083516,1131135,479535.69,1076785.25,1127625.50
482464,1083856,1131217,479648.25,1077106.00,1127796.50
482796,1084051,1131250,479766.09,1077438.50,1127972.50
482490,1084203,1131434,479889.50,1077780.25,1128152.12
482777,1084760,1132019,480018.53,1078128.75,1128334.50
483134,1084953,1131901,480152.75,1078482.75,1128519.50
483579,1085129,1132156,480293.22,1078841.50,1128707.25
483838,1085599,1132363,480440.94,1079205.00,1128897.75
483856,1086127,1132412,480595.69,1079572.50,1129090.25
484060,1086250,1132406,480756.50,1079944.37,1129284.25
484339,1086502,1132599,480922.78,1080319.00,1129478.50
484355,1087320,1133550,481093.69,1080695.00,1129674.25
484688,1087633,1133387,481268.19,1081072.75,1129873.50
484939,1088123,1133451,481446.72,1081453.50,1130075.37
485079,1088538,1134283,481629.69,1081838.25,1130278.50
484963,1089345,1134021,481815.94,1082227.75,1130482.50
485579,1089574,1134167,482004.72,1082622.50,1130688.00
485706,1089363,1134241,482196.63,1083021.00,1130894.75
484848,1087968,1133231,482390.88,1083419.50,1131099.75
484524,1086053,1132020,482583.19,1083808.75,1131295.87
483646,1083542,1130605,482767.09,1084170.25,1131474.00
482805,1077344,1127194,482935.94,1084483.25,1131624.00
480602,1073838,1125397,483081.56,1084722.75,1131732.50
479222,1071218,1124027,483193.44,1084861.62,1131785.75
478165,1069618,1123186,483263.75,1084886.25,1131776.75
476914,1068566,1122904,483287.25,1084797.12,1131707.00
476589,1068510,1122827,483261.31,1084601.62,1131581.50
476376,1068532,1122879,483188.94,1084311.25,1131407.00
475761,1069376,1123509,483075.38,1083940.25,1131190.87
476257,1069618,1123662,482925.53,1083503.25,1130942.00
476173,1069970,1123903,482744.34,1083015.25,1130668.50
476326,1070426,1124589,482536.75,1082489.00,1130377.50
476475,1071132,1124557,482308.06,1081936.87,1130075.50
476687,1071481,1124706,482063.63,1081369.75,1129768.25
476728,1071775,1124882,481808.19,1080796.62,1129459.75
476808,1073303,1126050,481545.34,1080225.25,1129156.00
476977,1073692,1125977,481278.31,1079664.62,1128862.75
477296,1074514,1126305,481011.13,1079125.25,1128583.50
477533,1075054,1127475,480747.88,1078614.75,1128320.25
477808,1076168,1127257,480492.06,1078139.12,1128075.75
478044,1076480,1127615,480246.56,1077703.50,1127853.62
478424,1076697,1127708,480013.97,1077309.75,1127655.12
477747,1076863,1127668,479796.00,1076958.00,1127480.00
478311,1076873,1127508,479592.69,1076647.50,1127326.75
478165,1076555,1127401,479403.47,1076375.00,1127192.75
478323,1076905,1127394,479227.91,1076136.25,1127076.25
478290,1076495,1127276,479065.94,1075928.37,1126975.75
478128,1076486,1127417,478917.06,1075749.12,1126889.75
478572,1076626,1127439,478781.00,1075596.50,1126817.50
478374,1077192,1127618,478656.44,1075470.12,1126758.50
478799,1077440,1127880,478542.25,1075370.50,1126713.00
478845,1077698,1127970,478440.94,1075298.00,1126681.00
478877,1078778,1128636,478354.91,1075251.87,1126662.37
479093,1079103,1128633,478284.13,1075233.87,1126657.75
479480,1079470,1129017,478228.31,1075245.37,1126667.87
479592,1079716,1129588,478187.75,1075286.25,1126693.75
479767,1080842,1129541,478162.28,1075356.50,1126735.00
480065,1081264,1130049,478151.81,1075457.12,1126792.25
480324,1081768,1130207,478156.47,1075588.75,1126866.00
480566,1082675,1131181,478175.94,1075750.25,1126957.00
480874,1083056,1130979,478209.75,1075941.25,1127066.00
481021,1083561,1130938,478258.31,1076161.75,1127191.25
481335,1084020,1131871,478321.69,1076410.25,1127329.62
481432,1084774,1131722,478399.31,1076685.75,1127480.25
481921,1084936,1131922,478490.69,1076987.25,1127643.50
482049,1085212,1131804,478595.81,1077311.50,1127818.37
481574,1085838,1132257,478713.41,1077656.25,1128003.00
482352,1086161,1132473,478841.75,1078019.75,1128196.62
482705,1086387,1132536,478980.56,1078400.00,1128398.62
482805,1087419,1132828,479129.91,1078794.50,1128607.25
482881,1087478,1132999,479288.56,1079201.75,1128821.62
483173,1087606,1133186,479455.31,1079621.00,1129041.12
483228,1087905,1133323,479629.28,1080049.75,1129265.25
483372,1088345,1133606,479807.19,1080486.00,1129493.00
483740,1088626,1133690,479986.50,1080928.25,1129723.75
483770,1088834,1133961,480169.50,1081374.75,1129956.75
483766,1089591,1134055,480357.63,1081823.75,1130191.25
484172,1089944,1134179,480550.00,1082274.75,1130426.25
484353,1090017,1134346,480746.19,1082727.75,1130661.00
484537,1090460,1134795,480945.78,1083181.62,1130895.00
484728,1090999,1134769,481148.25,1083635.62,1131128.12
484896,1091234,1134939,481353.16,1084089.75,1131360.25
485146,1091680,1135210,481560.06,1084543.25,1131591.62
485117,1092296,1135947,481768.34,1084995.62,1131823.25
485402,1092595,1135654,481977.00,1085447.00,1132055.75
485735,1092815,1135667,482186.19,1085897.00,1132288.12
485647,1093024,1136332,482396.09,1086345.00,1132518.00
485603,1093282,1135960,482605.22,1086789.25,1132744.75
485893,1092650,1135817,482812.38,1087227.25,1132967.87
485504,1091600,1134848,483016.50,1087652.87,1133184.12
483628,1087171,1132187,483214.31,1088056.75,1133384.00
482791,1083903,1130465,483398.13,1088419.75,1133553.50
481606,1080724,1128657,483557.44,1088712.75,1133680.12
480714,1075041,1125835,483684.31,1088913.12,1133755.75
478868,1072659,1124561,483772.88,1089004.00,1133772.25
478071,1071441,1124171,483817.06,1088971.37,1133723.50
477585,1070919,1124004,483814.63,1088815.62,1133610.87
477013,1071117,1124163,483765.22,1088548.50,1133441.75
477022,1071522,1124382,483670.19,1088185.62,1133224.75
476917,1072096,1124667,483535.88,1087743.75,1132968.62
476991,1073134,1125479,483369.81,1087239.00,1132681.87
477353,1073737,1125741,483178.19,1086687.25,1132373.25
477471,1074051,1125789,482966.50,1086103.87,1132051.00
477591,1074614,1126815,482739.50,1085501.25,1131721.50
477910,1075651,1126763,482501.75,1084890.50,1131390.25
477928,1076234,1127100,482257.78,1084282.87,1131063.50
478359,1077071,1127496,482011.50,1083688.12,1130746.25
478761,1079079,1128893,481766.94,1083115.00,1130444.25
479243,1079315,1128949,481528.44,1082573.00,1130163.75
479254,1079876,1128996,481299.94,1082069.25,1129907.25
479385,1080252,1129835,481083.47,1081608.25,1129674.50
479765,1080949,1129677,480880.41,1081192.00,1129466.75
479858,1080856,1129717,480692.44,1080821.37,1129284.25
480089,1080766,1129646,480520.69,1080494.50,1129126.25
479497,1080609,1129265,480364.94,1080208.50,1128989.75
479949,1080460,1129283,480224.06,1079960.62,1128872.25
479879,1080301,1129072,480097.28,1079746.25,1128770.87
479968,1080848,1129375,479984.06,1079561.25,1128684.12
480022,1080575,1129251,479883.91,1079404.00,1128611.00
480084,1080701,1129421,479796.53,1079273.25,1128551.37
480355,1081084,1129465,479721.88,1079168.75,1128504.75
480293,1081651,1129907,479658.06,1079090.87,1128471.37
480435,1082019,1130130,479602.84,1079040.50,1128452.00
480638,1082594,1130466,479558.31,1079018.25,1128447.50
480886,1083337,1130959,479527.00,1079024.50,1128458.12
481057,1083626,1130968,479509.19,1079059.25,1128484.25
481305,1084138,1131161,479504.94,1079123.00,1128525.50
481612,1084557,1131970,479514.50,1079215.75,1128581.12
482022,1085671,1132048,479538.44,1079338.00,1128651.50
482373,1086109,1132214,479577.63,1079490.87,1128737.37
482493,1086438,1132360,479632.28,1079674.12,1128838.50
482631,1087374,1133237,479701.25,1079885.50,1128955.00
483094,1087446,1132907,479783.78,1080123.50,1129087.12
483258,1087875,1133208,479880.06,1080387.00,1129232.75
483082,1088150,1133849,479989.16,1080674.00,1129390.00
483255,1088900,1133655,480108.72,1080983.00,1129558.00
483625,1089179,1133825,480237.63,1081312.75,1129735.75
483838,1089409,1133855,480375.97,1081661.25,1129922.25
483518,1089978,1134188,480522.72,1082026.25,1130116.37
484033,1090017,1134254,480676.28,1082405.50,1130317.00
484378,1090449,1134302,480836.34,1082796.75,1130522.75
484464,1091172,1134676,481003.09,1083197.50,1130732.25
484680,1090998,1134646,481175.84,1083605.75,1130944.75
484732,1091067,1134792,481353.69,1084019.75,1131159.37
484895,1091344,1134875,481535.56,1084437.00,1131375.25
484901,1091737,1135110,481718.94,1084856.25,1131591.62
485103,1091906,1134948,481901.38,1085276.00,1131807.62
484910,1092063,1135145,482083.69,1085695.25,1132022.00
485179,1092870,1135924,482266.34,1086112.00,1132234.12
485744,1092872,1135881,482449.91,1086526.25,1132445.00
485841,1093145,1135658,482635.44,1086937.75,1132655.00
486002,1093344,1136296,482822.75,1087346.25,1132863.25
486179,1093957,1136184,483011.44,1087751.62,1133069.37
486375,1094398,1136366,483201.19,1088154.50,1133273.87
486360,1094613,1136439,483391.53,1088555.50,1133476.75
486642,1094970,1137144,483581.50,1088953.50,1133678.75
486528,1094325,1136354,483770.19,1089346.25,1133879.75
486369,1093313,1135640,483956.56,1089728.25,1134075.37
485744,1091536,1133168,484137.88,1090090.12,1134258.75
483422,1086013,1131368,484306.56,1090413.37,1134418.75
482695,1082969,1129879,484451.88,1090671.00,1134540.75
481862,1079870,1128151,484567.19,1090842.25,1134614.00
479428,1075290,1125883,484648.19,1090914.50,1134630.25
479215,1073986,1125124,484689.56,1090878.87,1134583.50
478801,1073436,1124897,484687.66,1090729.50,1134473.75
478442,1074070,1125362,484643.03,1090471.75,1134307.50
478477,1074244,1125532,484559.00,1090120.37,1134093.00
478487,1074761,1125887,484440.25,1089693.00,1133840.37
478654,1075180,1126087,484292.22,1089206.50,1133559.00
478863,1076615,1127082,484118.25,1088676.12,1133257.37
479211,1077151,1127425,483922.38,1088118.12,1132944.75
479177,1077795,1127671,483712.19,1087545.50,1132628.25
479452,1079294,1128634,483494.19,1086968.75,1132313.00
479736,1079985,1128912,483272.69,1086398.87,1132004.25
480118,1080719,1129401,483051.63,1085847.37,1131708.62
480281,1081460,1130282,482834.63,1085323.00,1131430.25
481005,1082714,1130525,482625.41,1084832.75,1131172.87
481259,1083346,1130661,482428.00,1084383.50,1130939.62
481500,1083579,1130862,482245.19,1083978.37,1130731.75
481490,1083861,1131349,482077.63,1083618.00,1130549.75
481584,1083550,1130995,481925.19,1083300.75,1130393.25
481618,1083559,1130868,481787.75,1083023.12,1130260.00
481578,1083453,1131050,481665.06,1082781.75,1130146.50
481160,1083264,1130545,481555.44,1082573.50,1130049.62
481347,1082808,1130164,481456.88,1082394.12,1129967.12
481454,1083018,1130408,481368.94,1082240.00,1129896.87
480883,1083202,1130402,481291.03,1082110.00,1129838.12
481514,1083409,1130591,481222.06,1082004.00,1129790.75
481510,1083634,1130686,481162.44,1081921.25,1129754.62
481854,1084754,1131138,481113.00,1081860.75,1129729.75
482044,1084703,1131302,481074.50,1081823.12,1129716.75
482280,1085135,1131497,481047.69,1081810.50,1129716.50
482347,1085424,1131666,481032.69,1081823.25,1129729.12
482608,1086309,1132185,481027.44,1081862.25,1129755.25
482891,1086555,1132271,481030.38,1081927.75,1129795.25
482744,1087139,1132534,481043.75,1082020.12,1129849.00
483131,1088271,1133123,481069.06,1082139.00,1129915.87
483659,1088402,1133287,481106.75,1082284.25,1129996.25
483757,1088932,1133530,481157.94,1082457.00,1130090.50
483961,1089182,1134302,481222.34,1082656.12,1130199.00
484308,1090023,1134088,481299.50,1082880.75,1130320.75
484411,1090513,1134196,481389.19,1083130.75,1130455.25
484457,1090639,1134309,481490.31,1083404.75,1130601.37
484899,1091331,1135210,481601.63,1083700.12,1130758.25
485016,1091476,1134809,481722.50,1084015.00,1130925.50
485181,1091682,1135028,481852.94,1084347.25,1131102.12
485493,1091816,1135541,481992.72,1084694.12,1131286.25
485195,1092415,1135251,482140.59,1085053.25,1131476.50
485515,1092522,1135330,482294.63,1085423.12,1131671.75
485749,1092540,1135314,482453.94,1085801.50,1131870.75
485041,1093116,1135770,482617.81,1086185.75,1132072.50
486011,1093211,1135722,482784.97,1086574.50,1132276.75
486076,1093375,1135731,482955.28,1086966.50,1132482.25
486281,1094231,1135959,483128.69,1087359.62,1132687.87
486378,1094287,1136179,483304.69,1087753.75,1132893.00
486510,1094493,1136326,483482.56,1088148.87,1133097.87
486710,1094640,1136481,483661.88,1088544.00,1133302.50
487018,1095236,1136713,483841.19,1088938.00,1133506.37
487194,1095284,1136655,484019.53,1089331.12,1133709.25
486970,1095131,1136496,484197.97,1089721.25,1133909.87
486409,1092843,1135389,484375.81,1090104.00,1134105.50
485750,1090346,1133800,484548.81,1090467.00,1134289.50
484767,1087611,1132005,484710.38,1090789.00,1134449.25
483487,1084410,1129187,484852.91,1091049.00,1134572.75
481545,1078438,1127339,484967.50,1091225.00,1134648.50
480396,1075792,1125804,485045.06,1091293.00,1134664.62
479655,1074098,1125051,485080.25,1091241.25,1134615.50
478556,1073278,1125208,485071.38,1091072.25,1134503.50
478402,1073160,1124932,485018.44,1090795.25,1134335.75
478320,1073448,1125084,484923.88,1090423.00,1134119.50
478537,1073972,1126200,484792.63,1089970.50,1133862.75
478598,1075111,1126404,484630.69,1089455.12,1133575.87
478801,1075621,1126436,484443.88,1088894.12,1133268.50
478861,1076105,1126695,484237.44,1088301.75,1132947.37
478817,1076994,1127222,484016.00,1087690.25,1132618.75
479270,1077631,1127500,483784.13,1087071.75,1132288.50
479666,1078165,1127825,483546.66,1086456.25,1131962.25
479669,1079885,1128823,483307.88,1085852.87,1131644.25
480143,1080437,1129014,483071.38,1085271.00,1131339.37
480568,1081178,1129470,482841.06,1084720.50,1131052.75
480731,1081872,1129812,482620.66,1084208.50,1130788.00
481091,1082369,1130264,482411.56,1083739.25,1130547.25
481121,1082757,1130263,482214.53,1083314.50,1130332.00
481149,1082685,1130390,482031.56,1082934.75,1130141.50
481077,1082725,1130162,481863.47,1082597.75,1129974.50
481166,1082368,1129839,481709.81,1082299.87,1129827.75
480982,1082137,1129750,481569.81,1082037.37,1129698.75
481149,1081928,1130149,481442.56,1081806.50,1129585.50
481115,1081856,1129831,481327.72,1081603.75,1129487.00
481056,1082065,1129717,481224.75,1081427.25,1129402.25
481082,1082147,1129730,481132.75,1081275.75,1129330.00
481286,1083030,1130568,481050.53,1081149.75,1129270.50
481595,1083082,1130567,480977.88,1081050.62,1129225.50
481703,1083590,1130708,480916.88,1080978.62,1129195.50
481753,1084115,1131421,480868.69,1080934.25,1129180.00
481959,1085002,1131339,480832.88,1080919.00,1129178.87
482312,1085556,1131672,480809.81,1080934.75,1129193.12
482626,1085806,1131847,480800.34,1080982.00,1129223.50
482456,1086800,1132250,480804.66,1081060.00,1129270.00
482870,1087154,1132400,480822.03,1081169.00,1129332.25
483317,1087745,1132667,480852.63,1081309.25,1129410.00
483741,1088776,1133349,480897.63,1081479.62,1129502.12
483851,1089059,1133499,480957.56,1081679.62,1129608.87
484234,1089479,1133757,481032.13,1081909.25,1129730.75
484227,1089647,1133839,481120.69,1082166.87,1129867.50
484525,1090576,1134319,481221.56,1082450.50,1130018.00
484484,1090939,1134366,481333.03,1082759.12,1130181.50
484667,1091263,1134556,481454.31,1083091.50,1130356.75
485012,1091878,1134809,481584.94,1083444.12,1130541.87
485226,1091766,1134875,481724.50,1083813.75,1130735.62
485190,1092132,1134970,481872.63,1084198.25,1130936.75
485506,1092346,1135783,482028.25,1084595.50,1131143.75
485696,1092631,1135376,482190.88,1085002.87,1131355.87
485747,1092746,1135442,482359.81,1085418.00,1131572.00
486150,1093054,1135492,482534.38,1085838.62,1131791.25
485874,1093736,1136161,482712.84,1086263.25,1132012.50
486260,1093781,1135888,482893.00,1086691.50,1132235.50
486606,1093889,1135967,483075.75,1087121.50,1132459.37
486563,1094101,1136461,483262.19,1087550.75,1132682.37
486567,1094739,1136421,483451.03,1087978.37,1132904.00
486835,1095017,1136239,483641.00,1088404.62,1133124.25
486993,1095110,1136544,483831.88,1088829.00,1133342.25
486938,1095688,1136830,484022.94,1089250.50,1133558.00
487462,1095888,1136848,484213.56,1089669.25,1133772.00
487657,1096037,1136966,484404.84,1090084.50,1133983.50
487588,1095671,1136888,484597.00,1090494.00,1134191.75
487076,1094665,1136069,484787.69,1090893.50,1134394.25
486611,1092515,1134752,484972.88,1091272.00,1134584.25
485604,1089567,1133029,485147.31,1091613.75,1134752.50
483109,1083125,1129497,485303.63,1091894.12,1134885.25
481908,1079623,1127811,485431.38,1092082.75,1134966.25
480758,1076581,1126073,485520.19,1092159.00,1134985.25
478891,1073461,1124731,485564.06,1092114.00,1134938.00
478406,1072781,1124382,485559.69,1091945.37,1134824.25
478181,1072672,1124379,485505.56,1091659.00,1134648.37
478027,1073074,1124596,485404.38,1091268.50,1134418.50
478273,1073787,1125212,485261.78,1090791.00,1134144.25
478344,1074278,1125434,485084.47,1090244.75,1133836.25
478428,1074860,1125759,484878.63,1089646.00,1133503.00
478400,1076145,1126832,484647.47,1089010.00,1133153.00
478735,1076348,1126733,484394.22,1088351.50,1132794.50
478906,1076752,1126756,484126.88,1087682.25,1132433.25
478640,1077142,1127753,483851.91,1087011.37,1132073.25
479333,1078452,1127853,483572.81,1086348.75,1131720.00
479673,1078944,1128240,483294.75,1085704.50,1131379.00
479744,1079723,1128579,483022.31,1085086.75,1131055.00
480252,1081188,1129293,482757.94,1084502.25,1130751.50
480400,1081543,1129522,482504.13,1083957.50,1130472.00
480733,1081877,1129832,482264.25,1083457.75,1130218.62
480696,1082525,1130250,482040.66,1083005.00,1129991.75
480747,1082440,1129926,481833.59,1082599.75,1129790.75
480923,1082352,1129912,481643.06,1082240.25,1129614.25
480931,1082204,1129897,481469.31,1081923.75,1129460.75
480982,1082019,1129683,481312.00,1081646.25,1129328.00
480989,1081980,1129493,481170.56,1081404.37,1129213.50
480864,1081909,1129670,481044.06,1081195.00,1129115.00
480921,1082440,1129931,480931.63,1081015.62,1129032.25
480782,1082514,1129850,480832.25,1080865.50,1128964.87
481148,1082808,1130115,480745.25,1080744.75,1128912.37
481158,1083103,1130430,480670.75,1080653.25,1128875.00
481664,1083925,1130699,480609.41,1080591.50,1128853.25
481701,1084155,1130813,480562.13,1080560.12,1128847.50
481890,1084775,1131131,480529.00,1080559.50,1128857.00
481306,1086233,1131958,480508.00,1080590.50,1128882.87
482199,1086133,1131817,480497.47,1080654.62,1128926.12
482537,1086439,1132121,480499.31,1080751.25,1128986.00
482729,1087026,1132603,480515.56,1080878.50,1129061.75
483315,1088072,1132871,480546.88,1081036.75,1129153.25
483213,1088379,1133052,480593.47,1081226.62,1129260.50
483193,1088815,1133163,480653.94,1081446.75,1129382.75
483647,1089500,1133570,480725.38,1081695.25,1129519.00
483939,1089842,1133664,480806.81,1081970.37,1129668.25
484312,1090352,1133907,480900.38,1082270.75,1129829.50
484441,1091109,1134464,481007.50,1082594.87,1130001.50
484495,1091225,1134562,481127.06,1082940.50,1130183.50
484697,1091568,1134605,481257.50,1083305.62,1130375.25
484957,1091783,1134627,481397.94,1083688.25,1130575.50
484736,1092360,1134978,481547.91,1084086.00,1130782.37
485200,1092474,1135211,481706.56,1084496.75,1130995.50
485437,1092713,1135339,481872.63,1084917.75,1131214.50
485449,1093292,1135562,482045.31,1085346.62,1131437.75
485725,1093302,1135623,482224.00,1085781.00,1131663.62
485917,1093431,1135547,482407.63,1086219.12,1131891.37
486060,1093797,1135720,482595.31,1086659.00,1132119.62
486287,1094403,1136055,482786.44,1087100.00,1132347.87
486489,1094555,1136064,482980.75,1087542.00,1132575.75
486522,1094777,1136170,483177.63,1087983.50,1132802.75
485369,1095949,1137108,483373.91,1088423.62,1133028.62
486559,1095796,1136742,483566.50,1088862.75,1133254.25
487088,1095952,1136881,483757.38,1089300.50,1133479.25
487233,1096487,1136837,483949.50,1089736.50,1133702.87
487534,1097037,1137264,484143.47,1090170.62,1133925.12
487651,1097301,1137530,484339.13,1090603.50,1134145.75
487672,1097523,1137674,484535.94,1091034.75,1134365.25
487647,1097727,1137767,484731.25,1091462.75,1134583.00
487860,1097478,1137649,484923.00,1091886.00,1134798.25
487739,1096448,1137006,485111.88,1092298.87,1135008.00
487224,1091991,1134508,485297.13,1092692.25,1135207.00
484832,1088804,1132363,485471.31,1093046.00,1135383.00
483705,1085269,1130510,485622.69,1093331.00,1135519.25
482791,1081955,1128728,485742.72,1093524.25,1135603.00
480476,1076215,1125937,485826.41,1093605.75,1135624.75
479547,1074743,1125105,485867.44,1093558.25,1135576.62
478993,1074140,1125132,485859.97,1093380.50,1135459.12
478513,1074457,1125533,485803.66,1093084.25,1135279.62
478690,1074833,1125696,485702.56,1092686.12,1135047.75
478904,1075312,1125823,485562.50,1092204.25,1134773.50
