691724,1172255,1377362,692952.25,1174404.00,1378439.00
691744,1172289,1377408,692853.88,1174230.25,1378348.00
691897,1172572,1378531,692759.25,1174063.00,1378261.00
692188,1173153,1378185,692669.63,1173905.25,1378179.75
692540,1173331,1378322,692587.13,1173759.50,1378107.00
692680,1173323,1378136,692513.50,1173627.50,1378043.62
692237,1173332,1378116,692447.31,1173509.50,1377988.75
692253,1173115,1378029,692385.38,1173405.50,1377941.00
692410,1172983,1377954,692328.56,1173312.50,1377899.75
692475,1173369,1377884,692278.88,1173228.00,1377863.50
692229,1173154,1377857,692235.88,1173151.62,1377831.75
692242,1172995,1377835,692198.31,1173083.37,1377804.00
692472,1173077,1377867,692165.88,1173022.87,1377779.75
692452,1173419,1378190,692136.25,1172970.37,1377759.50
692583,1173637,1378159,692107.13,1172927.12,1377744.25
692825,1173804,1378225,692082.38,1172894.00,1377734.00
692010,1174211,1378554,692065.63,1172871.25,1377728.62
692898,1174392,1378569,692056.75,1172859.25,1377728.75
693257,1174538,1378725,692055.75,1172859.25,1377735.00
693224,1174698,1379207,692063.00,1172871.50,1377747.75
693547,1175040,1379033,692078.50,1172896.00,1377767.25
693676,1175064,1379050,692102.63,1172932.75,1377793.50
693810,1175233,1379317,692135.38,1172981.00,1377826.50
693849,1175638,1379939,692176.88,1173040.37,1377867.00
694302,1175772,1379455,692227.38,1173110.75,1377916.00
694483,1175755,1379534,692287.00,1173191.75,1377971.50
694557,1176135,1380265,692355.50,1173282.75,1378031.75
694079,1176207,1379774,692431.13,1173383.25,1378096.50
694347,1176115,1379824,692511.25,1173492.62,1378165.75
694447,1176238,1379901,692595.06,1173608.62,1378239.00
694109,1176519,1379742,692682.56,1173731.25,1378315.37
694952,1176549,1379839,692774.00,1173860.37,1378393.62
695148,1176659,1379791,692870.25,1173994.75,1378473.00
695231,1177202,1380213,692971.75,1174132.50,1378552.62
695164,1176856,1380170,693077.50,1174272.75,1378632.62
695351,1176897,1380237,693186.63,1174415.12,1378713.87
695148,1177043,1380002,693298.13,1174559.00,1378796.25
695226,1177131,1380263,693408.00,1174704.25,1378878.75
695627,1177201,1380284,693513.88,1174850.00,1378961.25
695434,1177275,1380282,693619.13,1174996.00,1379043.75
695236,1177796,1380456,693726.38,1175141.87,1379126.00
695836,1177717,1380520,693835.38,1175287.87,1379208.25
695712,1177830,1380458,693945.88,1175434.50,1379290.25
695872,1177937,1380807,694056.88,1175581.37,1379371.50
696158,1177992,1380621,694168.31,1175728.25,1379451.25
696218,1177949,1380429,694280.81,1175874.25,1379529.50
696264,1177768,1380638,694394.25,1176018.00,1379605.87
695576,1176080,1380192,694506.88,1176157.00,1379679.75
695292,1174813,1378924,694615.06,1176284.00,1379747.25
694709,1173811,1378185,694715.00,1176387.75,1379801.62
693740,1173055,1377871,694802.50,1176460.87,1379838.50
692157,1171887,1377200,694870.81,1176499.75,1379856.00
692068,1171225,1376783,694914.00,1176501.25,1379852.25
691947,1171379,1376741,694931.31,1176465.50,1379827.12
690741,1171534,1376900,694924.88,1176397.00,1379782.75
691443,1171574,1377105,694896.25,1176301.25,1379722.50
691892,1171818,1377275,694847.31,1176182.75,1379650.25
692027,1172424,1377617,694782.00,1176046.00,1379568.75
692356,1172351,1377718,694704.44,1175895.75,1379481.62
692278,1172447,1377680,694618.06,1175736.50,1379391.00
692445,1172434,1377639,694525.13,1175571.75,1379298.50
692185,1172404,1377598,694426.00,1175403.25,1379204.75
692237,1172255,1377688,694320.38,1175232.25,1379110.50
692179,1172155,1377509,694210.63,1175059.75,1379016.50
692288,1172929,1377691,694099.88,1174886.75,1378923.50
692606,1173157,1378190,693990.81,1174717.00,1378833.50
693030,1173254,1378078,693885.31,1174554.37,1378748.75
693263,1173513,1379091,693785.63,1174401.75,1378669.00
693516,1173849,1378650,693693.81,1174260.62,1378595.00
693294,1173759,1378491,693610.63,1174132.25,1378528.50
693680,1173725,1378421,693535.88,1174016.37,1378469.75
693323,1173676,1379049,693469.63,1173912.50,1378418.25
693306,1173359,1378211,693410.63,1173819.62,1378373.50
693354,1173434,1378330,693357.88,1173735.50,1378334.12
693243,1173315,1378800,693311.00,1173658.75,1378298.62
693205,1173663,1378354,693269.25,1173589.25,1378266.62
693568,1173600,1378230,693232.75,1173527.75,1378238.25
693898,1173634,1378404,693202.88,1173474.25,1378213.75
693042,1174260,1378641,693180.38,1173429.75,1378193.62
693661,1174290,1378665,693164.13,1173396.75,1378178.75
693897,1174526,1378820,693153.69,1173375.00,1378169.25
694013,1175038,1379336,693149.63,1173363.75,1378165.62
694259,1174836,1379116,693152.63,1173363.00,1378168.37
694080,1175026,1379137,693162.63,1173372.75,1378177.50
694378,1175173,1379374,693179.00,1173393.37,1378193.00
694734,1175577,1379427,693201.19,1173425.25,1378215.00
694281,1175553,1379535,693228.00,1173468.25,1378243.50
694668,1175768,1379614,693259.75,1173521.75,1378277.75
695035,1176183,1379812,693298.00,1173585.37,1378317.87
695071,1176035,1379685,693343.88,1173658.50,1378363.00
695361,1176188,1379694,693397.50,1173740.50,1378412.37
695144,1176245,1380584,693458.25,1173830.50,1378465.75
695708,1176482,1380011,693525.63,1173928.00,1378522.75
695531,1176711,1380074,693599.75,1174032.87,1378584.00
695685,1176745,1380151,693679.88,1174144.50,1378648.87
695675,1177100,1380746,693763.38,1174263.50,1378717.50
695836,1177134,1380307,693848.19,1174389.50,1378790.12
695936,1177109,1380497,693935.88,1174521.37,1378866.00
696279,1177146,1380647,694028.44,1174656.75,1378944.00
696138,1177419,1380521,694125.69,1174794.87,1379023.25
696357,1177257,1380590,694226.94,1174935.25,1379103.75
696366,1177418,1380567,694331.50,1175076.75,1379185.50
696008,1177706,1380726,694438.13,1175219.75,1379268.12
696469,1177591,1380431,694545.63,1175364.75,1379351.00
696927,1177796,1380567,694654.63,1175510.12,1379432.75
696896,1178087,1381040,694766.63,1175655.12,1379513.00
696745,1178067,1380886,694880.88,1175799.75,1379592.25
696988,1178223,1381078,694996.13,1175944.00,1379671.62
697190,1178355,1381152,695112.25,1176088.00,1379751.75
697163,1178307,1381014,695229.50,1176231.50,1379832.25
697084,1177896,1380868,695346.88,1176372.62,1379912.00
697043,1177276,1380329,695463.13,1176508.00,1379988.75
695710,1175128,1379090,695576.81,1176632.50,1380058.62
695114,1173849,1378330,695683.38,1176737.25,1380116.25
694399,1172891,1377622,695775.00,1176811.25,1380155.00
694126,1172149,1377293,695846.56,1176848.25,1380171.50
692810,1171597,1377115,695895.25,1176847.00,1380165.25
692537,1171188,1376999,695917.63,1176807.62,1380137.50
692177,1171285,1376972,695912.50,1176732.75,1380090.25
691519,1171984,1377984,695877.25,1176627.87,1380026.75
691976,1171873,1377436,695810.69,1176499.75,1379951.00
692508,1172100,1377551,695721.25,1176353.50,1379866.25
691753,1172188,1377954,695616.38,1176193.00,1379774.00
692543,1172399,1377732,695498.38,1176022.25,1379676.75
692407,1172136,1377583,695370.94,1175844.25,1379575.75
692562,1172302,1377567,695237.25,1175660.62,1379472.50
692236,1172103,1377511,695098.63,1175473.75,1379367.25
692402,1172043,1377428,694956.00,1175285.50,1379260.75
692642,1172182,1377766,694811.38,1175096.25,1379154.00
692494,1172570,1378057,694667.13,1174908.00,1379049.00
692633,1172742,1377995,694524.38,1174723.50,1378947.12
692762,1172792,1378093,694384.63,1174545.25,1378849.75
693042,1173139,1378203,694249.50,1174375.75,1378758.50
693219,1173289,1378232,694121.31,1174216.50,1378673.50
693061,1173236,1378214,694001.13,1174069.00,1378595.37
693212,1172904,1377877,693888.75,1173932.00,1378523.00
693216,1173145,1378314,693784.63,1173804.25,1378455.25
693194,1172970,1378109,693688.88,1173685.50,1378392.37
693132,1172804,1378078,693601.00,1173575.00,1378334.50
693136,1172716,1378043,693520.06,1173471.87,1378281.75
693320,1172940,1378300,693446.13,1173376.00,1378234.00
693151,1173070,1378240,693379.38,1173287.75,1378191.50
693498,1173128,1378246,693319.63,1173208.25,1378154.62
691935,1174016,1378759,693265.13,1173138.87,1378123.62
693475,1173621,1378709,693213.56,1173081.25,1378100.00
693953,1173737,1378660,693168.38,1173035.12,1378083.50
693818,1173799,1378882,693133.00,1172999.37,1378073.25
694456,1174139,1379104,693108.25,1172974.12,1378068.75
694486,1174123,1378885,693095.19,1172959.75,1378071.12
694359,1174272,1378775,693093.50,1172955.75,1378079.50
694103,1174737,1379308,693098.56,1172962.00,1378093.00
694709,1174944,1379308,693107.06,1172979.62,1378112.87
694986,1175224,1379447,693123.19,1173009.25,1378139.37
695133,1175699,1380016,693150.81,1173051.50,1378172.37
695382,1175703,1379804,693189.88,1173105.75,1378212.12
695453,1175746,1379721,693240.06,1173172.12,1378258.25
695259,1175948,1379747,693300.13,1173249.75,1378310.00
695496,1176070,1379940,693368.00,1173337.87,1378366.50
695608,1176277,1379820,693443.00,1173435.87,1378427.25
695748,1176372,1380067,693524.81,1173543.00,1378491.75
695385,1176676,1380539,693613.25,1173658.37,1378559.75
695772,1176756,1380242,693707.44,1173781.75,1378631.25
696180,1176825,1380225,693806.56,1173912.12,1378705.75
696403,1176806,1380357,693911.13,1174048.50,1378782.87
696083,1177186,1380416,694019.75,1174189.62,1378862.37
696451,1176931,1380478,694130.13,1174335.00,1378943.87
696517,1177003,1380356,694243.00,1174483.00,1379026.75
694688,1178018,1381094,694357.25,1174633.00,1379111.00
696192,1177656,1380703,694469.13,1174786.75,1379197.25
696461,1177651,1380717,694579.63,1174943.37,1379285.00
697068,1177699,1380780,694691.63,1175101.50,1379372.87
697300,1177924,1380877,694807.13,1175260.25,1379460.50
697185,1178039,1380921,694926.63,1175419.87,1379547.75
697164,1178021,1380779,695048.88,1175579.75,1379634.75
696693,1177508,1380852,695169.75,1175738.50,1379720.00
696445,1176556,1379972,695284.63,1175892.12,1379802.00
696026,1175254,1379291,695392.50,1176032.75,1379875.75
695519,1173445,1378442,695492.13,1176151.50,1379936.50
694071,1172502,1377714,695578.63,1176240.50,1379979.75
693494,1171965,1377479,695645.50,1176293.87,1380002.25
692878,1171643,1377375,695688.75,1176309.62,1380003.87
692025,1171458,1377218,695706.88,1176289.62,1379986.00
691970,1171443,1377219,695699.25,1176237.00,1379950.50
692048,1171520,1377338,695666.38,1176155.50,1379899.25
691993,1171855,1378055,695610.63,1176049.75,1379835.00
692255,1171965,1377746,695535.63,1175924.75,1379760.75
692132,1172034,1377859,695444.63,1175785.00,1379680.00
692163,1172297,1377941,695340.44,1175634.62,1379595.25
691711,1172203,1377772,695221.50,1175476.75,1379507.87
692017,1172121,1377729,695086.81,1175313.50,1379418.25
691827,1172098,1377663,694941.81,1175146.25,1379326.75
690209,1172757,1378236,694789.50,1174977.12,1379234.50
691783,1172347,1378088,694629.50,1174809.12,1379143.00
692024,1172456,1378100,694466.13,1174643.50,1379054.25
692579,1172798,1378530,694304.56,1174481.75,1378969.00
692918,1173369,1378525,694148.94,1174327.00,1378888.25
692356,1173447,1378485,694000.94,1174182.37,1378813.75
692989,1173342,1378620,693860.38,1174049.12,1378745.75
692102,1173337,1378824,693726.44,1173927.12,1378685.00
692825,1173204,1378689,693597.94,1173816.00,1378631.75
692976,1173181,1378434,693477.13,1173714.25,1378585.00
693117,1173377,1378415,693366.75,1173620.50,1378543.00
693056,1173241,1378396,693267.13,1173534.25,1378505.12
693238,1173296,1378464,693178.00,1173455.87,1378471.12
693175,1173360,1378549,693099.44,1173385.50,1378441.12
693336,1173565,1378894,693030.69,1173323.50,1378415.87
693492,1173705,1378703,692971.56,1173270.50,1378396.12
693873,1173867,1379048,692923.31,1173226.75,1378381.87
694026,1174527,1379577,692887.25,1173193.62,1378373.75
694400,1174582,1379490,692864.06,1173172.25,1378372.62
694446,1174558,1379407,692854.25,1173163.25,1378379.00
694339,1174923,1379276,692857.00,1173166.12,1378392.00
694712,1175248,1379574,692867.88,1173181.62,1378410.75
694933,1175187,1379697,692884.25,1173209.75,1378435.50
694950,1175402,1379731,692910.00,1173249.50,1378466.37
694399,1176103,1380032,692946.00,1173300.75,1378503.00
695105,1176016,1379882,692989.25,1173364.50,1378544.50
695371,1176224,1380095,693041.38,1173440.50,1378591.00
695750,1176241,1380375,693104.63,1173527.50,1378642.75
695685,1176470,1380240,693179.00,1173624.62,1378699.50
695750,1176536,1380064,693263.25,1173730.87,1378760.37
695868,1176620,1380371,693355.94,1173845.25,1378824.50
694497,1176842,1380691,693455.38,1173966.87,1378892.50
696036,1176934,1380776,693560.13,1174095.37,1378965.25
696365,1177078,1380588,693670.44,1174229.87,1379042.25
696555,1177581,1380910,693787.38,1174369.37,1379122.00
696588,1177462,1380865,693910.50,1174513.62,1379203.87
696789,1177507,1380848,694039.13,1174662.25,1379288.00
697042,1177600,1380803,694172.81,1174814.25,1379373.62
696937,1177633,1381109,694310.63,1174968.75,1379460.25
697039,1177728,1380804,694450.75,1175124.75,1379547.75
697509,1177980,1380973,694593.38,1175281.75,1379635.00
697441,1178201,1381458,694739.63,1175439.75,1379721.50
697429,1178312,1381255,694888.63,1175598.75,1379807.62
697746,1178484,1381517,695039.38,1175758.75,1379894.00
697745,1178544,1381351,695191.63,1175919.50,1379981.50
697668,1178729,1381448,695343.19,1176081.00,1380069.00
698021,1178690,1381398,695491.94,1176242.50,1380156.25
697949,1178357,1381180,695639.63,1176402.37,1380242.25
696639,1177248,1380154,695784.50,1176558.00,1380324.75
696167,1175489,1379582,695920.25,1176702.50,1380399.75
695798,1174192,1378838,696042.00,1176823.50,1380461.25
695105,1173208,1378147,696147.13,1176911.75,1380503.75
692603,1172160,1377681,696229.00,1176962.25,1380525.12
692741,1171839,1377614,696279.56,1176973.25,1380524.25
692420,1171814,1377543,696297.44,1176945.75,1380502.12
691344,1171861,1378025,696284.63,1176884.25,1380462.00
692068,1171986,1377853,696242.75,1176793.50,1380407.50
692109,1172088,1378066,696175.25,1176678.37,1380341.50
692052,1172633,1378055,696085.75,1176543.00,1380266.00
692248,1172455,1378084,695977.63,1176391.50,1380182.62
692285,1172379,1377992,695854.63,1176228.25,1380093.25
692140,1172294,1378022,695719.69,1176056.00,1379999.25
692012,1172325,1378073,695574.31,1175876.50,1379902.00
691996,1172193,1377821,695420.00,1175692.00,1379802.00
691384,1172189,1378030,695257.63,1175503.50,1379700.25
691892,1173123,1378674,695088.06,1175313.25,1379597.50
692149,1172748,1378404,694914.50,1175123.50,1379495.75
692611,1172883,1378558,694741.50,1174938.00,1379397.25
692677,1173105,1378589,694572.44,1174759.25,1379304.00
692938,1173542,1378828,694409.06,1174589.75,1379217.00
693035,1173405,1378704,694252.38,1174431.37,1379136.50
692960,1173388,1378654,694104.19,1174284.25,1379062.50
692629,1173029,1378738,693965.13,1174147.25,1378994.00
692670,1172991,1378464,693834.56,1174018.87,1378930.00
692756,1172933,1378567,693711.50,1173898.00,1378870.50
692836,1172932,1378825,693595.88,1173784.25,1378815.00
692362,1172982,1378445,693487.25,1173677.62,1378763.25
692635,1173220,1378595,693384.50,1173578.75,1378715.50
692900,1173247,1378644,693288.25,1173488.50,1378672.00
693236,1173931,1379005,693199.63,1173407.87,1378634.25
693433,1173803,1378965,693119.25,1173338.37,1378602.75
693503,1173872,1378937,693049.44,1173280.50,1378577.62
693732,1174034,1379680,692991.38,1173233.75,1378558.25
693751,1174220,1379290,692945.13,1173198.37,1378544.50
693594,1174166,1379217,692909.88,1173174.25,1378537.25
694088,1174364,1379022,692884.94,1173160.62,1378535.50
693997,1174774,1379321,692868.00,1173158.25,1378538.37
693878,1174872,1379321,692855.94,1173169.00,1378546.25
694376,1174805,1379362,692851.19,1173191.00,1378558.87
694830,1175336,1380081,692858.13,1173223.00,1378576.50
694821,1175277,1379701,692877.75,1173264.50,1378599.75
695172,1175305,1379806,692910.00,1173315.50,1378628.50
695263,1175495,1379909,692954.50,1173375.37,1378662.50
695316,1175679,1379968,693010.25,1173443.75,1378701.37
695392,1175671,1379984,693075.50,1173520.00,1378745.00
695539,1175593,1379776,693149.81,1173603.00,1378792.12
694021,1175790,1380055,693232.63,1173691.25,1378842.00
695430,1176069,1380095,693322.50,1173784.25,1378894.87
695604,1175967,1379966,693417.81,1173882.50,1378950.00
695047,1175993,1380437,693516.63,1173984.50,1379007.00
695921,1176607,1380492,693617.63,1174090.50,1379066.25
696043,1176357,1380381,693722.25,1174201.00,1379128.25
696159,1176511,1380476,693831.56,1174315.00,1379192.75
696199,1176855,1380800,693944.44,1174431.62,1379259.37
696355,1176849,1380477,694059.81,1174551.00,1379328.25
696596,1176932,1380751,694178.13,1174673.00,1379398.75
696858,1176979,1381573,694300.25,1174797.12,1379470.25
696870,1177327,1380947,694426.38,1174923.25,1379543.25
697190,1177510,1380895,694556.13,1175051.75,1379617.37
697335,1177770,1380996,694689.63,1175183.50,1379692.50
697139,1178115,1381267,694825.38,1175318.75,1379768.75
697293,1177870,1381218,694961.25,1175457.75,1379846.50
697093,1177583,1380931,695096.88,1175598.12,1379924.75
697168,1176604,1380141,695231.63,1175736.00,1380001.00
696073,1175133,1379400,695362.75,1175864.50,1380070.87
695351,1173807,1378750,695484.25,1175973.75,1380128.75
694404,1172984,1378158,695590.25,1176055.00,1380169.87
692491,1172045,1377893,695672.25,1176104.37,1380192.00
692212,1171692,1377596,695722.13,1176119.25,1380194.62
691643,1171640,1377752,695738.81,1176100.50,1380178.75
690957,1171932,1377947,695723.88,1176051.50,1380146.37
691153,1171890,1377629,695678.19,1175976.25,1380099.37
691266,1172002,1377808,695605.13,1175879.62,1380040.00
691284,1172131,1378286,695508.63,1175766.00,1379971.25
691156,1172211,1378010,695392.38,1175639.00,1379895.75
691165,1172240,1378054,695258.94,1175501.75,1379815.00
691069,1172006,1378003,695111.00,1175356.12,1379730.75
690804,1172036,1378718,694951.00,1175203.87,1379645.00
690824,1172027,1378141,694780.94,1175046.87,1379559.87
690772,1171973,1378114,694602.19,1174886.37,1379475.12
690840,1171907,1378477,694416.63,1174723.37,1379390.12
690387,1172308,1378244,694225.69,1174559.75,1379305.25
691182,1172599,1378310,694031.38,1174398.50,1379222.25
691284,1172732,1378550,693837.75,1174243.00,1379142.75
690739,1173120,1378609,693648.31,1174095.25,1379067.75
691749,1173154,1378895,693465.50,1173957.75,1378998.75
692153,1173209,1378731,693291.88,1173831.00,1378936.25
692095,1173390,1378963,693129.38,1173714.25,1378879.50
691930,1173118,1378533,692978.25,1173607.00,1378827.75
692007,1172868,1378334,692837.50,1173508.25,1378779.87
692075,1172879,1378488,692707.31,1173417.00,1378734.87
692111,1173064,1378934,692586.31,1173332.87,1378693.87
691721,1173184,1378715,692472.63,1173256.50,1378658.25
691835,1173246,1378750,692366.50,1173188.50,1378627.62
692693,1173953,1378950,692269.50,1173129.25,1378601.62
692850,1174024,1379184,692184.19,1173080.25,1378581.00
692923,1174062,1379077,692112.88,1173043.25,1378566.37
693137,1174201,1379900,692056.13,1173018.00,1378557.25
693193,1174490,1379449,692013.75,1173004.75,1378553.87
693428,1174541,1379583,691985.25,1173003.50,1378557.00
693835,1174702,1379556,691971.00,1173013.75,1378566.75
693860,1175267,1380504,691969.13,1173036.00,1378584.00
694225,1175376,1380008,691977.50,1173071.00,1378609.50
694505,1175395,1380145,691999.00,1173118.50,1378643.00
694750,1175617,1380576,692036.25,1173177.50,1378683.37
694762,1176267,1380452,692088.50,1173248.25,1378730.25
695114,1176347,1380443,692154.88,1173331.75,1378783.75
695204,1176488,1380470,692234.63,1173427.50,1378843.00
694970,1176674,1380650,692326.38,1173535.00,1378907.75
695544,1176704,1380740,692428.75,1173653.25,1378977.25
695890,1176875,1380638,692541.69,1173780.50,1379051.25
695908,1177241,1381215,692665.38,1173915.50,1379128.62
695615,1177028,1380912,692797.69,1174056.50,1379208.75
696055,1177165,1380894,692936.50,1174202.87,1379291.37
696307,1177235,1380954,693081.50,1174353.62,1379376.25
696374,1177390,1381185,693232.44,1174507.87,1379463.12
696347,1177403,1381081,693387.88,1174664.87,1379551.75
696594,1177574,1381316,693547.00,1174823.87,1379642.00
696321,1177837,1381456,693709.50,1174984.12,1379733.25
696650,1177764,1381274,693874.50,1175145.00,1379825.25
696917,1178021,1381368,694041.13,1175306.25,1379917.00
697031,1178092,1381391,694208.88,1175468.25,1380008.75
697463,1178513,1381630,694378.19,1175631.00,1380100.12
697564,1178678,1381683,694549.63,1175795.25,1380191.75
697300,1178467,1381646,694722.31,1175960.75,1380283.25
695966,1179221,1381990,694891.56,1176126.75,1380375.50
697145,1178057,1381261,695053.13,1176292.50,1380468.25
696747,1177012,1380772,695208.13,1176451.75,1380557.25
696329,1175786,1379432,695356.13,1176596.00,1380636.75
694776,1173795,1378771,695491.88,1176716.00,1380701.37
693605,1172933,1378243,695607.13,1176802.75,1380745.50
692510,1172474,1378069,695694.38,1176851.75,1380766.75
691274,1172100,1378148,695747.69,1176863.50,1380766.12
691352,1172003,1378166,695764.13,1176840.12,1380746.37
691044,1171933,1377940,695745.44,1176784.50,1380709.62
691024,1172332,1378251,695695.13,1176700.37,1380657.50
690686,1172438,1378218,695616.00,1176592.62,1380592.37
691420,1172563,1378378,695512.00,1176466.50,1380517.50
691594,1172716,1378470,695389.25,1176326.75,1380435.50
691544,1172877,1378645,695252.81,1176177.00,1380349.00
691590,1172805,1378475,695105.63,1176020.25,1380259.62
691529,1172667,1378392,694949.88,1175858.12,1380167.75
691352,1172919,1378865,694787.75,1175692.00,1380073.87
691432,1172902,1378596,694621.13,1175523.50,1379979.37
691699,1172997,1378550,694451.63,1175355.37,1379885.50
691922,1173313,1378861,694281.81,1175190.00,1379793.62
692153,1174050,1379071,694112.50,1175031.12,1379705.50
692699,1174259,1379327,693945.00,1174882.75,1379623.00
692818,1174428,1379464,693785.19,1174747.00,1379548.00
691375,1174998,1380113,693634.63,1174625.25,1379481.50
692696,1174610,1379420,693491.31,1174518.25,1379424.12
692242,1174367,1379417,693356.25,1174424.12,1379374.25
692816,1174155,1379409,693230.75,1174340.75,1379330.37
692883,1174085,1379244,693116.00,1174266.00,1379291.50
693261,1174175,1379121,693013.50,1174199.00,1379256.87
693189,1174200,1379287,692924.13,1174139.50,1379225.75
692750,1174574,1379610,692844.88,1174087.75,1379199.00
693289,1174651,1379611,692772.88,1174044.87,1379177.87
693699,1174806,1379711,692711.38,1174011.25,1379162.50
693861,1175353,1380117,692663.88,1173987.12,1379152.75
693955,1175390,1380158,692630.50,1173972.75,1379148.37
694333,1175418,1379993,692611.38,1173969.25,1379150.50
694307,1175473,1380060,692606.31,1173976.87,1379159.12
694673,1176123,1380442,692614.88,1173995.62,1379173.87
695127,1176273,1380296,692637.25,1174026.75,1379195.25
695197,1176497,1380480,692674.38,1174070.87,1379222.75
695580,1176909,1381407,692726.13,1174127.37,1379256.25
695487,1177064,1380744,692791.75,1174196.12,1379296.00
695545,1177129,1380762,692869.75,1174277.12,1379341.50
696045,1177346,1381097,692959.00,1174369.75,1379392.62
696025,1177657,1381335,693056.88,1174473.50,1379450.00
696466,1177775,1381260,693160.75,1174587.75,1379514.00
696523,1177802,1381374,693273.50,1174712.00,1379583.50
695697,1178492,1381841,693394.75,1174845.00,1379658.00
696531,1178268,1381506,693521.00,1174986.75,1379737.12
696795,1178357,1381313,693653.00,1175136.00,1379819.50
696960,1178356,1381759,693792.31,1175291.25,1379903.75
697117,1178515,1381711,693938.50,1175450.75,1379989.62
696966,1178683,1381684,694090.19,1175614.25,1380077.50
697224,1178821,1381647,694245.88,1175780.75,1380166.75
695677,1178675,1382033,694403.25,1175950.25,1380257.12
697407,1178789,1381702,694560.38,1176121.37,1380348.75
697670,1178904,1381766,694718.63,1176292.50,1380440.12
697612,1179296,1381961,694879.25,1176462.75,1380530.50
698095,1179327,1381920,695042.13,1176632.00,1380619.50
698193,1179403,1381973,695207.50,1176800.75,1380707.25
698202,1179491,1382132,695375.25,1176968.75,1380794.25
698522,1179908,1382421,695543.38,1177136.00,1380881.25
698736,1180089,1382534,695711.00,1177303.75,1380968.75
698489,1180128,1382499,695879.00,1177471.75,1381057.25
698372,1179415,1382618,696046.69,1177639.25,1381145.50
697807,1178055,1381334,696210.94,1177800.50,1381230.00
697107,1176866,1380654,696367.38,1177946.00,1381305.75
696447,1175499,1379747,696510.88,1178066.00,1381367.50
694440,1173996,1378949,696634.25,1178153.25,1381410.50
693895,1173518,1378571,696728.75,1178201.50,1381431.00
693421,1173380,1378639,696791.13,1178210.50,1381429.00
692124,1173771,1378869,696819.25,1178183.87,1381406.75
691685,1173461,1378556,696809.44,1178126.25,1381366.50
692250,1173471,1378661,696764.31,1178041.62,1381310.50
692504,1173680,1379100,696690.88,1177933.75,1381241.75
692492,1174105,1379147,696595.00,1177807.75,1381163.37
692760,1174122,1379020,696480.88,1177668.87,1381078.50
692781,1174254,1379472,696352.44,1177520.37,1380989.50
691853,1174303,1379413,696213.25,1177365.50,1380899.00
693032,1174194,1379287,696066.63,1177206.12,1380808.00
693310,1174310,1379315,695915.31,1177044.00,1380716.87
693452,1174792,1379422,695762.50,1176880.75,1380626.25
693696,1174799,1379515,695610.75,1176719.12,1380537.12
693769,1174961,1379739,695462.56,1176561.75,1380451.12
693898,1175261,1379794,695319.38,1176411.50,1380369.75
694449,1175648,1380120,695182.88,1176270.50,1380294.12
694648,1175710,1380060,695055.38,1176140.75,1380225.50
694633,1175501,1379876,694938.88,1176022.75,1380163.50
694337,1175836,1380292,694833.31,1175915.25,1380107.00
694491,1175500,1379935,694737.31,1175817.50,1380056.00
694705,1175193,1379936,694650.88,1175728.25,1380010.25
694710,1175060,1379756,694574.63,1175646.00,1379969.00
694590,1175477,1379997,694507.88,1175570.12,1379931.75
694730,1175449,1379930,694449.75,1175501.62,1379898.75
694907,1175697,1379995,694400.38,1175441.37,1379870.25
694962,1176208,1380382,694358.88,1175389.75,1379845.75
695085,1176042,1380248,694323.88,1175347.50,1379826.00
695427,1176198,1380053,694297.63,1175315.00,1379810.87
695451,1176351,1380620,694282.13,1175292.75,1379800.25
695567,1176848,1380778,694277.13,1175281.50,1379795.25
696074,1176828,1380886,694282.88,1175282.00,1379797.75
696335,1177097,1380943,694300.56,1175294.50,1379807.75
695819,1177642,1381345,694330.75,1175319.00,1379825.50
696503,1177759,1381261,694372.88,1175356.75,1379851.25
696767,1177875,1381294,694425.88,1175407.75,1379884.75
696850,1178559,1381474,694489.56,1175470.50,1379924.37
697386,1178458,1381727,694563.88,1175544.75,1379970.00
697618,1178426,1381752,694649.56,1175630.75,1380022.37
697388,1178554,1381741,694746.00,1175727.37,1380081.25
697740,1178940,1381893,694851.38,1175833.75,1380145.50
697892,1179144,1381950,694964.69,1175950.25,1380215.00
698065,1179295,1382048,695085.88,1176076.25,1380289.00
698087,1179657,1382304,695214.38,1176210.37,1380366.87
698049,1179567,1382136,695348.75,1176351.25,1380447.50
698263,1179411,1382140,695487.63,1176497.87,1380530.87
698321,1179554,1382084,695630.25,1176649.25,1380616.00
698443,1179793,1382203,695775.69,1176804.25,1380702.25
698679,1179708,1382207,695923.38,1176962.50,1380789.25
698765,1179872,1382477,696073.38,1177122.75,1380876.87
698395,1180754,1382483,696224.88,1177284.62,1380965.25
698813,1180473,1382474,696376.50,1177448.75,1381054.25
699154,1180454,1382706,696528.25,1177615.25,1381143.50
699064,1180606,1382841,696680.63,1177783.25,1381233.25
698656,1179952,1382228,696832.00,1177950.75,1381322.50
698646,1179058,1381743,696979.69,1178112.87,1381407.87
698310,1177662,1380894,697121.63,1178262.00,1381485.00
695949,1175674,1380024,697254.50,1178390.00,1381548.75
695310,1174826,1379329,697370.25,1178489.50,1381594.12
694546,1174181,1379103,697459.63,1178552.75,1381618.50
694188,1174016,1379205,697517.88,1178577.50,1381621.75
693139,1173930,1378838,697543.75,1178565.62,1381604.50
692911,1174147,1379130,697535.75,1178521.75,1381569.75
692936,1174178,1378937,697495.38,1178450.50,1381520.25
693193,1174264,1379257,697426.38,1178357.12,1381458.50
693432,1174561,1379380,697333.56,1178246.25,1381387.62
693578,1174880,1379424,697222.38,1178122.12,1381310.25
693658,1175567,1379983,697097.50,1177988.25,1381228.25
693365,1175179,1379944,696961.38,1177848.00,1381143.75
693609,1175071,1379800,696815.94,1177703.87,1381059.50
693877,1175031,1379703,696664.06,1177557.50,1380976.00
693779,1175224,1379539,696509.00,1177410.37,1380892.75
693788,1175231,1379778,696352.63,1177264.00,1380810.25
694034,1175524,1379910,696196.25,1177120.50,1380729.75
694291,1175968,1380197,696042.63,1176981.87,1380652.50
694864,1176228,1380094,695895.00,1176850.62,1380579.37
694970,1176225,1380271,695756.38,1176729.12,1380511.25
695101,1176073,1380424,695628.38,1176617.87,1380448.87
694919,1176132,1380183,695510.88,1176516.00,1380391.75
694921,1176054,1380087,695403.25,1176423.00,1380339.50
695112,1175935,1379970,695305.00,1176338.25,1380291.50
694708,1176098,1380131,695216.13,1176260.87,1380247.37
694982,1175737,1379964,695135.81,1176190.00,1380206.75
694631,1175766,1380171,695063.06,1176124.87,1380170.00
694719,1175934,1380531,694996.50,1176064.50,1380136.62
695027,1175876,1380307,694936.13,1176008.87,1380106.75
694770,1176221,1380291,694882.50,1175959.25,1380081.12
695162,1176121,1380362,694835.50,1175916.50,1380060.12
695138,1176522,1380516,694794.38,1175882.00,1380044.00
695542,1176854,1380693,694758.88,1175857.50,1380033.25
695664,1176893,1380548,694731.38,1175843.50,1380027.87
696109,1177512,1381342,694714.56,1175838.87,1380027.25
696051,1177353,1381028,694709.00,1175843.75,1380031.50
696468,1177353,1380909,694714.75,1175858.50,1380041.75
696631,1177574,1380990,694732.25,1175882.75,1380057.25
696850,1178002,1381304,694761.63,1175917.00,1380078.25
696949,1178027,1381034,694802.50,1175961.75,1380104.62
697014,1178043,1381280,694854.19,1176016.37,1380135.75
696294,1178412,1381680,694915.38,1176079.75,1380171.25
697171,1178426,1381359,694984.63,1176151.75,1380211.25
697408,1178434,1381502,695061.75,1176231.50,1380255.37
697665,1178573,1381700,695147.00,1176318.50,1380303.00
697664,1178790,1381630,695240.25,1176411.75,1380354.12
697820,1178728,1381639,695340.50,1176511.00,1380408.12
697836,1178681,1381631,695446.94,1176614.75,1380464.75
697853,1179351,1381870,695558.25,1176722.25,1380523.87
698049,1179012,1381791,695673.38,1176833.00,1380585.25
698238,1179112,1381694,695792.25,1176947.00,1380648.25
698307,1179202,1382405,695914.88,1177063.37,1380712.00
698501,1179224,1382116,696040.81,1177181.62,1380776.50
698192,1179214,1381896,696169.13,1177300.87,1380842.12
698310,1179036,1381530,696297.88,1177419.75,1380907.50
697176,1177511,1380795,696422.88,1177536.87,1380969.25
696219,1176319,1380195,696536.69,1177646.00,1381022.62
695575,1175454,1379547,696634.25,1177736.12,1381063.62
694628,1174394,1379401,696712.00,1177798.87,1381089.37
692585,1173978,1378801,696763.50,1177831.12,1381098.37
692306,1173862,1378595,696781.50,1177832.25,1381090.00
691757,1173703,1378620,696764.19,1177804.12,1381064.75
691101,1173809,1378821,696712.38,1177749.75,1381024.75
690870,1173721,1378732,696627.00,1177672.75,1380973.00
690897,1173951,1378893,696510.25,1177576.25,1380911.25
689372,1174398,1379465,696365.81,1177464.25,1380842.00
691060,1174372,1379145,696198.13,1177341.00,1380767.75
691181,1174473,1379206,696012.25,1177210.00,1380690.25
691179,1174285,1379081,695812.50,1177073.75,1380610.75
691119,1174382,1378975,695602.25,1176933.75,1380529.75
690598,1174037,1378866,695383.00,1176790.62,1380447.00
690830,1174066,1379035,695155.75,1176645.00,1380362.75
690526,1174197,1379318,694922.88,1176497.50,1380279.00
691106,1174567,1379166,694687.13,1176350.75,1380197.37
691609,1174879,1379277,694452.88,1176208.00,1380118.25
691764,1174994,1380281,694224.69,1176072.00,1380042.37
692175,1175368,1380001,694005.75,1175944.25,1379972.25
692290,1175503,1379773,693798.50,1175827.12,1379909.37
692352,1175581,1379734,693604.50,1175721.12,1379853.25
692115,1175340,1379818,693421.25,1175627.00,1379803.00
692293,1175223,1379773,693246.38,1175544.00,1379758.50
692346,1175207,1379599,693082.50,1175469.75,1379719.25
692512,1175720,1379728,692932.75,1175402.50,1379684.12
692394,1175351,1379541,692796.88,1175342.25,1379652.75
692466,1175401,1379617,692674.38,1175289.00,1379624.75
692307,1175447,1379671,692564.31,1175242.75,1379600.00
692672,1175671,1379936,692464.00,1175203.75,1379579.00
692943,1176025,1379972,692372.50,1175173.00,1379562.75
693143,1175917,1380033,692293.56,1175151.25,1379551.25
692062,1176688,1380489,692230.00,1175138.25,1379544.75
693308,1176336,1380311,692181.50,1175134.00,1379543.25
693934,1176586,1380567,692148.13,1175139.37,1379547.75
693992,1176809,1380365,692130.75,1175154.62,1379558.50
694301,1176990,1380538,692129.38,1175180.00,1379574.75
694621,1177187,1380670,692144.13,1175215.75,1379596.12
694678,1177267,1380749,692174.75,1175261.50,1379622.75
694929,1177656,1381243,692220.38,1175316.87,1379655.25
695304,1177811,1380963,692280.63,1175381.75,1379694.25
695751,1177811,1380994,692356.00,1175456.37,1379738.50
695783,1177992,1381885,692446.56,1175539.75,1379786.75
695651,1178347,1381560,692550.63,1175631.75,1379839.50
696092,1178427,1381407,692666.25,1175732.00,1379897.50
696274,1178594,1381393,692792.88,1175840.62,1379960.00
696461,1178818,1381672,692928.56,1175956.75,1380026.12
696356,1178818,1381533,693070.38,1176080.00,1380095.75
696525,1178904,1381681,693218.38,1176209.12,1380168.37
696522,1179612,1381816,693373.00,1176342.50,1380243.12
696984,1179487,1381919,693533.31,1176480.12,1380319.75
697107,1179371,1381782,693699.50,1176622.25,1380398.00
697202,1179502,1382083,693871.06,1176768.25,1380478.25
697058,1179892,1381988,694044.44,1176917.50,1380560.00
697608,1179937,1381937,694216.75,1177070.50,1380642.75
697008,1179823,1381828,694389.50,1177226.12,1380725.12
696508,1178664,1381471,694562.63,1177381.87,1380806.00
696231,1177180,1380550,694732.63,1177530.62,1380882.75
695515,1176136,1379903,694894.13,1177661.50,1380949.00
694422,1175239,1379258,695040.63,1177766.00,1380999.87
692487,1174278,1378974,695163.88,1177839.75,1381033.00
691634,1174250,1378682,695255.13,1177880.50,1381047.25
691208,1174079,1378703,695309.94,1177889.75,1381043.12
690329,1174384,1379535,695327.75,1177870.75,1381023.75
690459,1174399,1378997,695309.38,1177828.12,1380993.25
690489,1174571,1378996,695257.75,1177765.62,1380952.87
690694,1174613,1379738,695177.63,1177686.75,1380903.00
690386,1174954,1379428,695073.13,1177595.25,1380846.37
690898,1174994,1379190,694948.06,1177494.50,1380784.87
690903,1175058,1379346,694807.13,1177387.37,1380719.62
689990,1174960,1379247,694653.75,1177276.00,1380651.50
690682,1174787,1379180,694489.63,1177161.37,1380581.25
690600,1174829,1379202,694316.75,1177043.62,1380509.00
690749,1175475,1379464,694137.31,1176923.50,1380436.00
690756,1175279,1379571,693953.94,1176803.00,1380363.25
690895,1175441,1379670,693768.88,1176685.00,1380293.00
691372,1175696,1379824,693585.13,1176572.00,1380226.50
691642,1176087,1380005,693403.63,1176466.00,1380165.00
692095,1176140,1380058,693225.38,1176369.00,1380109.25
692257,1176233,1380144,693056.44,1176281.75,1380059.62
692033,1176280,1380175,692901.25,1176203.87,1380015.75
692244,1176019,1379844,692759.69,1176134.25,1379976.25
691786,1175866,1379729,692630.25,1176071.75,1379940.12
692081,1175737,1380310,692511.13,1176015.12,1379907.00
692348,1175734,1379967,692402.88,1175963.37,1379877.00
692506,1175976,1379893,692306.63,1175916.37,1379850.87
692666,1176037,1379925,692223.13,1175875.00,1379828.25
692449,1176423,1380756,692152.19,1175840.25,1379810.50
692897,1176401,1380500,692093.38,1175813.37,1379800.00
693264,1176496,1380420,692047.38,1175794.12,1379796.37
693355,1176707,1381025,692015.25,1175782.50,1379798.00
693364,1177129,1380883,691996.44,1175779.25,1379805.00
693754,1177022,1380706,691990.56,1175785.25,1379817.75
693929,1177194,1380803,691997.88,1175800.25,1379836.25
693584,1177817,1380919,692017.88,1175824.50,1379859.50
694608,1177739,1380924,692050.25,1175859.00,1379887.50
694858,1177937,1381053,692096.50,1175903.75,1379920.12
694881,1178590,1381518,692157.13,1175958.00,1379957.25
695420,1178489,1381443,692231.56,1176021.75,1379999.37
695482,1178483,1381565,692319.69,1176095.25,1380047.00
695567,1178628,1381432,692420.63,1176178.00,1380099.62
695889,1178841,1381670,692532.31,1176269.00,1380156.50
695484,1178995,1381601,692652.38,1176367.87,1380217.25
695860,1179036,1381729,692779.56,1176474.25,1380281.50
696250,1179387,1381702,692914.00,1176586.87,1380348.50
696260,1179296,1381929,693055.63,1176704.50,1380418.00
696275,1179367,1381843,693203.75,1176827.00,1380490.12
696571,1179255,1382473,693357.38,1176953.50,1380563.37
696748,1179568,1382047,693516.31,1177082.75,1380637.00
696732,1179682,1382058,693679.88,1177214.62,1380711.75
696941,1179855,1382038,693847.13,1177349.25,1380787.50
696750,1180353,1382826,694015.50,1177487.12,1380864.75
697126,1180448,1382287,694183.00,1177629.25,1380944.37
697436,1180203,1382425,694351.25,1177774.75,1381025.25
697515,1180189,1382493,694521.88,1177921.50,1381106.50
696426,1178946,1381650,694692.25,1178065.25,1381185.62
695882,1177637,1380684,694856.38,1178198.62,1381258.25
695012,1176432,1379932,695008.13,1178312.37,1381318.50
692712,1175381,1379426,695141.75,1178401.00,1381362.00
692218,1174957,1379266,695249.50,1178461.25,1381386.87
691530,1174805,1379047,695324.38,1178490.87,1381393.25
690947,1174676,1379418,695362.88,1178490.25,1381382.00
690171,1174792,1379273,695364.19,1178462.50,1381355.37
690380,1174897,1379420,695329.19,1178411.25,1381316.25
690257,1175051,1379286,695261.50,1178340.37,1381267.50
690693,1175553,1379667,695165.06,1178254.37,1381210.75
690557,1175279,1379716,695044.13,1178157.25,1381148.75
690951,1175535,1379569,694904.50,1178051.50,1381083.25
690897,1175796,1379850,694751.31,1177939.50,1381014.87
690919,1175788,1379848,694587.88,1177824.12,1380944.75
691266,1175618,1379613,694417.13,1177706.87,1380874.25
691154,1175583,1379879,694242.50,1177588.25,1380803.62
691332,1175958,1380076,694066.31,1177469.75,1380734.50
691748,1176179,1380094,693891.19,1177353.75,1380668.25
691902,1176484,1380291,693720.44,1177243.00,1380606.00
692024,1177222,1381267,693553.13,1177140.50,1380549.37
692774,1177071,1380727,693389.13,1177049.00,1380500.37
692698,1176949,1380417,693235.13,1176968.50,1380458.37
692111,1177028,1380681,693094.38,1176897.50,1380421.50
692557,1176788,1380517,692964.75,1176835.25,1380389.00
692509,1176681,1380443,692846.50,1176780.25,1380361.00
692643,1176669,1380330,692739.88,1176731.25,1380336.75
692584,1176723,1380480,692645.13,1176687.87,1380315.75
692773,1176682,1380339,692562.31,1176650.50,1380297.87
692840,1176822,1380302,692490.88,1176618.50,1380282.50
693123,1177234,1381044,692430.88,1176591.62,1380269.50
692978,1177252,1380823,692382.13,1176571.00,1380259.87
693302,1177356,1380857,692344.31,1176557.50,1380254.75
693574,1177501,1380723,692317.81,1176551.50,1380254.37
694136,1177884,1381068,692303.44,1176553.62,1380258.25
694013,1177978,1381093,692301.50,1176564.62,1380267.00
694242,1178197,1381166,692312.25,1176584.87,1380280.75
694709,1178587,1381440,692336.13,1176614.37,1380299.50
694793,1178605,1381296,692373.44,1176653.25,1380323.00
695075,1178697,1381332,692424.25,1176701.37,1380350.75
695493,1178897,1381573,692488.69,1176758.75,1380382.75
695772,1179362,1381802,692567.31,1176825.50,1380419.75
695462,1179469,1381883,692659.13,1176902.25,1380462.25
695649,1179475,1381948,692761.50,1176988.50,1380510.00
694946,1180588,1382908,692870.50,1177084.25,1380564.00
696144,1180080,1382173,692983.56,1177190.12,1380624.75
696222,1180179,1382276,693103.50,1177305.25,1380690.50
696143,1180190,1382431,693231.94,1177427.75,1380760.25
696506,1180615,1382443,693367.38,1177556.75,1380833.00
696619,1180476,1382247,693509.50,1177691.87,1380908.25
696458,1180456,1382447,693657.25,1177831.75,1380985.25
696530,1180665,1382640,693806.88,1177975.12,1381063.87
696935,1180532,1382322,693956.25,1178121.12,1381144.00
696934,1180668,1382530,694107.63,1178268.25,1381224.25
697044,1180926,1382652,694262.06,1178415.37,1381303.62
696884,1180647,1382515,694418.25,1178562.00,1381381.75
697303,1180868,1382681,694575.25,1178707.25,1381458.75
697288,1181017,1382610,694733.00,1178851.00,1381535.25
697201,1180922,1382609,694890.94,1178993.37,1381610.87
697466,1180311,1382169,695048.00,1179132.25,1381684.00
696873,1179644,1381767,695202.88,1179263.25,1381752.12
695190,1177418,1380667,695352.00,1179380.75,1381812.00
694218,1176494,1379959,695487.88,1179476.50,1381858.87
693223,1175737,1379560,695600.63,1179541.50,1381887.75
691845,1175351,1379304,695682.00,1179571.62,1381896.50
689741,1174910,1379225,695725.75,1179567.25,1381885.50
689542,1174614,1378966,695726.38,1179529.50,1381856.25
689134,1174620,1378951,695682.44,1179460.75,1381809.50
686838,1175697,1379793,695594.00,1179366.00,1381748.50
688547,1175329,1379579,695462.63,1179251.25,1381677.37
688779,1175438,1379491,695295.00,1179121.62,1381599.00
689091,1175469,1379499,695099.50,1178980.00,1381514.75
689290,1175769,1379703,694882.75,1178829.87,1381426.50
689423,1175766,1379669,694650.38,1178674.37,1381336.00
689399,1175689,1379875,694406.69,1178515.75,1381244.25
689294,1176030,1380027,694152.25,1178355.50,1381153.25
689749,1176149,1379972,693887.94,1178196.25,1381064.25
689683,1176135,1380083,693620.88,1178040.25,1380978.00
690076,1176670,1380518,693357.13,1177888.87,1380895.25
690376,1176973,1380434,693100.06,1177744.75,1380816.87
690934,1177090,1380539,692853.75,1177610.75,1380744.50
691242,1177152,1380550,692621.81,1177488.75,1380679.00
691344,1177288,1380717,692406.38,1177378.50,1380620.37
691615,1177108,1380849,692208.38,1177280.00,1380569.37
691713,1176937,1380482,692028.75,1177191.87,1380525.50
691492,1176986,1380896,691867.69,1177113.00,1380486.87
691638,1176968,1380469,691724.31,1177043.00,1380452.50
691771,1177041,1380615,691597.50,1176981.25,1380422.50
691750,1177200,1380499,691486.50,1176927.50,1380397.00
691800,1177513,1380784,691388.00,1176882.25,1380375.87
692321,1177500,1380823,691299.50,1176846.37,1380359.75
692214,1177640,1380992,691225.00,1176819.75,1380349.25
690618,1178474,1381502,691164.75,1176803.25,1380344.75
692603,1178304,1381227,691115.75,1176798.37,1380346.75
693055,1178425,1381381,691081.56,1176805.37,1380355.12
693326,1178410,1381553,691065.38,1176823.12,1380369.25
693725,1179012,1381480,691067.94,1176851.50,1380388.25
693466,1179189,1381603,691088.38,1176891.75,1380412.75
693962,1179131,1381794,691125.13,1176943.50,1380443.12
692802,1179457,1382154,691175.50,1177006.00,1380480.12
694403,1179638,1382045,691237.38,1177079.00,1380524.25
694932,1179816,1382193,691313.38,1177162.25,1380574.75
694931,1180406,1382188,691406.00,1177255.25,1380630.75
695433,1180475,1382307,691514.50,1177357.75,1380691.87
695270,1180495,1382252,691637.75,1177470.50,1380757.25
695874,1180583,1382449,691774.50,1177592.12,1380826.50
695774,1180812,1382710,691923.25,1177721.75,1380899.50
695611,1180807,1382462,692081.44,1177858.25,1380976.25
695827,1180941,1382583,692246.94,1178000.50,1381055.50
696086,1181085,1383269,692419.38,1178147.87,1381136.50
696315,1181146,1382750,692598.31,1178299.50,1381219.25
696379,1181268,1382694,692783.13,1178454.37,1381303.25
696501,1181432,1382742,692972.75,1178611.75,1381387.62
696501,1181848,1383038,693163.38,1178771.50,1381472.50
696825,1181649,1382974,693352.13,1178934.25,1381558.25
696818,1181888,1383005,693541.13,1179098.50,1381644.25
696560,1182674,1383768,693730.00,1179264.12,1381730.87
696917,1182378,1383506,693915.63,1179432.00,1381818.75
697186,1182575,1383353,694099.75,1179602.25,1381907.87
697405,1182487,1383512,694284.75,1179773.50,1381997.50
697524,1182426,1383413,694470.75,1179944.75,1382086.50
697113,1181905,1383042,694656.25,1180113.25,1382174.12
696868,1180964,1382406,694838.25,1180274.25,1382257.25
693732,1178587,1381102,695012.50,1180421.25,1382330.50
694073,1177572,1380410,695171.00,1180544.75,1382387.25
693358,1177063,1380158,695304.88,1180635.50,1382423.75
692671,1176607,1380220,695408.88,1180689.50,1382439.62
691352,1176482,1379952,695479.44,1180707.62,1382436.00
691275,1176467,1379978,695513.81,1180692.75,1382415.00
691094,1176596,1380094,695512.94,1180649.12,1382378.62
690823,1176817,1380361,695479.00,1180581.12,1382330.25
690941,1176898,1380466,695414.25,1180493.25,1382272.75
691237,1177132,1380363,695324.00,1180389.75,1382208.50
691420,1177811,1380973,695214.25,1180274.25,1382138.75
691675,1177537,1380607,695089.69,1180150.12,1382064.87
691503,1177324,1380514,694954.00,1180020.50,1381988.75
691563,1177370,1380578,694809.38,1179886.75,1381910.87
691799,1177873,1380767,694657.38,1179751.25,1381832.62
692042,1177753,1380718,694500.38,1179616.50,1381755.37
692086,1177850,1380874,694342.63,1179484.37,1381680.00
692502,1178963,1381195,694185.88,1179356.75,1381607.37
692639,1178768,1381304,694031.63,1179237.12,1381539.00
692978,1178867,1381236,693884.06,1179127.75,1381476.00
693253,1178764,1381519,693747.06,1179028.87,1381418.87
692518,1178706,1381357,693620.63,1178939.75,1381367.50
693233,1178460,1381104,693503.63,1178859.12,1381321.50
693261,1178691,1381210,693397.19,1178785.87,1381279.87
692432,1178715,1381561,693302.13,1178720.25,1381243.00
693159,1178482,1381272,693217.75,1178662.25,1381211.75
693332,1178526,1381193,693143.25,1178610.25,1381185.00
693249,1179053,1381463,693078.44,1178564.00,1381161.25
693585,1178870,1381381,693023.25,1178524.50,1381140.75
693711,1178912,1381359,692978.25,1178492.00,1381124.00
693705,1179184,1381590,692943.63,1178466.75,1381111.37
694041,1179453,1381697,692919.31,1178449.62,1381103.50
694411,1179748,1382077,692906.00,1178441.87,1381101.25
694672,1179793,1381843,692905.13,1178444.12,1381105.25
694895,1180619,1382814,692917.13,1178456.50,1381114.87
694910,1180497,1382400,692941.75,1178479.75,1381129.62
695132,1180600,1382433,692978.31,1178514.25,1381151.00
695443,1180597,1382262,693026.50,1178560.00,1381179.00
695952,1181250,1382523,693086.06,1178616.50,1381212.50
696110,1181158,1382480,693156.88,1178684.25,1381251.00
695954,1181364,1382644,693239.50,1178762.50,1381294.50
696305,1182345,1383073,693332.50,1178851.00,1381342.75
696495,1182130,1383067,693434.88,1178950.00,1381396.25
696646,1182085,1382981,693547.00,1179059.50,1381455.25
697024,1182237,1383440,693669.00,1179178.87,1381518.87
696620,1182393,1383428,693799.88,1179306.50,1381587.25
697016,1182487,1383381,693937.38,1179441.75,1381660.50
697271,1182715,1383359,694081.13,1179583.50,1381737.75
696994,1182971,1383583,694230.56,1179731.50,1381818.37
697658,1182812,1383395,694384.88,1179884.62,1381901.75
697635,1182791,1383429,694544.00,1180041.25,1381986.50
697470,1183258,1383585,694706.75,1180199.62,1382071.75
697856,1183360,1383536,694871.75,1180359.50,1382156.75
698130,1183274,1383729,695038.94,1180521.50,1382241.75
698099,1183395,1383608,695208.63,1180685.00,1382327.25
698253,1183739,1383877,695379.06,1180849.50,1382412.75
698583,1183715,1383843,695549.25,1181015.25,1382498.25
697942,1183814,1384107,695719.13,1181181.50,1382584.25
698314,1184308,1384520,695887.25,1181347.37,1382670.37
698258,1183622,1383995,696052.56,1181511.50,1382755.87
698283,1182766,1383218,696214.75,1181670.50,1382838.75
697743,1181750,1382643,696372.00,1181818.50,1382915.00
696147,1179710,1381347,696520.13,1181946.75,1382979.00
695309,1178717,1381004,696651.88,1182045.50,1383025.25
694370,1178195,1380655,696759.25,1182109.25,1383051.25
692782,1178235,1380543,696836.38,1182137.37,1383057.00
692706,1177694,1380548,696879.56,1182131.25,1383044.00
692397,1177861,1380522,696887.75,1182094.12,1383014.25
692270,1177801,1381079,696862.38,1182029.87,1382969.87
692133,1178257,1380915,696806.50,1181943.25,1382914.12
692329,1178344,1380972,696723.50,1181839.00,1382850.00
692781,1178480,1381137,696618.50,1181721.75,1382779.75
692823,1179075,1381493,696496.88,1181594.25,1382706.25
693087,1178794,1381170,696362.75,1181460.12,1382631.12
693031,1178785,1381030,696219.69,1181321.75,1382554.50
693200,1178980,1381604,696070.50,1181181.12,1382475.87
693301,1178964,1381386,695917.63,1181039.62,1382396.37
692970,1179083,1381268,695762.75,1180899.25,1382317.87
693356,1179185,1381612,695606.88,1180762.12,1382241.75
694138,1179864,1381768,695451.81,1180630.75,1382169.50
694475,1179926,1381891,695300.88,1180508.62,1382102.75
694845,1180023,1381880,695159.81,1180396.75,1382042.00
694757,1180542,1382409,695032.13,1180295.00,1381987.25
694362,1180121,1381819,694916.88,1180203.50,1381938.00
694699,1179900,1381599,694812.44,1180121.37,1381893.25
694718,1179771,1381618,694718.81,1180047.50,1381852.00
694620,1179869,1381760,694636.13,1179980.75,1381814.25
694926,1179812,1381650,694564.00,1179920.75,1381779.87
694900,1179977,1381711,694502.63,1179867.25,1381749.00
694009,1180270,1381950,694451.44,1179820.75,1381721.25
694795,1180209,1381933,694409.63,1179781.50,1381697.25
695172,1180394,1381855,694376.50,1179749.87,1381677.25
695430,1180539,1382139,694352.88,1179726.62,1381661.50
695586,1180695,1382304,694339.69,1179712.00,1381650.75
695689,1180933,1382315,694337.06,1179706.50,1381645.75
696038,1181027,1382272,694345.06,1179710.25,1381646.12
696240,1181388,1382725,694364.06,1179723.25,1381652.00
696346,1181442,1382503,694394.06,1179745.00,1381663.75
696209,1181479,1382600,694434.25,1179776.25,1381680.75
696303,1181624,1383261,694483.13,1179816.25,1381702.50
696941,1182061,1383013,694540.50,1179865.37,1381728.87
697110,1182247,1382823,694607.88,1179924.25,1381760.37
696988,1182315,1383214,694685.13,1179993.00,1381797.00
697010,1182902,1383305,694768.00,1180072.00,1381839.25
697217,1182700,1383198,694853.00,1180161.75,1381886.75
697845,1182764,1383281,694943.63,1180260.25,1381938.75
698074,1183722,1383650,695044.13,1180365.50,1381994.25
698106,1183383,1383476,695154.63,1180477.50,1382053.37
698220,1183353,1383567,695273.88,1180596.75,1382115.75
698231,1183195,1383480,695400.56,1180722.00,1382181.25
698174,1183520,1383693,695531.38,1180851.50,1382248.87
698460,1183533,1383626,695663.38,1180984.75,1382318.75
698597,1183668,1383667,695798.50,1181121.25,1382390.12
697237,1184152,1384155,695937.75,1181260.50,1382462.50
698897,1184167,1384101,696080.25,1181402.62,1382535.75
698934,1184241,1384128,696225.94,1181547.87,1382611.25
698868,1184544,1384178,696374.13,1181696.25,1382688.87
699245,1184538,1384095,696524.00,1181847.50,1382767.87
699301,1184092,1383864,696675.63,1181999.75,1382847.00
698852,1183098,1383210,696827.75,1182148.50,1382923.37
697328,1181103,1382173,696976.69,1182286.87,1382992.25
696647,1179957,1381503,697115.88,1182405.75,1383047.75
695709,1179450,1381193,697236.63,1182496.00,1383086.00
694764,1178961,1381527,697332.00,1182553.25,1383106.25
693661,1178705,1380962,697397.13,1182578.00,1383109.25
693660,1178743,1380744,697429.31,1182572.00,1383096.00
693404,1178781,1381004,697429.63,1182538.62,1383068.00
693028,1179219,1381357,697399.63,1182482.37,1383028.25
693595,1179326,1381365,697341.63,1182408.00,1382980.25
693815,1179451,1381237,697261.75,1182319.87,1382926.00
694184,1180346,1381517,697166.31,1182221.25,1382866.50
694348,1180099,1381545,697059.88,1182116.00,1382803.75
694526,1180072,1381505,696946.13,1182007.75,1382738.87
694535,1180097,1381632,696827.63,1181898.00,1382673.00
694543,1179893,1381757,696703.38,1181787.75,1382607.25
694824,1180295,1381994,696572.38,1181677.50,1382543.12
694790,1180384,1381809,696440.38,1181569.50,1382481.75
694932,1181013,1382135,696312.63,1181465.75,1382423.75
695321,1181213,1382302,696191.13,1181368.50,1382370.00
695863,1181276,1382359,696078.38,1181280.50,1382321.75
695544,1181166,1382626,695975.69,1181202.25,1382279.25
695955,1181142,1382261,695883.25,1181133.25,1382241.87
695929,1180980,1382026,695801.31,1181072.12,1382208.50
695674,1181024,1382099,695729.50,1181017.87,1382178.25
695492,1180828,1382789,695665.88,1180970.00,1382151.75
695374,1180822,1382059,695608.63,1180928.25,1382130.00
695521,1180821,1382020,695557.00,1180891.00,1382111.12
695883,1180926,1382401,695511.50,1180857.87,1382093.75
695680,1181127,1382082,695473.06,1180829.25,1382077.75
696042,1181185,1382202,695441.63,1180806.00,1382063.75
696230,1181168,1382318,695418.00,1180788.00,1382052.25
695674,1181771,1382499,695402.25,1180776.00,1382044.25
696468,1181886,1382793,695394.00,1180771.25,1382040.75
697014,1181979,1382844,695394.63,1180775.12,1382042.62
697031,1182871,1383138,695406.13,1180787.37,1382050.00
697426,1182695,1383105,695428.81,1180808.87,1382062.75
697723,1182746,1383161,695463.25,1180840.75,1382081.00
697831,1183018,1383199,695509.88,1180883.12,1382105.25
698149,1183261,1383393,695567.00,1180936.25,1382134.75
698161,1183434,1383237,695633.13,1181000.00,1382169.25
698383,1183697,1383608,695708.94,1181074.25,1382208.75
698651,1184036,1383960,695795.63,1181158.75,1382252.75
698856,1183975,1383815,695893.13,1181252.50,1382301.00
698667,1184063,1383680,696000.25,1181355.25,1382353.75
698991,1184061,1384579,696115.38,1181465.37,1382410.50
699197,1184335,1384067,696237.69,1181582.12,1382470.75
699439,1184501,1383969,696367.44,1181705.12,1382535.00
699156,1184570,1384071,696503.50,1181834.00,1382602.50
699166,1185043,1384703,696642.13,1181968.37,1382673.25
699483,1185013,1384411,696780.94,1182108.50,1382748.12
699601,1184919,1384301,696921.50,1182253.12,1382826.12
699967,1185061,1384795,697065.63,1182400.75,1382906.00
699723,1185473,1384725,697212.94,1182551.00,1382987.25
700386,1185274,1384359,697363.00,1182704.00,1383070.25
700232,1185158,1384252,697516.13,1182857.75,1383153.50
699007,1183941,1383476,697670.25,1183010.50,1383233.75
698806,1182469,1382639,697820.13,1183155.75,1383306.12
698021,1181448,1382126,697959.63,1183281.75,1383365.75
697438,1179927,1381552,698083.50,1183379.75,1383409.00
695206,1179564,1381103,698185.19,1183445.25,1383433.75
694697,1179412,1380947,698256.38,1183476.12,1383439.00
694339,1179287,1380905,698293.38,1183473.75,1383425.50
693841,1179543,1380854,698297.06,1183441.62,1383395.00
693854,1179684,1381207,698269.00,1183384.50,1383350.25
694246,1179792,1381128,698212.88,1183307.12,1383294.25
694407,1180117,1381465,698133.50,1183213.25,1383229.62
694080,1180183,1381432,698034.69,1183106.50,1383158.50
694502,1180547,1381673,697919.50,1182991.25,1383083.50
694904,1180560,1381743,697792.88,1182871.00,1383006.50
695216,1180684,1381947,697659.75,1182748.25,1382929.75
695385,1180709,1381974,697524.06,1182624.50,1382854.37
695340,1180883,1381878,697388.25,1182501.50,1382781.12
694919,1181908,1382695,697250.94,1182381.75,1382710.62
695820,1181738,1382393,697111.38,1182268.50,1382644.25
696291,1181801,1382510,696976.13,1182164.12,1382583.62
696221,1181822,1382392,696850.75,1182069.37,1382529.00
696747,1182017,1382441,696736.50,1181984.25,1382479.87
696743,1181968,1382409,696634.81,1181908.75,1382435.87
697065,1181735,1382297,696546.38,1181842.37,1382396.75
696441,1181553,1382254,696469.31,1181783.37,1382361.62
696639,1181616,1381998,696400.38,1181730.75,1382329.50
696334,1181439,1382015,696339.25,1181683.25,1382299.12
696551,1181375,1382204,696286.25,1181639.50,1382270.25
696034,1181507,1382023,696240.00,1181599.50,1382242.75
696440,1181317,1382131,696199.38,1181562.62,1382217.12
696426,1181610,1382312,696164.56,1181529.25,1382193.87
696255,1182057,1382379,696136.31,1181500.75,1382174.00
697004,1182146,1382557,696115.75,1181479.00,1382158.25
697150,1182222,1382506,696103.88,1181464.75,1382146.87
697446,1182692,1382758,696101.06,1181457.75,1382140.00
697705,1182732,1382902,696108.00,1181458.50,1382138.25
697868,1182857,1383093,696125.56,1181468.00,1382142.37
698054,1183002,1383071,696153.75,1181486.50,1382152.62
698358,1183490,1383253,696192.81,1181514.50,1382168.75
698464,1183536,1383138,696242.75,1181553.00,1382190.50
698580,1183656,1383293,696303.13,1181601.62,1382217.00
696881,1184765,1384158,696370.63,1181660.25,1382248.50
698589,1184244,1383602,696441.88,1181729.25,1382285.50
698978,1184089,1383649,696519.00,1181808.25,1382327.50
699188,1184372,1383745,696604.75,1181895.25,1382374.50
699377,1184407,1383567,696699.25,1181989.87,1382425.50
699637,1184512,1383754,696802.44,1182091.25,1382479.62
699855,1184646,1383922,696914.13,1182198.50,1382536.62
699579,1185026,1384385,697030.63,1182311.25,1382597.62
699978,1185225,1384131,697147.63,1182429.50,1382663.25
700362,1185107,1384115,697268.88,1182553.50,1382732.37
700240,1185435,1384431,697397.50,1182682.00,1382803.50
700083,1185260,1384157,697531.81,1182813.50,1382876.00
700287,1184757,1383866,697669.69,1182946.37,1382949.00
699979,1183664,1383270,697809.63,1183075.75,1383019.37
697944,1181651,1382013,697947.75,1183192.75,1383082.12
697001,1181009,1381520,698075.56,1183287.25,1383131.12
696071,1180276,1381301,698182.44,1183353.62,1383163.00
694182,1179868,1381545,698261.25,1183390.25,1383177.50
694025,1179765,1381252,698307.50,1183397.00,1383175.50
694093,1179924,1381081,698318.94,1183376.75,1383159.00
694146,1179848,1381141,698298.13,1183333.25,1383129.75
693807,1180390,1381446,698246.50,1183270.50,1383089.75
694304,1180464,1381385,698165.50,1183193.25,1383041.62
694631,1180576,1381469,698063.25,1183105.00,1382987.25
692998,1181331,1382206,697945.25,1183009.50,1382928.50
694412,1181071,1381724,697812.50,1182910.75,1382867.00
694583,1180984,1381845,697669.06,1182810.00,1382804.75
695201,1181160,1382293,697520.75,1182708.25,1382742.75
695520,1181348,1382137,697372.25,1182607.25,1382682.50
695450,1181588,1382164,697226.88,1182508.75,1382625.25
695877,1181701,1382149,697086.50,1182415.00,1382571.25
695111,1182149,1382634,696950.25,1182327.50,1382521.25
696197,1182255,1382449,696817.25,1182247.62,1382476.87
696571,1182264,1382444,696692.69,1182176.75,1382437.75
696299,1182116,1382531,696580.69,1182114.50,1382403.12
696174,1181771,1382270,696480.00,1182059.12,1382372.00
696032,1181564,1382091,696388.88,1182008.12,1382343.75
695830,1181316,1381848,696305.75,1181959.75,1382316.75
695541,1181022,1381840,696228.31,1181912.37,1382289.75
695570,1181110,1381971,696154.63,1181864.75,1382263.12
695326,1181041,1381769,696084.38,1181816.75,1382236.75
695349,1181588,1382511,696017.25,1181769.25,1382210.75
695342,1181433,1382099,695953.13,1181723.50,1382186.00
695760,1181569,1382110,695892.75,1181680.75,1382163.25
695931,1181797,1382142,695838.00,1181642.25,1382142.75
695679,1182122,1382373,695787.63,1181609.62,1382125.00
696293,1182184,1382474,695739.75,1181584.12,1382111.00
696534,1182443,1382545,695698.88,1181566.25,1382101.25
695930,1183289,1383141,695666.13,1181557.75,1382096.25
697126,1182944,1382983,695640.13,1181560.00,1382097.00
697037,1182981,1382768,695624.50,1181572.75,1382103.37
697431,1183092,1383423,695622.00,1181594.25,1382114.37
697908,1183262,1383181,695633.13,1181624.37,1382129.87
697632,1183470,1383154,695658.25,1181663.00,1382150.50
697591,1183246,1383121,695695.25,1181709.75,1382176.25
696397,1183451,1383685,695740.69,1181763.50,1382206.87
697710,1183612,1383488,695792.25,1181824.25,1382243.25
698380,1183738,1383480,695851.56,1181891.37,1382285.00
698433,1184019,1383675,695921.31,1181964.00,1382330.25
698555,1184004,1383470,696001.38,1182041.25,1382378.12
698953,1184077,1383675,696091.25,1182123.37,1382428.50
698816,1184252,1383585,696190.63,1182210.50,1382481.50
698816,1184173,1383564,696297.25,1182301.75,1382536.50
699276,1183986,1383377,696409.50,1182395.87,1382592.25
698830,1183619,1383164,696527.38,1182490.25,1382647.25
698400,1182053,1382755,696648.25,1182580.87,1382699.00
696617,1181073,1381776,696765.31,1182660.50,1382743.87
695606,1180300,1381082,696869.00,1182720.75,1382776.87
694354,1180004,1380888,696950.75,1182757.00,1382794.62
692306,1179450,1381026,697002.00,1182768.50,1382797.00
692384,1179330,1380756,697015.56,1182755.25,1382785.37
691697,1179197,1380790,696991.69,1182718.37,1382760.87
690517,1180066,1381178,696930.38,1182661.37,1382724.75
691087,1179752,1380996,696831.25,1182588.50,1382678.75
691095,1179735,1380869,696700.00,1182503.50,1382625.25
691529,1179761,1381292,696544.00,1182408.25,1382565.50
691231,1180036,1381237,696368.25,1182305.37,1382501.25
691160,1179999,1381092,696175.88,1182197.37,1382434.50
691245,1180061,1381199,695969.75,1182086.25,1382366.25
689379,1180036,1381429,695751.88,1181973.25,1382297.75
691105,1180141,1381273,695524.25,1181859.75,1382230.00
691060,1180105,1381362,695290.00,1181747.00,1382163.75
691144,1180602,1381684,695052.44,1181635.87,1382099.50
691828,1180618,1381622,694815.31,1181528.00,1382038.00
692373,1180874,1381749,694583.88,1181426.00,1381980.75
692741,1180776,1381618,694363.00,1181331.25,1381928.00
692573,1181010,1381790,694155.38,1181244.12,1381879.62
692831,1180991,1381590,693961.38,1181165.00,1381835.62
692860,1180999,1381581,693781.50,1181093.87,1381795.25
692745,1180859,1382116,693615.75,1181030.25,1381758.25
692435,1180517,1381613,693462.63,1180972.25,1381724.75
692435,1180625,1381409,693320.63,1180918.50,1381693.87
692551,1180654,1381508,693188.94,1180868.75,1381665.25
692050,1180729,1381778,693064.75,1180823.37,1381639.00
692506,1180846,1381789,692945.13,1180782.75,1381616.50
692814,1181079,1381815,692833.88,1180747.37,1381597.75
692452,1181865,1382233,692733.38,1180719.12,1381583.12
692646,1181532,1382047,692641.88,1180699.50,1381572.75
693295,1181482,1382126,692561.00,1180688.25,1381567.00
693547,1181757,1382475,692494.25,1180684.62,1381566.25
693948,1181979,1382466,692443.38,1180689.25,1381571.25
694105,1182170,1382462,692408.88,1180702.75,1381582.00
694479,1182218,1382277,692391.38,1180725.00,1381597.75
693387,1182595,1382828,692390.38,1180756.00,1381617.75
694726,1182543,1382859,692405.38,1180796.00,1381643.50
695320,1182772,1382882,692436.25,1180844.50,1381675.00
695529,1183331,1383031,692483.81,1180901.50,1381712.00
695948,1183404,1382894,692548.44,1180967.50,1381753.62
696118,1183331,1383007,692629.88,1181042.50,1381799.12
696485,1183285,1383070,692727.75,1181125.75,1381848.00
696241,1183548,1383485,692840.19,1181215.50,1381900.87
696597,1183575,1383329,692965.13,1181311.50,1381958.00
696662,1183562,1383128,693101.25,1181412.50,1382018.50
696748,1184037,1383858,693247.50,1181517.87,1382080.62
697169,1183837,1383445,693402.88,1181626.62,1382144.25
697232,1183824,1383504,693567.00,1181738.50,1382209.75
697483,1184086,1383335,693738.94,1181852.87,1382276.75
697387,1184410,1383677,693916.25,1181970.50,1382344.50
697658,1184408,1383649,694096.25,1182091.50,1382413.25
697797,1184453,1383622,694279.75,1182215.25,1382483.25
697144,1184108,1383316,694464.88,1182341.25,1382553.12
696706,1182516,1382452,694646.31,1182465.12,1382620.37
695869,1181567,1381777,694819.75,1182576.75,1382679.50
694729,1180611,1381336,694980.00,1182668.00,1382725.25
691766,1179346,1380639,695116.31,1182732.87,1382754.62
690752,1179055,1380410,695215.69,1182767.00,1382765.75
690120,1178991,1380464,695271.44,1182770.62,1382758.87
687472,1179070,1380563,695282.38,1182746.50,1382736.00
688252,1178875,1380467,695247.38,1182698.25,1382699.75
688523,1178978,1380523,695167.50,1182628.37,1382651.75
688201,1179336,1380603,695047.38,1182539.87,1382593.37
688296,1179160,1380690,694892.00,1182436.00,1382526.75
687972,1179123,1380574,694705.75,1182319.75,1382453.75
687210,1179213,1380578,694491.25,1182194.12,1382375.87
687649,1179056,1380681,694250.75,1182060.87,1382294.00
687487,1178995,1380536,693988.69,1181921.50,1382209.62
687527,1179058,1380485,693710.00,1181777.25,1382123.00
686860,1179551,1380686,693417.50,1181630.12,1382034.75
687040,1179149,1380522,693112.88,1181481.87,1381945.50
687135,1179265,1380527,692799.38,1181334.00,1381856.50
687258,1179538,1380864,692481.25,1181188.75,1381768.75
688058,1180107,1381032,692162.25,1181048.87,1381684.25
688434,1180258,1381148,691847.63,1180917.75,1381604.87
688357,1180197,1381062,691542.88,1180796.75,1381531.00
688717,1180711,1381116,691250.31,1180686.25,1381463.00
688518,1180180,1381216,690970.50,1180585.75,1381401.25
688652,1179949,1381121,690705.13,1180494.25,1381345.50
688808,1179874,1381170,690455.94,1180409.87,1381294.37
687936,1180130,1381063,690222.00,1180332.00,1381247.50
688243,1180020,1380998,690000.94,1180261.25,1381204.25
688405,1180111,1381060,689792.63,1180197.25,1381164.75
688268,1180690,1381449,689598.50,1180140.87,1381129.87
688939,1180558,1381433,689419.63,1180093.00,1381100.50
688986,1180615,1381301,689257.38,1180054.12,1381077.00
689097,1180988,1381824,689112.38,1180024.00,1381058.25
689567,1181042,1381714,688984.88,1180002.50,1381045.00
689749,1181114,1381577,688876.13,1179990.75,1381037.50
689779,1181296,1381751,688786.19,1179988.75,1381035.25
690526,1181709,1381978,688714.38,1179997.12,1381038.62
690725,1181711,1381729,688661.25,1180016.25,1381047.50
690533,1181847,1382079,688627.69,1180045.75,1381061.50
690993,1182719,1382774,688613.25,1180085.12,1381080.75
691298,1182266,1382401,688617.63,1180134.25,1381105.50
691932,1182387,1382375,688641.63,1180193.00,1381136.25
691982,1182387,1382376,688685.88,1180260.50,1381172.50
692535,1182758,1382437,688749.25,1180336.50,1381213.50
692371,1182809,1382532,688829.88,1180420.62,1381258.50
692431,1182868,1382551,688926.56,1180512.50,1381307.50
692588,1183273,1382599,689038.19,1180611.25,1381360.00
693210,1183259,1382748,689164.44,1180717.00,1381415.50
693300,1183335,1382646,689305.00,1180828.75,1381474.00
693472,1183502,1383197,689458.38,1180946.12,1381534.25
693615,1183693,1382903,689623.13,1181068.50,1381595.87
693817,1183830,1382978,689797.88,1181195.62,1381659.25
693837,1183889,1382915,689981.25,1181327.00,1381724.75
694157,1184268,1383122,690172.00,1181462.00,1381791.75
694298,1184230,1383154,690369.50,1181600.00,1381860.25
694514,1184241,1383430,690572.81,1181740.75,1381930.50
694675,1184690,1383687,690781.13,1181883.75,1382002.75
694865,1184681,1383505,690993.50,1182028.75,1382076.75
694554,1184816,1383567,691208.38,1182175.87,1382152.12
694980,1185018,1383611,691423.94,1182325.25,1382229.00
695369,1185291,1383634,691638.25,1182477.50,1382307.00
695396,1185430,1383641,691850.31,1182634.00,1382385.50
695477,1185267,1383569,692061.69,1182792.75,1382463.75
695963,1184605,1383455,692274.00,1182950.75,1382541.25
694472,1183155,1382362,692484.75,1183102.00,1382614.75
693624,1182091,1381778,692686.63,1183237.50,1382678.75
692545,1181337,1381339,692871.25,1183349.25,1382729.00
690971,1180599,1380974,693031.88,1183433.25,1382763.50
690615,1180261,1380857,693162.94,1183487.25,1382781.25
689895,1180281,1380904,693260.31,1183512.00,1382783.25
688247,1180504,1381021,693322.38,1183510.00,1382771.00
689071,1180456,1380836,693349.19,1183484.50,1382746.25
689087,1180537,1381100,693342.50,1183439.50,1382711.00
688894,1180511,1381165,693305.13,1183378.50,1382667.50
688981,1180875,1381341,693240.31,1183304.25,1382618.25
689084,1180845,1381219,693152.00,1183220.25,1382564.75
688803,1180573,1381075,693043.56,1183128.25,1382507.50
688458,1180891,1381184,692916.44,1183029.25,1382447.00
688365,1180563,1381044,692771.56,1182924.62,1382384.00
688318,1180420,1381027,692611.25,1182815.12,1382318.75
688196,1180476,1381870,692438.25,1182701.25,1382252.00
687934,1180750,1381468,692254.25,1182585.00,1382185.25
688008,1180988,1381470,692060.88,1182468.75,1382120.50
688229,1181145,1381348,691860.75,1182355.12,1382058.25
688592,1181787,1381654,691655.50,1182247.25,1381999.00
688720,1181578,1381779,691446.75,1182147.62,1381943.75
689389,1181638,1381790,691241.19,1182056.25,1381893.75
689508,1182373,1382134,691045.19,1181972.75,1381848.62
689111,1181871,1381710,690860.00,1181897.62,1381808.37
689437,1181706,1381648,690685.13,1181830.75,1381772.25
689406,1181698,1381746,690521.00,1181771.00,1381739.75
689417,1181664,1381834,690367.94,1181717.75,1381711.00
689470,1181689,1381603,690225.88,1181670.37,1381686.00
689583,1181858,1381849,690095.00,1181629.00,1381664.25
687844,1182155,1382181,689975.50,1181594.00,1381645.87
689336,1182025,1381932,689866.69,1181565.50,1381631.25
690018,1182241,1382179,689768.50,1181543.75,1381621.00
690145,1182326,1382113,689682.63,1181529.50,1381615.25
690269,1182644,1382127,689610.19,1181523.12,1381614.00
690577,1182792,1382217,689551.38,1181525.37,1381617.00
690756,1182832,1382378,689506.75,1181536.50,1381624.00
691085,1183309,1382985,689476.50,1181555.87,1381636.50
691502,1183255,1382626,689461.19,1181584.00,1381655.75
691592,1183319,1382479,689461.75,1181620.75,1381680.00
691724,1183375,1383210,689477.88,1181665.75,1381708.25
691345,1183681,1382828,689507.63,1181718.25,1381740.75
691745,1183780,1382789,689548.75,1181778.75,1381777.25
692146,1183799,1382876,689601.13,1181846.50,1381817.25
692365,1183942,1382866,689662.44,1181921.50,1381860.00
692434,1184006,1382956,689729.56,1182003.50,1381905.37
692667,1184185,1382904,689805.69,1182091.37,1381952.87
692874,1184679,1383273,689893.75,1182183.62,1382002.25
692974,1184531,1383219,689993.13,1182279.75,1382053.62
693160,1184510,1383252,690102.75,1182380.25,1382107.37
693379,1184589,1383402,690222.00,1182484.50,1382163.37
693119,1184831,1383610,690347.63,1182592.25,1382222.00
693594,1184930,1383680,690476.50,1182703.50,1382283.62
693792,1184919,1383591,690610.75,1182817.75,1382348.00
692267,1185284,1383926,690752.50,1182934.25,1382414.50
693803,1185049,1383604,690900.56,1183051.75,1382482.50
694137,1185351,1383952,691053.44,1183170.50,1382551.50
694001,1185470,1383799,691210.06,1183291.00,1382622.00
694512,1185563,1383669,691369.94,1183413.25,1382692.75
694537,1185581,1383748,691533.19,1183536.75,1382762.87
694563,1185763,1384118,691699.25,1183661.00,1382832.50
694378,1186283,1384509,691866.88,1183786.00,1382903.37
695071,1186157,1384287,692035.56,1183912.00,1382976.50
695204,1186249,1384383,692206.00,1184039.25,1383051.37
695191,1186190,1384525,692378.25,1184167.50,1383126.75
694521,1185234,1383795,692549.63,1184294.00,1383201.25
694557,1184522,1383080,692716.63,1184412.75,1383271.00
694049,1183783,1382599,692876.50,1184518.50,1383331.50
692334,1182731,1382254,693024.63,1184607.25,1383379.75
692318,1182434,1382052,693154.63,1184676.00,1383414.37
691965,1182363,1382011,693263.19,1184722.25,1383435.25
691881,1182692,1382204,693350.00,1184745.75,1383443.37
691641,1182428,1382087,693415.63,1184749.12,1383440.12
691948,1182409,1382174,693461.63,1184734.87,1383427.37
691767,1182575,1382229,693490.19,1184705.50,1383406.75
691771,1182833,1382423,693500.38,1184664.25,1383380.50
691939,1182774,1382257,693491.63,1184613.75,1383349.37
691384,1182713,1382268,693468.38,1184555.75,1383314.37
691023,1182802,1382583,693434.38,1184490.75,1383275.75
691635,1182586,1382096,693390.94,1184419.37,1383233.75
691824,1182620,1382252,693340.25,1184342.87,1383189.00
691442,1182579,1382332,693283.50,1184262.50,1383142.25
691634,1182799,1382279,693220.88,1184179.75,1383094.00
691681,1182759,1382276,693153.75,1184096.12,1383045.50
691920,1183042,1382365,693084.13,1184013.00,1382997.00
692263,1183785,1383184,693013.88,1183933.00,1382951.00
692393,1183569,1382963,692945.13,1183858.25,1382910.25
692448,1183527,1382547,692879.75,1183790.00,1382874.25
692579,1183457,1383230,692819.00,1183727.75,1382841.25
692368,1183613,1382792,692763.00,1183671.25,1382810.75
692574,1183597,1382748,692711.50,1183620.75,1382783.50
692530,1183519,1382700,692664.44,1183575.75,1382759.12
691599,1183519,1382500,692621.88,1183536.50,1382736.75
692554,1183486,1382597,692583.25,1183503.00,1382716.00
692468,1183555,1382592,692548.50,1183474.12,1382696.62
692417,1184289,1382697,692517.38,1183449.25,1382678.75
692570,1183933,1382854,692489.50,1183429.00,1382663.00
692677,1184089,1382774,692465.38,1183414.25,1382650.00
692883,1183957,1382922,692445.88,1183405.75,1382639.75
692899,1184275,1382892,692428.25,1183403.00,1382632.25
693092,1184323,1383105,692410.25,1183406.50,1382628.12
693047,1184410,1382935,692395.75,1183416.50,1382627.25
693570,1184910,1383190,692388.63,1183432.25,1382629.00
693613,1184667,1382981,692389.50,1183453.87,1382633.00
693078,1184696,1382952,692397.88,1183481.37,1382639.00
693705,1184666,1383707,692412.50,1183514.50,1382647.00
694201,1185009,1383482,692434.50,1183552.75,1382658.00
694157,1185082,1383192,692466.00,1183596.75,1382672.50
693920,1184890,1383246,692505.75,1183646.00,1382689.75
694154,1185432,1383854,692551.50,1183700.00,1382710.00
694399,1185280,1383650,692602.69,1183759.50,1382734.50
694429,1185310,1383440,692660.13,1183823.37,1382762.87
694499,1185309,1383946,692723.81,1183890.62,1382793.37
694352,1185702,1383615,692792.63,1183961.12,1382825.37
694552,1185681,1383556,692865.38,1184035.25,1382859.00
694607,1185763,1383639,692941.69,1184113.00,1382894.12
694268,1185925,1383653,693021.38,1184194.00,1382930.37
694793,1185929,1383462,693104.38,1184278.25,1382967.25
695145,1186033,1383672,693190.50,1184364.87,1383004.25
694993,1186521,1384073,693279.94,1184453.50,1383041.75
695294,1186503,1383764,693372.25,1184544.00,1383080.25
695485,1186553,1383898,693467.63,1184637.62,1383119.75
695374,1186344,1383841,693566.00,1184733.75,1383159.75
695475,1186907,1384180,693664.94,1184831.75,1383201.00
695601,1186825,1384231,693762.63,1184932.37,1383244.00
695541,1187000,1384187,693860.44,1185035.50,1383288.75
695768,1187530,1384494,693959.75,1185140.75,1383335.37
696016,1187444,1384405,694060.81,1185248.62,1383383.75
696045,1187524,1384440,694164.00,1185359.50,1383433.75
696357,1187684,1385042,694269.38,1185473.50,1383485.25
696443,1187903,1384600,694377.25,1185590.25,1383538.12
696449,1187780,1384414,694487.50,1185709.75,1383592.00
696438,1187445,1384519,694599.00,1185830.00,1383646.12
695699,1186360,1384443,694708.75,1185948.62,1383700.75
695384,1185368,1383197,694811.75,1186060.50,1383754.25
695002,1184797,1382898,694905.88,1186156.87,1383799.87
694554,1184220,1382604,694989.50,1186232.12,1383833.75
693748,1183883,1382644,695059.50,1186284.25,1383855.25
693884,1183750,1382239,695113.38,1186313.00,1383864.75
693987,1183840,1382293,695151.88,1186320.00,1383862.00
693307,1184089,1382395,695175.94,1186309.25,1383848.12
693969,1184147,1382644,695186.00,1186285.00,1383825.50
694463,1184175,1382615,695185.75,1186248.50,1383796.50
693917,1184524,1383059,695178.25,1186201.37,1383762.12
694120,1184415,1382962,695163.88,1186145.75,1383724.00
694383,1184448,1382774,695143.63,1186083.75,1383683.75
694471,1184275,1382799,695119.88,1186016.75,1383642.00
694322,1184516,1382644,695093.38,1185945.50,1383598.50
693978,1184336,1382682,695063.56,1185871.50,1383553.50
694530,1184524,1382745,695030.63,1185795.50,1383507.50
694324,1184948,1382824,694997.00,1185718.75,1383461.37
694427,1184706,1382791,694964.00,1185642.50,1383415.50
694881,1184940,1382869,694932.13,1185568.50,1383370.50
694631,1184956,1383506,694902.25,1185498.00,1383326.75
694871,1185062,1383065,694874.88,1185432.00,1383284.37
694863,1185107,1383028,694850.19,1185370.75,1383244.75
694873,1185173,1382883,694828.50,1185315.00,1383207.75
694258,1185483,1383440,694806.50,1185265.50,1383174.37
694668,1185197,1383138,694780.88,1185222.87,1383145.25
694809,1185077,1383078,694754.88,1185185.75,1383120.12
694655,1185087,1383388,694731.75,1185152.37,1383097.75
694762,1185295,1383106,694711.31,1185122.75,1383077.50
695272,1185454,1383092,694694.38,1185097.87,1383059.75
694999,1185425,1383041,694682.25,1185078.00,1383044.25
694880,1185589,1383167,694674.44,1185064.00,1383030.87
695505,1185568,1383174,694671.13,1185056.25,1383019.87
695327,1185700,1383338,694673.06,1185054.00,1383011.50
695604,1185993,1383620,694680.38,1185056.50,1383005.87
695444,1185856,1383428,694692.88,1185064.00,1383003.00
695770,1186022,1383215,694710.25,1185076.50,1383002.75
695808,1186129,1383495,694732.81,1185094.37,1383005.00
695990,1186248,1383530,694760.25,1185117.75,1383010.00
696093,1186280,1383254,694792.25,1185146.50,1383017.75
696211,1186588,1383533,694829.50,1185180.62,1383027.37
696229,1186851,1383717,694872.50,1185220.50,1383039.00
696055,1186607,1383571,694920.50,1185265.75,1383053.00
696465,1186800,1383741,694972.50,1185315.87,1383069.37
696596,1186738,1383583,695028.75,1185370.50,1383088.12
696801,1186885,1384016,695090.00,1185429.00,1383109.25
696788,1187005,1383950,695156.13,1185491.25,1383133.75
696862,1187046,1383804,695226.69,1185557.25,1383161.25
696390,1187491,1384283,695297.75,1185626.75,1383190.75
697006,1187092,1383875,695366.13,1185700.12,1383222.00
696896,1187226,1383940,695435.13,1185776.00,1383254.75
696768,1187269,1384385,695506.56,1185853.25,1383288.75
697044,1187552,1383927,695579.69,1185932.37,1383323.50
697248,1187570,1383923,695654.75,1186013.50,1383358.87
697196,1187555,1383988,695732.25,1186096.50,1383394.25
697317,1187758,1384164,695811.19,1186181.00,1383430.25
697497,1187827,1384251,695890.94,1186266.87,1383467.12
697384,1187857,1384141,695972.06,1186354.00,1383505.00
697590,1188050,1384458,696054.63,1186442.12,1383543.50
697284,1188096,1384348,696137.75,1186530.87,1383582.37
697770,1188172,1384348,696220.94,1186620.50,1383622.00
697666,1188262,1384354,696304.63,1186711.00,1383662.37
697594,1188259,1384365,696388.00,1186802.00,1383703.00
697546,1187758,1383882,696469.13,1186892.12,1383743.00
697500,1187008,1383632,696548.13,1186977.62,1383779.62
696912,1186212,1383100,696624.31,1187053.75,1383810.25
696554,1185803,1383066,696695.19,1187116.50,1383832.75
696475,1185477,1382784,696757.75,1187163.00,1383846.25
696464,1185449,1382691,696811.06,1187192.00,1383850.87
696057,1185515,1382792,696854.75,1187205.25,1383846.75
695994,1185328,1382585,696888.25,1187204.12,1383835.00
696252,1185554,1382718,696911.75,1187190.00,1383816.00
694857,1186535,1383388,696924.88,1187166.37,1383791.75
695896,1186058,1383066,696926.38,1187136.87,1383765.12
696022,1185924,1382955,696918.63,1187102.87,1383736.50
696109,1185937,1383236,696905.13,1187064.50,1383706.00
696477,1186031,1383113,696888.00,1187022.50,1383674.00
696550,1185875,1382997,696869.25,1186977.75,1383641.50
696383,1185902,1382847,696850.00,1186930.37,1383607.87
696042,1185967,1383237,696827.38,1186881.00,1383573.62
696207,1186066,1383011,696798.69,1186830.25,1383539.87
696546,1186122,1382970,696767.50,1186779.50,1383506.50
696732,1186479,1383635,696738.00,1186729.87,1383473.50
696804,1186521,1383448,696711.69,1186682.50,1383441.75
696945,1186510,1383207,696689.25,1186638.75,1383413.00
697080,1186582,1383383,696671.38,1186599.37,1383386.75
696999,1186539,1383425,696658.13,1186564.25,1383363.50
697452,1186629,1383362,696650.00,1186533.25,1383343.12
697266,1186624,1383434,696647.63,1186506.37,1383325.50
697103,1186774,1383886,696650.50,1186483.37,1383310.75
697097,1186688,1383473,696657.38,1186463.87,1383298.25
697295,1186692,1383282,696667.38,1186448.00,1383288.00
697164,1186847,1383254,696680.31,1186436.12,1383279.00
697145,1186987,1383458,696694.13,1186428.50,1383271.50
697560,1186979,1383483,696707.63,1186425.62,1383266.00
697515,1187007,1383523,696723.75,1186427.12,1383262.50
695924,1187598,1383986,696741.38,1186433.50,1383261.75
697340,1187351,1383525,696757.63,1186445.75,1383263.87
697422,1187354,1383725,696774.38,1186463.50,1383268.50
697799,1187278,1383765,696794.50,1186485.50,1383275.50
697971,1187511,1383833,696819.13,1186511.25,1383284.75
698454,1187606,1383692,696849.94,1186541.00,1383296.62
698319,1187879,1383677,696887.69,1186575.50,1383310.25
698047,1187928,1384039,696928.75,1186614.75,1383325.50
698404,1187948,1383742,696969.38,1186658.75,1383343.00
698403,1187974,1383974,697012.63,1186706.62,1383362.50
698429,1188184,1384425,697061.00,1186758.25,1383383.50
698648,1188322,1384123,697114.13,1186813.50,1383406.62
698755,1188364,1384020,697171.94,1186872.87,1383431.87
698610,1188246,1383949,697234.19,1186936.00,1383458.50
698720,1188548,1384044,697299.25,1187001.87,1383486.00
698858,1188637,1384032,697366.50,1187071.12,1383514.12
698851,1188565,1384082,697436.06,1187143.25,1383542.87
698910,1188749,1384915,697507.94,1187217.75,1383572.25
699200,1188866,1384336,697582.13,1187293.87,1383602.00
699185,1188897,1384396,697658.88,1187372.25,1383633.50
699232,1188842,1384358,697737.88,1187452.50,1383666.50
698777,1189315,1384424,697815.06,1187534.37,1383701.00
699168,1189197,1384258,697886.75,1187618.62,1383736.12
699317,1188991,1384436,697956.31,1187704.50,1383771.75
698036,1189897,1384820,698025.44,1187791.00,1383807.62
699210,1189623,1384773,698091.63,1187879.25,1383844.62
699438,1189672,1384482,698156.88,1187969.75,1383883.00
699222,1189567,1384888,698223.00,1188062.00,1383921.50
699743,1189894,1384643,698290.00,1188155.25,1383959.75
699638,1189979,1384831,698358.69,1188249.75,1383998.37
699853,1189718,1384686,698429.25,1188345.25,1384038.00
698056,1188788,1384618,698499.38,1188439.50,1384077.75
699005,1188246,1383976,698565.50,1188528.25,1384115.87
698963,1187428,1383359,698626.31,1188605.25,1384148.50
698567,1187175,1383124,698681.88,1188665.50,1384172.25
698150,1186802,1383095,698730.06,1188707.50,1384186.00
697898,1186732,1383018,698768.63,1188731.25,1384190.12
698019,1186723,1382879,698797.00,1188737.75,1384185.12
698269,1187004,1383205,698815.81,1188729.25,1384172.00
698135,1187118,1383218,698826.25,1188708.75,1384152.75
698278,1187247,1383212,698830.25,1188679.12,1384129.00
698471,1187586,1383884,698829.75,1188642.62,1384101.50
698712,1187452,1383586,698826.88,1188601.50,1384072.00
698419,1187391,1383387,698822.44,1188556.75,1384041.75
698713,1187567,1383348,698816.69,1188509.00,1384010.50
698505,1187746,1383645,698807.38,1188460.12,1383978.75
698476,1187559,1383423,698792.19,1188411.12,1383947.25
698510,1187644,1383550,698774.06,1188362.12,1383916.37
698317,1188191,1383574,698754.13,1188313.75,1383885.75
698365,1187936,1383643,698730.69,1188267.25,1383855.75
698781,1187813,1383548,698706.50,1188223.25,1383827.00
699188,1188073,1384075,698685.69,1188182.00,1383799.75
698919,1188113,1383666,698669.75,1188144.50,1383774.25
699013,1188181,1383660,698658.13,1188111.25,1383751.00
699136,1188263,1383771,698650.50,1188082.25,1383729.75
697466,1188394,1383876,698646.50,1188058.50,1383711.50
699139,1188241,1383822,698645.00,1188039.62,1383696.25
699435,1188148,1383792,698647.25,1188024.87,1383683.75
699499,1188130,1383849,698654.44,1188013.00,1383673.25
699413,1188186,1383763,698666.75,1188003.75,1383664.50
699411,1188247,1383655,698683.25,1187996.87,1383657.25
698948,1188256,1383719,698702.25,1187992.62,1383651.00
699115,1188393,1383931,698722.00,1187991.00,1383646.37
699350,1188322,1383615,698742.50,1187992.00,1383643.50
699719,1188469,1383744,698765.38,1187995.62,1383641.37
699611,1189052,1384246,698791.63,1188002.25,1383640.00
699794,1188814,1384017,698821.31,1188012.75,1383640.00
699827,1188758,1383894,698854.38,1188027.37,1383641.87
699762,1189026,1384043,698890.50,1188046.25,1383646.00
699872,1189211,1384256,698928.88,1188069.87,1383652.62
699994,1189411,1384321,698969.00,1188099.25,1383662.62
700164,1189450,1384122,699011.75,1188134.37,1383675.75
700307,1190024,1384317,699056.94,1188175.50,1383691.12
700211,1189568,1384243,699103.81,1188222.50,1383708.25
700282,1189653,1384593,699152.69,1188274.12,1383728.00
700251,1189807,1384731,699203.88,1188330.00,1383750.75
700438,1190117,1384544,699257.13,1188390.25,1383776.37
700580,1190017,1384481,699312.75,1188455.50,1383804.25
700645,1190141,1384666,699370.94,1188524.75,1383834.25
700157,1190480,1385041,699431.38,1188598.25,1383867.25
700921,1190272,1384755,699494.00,1188675.87,1383903.50
700658,1190425,1384725,699558.63,1188756.75,1383942.50
701010,1190614,1384916,699624.88,1188839.87,1383982.50
701196,1190676,1384835,699693.13,1188925.25,1384024.00
701111,1190666,1384754,699763.88,1189012.75,1384066.12
700767,1190526,1384813,699835.69,1189102.00,1384108.75
701247,1191102,1385023,699907.13,1189192.37,1384151.62
701296,1191123,1385253,699978.38,1189285.12,1384195.87
701230,1191283,1385307,700050.38,1189380.75,1384242.50
701244,1191601,1385389,700122.75,1189478.87,1384291.00
700864,1190903,1384917,700194.00,1189578.25,1384340.12
701306,1190281,1384458,700263.38,1189675.50,1384387.25
701003,1189510,1384225,700330.88,1189765.62,1384429.75
700680,1188713,1383474,700395.13,1189843.12,1384464.87
700433,1188392,1383391,700453.63,1189904.25,1384489.87
699997,1188022,1383398,700504.69,1189947.00,1384504.00
699098,1188446,1383473,700545.75,1189971.50,1384508.25
699888,1188052,1383484,700575.88,1189979.00,1384503.75
700063,1188387,1383434,700596.88,1189972.25,1384491.62
700171,1188444,1383811,700611.38,1189954.00,1384473.75
699814,1188823,1383720,700620.19,1189927.50,1384451.50
700255,1188887,1383817,700623.50,1189895.50,1384426.62
700456,1188908,1383885,700623.25,1189859.75,1384400.12
700485,1189367,1384111,700620.81,1189821.75,1384373.25
700748,1189030,1384104,700616.63,1189783.00,1384347.00
700650,1189123,1383891,700612.44,1189744.00,1384321.75
700651,1189250,1384457,700609.25,1189704.75,1384297.00
700582,1189107,1384094,700606.63,1189665.75,1384273.00
700740,1189208,1383982,700604.50,1189627.50,1384250.25
700880,1189410,1383940,700603.63,1189590.87,1384228.25
700788,1189965,1384282,700602.88,1189558.00,1384207.50
701198,1189685,1384175,700601.44,1189530.50,1384188.87
701020,1189788,1384215,700601.88,1189508.25,1384172.50
701105,1190391,1384754,700605.88,1189490.25,1384158.25
700941,1189656,1384358,700612.50,1189476.00,1384146.37
701178,1189729,1384252,700621.50,1189465.00,1384136.75
701031,1189478,1383940,700632.88,1189456.50,1384128.87
701018,1189561,1384105,700645.50,1189449.87,1384121.25
700944,1189567,1383894,700658.25,1189444.75,1384113.75
701130,1189679,1384335,700671.50,1189441.25,1384106.75
700126,1189908,1384269,700686.38,1189439.87,1384101.25
701212,1189874,1384376,700703.25,1189441.00,1384097.37
701172,1189760,1384325,700721.75,1189444.50,1384095.50
701393,1189963,1384681,700741.88,1189450.75,1384095.62
701407,1190284,1384395,700764.13,1189460.25,1384097.12
701706,1190262,1384492,700788.88,1189474.00,1384100.50
701719,1190258,1384261,700817.00,1189492.00,1384105.75
701648,1190743,1384817,700848.25,1189514.12,1384113.00
702006,1190788,1384785,700882.25,1189541.25,1384123.37
702382,1190764,1384735,700920.50,1189574.00,1384137.50
701866,1190879,1385304,700963.25,1189611.75,1384154.50
702345,1190996,1385104,701009.50,1189654.50,1384174.62
702165,1191201,1385017,701058.81,1189702.25,1384198.50
702233,1191164,1384728,701110.88,1189754.75,1384225.25
701787,1191545,1384851,701161.75,1189812.75,1384253.25
701554,1191356,1384916,701206.75,1189876.50,1384282.25
702191,1191402,1384926,701248.13,1189944.62,1384312.50
702444,1191993,1385636,701290.88,1190015.62,1384343.75
702544,1191667,1385298,701336.75,1190089.50,1384376.75
702716,1191649,1385060,701386.13,1190166.00,1384411.50
702780,1191693,1385212,701439.38,1190244.50,1384447.75
702892,1191930,1385302,701495.38,1190324.75,1384485.12
702673,1191953,1385153,701552.94,1190406.87,1384523.75
702884,1191907,1385126,701612.00,1190490.62,1384562.62
701018,1191961,1385453,701672.38,1190575.00,1384601.37
702268,1191345,1384988,701732.19,1190658.00,1384639.62
702472,1190861,1384538,701789.75,1190736.50,1384675.62
702078,1190205,1383906,701844.50,1190806.50,1384706.75
701850,1189539,1383674,701894.81,1190863.75,1384730.12
701671,1189228,1383532,701938.94,1190905.25,1384743.75
701378,1189071,1383428,701975.75,1190930.00,1384747.00
701147,1189363,1383825,702004.06,1190938.25,1384741.25
701400,1189174,1383668,702023.81,1190931.62,1384728.25
701612,1189232,1383589,702036.63,1190912.62,1384709.37
701328,1189449,1384400,702044.00,1190883.87,1384684.87
700920,1189837,1384066,702045.00,1190848.25,1384656.75
701536,1189791,1384086,702039.50,1190808.75,1384626.87
701798,1189901,1383947,702030.38,1190766.75,1384596.25
701188,1189938,1384152,702017.00,1190723.62,1384565.12
701572,1189977,1384032,701997.25,1190680.50,1384534.00
701850,1189894,1384055,701974.44,1190637.62,1384503.12
701943,1190492,1384371,701953.13,1190594.50,1384472.50
702049,1190141,1384148,701934.25,1190551.87,1384442.75
702157,1190386,1384282,701918.38,1190511.25,1384414.37
702159,1190480,1384319,701905.88,1190474.12,1384388.12
702090,1190606,1384429,701893.75,1190441.50,1384364.75
702272,1190631,1384510,701879.31,1190413.50,1384344.37
702384,1190665,1384425,701866.44,1190390.75,1384327.37
701102,1190410,1384522,701858.56,1190372.50,1384313.25
702068,1190635,1384421,701854.63,1190358.25,1384301.25
702228,1190563,1384214,701853.38,1190347.75,1384291.25
701938,1190408,1384537,701854.25,1190339.75,1384282.25
702394,1190557,1384431,701857.06,1190333.75,1384274.50
702335,1190576,1384564,701862.44,1190329.75,1384268.50
702435,1190681,1384429,701871.00,1190328.25,1384264.87
702261,1190873,1384879,701881.88,1190329.25,1384264.00
702656,1191071,1384793,701894.81,1190333.37,1384266.87
702696,1190940,1384746,701910.88,1190341.37,1384273.25
702807,1191305,1385414,701931.00,1190353.62,1384282.25
702911,1191623,1384762,701955.19,1190371.50,1384293.50
703068,1191403,1384737,701983.63,1190395.25,1384306.62
702926,1191425,1384863,702016.06,1190424.00,1384321.75
702262,1191858,1384938,702050.69,1190457.87,1384338.87
703011,1191787,1385074,702085.81,1190497.50,1384358.50
703427,1192061,1385029,702123.25,1190543.00,1384380.75
703637,1192645,1385247,702165.50,1190593.75,1384405.25
703432,1192327,1385110,702212.75,1190650.12,1384431.75
703336,1192262,1385204,702263.63,1190711.75,1384460.25
703513,1192404,1385216,702316.88,1190777.75,1384490.75
703623,1192528,1385433,702369.75,1190847.75,1384523.25
703764,1192515,1385331,702420.06,1190921.75,1384558.00
703577,1192455,1385443,702471.00,1190998.62,1384594.75
703482,1192858,1385628,702525.13,1191077.50,1384633.12
703852,1192795,1385483,702582.75,1191158.12,1384673.00
703773,1192813,1385507,702643.06,1191240.75,1384714.00
703869,1192896,1385943,702704.88,1191325.37,1384756.00
703934,1192971,1385557,702767.88,1191411.50,1384799.00
704002,1192825,1385476,702832.13,1191498.62,1384842.25
704051,1192472,1385261,702897.25,1191584.75,1384884.75
703630,1191430,1385279,702962.25,1191667.12,1384925.50
703390,1190493,1384328,703024.63,1191740.37,1384962.25
702996,1190272,1383895,703082.00,1191798.25,1384990.87
702440,1189799,1384021,703131.63,1191837.75,1385008.50
701575,1189692,1383710,703169.88,1191858.25,1385014.75
701893,1189665,1383748,703194.13,1191860.75,1385010.50
701884,1189705,1383820,703205.44,1191847.00,1384997.75
700886,1190013,1383987,703205.00,1191820.00,1384978.00
701650,1190179,1384214,703193.19,1191783.00,1384953.25
702219,1190213,1384173,703172.13,1191738.75,1384925.50
702252,1190593,1384423,703145.63,1191688.75,1384895.75
702414,1190635,1384335,703115.88,1191635.62,1384864.75
702346,1190460,1384255,703084.06,1191580.75,1384833.00
702269,1190290,1384247,703050.56,1191524.00,1384801.00
702284,1190547,1384303,703014.50,1191465.75,1384768.75
702509,1190613,1384225,702975.94,1191407.25,1384736.62
702447,1190649,1384386,702937.13,1191349.75,1384705.00
702557,1191069,1384590,702899.50,1191293.75,1384674.00
702504,1191058,1384626,702863.38,1191240.00,1384644.12
702576,1190908,1384592,702829.13,1191190.25,1384616.75
702895,1191139,1385152,702797.44,1191144.87,1384592.50
702829,1191154,1384724,702769.50,1191104.50,1384571.50
702828,1191186,1384777,702745.38,1191069.12,1384554.00
702794,1191014,1384452,702724.63,1191038.50,1384539.62
702448,1191248,1385096,702704.75,1191012.37,1384528.00
702903,1191060,1384749,702684.00,1190991.25,1384520.12
702867,1190948,1384560,702664.88,1190973.50,1384515.00
702895,1191068,1385002,702649.63,1190958.25,1384511.00
702722,1191287,1384846,702637.50,1190945.75,1384508.00
702746,1191040,1384750,702627.81,1190936.25,1384506.75
703139,1191275,1384682,702620.81,1190929.62,1384507.50
702648,1191483,1384685,702616.75,1190926.62,1384509.37
703071,1191618,1384770,702615.00,1190928.75,1384512.50
703206,1191750,1384873,702616.31,1190936.25,1384517.25
703180,1191872,1385430,702621.44,1190948.62,1384523.87
703143,1191946,1385006,702630.06,1190965.75,1384533.12
703574,1192221,1385217,702642.31,1190988.25,1384545.00
703927,1192362,1385046,702659.81,1191016.75,1384559.75
703705,1192291,1385152,702683.44,1191051.37,1384576.75
703873,1192539,1385295,702712.25,1191091.50,1384596.00
703881,1192544,1385172,702745.75,1191137.25,1384617.62
703907,1193962,1385312,702783.88,1191187.62,1384641.62
703695,1193069,1385537,702825.81,1191242.75,1384668.75
704140,1192896,1385612,702870.63,1191303.37,1384699.00
704479,1192778,1385574,702919.31,1191368.62,1384732.00
704443,1192944,1385540,702973.00,1191437.12,1384767.50
704670,1192881,1385617,703031.63,1191508.12,1384804.62
704540,1192893,1385273,703094.63,1191581.00,1384842.62
704138,1193483,1386064,703158.50,1191655.50,1384881.12
704554,1193258,1385673,703219.88,1191732.50,1384921.00
704918,1193229,1385641,703281.75,1191811.50,1384962.00
704309,1193121,1385941,703346.56,1191891.37,1385002.75
704450,1193320,1385394,703412.13,1191971.62,1385042.50
704642,1193178,1385719,703477.75,1192051.75,1385081.00
704544,1192442,1385232,703543.75,1192129.50,1385118.25
703927,1191275,1384545,703608.69,1192201.00,1385151.50
703442,1190708,1384263,703669.50,1192261.25,1385177.25
702998,1190337,1383934,703722.00,1192304.87,1385193.00
702511,1190010,1383935,703763.00,1192329.25,1385198.50
701560,1189787,1383800,703789.25,1192334.25,1385193.50
701974,1190009,1383804,703798.56,1192321.00,1385179.00
701802,1190217,1383940,703792.38,1192292.25,1385156.50
701355,1190433,1383993,703772.38,1192251.87,1385127.50
701838,1190493,1384035,703740.00,1192202.62,1385093.50
701894,1190438,1384274,703697.25,1192146.50,1385056.00
701662,1190691,1384427,703646.50,1192084.50,1385016.75
701848,1190763,1384299,703589.25,1192018.37,1384976.50
701936,1190708,1384101,703526.50,1191950.25,1384935.50
701853,1190440,1384118,703459.13,1191880.50,1384893.50
701770,1190619,1384076,703387.88,1191809.25,1384850.75
701835,1190632,1384140,703313.38,1191737.50,1384807.50
701544,1190761,1384204,703236.25,1191666.25,1384764.37
699871,1191478,1384733,703154.00,1191597.25,1384723.25
701718,1191252,1384622,703065.75,1191532.87,1384686.25
702064,1191286,1384564,702976.00,1191474.00,1384653.50
702002,1191445,1384749,702889.50,1191420.87,1384623.75
702355,1191659,1384632,702807.25,1191374.25,1384596.87
702285,1191423,1384449,702730.69,1191334.50,1384572.75
702528,1191273,1384652,702660.31,1191300.00,1384551.25
701664,1191206,1384642,702593.69,1191270.12,1384532.50
702088,1191204,1384599,702527.38,1191244.25,1384516.75
702409,1191189,1384513,702463.88,1191221.62,1384503.37
702571,1191483,1384916,702407.13,1191201.37,1384491.87
701962,1191339,1384696,702356.75,1191183.75,1384482.00
702461,1191536,1384647,702311.50,1191169.62,1384474.50
702358,1191693,1384815,702271.50,1191159.75,1384469.50
702568,1191775,1384857,702237.50,1191154.75,1384467.50
703048,1191901,1384638,702210.50,1191154.87,1384468.00
702962,1191792,1384849,702191.75,1191160.12,1384470.37
702213,1192416,1385401,702180.88,1191170.25,1384475.00
702892,1192230,1385239,702176.50,1191185.75,1384482.75
703295,1192297,1385122,702178.56,1191207.00,1384494.50
703184,1192238,1385280,702187.63,1191233.50,1384509.75
703454,1192615,1385385,702200.75,1191265.25,1384529.00
703403,1192510,1385270,702215.25,1191302.12,1384551.75
703399,1192708,1385261,702234.00,1191344.25,1384577.25
701915,1193253,1386006,702257.13,1191391.75,1384605.37
703403,1192992,1385381,702282.00,1191445.25,1384636.50
703611,1193012,1385384,702310.56,1191504.25,1384669.75
703802,1192969,1385139,702345.25,1191567.00,1384704.37
704286,1192982,1385425,702387.00,1191633.00,1384740.00
704344,1193118,1385240,702437.00,1191701.37,1384776.25
704170,1192943,1385358,702494.63,1191771.50,1384812.25
703111,1193014,1385532,702555.38,1191842.50,1384848.00
704312,1193298,1385655,702615.69,1191914.50,1384884.50
704377,1193458,1385429,702678.38,1191988.25,1384921.75
704209,1193709,1385648,702745.75,1192063.62,1384959.00
704512,1193653,1385446,702816.75,1192140.25,1384995.75
704848,1193666,1385594,702892.00,1192218.25,1385032.00
704785,1193736,1385816,702971.88,1192297.75,1385068.50
704530,1193129,1385266,703055.63,1192377.37,1385104.50
704561,1192409,1384895,703141.19,1192452.87,1385138.00
704109,1191897,1384471,703226.44,1192519.62,1385165.50
703635,1191010,1384717,703308.13,1192573.75,1385185.12
702594,1190429,1383964,703381.50,1192611.37,1385195.50
701848,1190590,1383774,703441.13,1192630.50,1385195.62
701403,1190300,1383842,703482.63,1192631.50,1385185.87
700679,1190287,1383820,703501.50,1192616.00,1385167.25
700918,1190206,1383794,703495.38,1192585.00,1385141.00
700770,1190417,1383691,703468.38,1192541.00,1385107.75
699619,1191151,1384471,703422.69,1192487.25,1385068.75
700511,1190873,1384068,703357.50,1192428.12,1385025.50
700811,1190849,1384016,703277.75,1192364.87,1384980.00
700655,1190862,1384173,703188.38,1192298.00,1384932.87
700663,1190772,1384000,703091.38,1192228.25,1384884.25
700458,1190617,1384013,702987.50,1192156.00,1384834.75
700366,1190557,1383846,702877.50,1192081.00,1384784.62
698758,1190668,1384349,702760.81,1192004.50,1384734.75
700052,1190763,1384011,702636.81,1191928.00,1384686.37
700671,1191104,1384073,702508.75,1191852.75,1384639.50
700600,1191466,1384548,702381.00,1191780.50,1384594.00
700929,1191534,1384472,702255.88,1191713.25,1384551.62
701075,1191414,1384324,702135.38,1191651.87,1384513.00
701246,1191494,1384340,702021.38,1191596.25,1384477.75
701435,1191470,1384396,701914.44,1191546.12,1384445.62
700998,1191171,1384192,701814.13,1191500.75,1384416.50
700908,1191426,1384218,701719.63,1191459.50,1384389.50
700955,1191392,1384813,701630.50,1191422.00,1384364.00
700754,1191216,1384384,701546.38,1191387.75,1384340.50
700905,1191274,1384325,701467.00,1191356.25,1384319.12
700849,1191321,1384298,701392.44,1191328.00,1384300.50
700814,1191669,1384524,701320.00,1191303.37,1384284.25
701278,1191701,1384432,701247.75,1191283.87,1384271.25
701137,1191734,1384317,701180.38,1191269.75,1384260.87
700615,1192358,1384679,701118.94,1191261.00,1384252.50
700861,1192006,1384408,701060.38,1191258.25,1384246.25
701305,1192048,1384611,701006.50,1191261.50,1384242.25
701734,1192004,1384790,700961.25,1191269.87,1384240.75
701765,1192301,1384730,700926.13,1191283.25,1384242.12
701844,1192450,1384840,700901.38,1191302.25,1384246.75
702159,1192448,1384814,700886.88,1191327.00,1384255.00
700751,1192704,1385062,700882.31,1191358.00,1384266.75
702101,1192791,1385146,700886.50,1191395.50,1384282.75
702535,1192827,1385120,700899.56,1191438.87,1384303.00
702590,1193287,1385189,700922.31,1191487.50,1384326.75
703054,1193134,1385246,700955.38,1191541.50,1384353.25
703325,1193320,1385162,700999.50,1191600.75,1384382.50
703342,1193351,1385309,701055.00,1191665.50,1384414.50
703416,1193424,1385476,701120.00,1191735.00,1384449.37
703602,1193454,1385440,701192.81,1191808.62,1384487.25
703675,1193371,1385522,701273.63,1191885.50,1384527.87
703236,1193736,1385667,701361.63,1191964.75,1384570.50
703699,1193633,1385651,701454.63,1192046.00,1384615.00
703918,1193798,1385555,701552.69,1192129.37,1384661.00
703921,1193817,1385379,701656.13,1192214.87,1384708.12
703950,1194202,1385801,701762.69,1192302.75,1384755.75
704208,1194333,1385654,701870.31,1192393.75,1384804.25
704480,1194116,1385745,701981.00,1192487.50,1384853.75
704102,1194742,1385936,702094.19,1192583.87,1384903.87
704306,1194272,1385836,702206.50,1192682.50,1384954.25
704544,1194302,1385577,702319.50,1192782.25,1385004.50
704717,1193924,1385287,702435.38,1192880.50,1385053.50
703004,1192255,1384570,702550.94,1192972.50,1385099.37
702900,1191682,1384078,702659.25,1193050.50,1385137.00
702268,1191100,1383857,702755.56,1193109.50,1385163.12
700271,1190868,1384138,702837.00,1193147.75,1385177.50
700454,1190677,1383617,702899.13,1193165.50,1385181.00
700208,1190706,1383661,702937.63,1193163.75,1385173.75
700204,1190815,1383869,702952.13,1193144.00,1385156.00
700238,1190933,1383672,702944.88,1193108.75,1385128.87
699870,1190888,1383792,702917.94,1193061.00,1385094.37
699236,1190947,1383861,702871.38,1193003.00,1385054.37
699978,1191142,1384047,702805.56,1192937.12,1385010.50
700085,1191100,1384036,702724.38,1192865.37,1384964.37
699769,1191158,1383840,702632.13,1192789.25,1384916.50
699606,1191543,1384343,702530.00,1192709.62,1384866.75
699472,1191019,1383996,702418.44,1192627.12,1384815.62
699750,1191069,1384079,702299.13,1192542.50,1384764.25
699821,1191216,1383954,702174.88,1192457.25,1384713.50
700010,1191663,1384253,702047.69,1192373.50,1384663.75
700156,1191586,1384221,701919.56,1192293.25,1384616.37
700432,1191660,1384153,701793.38,1192217.75,1384571.50
700154,1192193,1384110,701670.63,1192147.25,1384529.50
700368,1191897,1384221,701551.25,1192083.25,1384490.50
700588,1191846,1384072,701436.81,1192025.50,1384454.12
700718,1191710,1384339,701329.44,1191973.00,1384419.50
699990,1191642,1384235,701228.63,1191925.00,1384387.00
700376,1191625,1384085,701132.56,1191880.62,1384356.50
700277,1191583,1383939,701041.38,1191839.50,1384327.62
699904,1191866,1384473,700955.63,1191802.00,1384300.50
700589,1191897,1384351,700876.00,1191769.50,1384276.75
700675,1191975,1384323,700803.38,1191741.87,1384256.25
700730,1192166,1384638,700738.38,1191719.37,1384239.00
700984,1192287,1384686,700681.19,1191702.50,1384225.25
701310,1192308,1384500,700633.13,1191691.50,1384215.50
701017,1192282,1384606,700594.50,1191686.12,1384209.37
701645,1192560,1384695,700564.88,1191686.37,1384207.00
701640,1192605,1384773,700544.63,1191692.50,1384208.37
701355,1192671,1384797,700533.88,1191704.62,1384213.62
701758,1193642,1385306,700531.63,1191722.75,1384222.75
702075,1193294,1384864,700538.50,1191747.87,1384235.75
702657,1193381,1385009,700556.25,1191780.75,1384252.00
702423,1193431,1385059,700585.88,1191821.62,1384271.87
702729,1193635,1385351,700625.75,1191869.75,1384295.50
702961,1193639,1385299,700675.00,1191924.75,1384323.50
703129,1193720,1385156,700734.50,1191985.87,1384355.25
702637,1194497,1385393,700804.00,1192052.50,1384389.00
703314,1194076,1385287,700882.13,1192124.50,1384424.00
703449,1194103,1385349,700968.50,1192202.00,1384461.00
703437,1193924,1385748,701062.63,1192283.87,1384500.00
703489,1194156,1385656,701163.25,1192369.00,1384542.00
703836,1194309,1385606,701269.63,1192457.00,1384587.00
703838,1194272,1385299,701381.63,1192547.75,1384633.50
703521,1194780,1385721,701498.63,1192641.50,1384680.75
704059,1194779,1385688,701619.63,1192738.62,1384729.25
704286,1194734,1385713,701744.38,1192839.00,1384779.25
704092,1194987,1386475,701872.38,1192941.50,1384830.25
704545,1194853,1385852,702002.75,1193045.25,1384882.25
704642,1195006,1385850,702135.75,1193150.25,1384935.12
704515,1195098,1385871,702271.13,1193256.25,1384988.50
704691,1195461,1386046,702406.63,1193364.12,1385042.37
704933,1195296,1385984,702540.88,1193474.25,1385096.75
704729,1195188,1386175,702675.19,1193585.25,1385151.75
705039,1194542,1385877,702809.63,1193694.75,1385207.00
704078,1193383,1384795,702942.31,1193798.25,1385259.00
703888,1192408,1384358,703069.13,1193887.75,1385302.50
703182,1191765,1384004,703186.13,1193956.50,1385334.37
701603,1191258,1383624,703289.00,1194001.50,1385352.75
701050,1191050,1383641,703371.63,1194021.75,1385356.87
700581,1190924,1383677,703429.00,1194018.00,1385348.00
699870,1191367,1383865,703459.63,1193992.50,1385327.75
700204,1191257,1383530,703465.13,1193948.50,1385297.00
700055,1191278,1383724,703446.50,1193889.50,1385257.37
700272,1191530,1384238,703406.00,1193818.87,1385211.00
700370,1191686,1384072,703347.06,1193739.62,1385160.37
700589,1191856,1384137,703273.50,1193654.50,1385107.50
700616,1191741,1384167,703188.50,1193565.87,1385053.50
700530,1192153,1384173,703094.13,1193474.75,1384999.37
700543,1191909,1384064,702991.75,1193382.87,1384945.25
700652,1191757,1383911,702883.25,1193290.75,1384891.25
700640,1191906,1384571,702771.00,1193198.62,1384836.75
700900,1192117,1384290,702656.88,1193107.62,1384783.25
700885,1192129,1384027,702542.69,1193019.50,1384731.50
701120,1192457,1384284,702430.25,1192935.75,1384681.62
701015,1192756,1384616,702318.31,1192858.50,1384634.87
701686,1192451,1384376,702206.50,1192788.62,1384592.37
701512,1192443,1384256,702100.00,1192725.37,1384553.50
701604,1192624,1384590,702002.25,1192667.00,1384517.00
701234,1192274,1384188,701912.06,1192612.50,1384482.50
701180,1192033,1384071,701828.13,1192561.25,1384449.75
701304,1192008,1384073,701749.56,1192512.62,1384418.25
701229,1192282,1384115,701676.38,1192466.50,1384387.75
701269,1192256,1384187,701608.00,1192424.00,1384359.00
701192,1192294,1384209,701544.69,1192385.25,1384332.25
699931,1192643,1384921,701486.00,1192350.50,1384308.25
701516,1192802,1384627,701432.13,1192321.00,1384288.00
701678,1192791,1384425,701384.44,1192297.87,1384272.12
702109,1192992,1384971,701345.00,1192281.50,1384259.75
702437,1193369,1384635,701315.63,1192272.50,1384251.00
702586,1193129,1384829,701297.50,1192271.37,1384246.50
702789,1193456,1384795,701291.06,1192277.75,1384246.25
702619,1193897,1385142,701295.63,1192291.50,1384250.75
703282,1193727,1385143,701310.69,1192313.00,1384260.50
703199,1193910,1385169,701337.06,1192342.50,1384275.75
703347,1193935,1385603,701374.38,1192379.62,1384295.50
703404,1194061,1385364,701421.63,1192424.00,1384319.50
703720,1194142,1385079,701478.25,1192475.00,1384347.62
704144,1194358,1385394,701544.88,1192532.37,1384378.75
703719,1194730,1385838,701618.63,1192597.25,1384414.12
703961,1194450,1385637,701695.25,1192669.87,1384454.50
704167,1194602,1385493,701776.88,1192748.25,1384498.87
704310,1195109,1385808,701866.25,1192830.50,1384545.50
704464,1194930,1385583,701963.13,1192916.50,1384593.37
704713,1194846,1385608,702067.06,1193006.25,1384642.75
704810,1194746,1385553,702177.88,1193099.00,1384693.12
704625,1195001,1385748,702293.50,1193193.50,1384744.37
705011,1194921,1385541,702411.63,1193289.50,1384796.25
704883,1195053,1385671,702533.13,1193386.50,1384848.00
703863,1195367,1386119,702657.75,1193484.37,1384899.87
705061,1195394,1385901,702784.38,1193583.00,1384952.50
705631,1195409,1385775,702913.56,1193683.00,1385005.50
705252,1195603,1385957,703045.75,1193784.12,1385058.00
705343,1195394,1385783,703179.38,1193886.00,1385109.12
705453,1194744,1385309,703313.25,1193986.12,1385158.25
704823,1193860,1384870,703445.63,1194079.75,1385202.75
703620,1192604,1384240,703572.81,1194160.75,1385239.25
702953,1191888,1383717,703688.81,1194223.50,1385264.25
702345,1191408,1383501,703787.13,1194263.00,1385275.62
701581,1191009,1383724,703863.13,1194277.12,1385272.75
699898,1191062,1383301,703911.88,1194266.50,1385256.12
699593,1190815,1383070,703928.00,1194233.00,1385226.75
699548,1190935,1383226,703911.00,1194179.25,1385185.75
699087,1191198,1383530,703861.13,1194108.75,1385135.50
699076,1191187,1383280,703778.75,1194025.75,1385078.25
699014,1191058,1383450,703669.31,1193932.12,1385015.37
698778,1191509,1383134,703538.38,1193828.50,1384947.75
698670,1191184,1383181,703388.25,1193716.75,1384876.25
698610,1191085,1383233,703221.25,1193599.12,1384801.00
698292,1190972,1383185,703039.63,1193476.75,1384722.75
697825,1190983,1383256,702842.00,1193350.62,1384642.75
698163,1191184,1383407,702627.88,1193222.25,1384562.25
698166,1191171,1383446,702403.25,1193093.75,1384482.25
697635,1191582,1383897,702174.31,1192966.62,1384404.25
698316,1191724,1383596,701943.75,1192843.00,1384329.12
698696,1191717,1383602,701714.38,1192725.00,1384257.25
698525,1191710,1383980,701488.88,1192613.50,1384189.12
698454,1191781,1383729,701268.25,1192508.62,1384125.00
698527,1191559,1383690,701053.19,1192410.25,1384065.25
698690,1191537,1383707,700845.06,1192317.50,1384010.00
698188,1191619,1383849,700644.75,1192230.00,1383959.00
698482,1191472,1383546,700452.44,1192148.12,1383912.50
698751,1191452,1383397,700268.63,1192071.25,1383869.12
698398,1191326,1383903,700094.19,1191998.62,1383827.87
698165,1191671,1383676,699928.00,1191930.50,1383789.25
698568,1191771,1383872,699769.63,1191868.00,1383754.50
698666,1191786,1383830,699620.38,1191812.00,1383724.25
698062,1192128,1383966,699480.88,1191763.37,1383698.62
698900,1192140,1383890,699351.00,1191723.50,1383677.62
699455,1192324,1383945,699232.88,1191692.25,1383660.87
699730,1192826,1384001,699129.88,1191669.00,1383648.25
699824,1192546,1383851,699042.88,1191654.00,1383639.37
700085,1192630,1384169,698972.25,1191647.12,1383634.00
700216,1192761,1384331,698917.75,1191648.37,1383633.00
700218,1193085,1384329,698876.44,1191658.00,1383636.75
700599,1193185,1384577,698845.50,1191676.50,1383645.75
700810,1193148,1384528,698828.13,1191703.62,1383659.87
701133,1193625,1384729,698827.38,1191738.25,1383678.75
701490,1193525,1384558,698843.25,1191779.87,1383701.50
701163,1193538,1384670,698875.13,1191828.75,1383728.00
701542,1193615,1385130,698921.25,1191884.75,1383758.00
701945,1193582,1384752,698981.25,1191946.50,1383791.50
702265,1193563,1384648,699055.69,1192013.00,1383827.75
702243,1193753,1384821,699144.25,1192083.50,1383866.25
702367,1194191,1385209,699245.13,1192158.25,1383908.00
702471,1194061,1385036,699356.56,1192238.00,1383954.25
702606,1194007,1384828,699477.56,1192321.75,1384003.25
702670,1193954,1385420,699607.13,1192408.00,1384053.00
702678,1194264,1385122,699743.75,1192496.12,1384103.12
703005,1194313,1385032,699886.50,1192586.37,1384154.37
703098,1194505,1385124,700034.81,1192678.87,1384206.25
702878,1194697,1385144,700187.88,1192774.25,1384258.75
703390,1194752,1385163,700344.38,1192873.00,1384311.50
703763,1194806,1385336,700504.88,1192974.37,1384364.50
703760,1195370,1385732,700669.69,1193077.37,1384418.25
704080,1195053,1385628,700838.38,1193182.00,1384473.25
703831,1194670,1385135,701009.88,1193287.00,1384528.75
703743,1193955,1384775,701182.25,1193389.25,1384582.50
702384,1192333,1383985,701351.50,1193482.00,1384630.50
701169,1191457,1383497,701509.88,1193556.75,1384668.75
700285,1191083,1383151,701648.50,1193608.37,1384694.12
698524,1190993,1382971,701761.25,1193635.75,1384705.50
698095,1190580,1382987,701843.88,1193640.00,1384703.25
697825,1190484,1382893,701891.75,1193622.00,1384688.25
697380,1190682,1383343,701904.00,1193583.62,1384662.50
696715,1190778,1383060,701881.25,1193528.37,1384627.37
696863,1190712,1382893,701824.88,1193459.12,1384584.62
696905,1190976,1382909,701738.69,1193378.50,1384534.87
696363,1191007,1383471,701624.13,1193290.00,1384480.00
696489,1190664,1382947,701481.50,1193196.25,1384422.00
696430,1190700,1382908,701316.75,1193096.25,1384361.00
696169,1190680,1383257,701135.13,1192990.50,1384296.25
695905,1190817,1382912,700938.50,1192880.50,1384228.12
696087,1190751,1382877,700728.94,1192767.87,1384158.00
695728,1190829,1382969,700509.00,1192654.00,1384087.00
696073,1191293,1383475,700280.50,1192540.87,1384016.87
696559,1191254,1383057,700046.88,1192431.00,1383949.25
696572,1191375,1383206,699813.63,1192325.87,1383884.25
696591,1191832,1383630,699584.00,1192226.00,1383821.62
696489,1191529,1383266,699359.13,1192132.12,1383762.25
696506,1191428,1383151,699139.81,1192044.75,1383706.00
696785,1191328,1383253,698927.44,1191963.00,1383652.75
696846,1191367,1383059,698723.44,1191886.50,1383602.25
696679,1191292,1383079,698528.13,1191814.87,1383554.00
696600,1191273,1383256,698342.00,1191748.00,1383508.25
696534,1191663,1383402,698165.13,1191685.50,1383465.50
696602,1191444,1383218,697997.75,1191627.62,1383425.50
697152,1191761,1383303,697841.00,1191575.50,1383388.50
697447,1191807,1383402,697697.13,1191530.37,1383355.50
697545,1192059,1383641,697567.88,1191492.87,1383326.75
697619,1192085,1383668,697453.63,1191463.62,1383303.50
697980,1192206,1383514,697354.44,1191442.50,1383285.25
697011,1192993,1384380,697268.13,1191430.25,1383272.25
698222,1192534,1383610,697192.13,1191427.87,1383265.00
698870,1192529,1383933,697130.63,1191434.25,1383262.75
698480,1192693,1383875,697087.13,1191448.12,1383265.00
699139,1192828,1384004,697060.88,1191469.50,1383272.37
699389,1192942,1384085,697052.13,1191498.25,1383284.25
699129,1192986,1384213,697060.63,1191534.25,1383300.75
699562,1193221,1384297,697082.69,1191576.50,1383321.75
699850,1193185,1384213,697116.31,1191624.25,1383347.25
700111,1193488,1384396,697164.13,1191678.25,1383376.50
700299,1193740,1384480,697227.75,1191738.62,1383409.25
700571,1193641,1384605,697306.56,1191805.12,1383445.00
700866,1193727,1384464,697400.00,1191877.25,1383484.12
701064,1193747,1384394,697507.75,1191954.37,1383526.00
701440,1193983,1384692,697628.75,1192036.00,1383570.00
701712,1193982,1384633,697762.38,1192121.75,1383616.25
701555,1194119,1384653,697908.00,1192211.37,1383664.75
701690,1194323,1385345,698064.00,1192304.25,1383714.75
701926,1194480,1385059,698228.75,1192400.50,1383766.25
702010,1194404,1384881,698401.13,1192500.00,1383820.12
702138,1194443,1384916,698579.88,1192601.87,1383875.75
702248,1194843,1385114,698762.31,1192706.00,1383932.87
702660,1194589,1385181,698947.00,1192812.37,1383991.75
703054,1194804,1385193,699135.88,1192920.25,1384052.25
701143,1195656,1385759,699328.19,1193030.00,1384114.37
702454,1194819,1385041,699519.25,1193142.25,1384177.75
702134,1194239,1384662,699707.50,1193253.75,1384240.12
702210,1193326,1383924,699892.06,1193358.75,1384297.87
700852,1191926,1383195,700069.38,1193450.50,1384346.50
700007,1191564,1382973,700232.56,1193522.00,1384382.25
698842,1191128,1382678,700374.38,1193570.87,1384403.25
696934,1190737,1382802,700486.56,1193596.75,1384410.12
696937,1190853,1382528,700562.44,1193600.50,1384403.62
696666,1190664,1382725,700602.00,1193583.75,1384385.00
696627,1191203,1383055,700608.63,1193548.25,1384356.00
696715,1191181,1383070,700585.50,1193497.50,1384319.00
696639,1191291,1382787,700536.50,1193435.00,1384276.00
696583,1191468,1383009,700464.75,1193364.37,1384228.00
696467,1191288,1382993,700373.00,1193287.50,1384176.25
696499,1191324,1382975,700263.75,1193205.25,1384121.87
696553,1191337,1382918,700139.88,1193119.00,1384065.50
696482,1191286,1383262,700004.13,1193029.50,1384007.00
696143,1191237,1383039,699858.00,1192937.62,1383947.25
696115,1191233,1382921,699702.38,1192844.00,1383887.12
696351,1191546,1383033,699539.25,1192750.00,1383827.50
696358,1192044,1383326,699368.50,1192658.75,1383769.25
696682,1192032,1383351,699190.25,1192572.75,1383714.25
697020,1192086,1383412,699011.44,1192492.87,1383663.00
695199,1192490,1383802,698836.25,1192420.00,1383616.00
696915,1192123,1383391,698663.88,1192354.50,1383573.00
697163,1192057,1383294,698497.38,1192295.75,1383533.75
697278,1191880,1383345,698340.38,1192241.62,1383497.37
697338,1191858,1383257,698193.88,1192191.62,1383463.62
696526,1191787,1383107,698056.81,1192144.75,1383432.00
696903,1191734,1383202,697926.75,1192101.00,1383402.25
695351,1192013,1383647,697802.19,1192060.50,1383375.00
696888,1192146,1383337,697682.63,1192024.25,1383351.62
697255,1192135,1383433,697570.50,1191993.12,1383331.75
697659,1192683,1383524,697469.38,1191967.00,1383314.25
698015,1192506,1383669,697381.38,1191946.75,1383299.62
698269,1192642,1383652,697308.13,1191932.75,1383288.62
698221,1192812,1383533,697250.00,1191925.87,1383281.37
698637,1192955,1383846,697205.75,1191926.12,1383277.62
698794,1192934,1383954,697174.88,1191933.62,1383278.00
699219,1193249,1383891,697159.06,1191948.00,1383283.00
699369,1193593,1384749,697159.75,1191969.75,1383292.12
699709,1193492,1384325,697176.75,1191998.62,1383305.25
699935,1193622,1384104,697210.13,1192034.87,1383323.12
700375,1193676,1384255,697259.94,1192078.25,1383345.25
700311,1193989,1384476,697323.06,1192128.75,1383371.62
700601,1193935,1384424,697395.94,1192186.37,1383402.50
700934,1194037,1384334,697481.13,1192250.25,1383437.12
700760,1194708,1384690,697579.38,1192320.25,1383474.75
700922,1194385,1384503,697687.25,1192396.62,1383515.37
701226,1194252,1384646,697805.06,1192478.37,1383558.75
701503,1194291,1384852,697934.06,1192563.75,1383604.62
701292,1194370,1384572,698073.13,1192652.00,1383652.50
701412,1194415,1384664,698220.13,1192742.25,1383701.75
701850,1194466,1384607,698373.75,1192834.25,1383752.12
700645,1194910,1384951,698534.13,1192928.25,1383803.50
702255,1195049,1384812,698701.00,1193025.37,1383856.25
702419,1194983,1384854,698874.00,1193125.50,1383910.25
702523,1195320,1385163,699052.50,1193227.62,1383964.62
702730,1195248,1385007,699235.63,1193330.87,1384019.25
703119,1195154,1384995,699423.25,1193435.25,1384074.25
702674,1195156,1385055,699614.25,1193540.25,1384129.50
702595,1194020,1384504,699806.44,1193642.62,1384184.00
702071,1193095,1383724,699996.63,1193736.25,1384234.00
701230,1192370,1383298,700179.63,1193814.50,1384275.12
700024,1191748,1382963,700348.13,1193872.87,1384304.50
698095,1191204,1382808,700493.19,1193908.50,1384321.00
697424,1190989,1382477,700606.00,1193920.50,1384324.25
696538,1190888,1382647,700681.88,1193910.00,1384314.50
696025,1191153,1382506,700718.81,1193879.00,1384293.12
695993,1191202,1382571,700717.25,1193831.50,1384261.50
695749,1191172,1382634,700680.56,1193770.00,1384221.25
695849,1192175,1382908,700612.25,1193697.75,1384174.37
695904,1191717,1382953,700516.13,1193618.12,1384123.37
696041,1191425,1382734,700397.19,1193533.25,1384069.37
695946,1191213,1382980,700259.88,1193443.00,1384012.25
695292,1191512,1382806,700106.13,1193348.00,1383952.37
695627,1191512,1382843,699937.00,1193250.25,1383891.00
695697,1191385,1382785,699755.63,1193150.75,1383828.87
695796,1191926,1383533,699565.25,1193051.00,1383767.87
696261,1191994,1383131,699369.00,1192953.00,1383710.25
696495,1192071,1383052,699171.88,1192859.00,1383655.62
696676,1192447,1383532,698978.25,1192770.50,1383603.50
697480,1192440,1383349,698791.56,1192688.50,1383554.50
697553,1192544,1383500,698615.88,1192614.00,1383510.00
697649,1192552,1383608,698453.00,1192547.75,1383470.37
697570,1192605,1383543,698302.25,1192490.00,1383436.25
697551,1192454,1383417,698162.38,1192441.25,1383406.62
697915,1192456,1383437,698034.38,1192399.37,1383380.87
698152,1193065,1384010,697920.25,1192362.75,1383358.25
697913,1192495,1383520,697820.38,1192331.25,1383338.50
698379,1192579,1383649,697734.13,1192305.00,1383322.25
698393,1192816,1383894,697661.94,1192283.87,1383310.50
698546,1192973,1383539,697602.88,1192269.00,1383303.37
698764,1193059,1383748,697555.75,1192260.75,1383299.75
699047,1193137,1383688,697522.13,1192259.37,1383299.50
698885,1193586,1384101,697503.38,1192264.75,1383302.50
699625,1193519,1384004,697499.63,1192277.00,1383309.25
700040,1193547,1384146,697511.88,1192296.50,1383320.25
700301,1193773,1384282,697540.81,1192323.37,1383336.00
700393,1194022,1384251,697586.31,1192357.75,1383356.25
700780,1194057,1384393,697647.50,1192399.75,1383380.62
700876,1194562,1384383,697724.00,1192449.87,1383409.25
701195,1195165,1384824,697814.38,1192509.00,1383442.50
701648,1194966,1384925,697918.19,1192577.75,1383481.37
701912,1195106,1384894,698036.25,1192655.75,1383526.00
702017,1195182,1385527,698168.50,1192742.25,1383575.25
702235,1195487,1385131,698313.69,1192837.00,1383629.00
702100,1195463,1385078,698469.88,1192939.37,1383686.75
702734,1195449,1385128,698635.75,1193048.25,1383748.00
702719,1195779,1385496,698808.00,1193163.25,1383813.00
702654,1195821,1385368,698982.63,1193285.00,1383881.50
703248,1195928,1385420,699161.88,1193412.00,1383953.25
703359,1196554,1385986,699349.13,1193542.50,1384027.00
703672,1196246,1385538,699544.13,1193676.00,1384102.25
703894,1196457,1385626,699746.25,1193812.50,1384179.00
704002,1196573,1385551,699954.88,1193952.25,1384257.00
704384,1196819,1385786,700168.75,1194095.00,1384336.00
704573,1196890,1385817,700387.13,1194240.50,1384415.75
704653,1197033,1385862,700609.88,1194388.62,1384496.62
702413,1196364,1385918,700835.00,1194538.00,1384577.50
703759,1195797,1385100,701058.06,1194685.12,1384656.25
703934,1194853,1384647,701275.63,1194823.25,1384729.25
703336,1193766,1383670,701485.81,1194945.25,1384792.87
701702,1192598,1383482,701683.00,1195044.00,1384843.75
701134,1192342,1383323,701859.13,1195115.12,1384879.75
700061,1192109,1383084,702008.38,1195157.50,1384899.87
699417,1192186,1383127,702126.75,1195173.12,1384904.87
699158,1191980,1382834,702212.25,1195164.00,1384895.75
699378,1192118,1383110,702266.38,1195133.12,1384873.75
699387,1192250,1383960,702292.69,1195083.75,1384841.00
699573,1192866,1383529,702294.88,1195020.25,1384800.75
699571,1192827,1383425,702276.63,1194947.50,1384755.12
699582,1192747,1383611,702240.75,1194867.50,1384705.75
699846,1193458,1383766,702187.19,1194783.25,1384654.00
700061,1193234,1383739,702116.94,1194698.50,1384601.50
700256,1193267,1383469,702036.88,1194613.75,1384548.50
700439,1193823,1383944,701953.25,1194529.12,1384494.75
700606,1193488,1383777,701868.31,1194446.25,1384440.87
701195,1193954,1384009,701784.88,1194366.62,1384388.75
701451,1194059,1384067,701706.38,1194292.62,1384339.50
701736,1194257,1384312,701633.13,1194225.75,1384294.50
701817,1194311,1384150,701564.75,1194166.75,1384254.00
701937,1194157,1384239,701504.19,1194115.25,1384218.12
700085,1194070,1384038,701453.38,1194070.50,1384186.25
701367,1193747,1383796,701410.25,1194031.12,1384157.50
702026,1193847,1384017,701373.81,1193995.25,1384130.75
701780,1193706,1383966,701344.69,1193962.12,1384105.50
