2314,2819,4383,-17,-18,-31,9748,0.59,-0.08,1.53,1.40,2329,2835,4413,40,53,54,0,0,0
2314,2820,4381,-16,-17,-30,9749,0.59,-0.08,1.53,1.40,2329,2835,4412,40,53,54,0,0,0
2316,2822,4384,-14,-15,-29,9755,0.59,-0.08,1.53,1.40,2328,2834,4411,40,53,54,0,0,0
2319,2825,4390,-12,-13,-27,9768,0.59,-0.08,1.53,1.40,2328,2834,4410,40,53,54,0,0,0
2321,2828,4392,-10,-10,-23,9774,0.59,-0.08,1.53,1.40,2328,2834,4409,40,53,54,0,0,0
2322,2831,4395,-8,-7,-19,9780,0.59,-0.08,1.53,1.40,2327,2834,4409,40,53,54,0,0,0
2323,2832,4398,-6,-5,-15,9786,0.59,-0.08,1.53,1.40,2327,2834,4409,40,53,54,0,0,0
2323,2833,4401,-5,-2,-12,9792,0.59,-0.08,1.53,1.40,2327,2833,4408,40,53,54,0,0,0
2328,2839,4408,-3,0,-8,9806,0.59,-0.08,1.53,1.40,2327,2834,4408,40,53,54,0,0,0
2330,2841,4410,-1,2,-4,9811,0.59,-0.08,1.53,1.40,2327,2834,4408,40,53,54,0,0,0
2330,2841,4411,0,4,0,9816,0.59,-0.08,1.53,1.40,2327,2834,4408,40,53,54,0,0,0
2331,2843,4412,2,7,2,9823,0.59,-0.08,1.53,1.40,2328,2834,4409,40,53,54,0,0,0
2331,2846,4415,3,8,3,9833,0.59,-0.08,1.53,1.40,2328,2835,4409,40,53,54,0,0,0
2335,2852,4421,4,11,6,9849,0.59,-0.08,1.53,1.40,2328,2835,4409,40,53,54,0,0,0
2335,2852,4422,5,13,8,9853,0.59,-0.08,1.53,1.40,2328,2836,4410,40,53,54,0,0,0
2336,2852,4422,6,14,10,9853,0.59,-0.08,1.53,1.40,2328,2837,4410,40,53,54,0,0,0
2332,2848,4414,6,14,10,9838,0.59,-0.08,1.53,1.40,2329,2837,4410,40,53,54,0,0,0
2330,2843,4406,4,12,6,9812,0.59,-0.08,1.53,1.40,2329,2837,4410,36,48,51,0,0,0
2318,2834,4394,0,7,-1,9783,0.59,-0.08,1.46,1.34,2328,2837,4410,36,48,51,0,0,0
2313,2823,4376,-5,0,-12,9746,0.59,-0.08,1.46,1.34,2328,2837,4408,36,48,51,0,0,0
2309,2819,4372,-10,-7,-21,9737,0.59,-0.08,1.46,1.34,2327,2836,4407,36,48,51,0,0,0
2308,2816,4369,-15,-13,-30,9727,0.59,-0.08,1.46,1.34,2326,2835,4406,36,48,51,0,0,0
2307,2814,4365,-17,-17,-36,9724,0.59,-0.08,1.46,1.34,2326,2835,4405,36,48,51,0,0,0
2308,2816,4368,-18,-18,-36,9726,0.59,-0.08,1.46,1.34,2325,2834,4403,36,48,51,0,0,0
2310,2818,4375,-17,-18,-34,9736,0.59,-0.08,1.46,1.34,2325,2833,4402,36,48,51,0,0,0
2311,2820,4379,-16,-16,-31,9743,0.59,-0.08,1.46,1.34,2324,2833,4402,36,48,51,0,0,0
2310,2820,4378,-14,-14,-27,9743,0.59,-0.08,1.46,1.34,2324,2833,4401,36,48,51,0,0,0
2313,2822,4376,-13,-12,-24,9745,0.59,-0.08,1.46,1.34,2323,2832,4400,36,48,51,0,0,0
2314,2822,4375,-11,-11,-23,9746,0.59,-0.08,1.46,1.34,2323,2832,4399,36,48,51,0,0,0
2317,2828,4384,-9,-9,-21,9762,0.59,-0.08,1.46,1.34,2323,2832,4399,36,48,51,0,0,0
2319,2829,4387,-7,-6,-18,9768,0.59,-0.08,1.46,1.34,2323,2832,4398,36,48,51,0,0,0
2321,2831,4391,-5,-4,-14,9775,0.59,-0.08,1.46,1.34,2323,2832,4398,36,48,51,0,0,0
2321,2832,4393,-3,-2,-9,9779,0.59,-0.08,1.46,1.34,2323,2832,4398,36,48,51,0,0,0
2322,2836,4397,-2,0,-6,9786,0.59,-0.08,1.46,1.34,2323,2832,4398,36,48,51,0,0,0
2326,2840,4404,0,2,-1,9790,0.59,-0.08,1.46,1.34,2323,2832,4398,36,48,51,0,0,0
2327,2842,4406,1,5,2,9805,0.59,-0.08,1.46,1.34,2323,2832,4398,36,48,51,0,0,0
2329,2842,4409,3,7,5,9810,0.59,-0.08,1.46,1.34,2323,2833,4399,36,48,51,0,0,0
2329,2844,4411,4,9,9,9816,0.59,-0.08,1.46,1.34,2323,2833,4399,36,48,51,0,0,0
2331,2846,4412,5,10,10,9823,0.59,-0.08,1.46,1.34,2324,2833,4399,36,48,51,0,0,0
2331,2849,4413,6,12,12,9832,0.59,-0.08,1.46,1.34,2324,2834,4400,36,48,51,0,0,0
2330,2844,4410,6,12,12,9818,0.59,-0.08,1.46,1.34,2324,2834,4400,36,48,51,0,0,0
2323,2838,4399,4,10,8,9791,0.59,-0.08,1.46,1.34,2324,2834,4400,33,43,50,0,0,0
2317,2831,4384,1,6,1,9764,0.59,-0.08,1.34,1.25,2324,2834,4400,33,43,50,0,0,0
2312,2824,4373,-3,0,-8,9744,0.59,-0.08,1.34,1.25,2323,2834,4399,33,43,50,0,0,0
2307,2820,4369,-8,-5,-18,9733,0.59,-0.08,1.34,1.25,2323,2834,4398,33,43,50,0,0,0
2303,2814,4357,-13,-11,-27,9710,0.59,-0.08,1.34,1.25,2322,2833,4396,33,43,50,0,0,0
2304,2814,4357,-15,-15,-33,9708,0.59,-0.08,1.34,1.25,2321,2832,4395,33,43,50,0,0,0
2304,2814,4358,-17,-17,-35,9710,0.59,-0.08,1.34,1.25,2321,2832,4394,33,43,50,0,0,0
2304,2815,4360,-17,-17,-36,9715,0.59,-0.08,1.34,1.25,2320,2831,4393,33,43,50,0,0,0
2305,2816,4363,-16,-16,-34,9720,0.59,-0.08,1.34,1.25,2320,2831,4392,33,43,50,0,0,0
2307,2819,4367,-15,-15,-30,9725,0.59,-0.08,1.34,1.25,2319,2830,4391,33,43,50,0,0,0
2306,2820,4372,-14,-13,-26,9735,0.59,-0.08,1.34,1.25,2319,2830,4390,33,43,50,0,0,0
2309,2823,4376,-12,-10,-21,9742,0.59,-0.08,1.34,1.25,2319,2830,4390,33,43,50,0,0,0
2311,2825,4377,-10,-8,-17,9744,0.59,-0.08,1.34,1.25,2318,2829,4389,33,43,50,0,0,0
2310,2824,4374,-9,-6,-14,9744,0.59,-0.08,1.34,1.25,2318,2829,4389,33,43,50,0,0,0
2314,2828,4376,-7,-4,-13,9748,0.59,-0.08,1.34,1.25,2318,2829,4388,33,43,50,0,0,0
2317,2832,4385,-5,-1,-10,9765,0.59,-0.08,1.34,1.25,2318,2829,4388,33,43,50,0,0,0
2318,2832,4388,-3,0,-7,9769,0.59,-0.08,1.34,1.25,2318,2829,4388,33,43,50,0,0,0
2320,2835,4392,0,2,-3,9778,0.59,-0.08,1.34,1.25,2318,2830,4389,33,43,50,0,0,0
2321,2837,4395,1,4,1,9785,0.59,-0.08,1.34,1.25,2318,2830,4389,33,43,50,0,0,0
2323,2840,4399,2,6,4,9792,0.59,-0.08,1.34,1.25,2318,2830,4389,33,43,50,0,0,0
2327,2843,4405,4,8,8,9806,0.59,-0.08,1.34,1.25,2319,2831,4390,33,43,50,0,0,0
2327,2843,4405,6,10,11,9806,0.59,-0.08,1.34,1.25,2319,2831,4390,33,43,50,0,0,0
2323,2839,4395,6,10,11,9791,0.59,-0.08,1.34,1.25,2319,2831,4390,33,43,50,0,0,0
2318,2832,4383,4,8,7,9765,0.59,-0.08,1.34,1.25,2319,2831,4390,31,39,49,0,0,0
2310,2825,4370,0,3,-1,9739,0.59,-0.08,1.23,1.20,2319,2831,4389,31,39,49,0,0,0
2304,2817,4357,-5,-2,-13,9713,0.59,-0.08,1.23,1.20,2318,2831,4388,31,39,49,0,0,0
2303,2814,4353,-9,-8,-22,9700,0.59,-0.08,1.23,1.20,2318,2830,4387,31,39,49,0,0,0
2302,2813,4350,-13,-13,-30,9694,0.59,-0.08,1.23,1.20,2317,2830,4386,31,39,49,0,0,0
2303,2812,4350,-14,-16,-34,9694,0.59,-0.08,1.23,1.20,2317,2829,4385,31,39,49,0,0,0
2303,2814,4352,-14,-16,-34,9700,0.59,-0.08,1.23,1.20,2316,2828,4384,31,39,49,0,0,0
2304,2815,4352,-13,-15,-33,9702,0.59,-0.08,1.23,1.20,2316,2828,4383,31,39,49,0,0,0
2304,2817,4356,-12,-13,-31,9711,0.59,-0.08,1.23,1.20,2315,2828,4382,31,39,49,0,0,0
2305,2817,4358,-11,-12,-28,9717,0.59,-0.08,1.23,1.20,2315,2827,4381,31,39,49,0,0,0
2306,2819,4362,-10,-10,-24,9723,0.59,-0.08,1.23,1.20,2315,2827,4380,31,39,49,0,0,0
2305,2820,4363,-9,-9,-21,9726,0.59,-0.08,1.23,1.20,2314,2827,4380,31,39,49,0,0,0
2309,2823,4369,-8,-7,-17,9736,0.59,-0.08,1.23,1.20,2314,2827,4379,31,39,49,0,0,0
2313,2828,4369,-6,-4,-13,9745,0.59,-0.08,1.23,1.20,2314,2827,4379,31,39,49,0,0,0
2316,2832,4375,-3,-1,-10,9758,0.59,-0.08,1.23,1.20,2314,2827,4379,31,39,49,0,0,0
2317,2834,4378,0,2,-6,9764,0.59,-0.08,1.23,1.20,2314,2827,4379,31,39,49,0,0,0
2319,2836,4380,2,5,-3,9767,0.59,-0.08,1.23,1.20,2315,2827,4379,31,39,49,0,0,0
2317,2833,4377,2,6,-1,9760,0.59,-0.08,1.23,1.20,2315,2828,4379,31,39,49,0,0,0
2306,2820,4360,0,3,-5,9724,0.59,-0.08,1.23,1.20,2314,2827,4378,31,35,45,0,0,0
2304,2817,4351,-3,0,-11,9705,0.48,-0.09,1.20,1.30,2314,2827,4377,31,35,45,0,0,0
2303,2814,4347,-6,-6,-18,9691,0.48,-0.09,1.20,1.30,2314,2827,4376,31,35,45,0,0,0
2301,2811,4344,-10,-11,-26,9683,0.48,-0.09,1.20,1.30,2313,2826,4375,31,35,45,0,0,0
2301,2812,4344,-11,-13,-29,9681,0.48,-0.09,1.20,1.30,2313,2826,4374,31,35,45,0,0,0
2302,2813,4346,-11,-13,-29,9688,0.48,-0.09,1.20,1.30,2312,2825,4373,31,35,45,0,0,0
2303,2815,4348,-10,-12,-28,9694,0.48,-0.09,1.20,1.30,2312,2825,4372,31,35,45,0,0,0
2304,2816,4349,-9,-11,-26,9698,0.48,-0.09,1.20,1.30,2312,2824,4372,31,35,45,0,0,0
2304,2816,4351,-8,-9,-23,9702,0.48,-0.09,1.20,1.30,2312,2824,4371,31,35,45,0,0,0
2304,2817,4353,-8,-8,-21,9708,0.48,-0.09,1.20,1.30,2311,2824,4370,31,35,45,0,0,0
2304,2818,4356,-7,-7,-18,9715,0.48,-0.09,1.20,1.30,2311,2824,4370,31,35,45,0,0,0
2305,2819,4359,-7,-6,-15,9720,0.48,-0.09,1.20,1.30,2311,2824,4369,31,35,45,0,0,0
2306,2821,4364,-6,-5,-11,9728,0.48,-0.09,1.20,1.30,2311,2823,4369,31,35,45,0,0,0
2309,2825,4369,-5,-3,-7,9737,0.48,-0.09,1.20,1.30,2311,2824,4369,31,35,45,0,0,0
2308,2826,4368,-4,-1,-4,9739,0.48,-0.09,1.20,1.30,2311,2824,4369,31,35,45,0,0,0
2309,2825,4370,-2,0,-1,9737,0.48,-0.09,1.20,1.30,2310,2824,4369,31,35,45,0,0,0
2304,2823,4375,-3,0,1,9739,0.48,-0.09,1.20,1.30,2310,2824,4369,31,35,45,0,0,0
2307,2825,4377,-3,0,3,9743,0.48,-0.09,1.20,1.30,2310,2824,4370,31,35,45,0,0,0
2310,2827,4377,-2,1,5,9748,0.48,-0.09,1.20,1.30,2310,2824,4370,31,35,45,0,0,0
2312,2831,4381,-1,2,7,9760,0.48,-0.09,1.20,1.30,2310,2824,4370,31,35,45,0,0,0
2316,2834,4387,1,5,10,9770,0.48,-0.09,1.20,1.30,2310,2824,4371,31,35,45,0,0,0
2320,2840,4395,4,8,14,9789,0.48,-0.09,1.20,1.30,2311,2825,4372,31,35,45,0,0,0
2321,2842,4398,6,12,18,9796,0.48,-0.09,1.20,1.30,2311,2825,4373,31,35,45,0,0,0
2324,2846,4403,9,15,23,9805,0.48,-0.09,1.20,1.30,2312,2826,4374,31,35,45,0,0,0
2326,2848,4406,11,18,27,9813,0.48,-0.09,1.20,1.30,2312,2827,4375,31,35,45,0,0,0
2328,2850,4408,12,20,29,9819,0.48,-0.09,1.20,1.30,2313,2828,4376,31,35,45,0,0,0
2329,2851,4410,14,21,31,9824,0.48,-0.09,1.20,1.30,2313,2828,4377,31,35,45,0,0,0
2330,2851,4411,15,22,32,9824,0.48,-0.09,1.20,1.30,2314,2829,4378,31,35,45,0,0,0
2323,2845,4400,14,20,29,9799,0.48,-0.09,1.20,1.30,2314,2830,4379,31,35,49,0,0,0
2316,2835,4382,10,16,22,9766,0.48,-0.09,1.11,1.20,2314,2830,4379,31,35,49,0,0,0
2306,2824,4363,4,9,10,9728,0.48,-0.09,1.11,1.20,2314,2830,4378,31,35,49,0,0,0
2301,2816,4349,-2,0,-4,9696,0.48,-0.09,1.11,1.20,2313,2829,4377,31,35,49,0,0,0
2292,2804,4332,-9,-9,-21,9656,0.48,-0.09,1.11,1.20,2313,2828,4376,31,35,49,0,0,0
2287,2799,4327,-16,-17,-33,9640,0.48,-0.09,1.11,1.20,2312,2827,4374,31,35,49,0,0,0
2285,2796,4324,-21,-23,-42,9634,0.48,-0.09,1.11,1.20,2311,2826,4373,31,35,49,0,0,0
2285,2795,4325,-24,-28,-46,9632,0.48,-0.09,1.11,1.20,2310,2825,4371,31,35,49,0,0,0
2286,2796,4325,-24,-29,-46,9636,0.48,-0.09,1.11,1.20,2309,2824,4369,31,35,49,0,0,0
2289,2800,4331,-23,-28,-44,9648,0.48,-0.09,1.11,1.20,2309,2824,4368,31,35,49,0,0,0
2289,2801,4332,-21,-26,-40,9652,0.48,-0.09,1.11,1.20,2308,2823,4367,31,35,49,0,0,0
2292,2805,4336,-19,-22,-36,9659,0.48,-0.09,1.11,1.20,2307,2822,4366,31,35,49,0,0,0
2291,2804,4338,-17,-20,-32,9661,0.48,-0.09,1.11,1.20,2307,2822,4365,31,35,49,0,0,0
2293,2807,4342,-15,-17,-28,9669,0.48,-0.09,1.11,1.20,2306,2821,4364,31,35,49,0,0,0
2297,2812,4348,-13,-14,-23,9680,0.48,-0.09,1.11,1.20,2306,2821,4364,31,35,49,0,0,0
2297,2813,4350,-11,-12,-19,9685,0.48,-0.09,1.11,1.20,2306,2821,4363,31,35,49,0,0,0
2293,2809,4350,-10,-10,-16,9681,0.48,-0.09,1.11,1.20,2305,2820,4363,31,35,49,0,0,0
2294,2812,4353,-10,-9,-12,9684,0.48,-0.09,1.11,1.20,2305,2820,4362,31,35,49,0,0,0
2296,2811,4356,-10,-9,-10,9691,0.48,-0.09,1.11,1.20,2305,2820,4362,31,35,49,0,0,0
2299,2815,4362,-9,-8,-7,9698,0.48,-0.09,1.11,1.20,2304,2819,4362,31,35,49,0,0,0
2300,2818,4368,-7,-5,-2,9712,0.48,-0.09,1.11,1.20,2304,2819,4362,31,35,49,0,0,0
2300,2819,4371,-5,-3,2,9719,0.48,-0.09,1.11,1.20,2304,2819,4363,31,35,49,0,0,0
2300,2820,4374,-4,-1,6,9725,0.48,-0.09,1.11,1.20,2304,2819,4363,31,35,49,0,0,0
2301,2822,4379,-3,0,10,9731,0.48,-0.09,1.11,1.20,2304,2819,4364,31,35,49,0,0,0
2300,2824,4380,-3,2,12,9736,0.48,-0.09,1.11,1.20,2304,2820,4364,31,35,49,0,0,0
2297,2816,4367,-4,1,11,9708,0.48,-0.09,1.11,1.20,2304,2820,4364,28,34,51,0,0,0
2292,2811,4357,-6,-1,6,9687,0.48,-0.09,1.03,1.04,2303,2819,4364,28,34,51,0,0,0
2288,2804,4345,-9,-5,-1,9665,0.48,-0.09,1.03,1.04,2303,2819,4363,28,34,51,0,0,0
2283,2797,4335,-13,-12,-12,9641,0.48,-0.09,1.03,1.04,2302,2818,4362,28,34,51,0,0,0
2280,2794,4328,-16,-16,-21,9627,0.48,-0.09,1.03,1.04,2301,2817,4361,28,34,51,0,0,0
2277,2791,4322,-19,-21,-29,9615,0.48,-0.09,1.03,1.04,2300,2816,4360,28,34,51,0,0,0
2277,2790,4321,-21,-23,-34,9614,0.48,-0.09,1.03,1.04,2300,2815,4359,28,34,51,0,0,0
2278,2791,4325,-22,-24,-35,9619,0.48,-0.09,1.03,1.04,2299,2815,4358,28,34,51,0,0,0
2280,2795,4328,-21,-23,-34,9629,0.48,-0.09,1.03,1.04,2298,2814,4357,28,34,51,0,0,0
2281,2794,4331,-19,-21,-31,9633,0.48,-0.09,1.03,1.04,2298,2813,4356,28,34,51,0,0,0
2283,2799,4335,-17,-19,-26,9642,0.48,-0.09,1.03,1.04,2297,2813,4355,28,34,51,0,0,0
2286,2802,4339,-15,-15,-22,9651,0.48,-0.09,1.03,1.04,2297,2812,4354,28,34,51,0,0,0
2286,2803,4341,-13,-13,-18,9657,0.48,-0.09,1.03,1.04,2297,2812,4354,28,34,51,0,0,0
2289,2807,4346,-10,-9,-14,9667,0.48,-0.09,1.03,1.04,2296,2812,4354,28,34,51,0,0,0
2291,2809,4349,-8,-6,-10,9677,0.48,-0.09,1.03,1.04,2296,2812,4354,28,34,51,43,0,0
2298,2816,4353,-5,-3,-6,9686,0.48,-0.09,1.03,1.04,2296,2812,4354,28,34,51,43,0,0
2299,2818,4361,-1,0,-1,9703,0.48,-0.09,1.03,1.04,2296,2812,4354,28,34,51,43,0,0
2300,2820,4364,1,3,2,9711,0.48,-0.09,1.03,1.04,2296,2813,4354,28,34,51,43,0,0
2300,2822,4366,3,6,6,9719,0.48,-0.09,1.03,1.04,2297,2813,4355,28,34,51,43,0,0
2302,2826,4371,3,8,11,9729,0.48,-0.09,1.03,1.04,2297,2813,4355,28,34,51,43,0,0
2304,2829,4377,4,11,14,9740,0.48,-0.09,1.03,1.04,2297,2814,4356,28,34,51,43,0,0
2307,2831,4376,6,13,17,9745,0.48,-0.09,1.03,1.04,2297,2814,4356,28,34,51,43,0,0
2305,2830,4374,7,15,18,9743,0.48,-0.09,1.03,1.04,2298,2815,4357,28,34,51,43,0,0
2304,2828,4374,7,15,18,9738,0.48,-0.09,1.03,1.04,2298,2815,4358,28,34,51,43,0,0
2299,2821,4363,6,12,14,9713,0.48,-0.09,1.03,1.04,2298,2816,4358,29,35,52,43,0,0
2294,2815,4350,2,8,7,9684,0.48,-0.09,1.04,1.06,2298,2815,4358,29,35,52,43,0,0
2285,2802,4328,-2,1,-4,9641,0.48,-0.09,1.04,1.06,2297,2815,4357,29,35,52,108,0,0
2282,2799,4321,-7,-6,-16,9627,0.48,-0.09,1.04,1.06,2297,2815,4355,29,35,52,108,0,0
2280,2793,4314,-11,-12,-27,9614,0.48,-0.09,1.04,1.06,2296,2814,4354,29,35,52,108,0,0
2279,2794,4314,-15,-17,-35,9613,0.48,-0.09,1.04,1.06,2296,2813,4353,29,35,52,108,0,0
2281,2797,4315,-15,-18,-37,9619,0.48,-0.09,1.04,1.06,2295,2813,4351,29,35,52,108,0,0
2285,2801,4322,-14,-16,-35,9633,0.48,-0.09,1.04,1.06,2295,2812,4350,29,35,52,108,0,0
2284,2799,4322,-12,-14,-32,9630,0.48,-0.09,1.04,1.06,2294,2812,4349,29,35,52,108,0,0
2284,2802,4324,-11,-12,-29,9635,0.48,-0.09,1.04,1.06,2294,2811,4349,29,35,52,108,0,0
2285,2802,4325,-9,-10,-25,9640,0.48,-0.09,1.04,1.06,2294,2811,4348,29,35,52,108,0,0
2288,2806,4332,-8,-9,-22,9649,0.48,-0.09,1.04,1.06,2294,2811,4347,29,35,52,108,0,0
2292,2812,4339,-6,-5,-17,9668,0.48,-0.09,1.04,1.06,2293,2811,4347,29,35,52,108,0,0
2294,2815,4343,-3,-2,-12,9677,0.48,-0.09,1.04,1.06,2293,2811,4347,29,35,52,108,0,0
2295,2817,4344,-1,1,-7,9683,0.48,-0.09,1.04,1.06,2294,2811,4347,29,35,52,108,100,0
2297,2819,4348,1,4,-3,9690,0.48,-0.09,1.04,1.06,2294,2812,4347,29,35,52,108,100,0
2299,2821,4351,2,6,0,9699,0.48,-0.09,1.04,1.06,2294,2812,4347,29,35,52,108,100,0
2303,2826,4359,4,9,3,9719,0.48,-0.09,1.04,1.06,2294,2812,4347,29,35,52,108,100,0
2304,2830,4365,6,11,8,9731,0.48,-0.09,1.04,1.06,2294,2813,4348,29,35,52,108,100,0
2306,2832,4366,8,14,12,9737,0.48,-0.09,1.04,1.06,2295,2814,4349,29,35,52,108,100,0
2306,2832,4365,10,16,15,9737,0.48,-0.09,1.04,1.06,2295,2814,4349,29,35,52,108,100,0
2306,2832,4367,10,17,16,9738,0.48,-0.09,1.04,1.06,2296,2815,4350,29,35,52,108,100,0
2306,2832,4372,10,17,18,9739,0.48,-0.09,1.04,1.06,2296,2815,4350,29,35,52,108,100,0
2304,2832,4372,9,17,19,9742,0.48,-0.09,1.04,1.06,2296,2816,4351,28,35,52,108,100,0
2305,2832,4375,9,16,20,9742,0.48,-0.09,1.04,1.06,2296,2816,4352,28,35,52,108,100,0
2301,2826,4363,7,14,19,9721,0.48,-0.09,1.04,1.06,2297,2817,4352,28,35,53,108,100,0
2297,2820,4350,5,11,13,9694,0.48,-0.09,1.02,1.00,2297,2817,4352,28,35,53,100,100,0
2286,2804,4337,0,4,4,9666,0.48,-0.09,1.02,1.00,2296,2816,4352,28,35,53,100,100,0
2283,2802,4315,-4,-3,-10,9625,0.48,-0.09,1.02,1.00,2296,2816,4351,28,35,53,100,100,0
2279,2795,4307,-9,-10,-23,9608,0.48,-0.09,1.02,1.00,2295,2815,4349,28,35,53,100,100,0
2279,2793,4304,-13,-17,-34,9603,0.48,-0.09,1.02,1.00,2295,2815,4348,28,35,53,100,100,0
2278,2793,4303,-15,-19,-41,9600,0.48,-0.09,1.02,1.00,2294,2814,4346,28,35,53,100,100,0
2281,2797,4306,-15,-19,-42,9606,0.48,-0.09,1.02,1.00,2294,2813,4345,28,35,53,100,100,0
2282,2800,4311,-14,-18,-39,9617,0.48,-0.09,1.02,1.00,2293,2813,4344,28,35,53,100,100,0
2282,2801,4312,-12,-15,-36,9622,0.48,-0.09,1.02,1.00,2293,2812,4343,28,35,53,100,100,0
2280,2798,4313,-12,-13,-33,9617,0.48,-0.09,1.02,1.00,2293,2812,4342,28,35,53,100,100,0
2279,2795,4313,-12,-13,-30,9615,0.48,-0.09,1.02,1.00,2292,2811,4341,28,35,53,100,100,0
2283,2799,4317,-11,-13,-27,9621,0.48,-0.09,1.02,1.00,2292,2811,4340,28,35,53,100,100,0
2284,2804,4326,-10,-12,-23,9637,0.48,-0.09,1.02,1.00,2292,2811,4339,28,35,53,100,100,0
2284,2804,4326,-9,-10,-19,9640,0.48,-0.09,1.02,1.00,2291,2811,4339,28,35,53,100,100,0
2286,2806,4331,-7,-7,-14,9648,0.48,-0.09,1.02,1.00,2291,2810,4339,28,35,53,100,100,0
2287,2809,4336,-6,-4,-9,9657,0.48,-0.09,1.02,1.00,2291,2810,4339,28,35,53,100,100,0
2289,2810,4339,-4,-3,-6,9663,0.48,-0.09,1.02,1.00,2291,2810,4339,28,35,53,100,100,0
2291,2815,4346,-2,0,-1,9676,0.48,-0.09,1.02,1.00,2291,2810,4339,28,35,53,100,100,0
2292,2816,4349,-1,2,3,9681,0.48,-0.09,1.02,1.00,2291,2811,4339,28,35,53,100,100,0
2293,2817,4351,0,4,7,9683,0.48,-0.09,1.02,1.00,2291,2811,4339,28,35,53,100,100,0
2296,2819,4355,2,6,11,9693,0.48,-0.09,1.02,1.00,2291,2811,4340,28,35,53,100,100,0
2296,2820,4357,3,7,13,9700,0.48,-0.09,1.02,1.00,2291,2811,4341,28,35,53,100,100,0
2299,2826,4364,4,9,16,9718,0.48,-0.09,1.02,1.00,2292,2812,4341,28,35,53,100,100,0
2302,2827,4366,6,11,19,9724,0.48,-0.09,1.02,1.00,2292,2812,4342,28,35,53,100,100,0
2300,2826,4363,7,12,20,9718,0.48,-0.09,1.02,1.00,2292,2813,4343,28,35,53,100,100,0
2296,2821,4353,7,12,19,9696,0.48,-0.09,1.02,1.00,2292,2813,4343,28,35,55,100,100,0
2291,2815,4342,5,9,13,9673,0.48,-0.09,0.98,0.96,2292,2813,4343,26,34,55,100,100,0
2280,2797,4316,0,1,0,9615,0.48,-0.09,0.98,0.96,2292,2813,4342,26,34,55,100,100,0
2275,2791,4304,-6,-6,-13,9593,0.48,-0.09,0.98,0.96,2291,2812,4341,26,34,55,100,100,0
2271,2786,4295,-12,-15,-27,9575,0.48,-0.09,0.98,0.96,2291,2811,4339,26,34,55,100,100,0
2268,2783,4293,-17,-22,-38,9568,0.48,-0.09,0.98,0.96,2290,2810,4338,26,34,55,100,100,0
2268,2783,4292,-19,-24,-42,9566,0.48,-0.09,0.98,0.96,2289,2809,4336,26,34,55,100,100,0
2271,2787,4295,-20,-25,-43,9576,0.48,-0.09,0.98,0.96,2289,2809,4335,26,34,55,100,100,0
2272,2788,4297,-19,-23,-41,9579,0.48,-0.09,0.98,0.96,2288,2808,4334,26,34,55,100,100,0
2272,2788,4297,-17,-21,-39,9581,0.48,-0.09,0.98,0.96,2287,2807,4333,26,34,55,100,100,0
2272,2788,4298,-16,-20,-36,9583,0.48,-0.09,0.98,0.96,2287,2807,4331,26,34,55,100,100,0
2272,2789,4301,-15,-18,-33,9586,0.48,-0.09,0.98,0.96,2286,2806,4330,26,34,55,100,100,0
2275,2793,4309,-13,-17,-29,9600,0.48,-0.09,0.98,0.96,2286,2806,4330,26,34,55,100,100,0
2275,2793,4311,-12,-15,-25,9604,0.48,-0.09,0.98,0.96,2286,2805,4329,26,34,55,100,100,0
2277,2797,4316,-11,-12,-20,9613,0.48,-0.09,0.98,0.96,2285,2805,4329,26,34,55,100,100,0
2278,2798,4318,-9,-10,-15,9619,0.48,-0.09,0.98,0.96,2285,2805,4328,26,34,55,100,100,0
2279,2802,4324,-8,-7,-11,9630,0.48,-0.09,0.98,0.96,2285,2804,4328,26,34,55,100,100,0
2283,2807,4330,-5,-3,-6,9647,0.48,-0.09,0.98,0.96,2285,2805,4328,26,34,55,100,100,0
2286,2810,4335,-3,0,-1,9655,0.48,-0.09,0.98,0.96,2285,2805,4328,26,34,55,100,100,0
2286,2811,4337,-1,2,3,9661,0.48,-0.09,0.98,0.96,2285,2805,4329,26,34,55,100,100,0
2288,2814,4339,0,5,6,9666,0.48,-0.09,0.98,0.96,2285,2805,4329,26,34,55,100,100,0
2289,2814,4342,2,7,9,9672,0.48,-0.09,0.98,0.96,2285,2806,4329,26,34,55,100,100,0
2292,2818,4346,3,8,11,9682,0.48,-0.09,0.98,0.96,2285,2806,4330,26,34,55,100,100,0
2294,2820,4349,5,10,14,9689,0.48,-0.09,0.98,0.96,2286,2806,4331,26,34,55,100,100,0
2296,2822,4352,7,12,17,9693,0.48,-0.09,0.98,0.96,2286,2807,4331,26,34,55,100,100,0
2293,2820,4347,8,13,17,9685,0.48,-0.09,0.98,0.96,2286,2807,4332,26,34,55,100,100,0
2289,2814,4339,7,12,15,9666,0.48,-0.09,0.98,0.96,2286,2808,4332,27,35,57,100,100,0
2280,2800,4318,3,6,7,9625,0.48,-0.09,0.95,0.90,2286,2807,4332,27,35,57,100,100,0
2275,2793,4306,-1,0,-4,9598,0.48,-0.09,0.95,0.90,2286,2807,4331,27,35,57,100,100,0
2270,2787,4295,-7,-8,-16,9576,0.48,-0.09,0.95,0.90,2285,2806,4330,27,35,57,100,100,0
2266,2782,4291,-12,-15,-27,9561,0.48,-0.09,0.95,0.90,2285,2805,4328,27,35,57,100,100,0
2263,2779,4288,-16,-20,-34,9554,0.48,-0.09,0.95,0.90,2284,2805,4327,27,35,57,100,100,0
2264,2780,4290,-18,-23,-36,9558,0.48,-0.09,0.95,0.90,2283,2804,4326,27,35,57,100,100,0
2267,2784,4292,-18,-23,-36,9564,0.48,-0.09,0.95,0.90,2283,2803,4325,27,35,57,100,100,0
2268,2785,4294,-17,-21,-34,9569,0.48,-0.09,0.95,0.90,2282,2802,4324,27,35,57,100,100,0
2268,2786,4295,-15,-19,-31,9572,0.48,-0.09,0.95,0.90,2282,2802,4323,27,35,57,100,100,0
2270,2788,4298,-13,-16,-28,9577,0.48,-0.09,0.95,0.90,2281,2801,4322,27,35,57,100,100,0
2271,2791,4304,-12,-14,-24,9590,0.48,-0.09,0.95,0.90,2281,2801,4321,27,35,57,100,100,0
2269,2789,4306,-11,-12,-21,9584,0.48,-0.09,0.95,0.90,2281,2801,4321,27,35,57,100,100,0
2267,2789,4307,-11,-11,-17,9583,0.48,-0.09,0.95,0.90,2280,2800,4320,27,35,57,100,100,0
2268,2789,4311,-11,-11,-13,9590,0.48,-0.09,0.95,0.90,2280,2800,4320,27,35,57,100,100,0
2267,2788,4313,-12,-11,-11,9592,0.48,-0.09,0.95,0.90,2279,2800,4320,27,35,57,100,100,0
2269,2791,4319,-11,-10,-7,9603,0.48,-0.09,0.95,0.90,2279,2799,4320,27,35,57,100,100,0
2271,2793,4322,-10,-9,-3,9608,0.48,-0.09,0.95,0.90,2279,2799,4320,27,35,57,100,100,0
2271,2793,4323,-9,-8,0,9611,0.48,-0.09,0.95,0.90,2278,2799,4320,27,35,57,100,100,0
2272,2795,4327,-7,-6,2,9618,0.48,-0.09,0.95,0.90,2278,2799,4320,27,35,57,100,100,0
2274,2797,4329,-6,-4,5,9624,0.48,-0.09,0.95,0.90,2278,2799,4320,27,35,57,100,100,0
2277,2800,4335,-4,-2,8,9635,0.48,-0.09,0.95,0.90,2278,2799,4321,27,35,57,100,100,0
2277,2801,4335,-3,0,11,9637,0.48,-0.09,0.95,0.90,2278,2799,4321,27,35,57,100,100,0
2278,2802,4337,-1,1,13,9640,0.48,-0.09,0.95,0.90,2278,2799,4322,27,35,57,100,100,0
2277,2803,4336,0,2,14,9639,0.48,-0.09,0.95,0.90,2278,2799,4322,27,35,57,100,100,0
2276,2799,4334,-1,2,13,9633,0.48,-0.09,0.95,0.90,2278,2799,4323,27,35,55,100,100,0
2267,2788,4317,-3,-1,8,9597,0.48,-0.09,0.98,0.93,2278,2799,4323,27,33,55,100,100,0
2265,2785,4311,-6,-5,2,9582,0.48,-0.09,0.98,0.93,2277,2798,4322,27,33,55,100,100,0
2261,2779,4301,-10,-10,-6,9564,0.48,-0.09,0.98,0.93,2277,2798,4321,27,33,55,100,100,0
2256,2773,4295,-14,-16,-15,9546,0.48,-0.09,0.98,0.93,2276,2797,4321,27,33,55,100,100,0
2253,2769,4289,-17,-20,-21,9535,0.48,-0.09,0.98,0.93,2275,2796,4319,27,33,55,100,100,0
2252,2768,4289,-20,-24,-26,9531,0.48,-0.09,0.98,0.93,2274,2795,4318,27,33,55,100,100,0
2252,2769,4289,-21,-25,-28,9532,0.48,-0.09,0.98,0.93,2274,2794,4318,27,33,55,100,100,0
2253,2772,4293,-21,-25,-28,9539,0.48,-0.09,0.98,0.93,2273,2793,4317,27,33,55,94,100,0
2255,2774,4294,-20,-23,-26,9544,0.48,-0.09,0.98,0.93,2272,2793,4316,27,33,55,94,100,0
2256,2774,4297,-18,-20,-23,9550,0.48,-0.09,0.98,0.93,2272,2792,4315,27,33,55,94,100,0
2258,2778,4303,-16,-17,-19,9560,0.48,-0.09,0.98,0.93,2271,2791,4315,27,33,55,94,100,0
2258,2778,4305,-14,-15,-15,9565,0.48,-0.09,0.98,0.93,2271,2791,4315,27,33,55,94,100,0
2259,2781,4307,-13,-13,-11,9570,0.48,-0.09,0.98,0.93,2271,2791,4314,27,33,55,94,100,0
2261,2782,4311,-11,-11,-8,9577,0.48,-0.09,0.98,0.93,2270,2790,4314,27,33,55,94,100,0
2262,2785,4313,-10,-9,-5,9584,0.48,-0.09,0.98,0.93,2270,2790,4314,27,33,55,94,100,0
2264,2786,4317,-8,-6,-2,9592,0.48,-0.09,0.98,0.93,2270,2790,4314,27,33,55,94,100,0
2265,2788,4319,-7,-4,1,9595,0.48,-0.09,0.98,0.93,2270,2790,4314,27,33,55,94,100,0
2265,2788,4320,-5,-3,3,9597,0.48,-0.09,0.98,0.93,2269,2790,4315,27,33,55,94,100,0
2264,2788,4320,-5,-2,4,9597,0.48,-0.09,0.98,0.93,2269,2790,4315,27,33,55,94,100,0
2264,2787,4321,-4,-2,5,9596,0.48,-0.09,0.98,0.93,2269,2790,4315,27,33,55,94,100,0
2265,2789,4321,-4,-2,5,9597,0.48,-0.09,0.98,0.93,2269,2790,4315,27,33,55,94,100,0
2263,2787,4322,-5,-2,6,9596,0.48,-0.09,0.98,0.93,2269,2790,4315,27,33,55,94,100,0
2261,2785,4320,-5,-3,5,9589,0.48,-0.09,0.98,0.93,2268,2790,4316,27,30,50,94,100,0
2259,2782,4318,-6,-4,4,9583,0.48,-0.09,0.93,1.03,2268,2789,4316,27,30,50,94,100,0
2256,2779,4312,-8,-6,2,9571,0.48,-0.09,0.93,1.03,2268,2789,4316,27,30,50,94,100,0
2249,2774,4305,-11,-9,-2,9555,0.48,-0.09,0.93,1.03,2267,2788,4315,27,30,50,94,100,0
2248,2765,4292,-14,-13,-8,9526,0.48,-0.09,0.93,1.03,2267,2788,4314,27,30,50,94,100,0
2245,2762,4287,-17,-18,-15,9517,0.48,-0.09,0.93,1.03,2266,2787,4313,27,30,50,94,100,0
2244,2760,4285,-19,-22,-21,9512,0.48,-0.09,0.93,1.03,2265,2786,4313,27,30,50,94,100,0
2243,2759,4284,-20,-25,-26,9507,0.48,-0.09,0.93,1.03,2264,2785,4312,27,30,50,94,100,0
2245,2761,4285,-20,-25,-27,9514,0.48,-0.09,0.93,1.03,2264,2784,4311,27,30,50,94,100,0
2244,2763,4287,-20,-23,-26,9518,0.48,-0.09,0.93,1.03,2263,2783,4310,27,30,50,94,100,0
2247,2766,4289,-18,-21,-24,9526,0.48,-0.09,0.93,1.03,2262,2783,4309,27,30,50,94,100,0
2248,2767,4292,-16,-18,-21,9531,0.48,-0.09,0.93,1.03,2262,2782,4309,27,30,50,94,100,0
2248,2768,4293,-15,-16,-18,9534,0.48,-0.09,0.93,1.03,2262,2782,4308,27,30,50,94,100,0
2250,2771,4296,-13,-14,-16,9539,0.48,-0.09,0.93,1.03,2261,2782,4308,27,30,50,94,100,0
2252,2774,4302,-12,-11,-12,9550,0.48,-0.09,0.93,1.03,2261,2781,4307,27,30,50,94,100,0
2253,2776,4304,-10,-9,-8,9556,0.48,-0.09,0.93,1.03,2261,2781,4307,27,30,50,94,100,0
2255,2778,4307,-8,-6,-5,9562,0.48,-0.09,0.93,1.03,2260,2781,4307,27,30,50,94,100,0
2255,2781,4309,-6,-3,-1,9568,0.48,-0.09,0.93,1.03,2260,2781,4307,27,30,50,94,100,0
2258,2782,4310,-5,-1,0,9572,0.48,-0.09,0.93,1.03,2260,2781,4308,27,30,50,94,100,0
2258,2783,4313,-3,0,2,9579,0.48,-0.09,0.93,1.03,2260,2781,4308,27,30,50,94,100,0
2260,2786,4314,-2,2,3,9584,0.48,-0.09,0.93,1.03,2260,2781,4308,27,30,50,94,100,0
2260,2786,4315,-1,3,5,9584,0.48,-0.09,0.93,1.03,2260,2781,4308,27,30,50,94,100,0
2262,2789,4316,0,4,6,9588,0.48,-0.09,0.93,1.03,2260,2782,4308,27,30,50,94,100,0
2262,2788,4316,1,5,7,9592,0.48,-0.09,0.93,1.03,2260,2782,4309,27,30,50,94,100,0
2262,2790,4317,1,6,7,9594,0.48,-0.09,0.93,1.03,2260,2782,4309,27,30,50,94,100,0
2261,2788,4312,1,6,6,9585,0.48,-0.09,0.93,1.03,2260,2782,4309,27,30,46,94,100,0
2257,2783,4304,0,5,3,9567,0.48,-0.09,1.01,1.12,2260,2782,4309,25,31,46,94,100,0
2253,2775,4295,-1,2,-1,9548,0.48,-0.09,1.01,1.12,2260,2782,4308,25,31,46,94,100,0
2250,2772,4289,-4,-2,-8,9532,0.48,-0.09,1.01,1.12,2260,2782,4308,25,31,46,94,100,0
2243,2760,4280,-9,-9,-16,9510,0.48,-0.09,1.01,1.12,2259,2781,4307,25,31,46,94,100,0
2241,2757,4276,-12,-15,-22,9500,0.48,-0.09,1.01,1.12,2258,2780,4306,25,31,46,94,100,0
2241,2755,4274,-15,-19,-26,9495,0.48,-0.09,1.01,1.12,2258,2779,4305,25,31,46,94,100,0
2242,2758,4278,-16,-22,-28,9500,0.48,-0.09,1.01,1.12,2257,2779,4304,25,31,46,94,100,0
2241,2758,4279,-16,-22,-27,9504,0.48,-0.09,1.01,1.12,2257,2778,4303,25,31,46,94,100,0
2245,2763,4283,-14,-20,-25,9515,0.48,-0.09,1.01,1.12,2256,2778,4302,25,31,46,94,100,0
2245,2766,4285,-13,-16,-21,9520,0.48,-0.09,1.01,1.12,2256,2777,4302,25,31,46,94,100,0
2247,2768,4286,-11,-13,-18,9524,0.48,-0.09,1.01,1.12,2256,2777,4301,25,31,46,94,100,0
2248,2770,4287,-9,-10,-16,9527,0.48,-0.09,1.01,1.12,2256,2777,4301,25,31,46,94,100,0
2250,2774,4290,-8,-7,-14,9536,0.48,-0.09,1.01,1.12,2255,2777,4300,25,31,46,94,100,0
2253,2778,4296,-6,-4,-10,9550,0.48,-0.09,1.01,1.12,2255,2777,4300,25,31,46,94,100,0
2255,2780,4298,-3,-1,-7,9556,0.48,-0.09,1.01,1.12,2255,2777,4300,25,31,46,94,100,0
2256,2782,4302,-1,1,-3,9564,0.48,-0.09,1.01,1.12,2255,2777,4300,25,31,46,94,100,0
2258,2784,4304,0,4,0,9568,0.48,-0.09,1.01,1.12,2255,2777,4300,25,31,46,94,100,0
2259,2786,4305,1,6,2,9572,0.48,-0.09,1.01,1.12,2256,2777,4301,25,31,46,94,100,0
2261,2788,4308,3,7,4,9580,0.48,-0.09,1.01,1.12,2256,2778,4301,25,31,46,94,100,0
2262,2790,4309,4,9,5,9585,0.48,-0.09,1.01,1.12,2256,2778,4301,25,31,46,94,100,0
2263,2790,4310,5,10,7,9589,0.48,-0.09,1.01,1.12,2256,2779,4301,25,31,46,94,100,0
2264,2793,4312,6,11,8,9594,0.48,-0.09,1.01,1.12,2256,2779,4302,25,31,46,94,100,0
2265,2794,4312,7,12,9,9594,0.48,-0.09,1.01,1.12,2257,2780,4302,25,31,46,94,100,0
2262,2789,4311,7,12,9,9588,0.48,-0.09,1.01,1.12,2257,2780,4302,25,31,46,94,100,0
2256,2782,4294,5,9,5,9554,0.48,-0.09,1.01,1.12,2257,2780,4302,25,31,43,94,100,0
2251,2775,4288,1,5,0,9538,0.10,-0.09,1.12,1.11,2257,2780,4302,25,31,43,94,100,0
2247,2769,4283,-2,-1,-7,9524,0.10,-0.09,1.12,1.11,2256,2779,4301,25,31,43,94,100,0
2245,2766,4276,-6,-6,-16,9511,0.10,-0.09,1.12,1.11,2256,2779,4300,25,31,43,94,100,0
2241,2760,4270,-10,-11,-21,9498,0.10,-0.09,1.12,1.11,2255,2778,4299,25,31,43,94,100,0
2242,2755,4266,-11,-16,-25,9487,0.10,-0.09,1.12,1.11,2255,2778,4298,25,31,43,94,100,0
2241,2757,4268,-13,-18,-28,9490,0.10,-0.09,1.12,1.11,2255,2777,4297,25,31,43,94,100,0
2243,2762,4272,-13,-18,-28,9499,0.10,-0.09,1.12,1.11,2254,2776,4296,25,31,43,94,100,0
2243,2764,4275,-12,-17,-26,9507,0.10,-0.09,1.12,1.11,2254,2776,4296,25,31,43,94,100,0
2246,2767,4277,-10,-13,-23,9513,0.10,-0.09,1.12,1.11,2253,2776,4295,25,31,43,94,100,0
2249,2771,4283,-8,-9,-18,9530,0.10,-0.09,1.12,1.11,2253,2775,4295,25,31,43,94,100,0
2251,2775,4285,-6,-6,-15,9536,0.10,-0.09,1.12,1.11,2253,2775,4294,25,31,43,94,100,0
2252,2777,4288,-3,-3,-11,9543,0.10,-0.09,1.12,1.11,2253,2776,4294,25,31,43,94,100,0
2254,2780,4289,-1,0,-8,9547,0.10,-0.09,1.12,1.11,2253,2776,4294,25,31,43,94,100,0
2254,2781,4290,0,2,-6,9549,0.10,-0.09,1.12,1.11,2253,2776,4294,25,31,43,94,100,0
2258,2785,4294,1,4,-3,9559,0.10,-0.09,1.12,1.11,2253,2776,4294,25,31,43,94,100,0
2259,2787,4296,3,7,-1,9564,0.10,-0.09,1.12,1.11,2254,2776,4294,25,31,43,94,100,0
2260,2789,4298,4,9,0,9568,0.10,-0.09,1.12,1.11,2254,2777,4294,25,31,43,94,100,0
2260,2789,4299,5,11,2,9573,0.10,-0.09,1.12,1.11,2254,2777,4294,25,31,43,94,100,0
2263,2792,4302,6,12,4,9579,0.10,-0.09,1.12,1.11,2254,2778,4294,25,31,43,94,100,0
2266,2795,4306,8,13,7,9589,0.10,-0.09,1.12,1.11,2255,2778,4295,25,31,43,94,100,0
2267,2795,4306,9,14,8,9592,0.10,-0.09,1.12,1.11,2255,2779,4295,25,31,43,94,100,0
2266,2796,4307,10,15,10,9594,0.10,-0.09,1.12,1.11,2256,2780,4295,25,31,43,94,100,0
2267,2797,4307,11,16,11,9594,0.10,-0.09,1.12,1.11,2256,2780,4296,25,31,43,94,100,0
2264,2796,4306,10,16,11,9592,0.10,-0.09,1.12,1.11,2256,2781,4296,24,31,43,94,100,0
2260,2789,4294,8,14,7,9567,0.10,-0.09,1.12,1.11,2256,2781,4296,24,32,42,94,100,0
2257,2784,4290,6,10,3,9555,0.10,-0.09,1.18,1.09,2256,2781,4296,24,32,42,94,100,0
2253,2780,4283,2,6,-2,9540,0.10,-0.09,1.18,1.09,2256,2781,4296,24,32,42,94,100,0
2251,2776,4277,0,1,-9,9529,0.10,-0.09,1.18,1.09,2256,2781,4295,24,32,42,94,100,0
2248,2772,4272,-3,-2,-14,9519,0.10,-0.09,1.18,1.09,2256,2780,4294,24,32,42,94,100,0
2246,2768,4268,-6,-6,-19,9508,0.10,-0.09,1.18,1.09,2255,2780,4293,24,32,42,94,100,0
2246,2769,4268,-7,-9,-22,9509,0.10,-0.09,1.18,1.09,2255,2780,4292,24,32,42,94,100,0
2247,2771,4271,-8,-9,-23,9513,0.10,-0.09,1.18,1.09,2255,2779,4292,24,32,42,94,100,0
2248,2772,4273,-8,-9,-22,9519,0.10,-0.09,1.18,1.09,2255,2779,4291,24,32,42,94,100,0
2250,2775,4276,-7,-7,-19,9526,0.10,-0.09,1.18,1.09,2255,2779,4291,24,32,42,94,100,0
2251,2778,4278,-5,-5,-16,9532,0.10,-0.09,1.18,1.09,2254,2779,4290,24,32,42,94,100,0
2253,2781,4283,-4,-2,-13,9543,0.10,-0.09,1.18,1.09,2254,2779,4290,24,32,42,94,100,0
2254,2782,4285,-2,0,-9,9545,0.10,-0.09,1.18,1.09,2254,2779,4290,24,32,42,94,100,0
2254,2782,4287,-1,1,-6,9548,0.10,-0.09,1.18,1.09,2254,2779,4290,24,32,42,94,100,0
2254,2783,4289,0,3,-4,9552,0.10,-0.09,1.18,1.09,2254,2779,4290,24,32,42,94,100,0
2256,2784,4290,0,3,-2,9554,0.10,-0.09,1.18,1.09,2254,2780,4290,24,32,42,94,100,0
2256,2787,4292,1,4,0,9561,0.10,-0.09,1.18,1.09,2254,2780,4290,24,32,42,94,100,0
2258,2787,4292,1,5,0,9562,0.10,-0.09,1.18,1.09,2255,2780,4290,24,32,42,94,100,0
2258,2788,4292,2,6,1,9563,0.10,-0.09,1.18,1.09,2255,2780,4290,24,32,42,94,100,0
2260,2789,4293,3,7,2,9566,0.10,-0.09,1.18,1.09,2255,2781,4290,24,32,42,94,100,0
2260,2791,4295,4,8,3,9572,0.10,-0.09,1.18,1.09,2255,2781,4290,24,32,42,94,100,0
2262,2794,4296,5,9,4,9577,0.10,-0.09,1.18,1.09,2255,2781,4290,24,32,42,94,100,0
2262,2794,4297,5,10,5,9579,0.10,-0.09,1.18,1.09,2256,2782,4291,24,32,42,94,100,0
2263,2794,4297,6,11,5,9579,0.10,-0.09,1.18,1.09,2256,2782,4291,24,32,42,94,100,0
2261,2792,4296,6,11,5,9574,0.10,-0.09,1.18,1.09,2256,2783,4291,24,32,42,94,100,0
2258,2789,4292,5,9,4,9563,0.10,-0.09,1.18,1.09,2256,2783,4291,24,32,39,94,100,0
2251,2780,4279,2,6,0,9535,0.10,-0.09,1.27,1.17,2256,2783,4291,24,32,39,94,100,0
2249,2776,4274,-1,1,-5,9524,0.10,-0.09,1.27,1.17,2256,2782,4290,24,32,39,94,100,0
2246,2773,4267,-4,-3,-12,9511,0.10,-0.09,1.27,1.17,2255,2782,4289,24,32,39,94,100,0
2245,2769,4264,-7,-7,-18,9502,0.10,-0.09,1.27,1.17,2255,2782,4288,24,32,39,94,100,0
2242,2766,4260,-9,-10,-22,9495,0.10,-0.09,1.27,1.17,2254,2781,4287,24,32,39,94,100,0
2244,2771,4265,-10,-11,-23,9494,0.10,-0.09,1.27,1.17,2254,2781,4287,24,32,39,94,100,0
2245,2773,4268,-10,-11,-22,9512,0.10,-0.09,1.27,1.17,2254,2781,4286,24,32,39,94,100,0
2245,2774,4269,-10,-9,-20,9513,0.10,-0.09,1.27,1.17,2254,2780,4285,24,32,39,94,100,0
2246,2776,4272,-8,-7,-17,9518,0.10,-0.09,1.27,1.17,2253,2780,4285,24,32,39,94,100,0
2248,2777,4274,-7,-5,-14,9526,0.10,-0.09,1.27,1.17,2253,2780,4285,24,32,39,94,100,0
2251,2782,4276,-5,-2,-12,9532,0.10,-0.09,1.27,1.17,2253,2780,4284,24,32,39,94,100,0
2253,2783,4282,-3,0,-8,9545,0.10,-0.09,1.27,1.17,2253,2780,4284,24,32,39,94,100,0
2254,2785,4285,-1,1,-5,9549,0.10,-0.09,1.27,1.17,2253,2780,4284,24,32,39,94,100,0
2255,2787,4287,0,4,-1,9555,0.10,-0.09,1.27,1.17,2253,2781,4284,24,32,39,94,100,0
2256,2787,4289,1,5,1,9559,0.10,-0.09,1.27,1.17,2253,2781,4285,24,32,39,94,100,0
2257,2790,4290,2,6,3,9564,0.10,-0.09,1.27,1.17,2253,2781,4285,24,32,39,94,100,0
2259,2792,4292,3,7,4,9568,0.10,-0.09,1.27,1.17,2254,2782,4285,24,32,39,94,100,0
2260,2792,4292,4,8,5,9570,0.10,-0.09,1.27,1.17,2254,2782,4285,24,32,39,94,100,0
2260,2794,4293,5,10,6,9574,0.10,-0.09,1.27,1.17,2254,2782,4286,24,32,39,94,100,0
2262,2796,4294,6,11,7,9578,0.10,-0.09,1.27,1.17,2254,2783,4286,24,32,39,94,100,0
2262,2796,4294,6,12,7,9579,0.10,-0.09,1.27,1.17,2255,2783,4286,24,32,39,94,100,0
2261,2794,4293,6,12,7,9574,0.10,-0.09,1.27,1.17,2255,2784,4286,24,32,39,94,100,0
2259,2792,4290,6,11,6,9567,0.10,-0.09,1.27,1.17,2255,2784,4286,24,30,37,94,100,0
2256,2787,4282,4,8,3,9549,0.10,-0.09,1.25,1.23,2255,2784,4286,24,30,37,94,100,0
2252,2783,4275,2,5,-1,9535,0.10,-0.09,1.25,1.23,2255,2784,4286,24,30,37,94,100,0
2249,2779,4269,-1,1,-6,9523,0.10,-0.09,1.25,1.23,2255,2784,4285,24,30,37,94,100,0
2246,2775,4260,-4,-2,-14,9505,0.10,-0.09,1.25,1.23,2254,2783,4285,24,30,37,94,100,0
2245,2774,4257,-6,-5,-19,9501,0.10,-0.09,1.25,1.23,2254,2783,4284,24,30,37,94,100,0
2246,2775,4258,-7,-7,-23,9501,0.10,-0.09,1.25,1.23,2254,2783,4283,24,30,37,94,100,0
2247,2776,4261,-7,-8,-24,9509,0.10,-0.09,1.25,1.23,2253,2783,4282,24,30,37,94,100,0
2249,2779,4263,-6,-6,-22,9514,0.10,-0.09,1.25,1.23,2253,2782,4281,24,30,37,94,100,0
2251,2781,4268,-5,-4,-19,9526,0.10,-0.09,1.25,1.23,2253,2782,4281,24,30,37,94,100,0
2253,2785,4271,-3,-2,-15,9533,0.10,-0.09,1.25,1.23,2253,2783,4281,24,30,37,94,100,0
2253,2785,4273,-1,0,-12,9538,0.10,-0.09,1.25,1.23,2253,2783,4280,24,30,37,94,100,0
2255,2788,4275,0,2,-8,9543,0.10,-0.09,1.25,1.23,2253,2783,4280,24,30,37,94,100,0
2256,2789,4278,1,3,-6,9549,0.10,-0.09,1.25,1.23,2253,2783,4280,24,30,37,94,100,0
2260,2793,4281,2,5,-3,9555,0.10,-0.09,1.25,1.23,2254,2783,4280,24,30,37,94,100,0
2261,2795,4286,4,8,0,9567,0.10,-0.09,1.25,1.23,2254,2784,4280,24,30,37,94,100,0
2262,2798,4289,6,10,3,9575,0.10,-0.09,1.25,1.23,2254,2784,4281,24,30,37,94,100,0
2263,2798,4290,7,12,6,9578,0.10,-0.09,1.25,1.23,2254,2785,4281,24,30,37,94,100,0
2265,2800,4292,8,13,8,9581,0.10,-0.09,1.25,1.23,2255,2785,4281,24,30,37,94,100,0
2265,2801,4293,9,14,9,9585,0.10,-0.09,1.25,1.23,2255,2786,4282,24,30,37,94,100,0
2267,2803,4295,10,15,11,9590,0.10,-0.09,1.25,1.23,2256,2786,4282,24,30,37,94,100,0
2267,2804,4295,10,16,11,9593,0.10,-0.09,1.25,1.23,2256,2787,4283,24,30,37,94,100,0
2269,2805,4296,11,16,12,9595,0.10,-0.09,1.25,1.23,2256,2787,4283,24,30,37,94,100,0
2267,2804,4295,11,17,12,9593,0.10,-0.09,1.25,1.23,2257,2788,4283,24,30,37,94,100,0
2266,2802,4293,10,16,11,9586,0.10,-0.09,1.25,1.23,2257,2788,4284,24,29,36,94,100,0
2257,2791,4276,8,12,6,9548,0.10,-0.09,1.24,1.27,2257,2789,4283,24,29,36,94,100,0
2255,2787,4267,4,7,0,9534,0.10,-0.09,1.24,1.27,2257,2788,4283,24,29,36,94,100,0
2249,2781,4260,0,2,-9,9518,0.10,-0.09,1.24,1.27,2257,2788,4282,24,29,36,94,100,0
2247,2777,4253,-4,-4,-18,9500,0.10,-0.09,1.24,1.27,2256,2788,4281,24,29,36,94,100,0
2245,2771,4247,-7,-8,-24,9488,0.10,-0.09,1.24,1.27,2256,2787,4280,24,29,36,94,100,0
2243,2771,4247,-10,-12,-28,9487,0.10,-0.09,1.24,1.27,2256,2787,4279,24,29,36,94,100,0
2245,2776,4250,-10,-13,-30,9496,0.10,-0.09,1.24,1.27,2255,2786,4278,24,29,36,94,100,0
2245,2776,4252,-11,-13,-29,9498,0.10,-0.09,1.24,1.27,2255,2786,4277,24,29,36,94,100,0
2244,2777,4254,-11,-11,-26,9501,0.10,-0.09,1.24,1.27,2255,2786,4276,24,29,36,94,100,0
2247,2778,4258,-9,-9,-23,9505,0.10,-0.09,1.24,1.27,2254,2786,4276,24,29,36,94,100,0
2249,2781,4263,-8,-7,-19,9517,0.10,-0.09,1.24,1.27,2254,2785,4275,24,29,36,94,100,0
2251,2783,4265,-6,-5,-15,9526,0.10,-0.09,1.24,1.27,2254,2785,4275,24,29,36,94,100,0
2253,2786,4269,-4,-3,-11,9535,0.10,-0.09,1.24,1.27,2254,2785,4275,24,29,36,94,100,0
2256,2790,4272,-1,0,-7,9543,0.10,-0.09,1.24,1.27,2254,2785,4275,24,29,36,94,100,0
2256,2790,4274,0,2,-5,9546,0.10,-0.09,1.24,1.27,2254,2786,4275,24,29,36,94,100,0
2258,2794,4281,1,4,-1,9558,0.10,-0.09,1.24,1.27,2254,2786,4275,24,29,36,94,100,0
2260,2797,4282,3,7,2,9564,0.10,-0.09,1.24,1.27,2254,2786,4275,24,29,36,94,100,0
2262,2798,4284,4,8,5,9569,0.10,-0.09,1.24,1.27,2255,2787,4275,24,29,36,94,100,0
2263,2801,4287,6,11,8,9575,0.10,-0.09,1.24,1.27,2255,2787,4276,24,29,36,94,100,0
2264,2802,4289,7,12,10,9581,0.10,-0.09,1.24,1.27,2255,2788,4276,24,29,36,94,100,0
2267,2804,4291,8,13,11,9584,0.10,-0.09,1.24,1.27,2256,2788,4277,24,29,36,94,100,0
2268,2805,4291,10,15,13,9590,0.10,-0.09,1.24,1.27,2256,2789,4277,24,29,36,94,100,0
2267,2805,4292,10,15,13,9590,0.10,-0.09,1.24,1.27,2256,2789,4278,24,29,36,94,100,0
2265,2803,4290,10,15,13,9586,0.10,-0.09,1.24,1.27,2257,2790,4278,24,29,36,94,100,0
2262,2800,4284,9,13,11,9572,0.10,-0.09,1.24,1.27,2257,2790,4278,24,28,38,94,100,0
2252,2787,4274,4,9,7,9551,0.10,-0.09,1.13,1.20,2257,2790,4278,24,28,38,94,100,0
2249,2783,4257,0,3,-1,9513,0.10,-0.09,1.13,1.20,2256,2790,4277,24,28,38,94,100,0
2247,2778,4249,-4,-2,-11,9500,0.10,-0.09,1.13,1.20,2256,2789,4277,24,28,38,94,100,0
2245,2774,4243,-8,-9,-21,9486,0.10,-0.09,1.13,1.20,2256,2789,4275,24,28,38,94,100,0
2242,2770,4238,-10,-12,-29,9474,0.10,-0.09,1.13,1.20,2255,2788,4274,24,28,38,94,100,0
2243,2767,4236,-11,-16,-33,9469,0.10,-0.09,1.13,1.20,2255,2788,4273,24,28,38,94,100,0
2245,2774,4242,-11,-16,-33,9486,0.10,-0.09,1.13,1.20,2255,2787,4272,24,28,38,94,100,0
2247,2778,4244,-10,-15,-32,9492,0.10,-0.09,1.13,1.20,2254,2787,4271,24,28,38,94,100,0
2246,2779,4247,-9,-12,-29,9497,0.10,-0.09,1.13,1.20,2254,2786,4270,24,28,38,94,100,0
2249,2782,4250,-7,-8,-24,9505,0.10,-0.09,1.13,1.20,2254,2786,4269,24,28,38,94,100,0
2250,2784,4253,-6,-5,-21,9514,0.10,-0.09,1.13,1.20,2254,2786,4269,24,28,38,94,100,0
2255,2791,4260,-4,-2,-16,9532,0.10,-0.09,1.13,1.20,2254,2786,4269,24,28,38,94,100,0
2257,2793,4263,-1,1,-12,9538,0.10,-0.09,1.13,1.20,2254,2787,4268,24,28,38,94,100,0
2259,2795,4266,1,4,-8,9546,0.10,-0.09,1.13,1.20,2254,2787,4268,24,28,38,94,100,0
2259,2796,4268,3,7,-4,9549,0.10,-0.09,1.13,1.20,2254,2787,4268,24,28,38,94,100,0
2260,2798,4271,4,8,-1,9555,0.10,-0.09,1.13,1.20,2254,2788,4268,24,28,38,94,100,0
2262,2800,4275,5,9,1,9563,0.10,-0.09,1.13,1.20,2255,2788,4269,24,28,38,94,100,0
2263,2801,4276,6,11,4,9566,0.10,-0.09,1.13,1.20,2255,2788,4269,24,28,38,94,100,0
2264,2803,4278,7,12,6,9572,0.10,-0.09,1.13,1.20,2255,2789,4269,24,28,38,94,100,0
2267,2805,4281,8,13,8,9577,0.10,-0.09,1.13,1.20,2256,2789,4270,24,28,38,94,100,0
2267,2807,4282,9,15,9,9583,0.10,-0.09,1.13,1.20,2256,2790,4270,24,28,38,94,100,0
2270,2809,4285,11,16,11,9592,0.10,-0.09,1.13,1.20,2256,2791,4271,24,28,38,94,100,0
2270,2810,4287,12,17,13,9595,0.10,-0.09,1.13,1.20,2257,2791,4271,24,28,38,94,100,0
2271,2811,4287,13,18,14,9593,0.10,-0.09,1.13,1.20,2257,2792,4272,24,28,38,94,100,0
2266,2806,4280,12,17,13,9579,0.10,-0.09,1.13,1.20,2258,2792,4272,24,30,40,94,100,0
2262,2800,4271,9,14,9,9559,0.10,-0.09,1.15,1.14,2258,2793,4272,24,30,40,94,100,0
2255,2791,4256,5,9,1,9527,0.10,-0.09,1.15,1.14,2258,2793,4271,24,30,40,94,100,0
2253,2787,4250,1,3,-7,9516,0.10,-0.09,1.15,1.14,2258,2792,4271,24,30,40,94,100,0
2251,2785,4244,-2,-1,-15,9504,0.10,-0.09,1.15,1.14,2257,2792,4270,24,30,40,94,100,0
2251,2784,4241,-5,-5,-22,9499,0.10,-0.09,1.15,1.14,2257,2792,4269,24,30,40,94,100,0
2250,2785,4241,-6,-6,-25,9502,0.10,-0.09,1.15,1.14,2257,2792,4268,24,30,40,94,100,0
2252,2788,4244,-6,-6,-26,9506,0.10,-0.09,1.15,1.14,2257,2792,4267,24,30,40,94,100,0
2252,2787,4247,-5,-5,-24,9510,0.10,-0.09,1.15,1.14,2257,2791,4266,24,30,40,94,100,0
2250,2786,4248,-5,-5,-21,9509,0.10,-0.09,1.15,1.14,2256,2791,4266,24,30,40,94,100,0
2250,2787,4250,-5,-4,-18,9513,0.10,-0.09,1.15,1.14,2256,2791,4265,24,30,40,94,100,0
2253,2790,4254,-5,-3,-15,9522,0.10,-0.09,1.15,1.14,2256,2791,4265,24,30,40,94,100,0
2255,2790,4255,-4,-2,-13,9525,0.10,-0.09,1.15,1.14,2256,2791,4264,24,30,40,94,100,0
2255,2792,4260,-2,-1,-9,9533,0.10,-0.09,1.15,1.14,2256,2791,4264,24,30,40,94,100,0
2255,2793,4261,-1,0,-6,9533,0.10,-0.09,1.15,1.14,2256,2791,4264,24,30,40,94,100,0
2255,2794,4262,-1,1,-4,9534,0.10,-0.09,1.15,1.14,2256,2791,4264,24,30,40,94,100,0
2254,2792,4262,-1,1,-2,9534,0.10,-0.09,1.15,1.14,2256,2791,4264,24,30,40,94,100,0
2255,2793,4265,-1,2,-1,9538,0.10,-0.09,1.15,1.14,2256,2791,4264,24,30,40,94,100,0
2257,2796,4268,0,2,0,9546,0.10,-0.09,1.15,1.14,2256,2792,4264,24,30,40,94,100,0
2257,2797,4269,0,3,2,9549,0.10,-0.09,1.15,1.14,2256,2792,4264,24,30,40,94,100,0
2258,2797,4270,0,4,3,9551,0.10,-0.09,1.15,1.14,2256,2792,4265,24,30,40,94,100,0
2259,2799,4271,1,5,5,9554,0.10,-0.09,1.15,1.14,2256,2792,4265,24,30,40,94,100,0
2260,2801,4272,2,6,5,9557,0.10,-0.09,1.15,1.14,2256,2792,4265,24,30,40,94,100,0
2259,2799,4273,3,6,6,9558,0.10,-0.09,1.15,1.14,2256,2793,4265,24,30,40,94,100,0
2258,2798,4271,3,6,6,9553,0.10,-0.09,1.15,1.14,2256,2793,4266,24,30,40,94,100,0
2255,2794,4264,2,5,4,9540,0.10,-0.09,1.15,1.14,2256,2793,4265,24,30,38,94,100,0
2252,2790,4258,0,2,1,9525,0.10,-0.09,1.21,1.19,2256,2793,4265,24,30,38,94,100,0
2249,2786,4251,-2,-1,-4,9510,0.10,-0.09,1.21,1.19,2256,2793,4265,24,30,38,94,100,0
2246,2781,4242,-5,-5,-11,9493,0.10,-0.09,1.21,1.19,2256,2792,4264,24,30,38,94,100,0
2244,2778,4239,-8,-8,-16,9487,0.10,-0.09,1.21,1.19,2255,2792,4263,24,30,38,94,100,0
2246,2780,4238,-9,-10,-21,9486,0.10,-0.09,1.21,1.19,2255,2791,4262,24,30,38,94,100,0
2246,2780,4241,-9,-11,-22,9492,0.10,-0.09,1.21,1.19,2255,2791,4262,24,30,38,94,100,0
2247,2783,4243,-9,-11,-21,9496,0.10,-0.09,1.21,1.19,2254,2791,4261,24,30,38,94,100,0
2250,2788,4248,-7,-8,-19,9503,0.10,-0.09,1.21,1.19,2254,2791,4261,24,30,38,94,100,0
2251,2789,4250,-5,-5,-15,9515,0.10,-0.09,1.21,1.19,2254,2790,4260,24,30,38,94,100,0
2251,2789,4252,-4,-3,-12,9518,0.10,-0.09,1.21,1.19,2254,2790,4260,24,30,38,94,100,0
2254,2792,4255,-2,0,-9,9527,0.10,-0.09,1.21,1.19,2254,2790,4260,24,30,38,94,100,0
2254,2792,4257,-1,0,-6,9529,0.10,-0.09,1.21,1.19,2254,2791,4260,24,30,38,94,100,0
2255,2794,4259,0,1,-4,9532,0.10,-0.09,1.21,1.19,2254,2791,4260,24,30,38,94,100,0
2255,2796,4262,0,2,-1,9539,0.10,-0.09,1.21,1.19,2254,2791,4260,24,30,38,94,100,0
2255,2795,4262,0,3,0,9540,0.10,-0.09,1.21,1.19,2254,2791,4260,24,30,38,94,100,0
2257,2796,4264,1,4,1,9543,0.10,-0.09,1.21,1.19,2254,2791,4260,24,30,38,94,100,0
2257,2798,4265,2,5,3,9544,0.10,-0.09,1.21,1.19,2254,2791,4260,24,30,38,94,100,0
2257,2799,4266,2,5,4,9547,0.10,-0.09,1.21,1.19,2254,2792,4260,24,30,38,94,100,0
2258,2799,4268,3,6,5,9553,0.10,-0.09,1.21,1.19,2255,2792,4261,24,30,38,94,100,0
2259,2800,4268,3,7,6,9552,0.10,-0.09,1.21,1.19,2255,2792,4261,24,30,38,94,100,0
2259,2800,4268,3,7,6,9553,0.10,-0.09,1.21,1.19,2255,2792,4261,24,30,38,94,100,0
2258,2800,4268,3,7,7,9552,0.10,-0.09,1.21,1.19,2255,2793,4261,24,30,38,94,100,0
2258,2799,4266,3,7,6,9549,0.10,-0.09,1.21,1.19,2255,2793,4261,24,30,36,94,100,0
2251,2791,4253,1,4,2,9521,0.10,-0.09,1.27,1.26,2255,2793,4261,24,30,36,94,100,0
2248,2788,4246,-1,1,-2,9507,0.10,-0.09,1.27,1.26,2255,2793,4261,24,30,36,94,100,0
2247,2785,4241,-3,-2,-9,9498,0.10,-0.09,1.27,1.26,2254,2792,4260,24,30,36,94,100,0
2247,2782,4238,-6,-6,-15,9491,0.10,-0.09,1.27,1.26,2254,2792,4259,24,30,36,94,100,0
2244,2777,4233,-7,-9,-20,9479,0.10,-0.09,1.27,1.26,2254,2792,4258,24,30,36,94,100,0
2244,2779,4234,-8,-11,-22,9483,0.10,-0.09,1.27,1.26,2253,2791,4258,24,30,36,94,100,0
2246,2783,4239,-8,-11,-22,9491,0.10,-0.09,1.27,1.26,2253,2791,4257,24,30,36,94,100,0
2246,2785,4240,-8,-10,-20,9495,0.10,-0.09,1.27,1.26,2253,2791,4256,24,30,36,94,100,0
2247,2786,4242,-7,-7,-18,9501,0.10,-0.09,1.27,1.26,2253,2790,4256,24,30,36,94,100,0
2247,2786,4244,-6,-5,-15,9502,0.10,-0.09,1.27,1.26,2253,2790,4256,24,30,36,94,100,0
2248,2787,4249,-5,-4,-12,9503,0.10,-0.09,1.27,1.26,2252,2790,4255,24,30,36,94,100,0
2249,2789,4250,-4,-3,-9,9516,0.10,-0.09,1.27,1.26,2252,2790,4255,24,30,36,94,100,0
2250,2791,4253,-3,-1,-6,9520,0.10,-0.09,1.27,1.26,2252,2790,4255,24,30,36,94,100,0
2251,2792,4255,-2,0,-3,9525,0.10,-0.09,1.27,1.26,2252,2790,4255,24,30,36,94,100,0
2253,2794,4257,-1,1,-1,9529,0.10,-0.09,1.27,1.26,2252,2790,4255,24,30,36,94,100,0
2255,2796,4258,0,3,0,9533,0.10,-0.09,1.27,1.26,2252,2791,4255,24,30,36,94,100,0
2257,2798,4262,1,4,3,9541,0.10,-0.09,1.27,1.26,2253,2791,4255,24,30,36,94,100,0
2256,2798,4261,2,5,4,9542,0.10,-0.09,1.27,1.26,2253,2791,4256,24,30,36,94,100,0
2257,2800,4262,3,7,5,9544,0.10,-0.09,1.27,1.26,2253,2791,4256,24,30,36,94,100,0
2257,2800,4262,3,7,6,9546,0.10,-0.09,1.27,1.26,2253,2792,4256,24,30,36,94,100,0
2258,2801,4263,4,8,6,9547,0.10,-0.09,1.27,1.26,2253,2792,4256,24,30,36,94,100,0
2258,2801,4264,4,8,6,9550,0.10,-0.09,1.27,1.26,2253,2792,4257,24,30,36,94,100,0
2257,2800,4264,4,8,6,9546,0.10,-0.09,1.27,1.26,2253,2793,4257,24,30,36,94,100,0
2255,2797,4258,4,7,5,9537,0.10,-0.09,1.27,1.26,2253,2793,4257,24,30,34,94,100,0
2252,2793,4252,2,5,2,9520,0.10,-0.09,1.34,1.33,2253,2793,4257,24,30,34,94,100,0
2248,2788,4243,0,1,-2,9503,0.10,-0.09,1.34,1.33,2253,2793,4256,24,30,34,94,100,0
2244,2781,4234,-3,-3,-9,9482,0.10,-0.09,1.34,1.33,2253,2792,4255,24,30,34,94,100,0
2240,2776,4227,-7,-8,-16,9469,0.10,-0.09,1.34,1.33,2253,2792,4255,24,30,34,94,100,0
2240,2776,4225,-9,-11,-22,9464,0.10,-0.09,1.34,1.33,2252,2791,4254,24,30,34,94,100,0
2239,2775,4224,-11,-14,-26,9464,0.10,-0.09,1.34,1.33,2252,2791,4253,24,30,34,94,100,0
2242,2778,4227,-11,-14,-27,9469,0.10,-0.09,1.34,1.33,2251,2790,4252,24,30,34,94,100,0
2242,2781,4232,-10,-13,-25,9478,0.10,-0.09,1.34,1.33,2251,2790,4251,24,30,34,94,100,0
2245,2783,4236,-9,-11,-21,9485,0.10,-0.09,1.34,1.33,2251,2790,4250,24,30,34,94,100,0
2245,2785,4238,-7,-8,-17,9491,0.10,-0.09,1.34,1.33,2251,2789,4250,24,30,34,94,100,0
2248,2788,4240,-6,-5,-13,9499,0.10,-0.09,1.34,1.33,2251,2789,4250,24,30,34,94,100,0
2248,2788,4242,-4,-3,-10,9505,0.10,-0.09,1.34,1.33,2250,2789,4249,24,30,34,94,100,0
2251,2794,4248,-2,0,-7,9512,0.10,-0.09,1.34,1.33,2250,2789,4249,24,30,34,94,100,0
2253,2795,4251,0,2,-4,9527,0.10,-0.09,1.34,1.33,2251,2790,4250,24,30,34,94,100,0
2253,2796,4253,0,3,-1,9528,0.10,-0.09,1.34,1.33,2251,2790,4250,24,30,34,94,100,0
2254,2797,4253,2,5,1,9531,0.10,-0.09,1.34,1.33,2251,2790,4250,24,30,34,94,100,0
2256,2799,4254,3,6,2,9537,0.10,-0.09,1.34,1.33,2251,2790,4250,24,30,34,94,100,0
2257,2799,4254,4,7,3,9537,0.10,-0.09,1.34,1.33,2251,2791,4250,24,30,34,94,100,0
2257,2801,4257,5,8,4,9543,0.10,-0.09,1.34,1.33,2251,2791,4250,24,30,34,94,100,0
2259,2802,4258,6,9,5,9545,0.10,-0.09,1.34,1.33,2252,2791,4250,24,30,34,94,100,0
2259,2805,4260,6,10,7,9549,0.10,-0.09,1.34,1.33,2252,2792,4251,24,30,34,94,100,0
2260,2805,4260,7,11,8,9551,0.10,-0.09,1.34,1.33,2252,2792,4251,24,30,34,94,100,0
2260,2805,4261,7,12,9,9552,0.10,-0.09,1.34,1.33,2252,2793,4251,24,30,34,94,100,0
2258,2803,4258,7,12,8,9543,0.10,-0.09,1.34,1.33,2253,2793,4252,24,30,35,94,100,0
2254,2799,4251,5,10,6,9531,0.23,-0.09,1.30,1.29,2253,2793,4252,24,29,35,94,100,0
2251,2795,4244,3,7,2,9515,0.23,-0.09,1.30,1.29,2252,2793,4251,24,29,35,94,100,0
2249,2790,4238,0,3,-3,9501,0.23,-0.09,1.30,1.29,2252,2793,4251,24,29,35,94,100,0
2247,2786,4231,-2,0,-10,9488,0.23,-0.09,1.30,1.29,2252,2793,4250,24,29,35,94,100,0
2241,2778,4221,-5,-5,-16,9466,0.23,-0.09,1.30,1.29,2252,2793,4249,24,29,35,94,100,0
2242,2779,4222,-7,-9,-21,9467,0.23,-0.09,1.30,1.29,2252,2792,4248,24,29,35,94,100,0
2243,2780,4223,-8,-11,-24,9469,0.23,-0.09,1.30,1.29,2251,2792,4248,24,29,35,94,100,0
2243,2782,4226,-9,-12,-25,9477,0.23,-0.09,1.30,1.29,2251,2791,4247,24,29,35,94,100,0
2244,2784,4227,-8,-10,-22,9480,0.23,-0.09,1.30,1.29,2251,2791,4246,24,29,35,94,100,0
2246,2787,4233,-7,-8,-19,9490,0.23,-0.09,1.30,1.29,2251,2791,4246,24,29,35,94,100,0
2248,2789,4235,-5,-5,-15,9495,0.23,-0.09,1.30,1.29,2250,2791,4245,24,29,35,94,100,0
2248,2791,4238,-4,-3,-12,9501,0.23,-0.09,1.30,1.29,2250,2791,4245,24,29,35,94,100,0
2248,2792,4239,-2,-1,-9,9504,0.23,-0.09,1.30,1.29,2250,2791,4245,24,29,35,94,100,0
2250,2793,4242,-1,0,-6,9509,0.23,-0.09,1.30,1.29,2250,2791,4245,24,29,35,94,100,0
2252,2795,4246,0,1,-3,9521,0.23,-0.09,1.30,1.29,2250,2791,4245,24,29,35,94,100,0
2254,2799,4249,0,3,-1,9529,0.23,-0.09,1.30,1.29,2251,2791,4245,24,29,35,94,100,0
2255,2800,4249,2,5,1,9534,0.23,-0.09,1.30,1.29,2251,2792,4245,24,29,35,94,100,0
2257,2802,4251,3,7,3,9538,0.23,-0.09,1.30,1.29,2251,2792,4245,24,29,35,94,100,1
1383,1583,3828,-206,-285,-97,6712,0.23,-0.09,1.30,1.29,2222,2752,4231,24,29,33,94,100,1
406,220,3380,-646,-899,-304,3558,0.23,-0.09,1.35,1.38,2161,2667,4203,24,29,33,94,100,1
407,220,3389,-1071,-1493,-501,3581,0.23,-0.09,1.35,1.38,2103,2586,4176,24,29,33,94,100,1
408,221,3399,-1482,-2067,-691,3592,0.23,-0.09,1.35,1.38,2046,2507,4150,24,29,33,94,100,1
409,221,3408,-1668,-2327,-769,3601,0.23,-0.09,1.35,1.38,1992,2431,4125,24,29,33,94,100,1
410,222,3413,-1611,-2249,-736,3608,0.23,-0.09,1.35,1.38,1939,2357,4102,24,29,33,94,100,1
404,218,3356,-1558,-2174,-719,3592,0.23,-0.09,1.35,1.38,1888,2286,4077,24,29,33,94,100,1
398,215,3304,-1509,-2103,-718,3489,0.23,-0.09,1.35,1.38,1838,2217,4051,24,29,33,94,100,1
392,212,3256,-1462,-2035,-731,3437,0.23,-0.09,1.35,1.38,1790,2150,4024,24,29,37,94,100,1
389,210,3216,-1419,-1970,-754,3393,0.23,-0.09,1.47,1.46,1743,2085,3998,24,29,37,94,100,1
384,207,3181,-1376,-1907,-771,3354,0.23,-0.09,1.47,1.46,1698,2023,3970,24,29,37,94,100,1
379,204,3132,-1335,-1846,-787,3301,0.23,-0.09,1.47,1.46,1654,1962,3942,24,29,37,94,100,1
380,204,3129,-1293,-1787,-791,3298,0.23,-0.09,1.47,1.46,1612,1903,3915,24,29,37,94,100,1
380,204,3138,-1253,-1729,-784,3308,0.23,-0.09,1.47,1.46,1571,1847,3889,24,29,37,94,100,1
381,205,3150,-1212,-1671,-765,3321,0.23,-0.09,1.47,1.46,1531,1792,3865,24,29,37,94,100,1
384,206,3165,-1170,-1615,-732,3337,0.23,-0.09,1.47,1.46,1493,1739,3841,24,29,37,94,100,1
387,209,3195,-1129,-1560,-691,3370,0.23,-0.09,1.47,1.46,1456,1688,3820,24,29,37,94,100,1
388,209,3212,-1090,-1507,-651,3388,0.23,-0.09,1.47,1.46,1420,1639,3800,24,29,37,94,100,1
390,210,3231,-1051,-1455,-609,3408,0.23,-0.09,1.47,1.46,1386,1591,3781,24,29,37,94,100,1
393,211,3251,-1014,-1406,-568,3430,0.23,-0.09,1.47,1.46,1353,1545,3763,24,29,37,94,100,1
395,213,3269,-978,-1358,-531,3450,0.23,-0.09,1.47,1.46,1321,1501,3746,24,29,37,94,100,1
398,215,3304,-943,-1311,-491,3488,0.23,-0.09,1.47,1.46,1290,1458,3732,24,29,37,94,100,1
400,216,3319,-909,-1266,-454,3504,0.23,-0.09,1.47,1.46,1260,1417,3718,24,29,37,94,100,1
401,217,3329,-877,-1223,-420,3515,0.23,-0.09,1.47,1.46,1232,1377,3705,24,29,37,94,100,1
402,218,3343,-846,-1181,-388,3530,0.23,-0.09,1.47,1.46,1204,1338,3693,24,29,37,94,100,1
404,219,3355,-816,-1140,-363,3543,0.23,-0.09,1.47,1.46,1177,1301,3682,24,29,37,94,100,1
407,221,3378,-787,-1101,-336,3569,0.23,-0.09,1.47,1.46,1152,1265,3672,24,29,37,94,100,1
407,220,3386,-760,-1064,-311,3577,0.23,-0.09,1.47,1.46,1127,1230,3662,24,29,37,94,100,1
409,222,3398,-733,-1027,-288,3591,0.23,-0.09,1.47,1.46,1103,1196,3653,24,29,37,94,100,1
409,222,3407,-707,-992,-265,3601,0.23,-0.09,1.47,1.46,1080,1164,3645,24,29,37,94,100,1
410,222,3411,-683,-959,-248,3605,0.23,-0.09,1.47,1.46,1058,1132,3637,24,29,37,94,100,1
403,218,3349,-661,-927,-249,3536,0.23,-0.09,1.47,1.46,1036,1102,3628,24,29,164,94,100,1
398,216,3300,-642,-898,-265,3485,0.23,-0.09,0.58,0.51,1014,1072,3617,24,29,164,94,100,1
393,212,3256,-624,-870,-292,3436,0.23,-0.09,0.58,0.51,994,1044,3605,24,29,164,94,100,1
390,210,3221,-608,-844,-329,3397,0.23,-0.09,0.58,0.51,974,1016,3592,24,29,164,94,100,1
386,208,3191,-592,-818,-356,3365,0.23,-0.09,0.58,0.51,954,989,3578,24,29,164,94,100,1
383,206,3158,-576,-794,-378,3329,0.23,-0.09,0.58,0.51,935,963,3564,24,29,164,94,100,1
383,206,3161,-559,-769,-388,3333,0.23,-0.09,0.58,0.51,917,938,3551,24,29,164,94,100,1
385,207,3174,-542,-744,-386,3346,0.23,-0.09,0.58,0.51,899,913,3538,24,29,164,94,100,1
385,207,3183,-524,-719,-376,3357,0.23,-0.09,0.58,0.51,882,890,3527,24,29,164,94,100,1
387,209,3196,-505,-694,-354,3371,0.23,-0.09,0.58,0.51,865,867,3516,24,29,164,94,100,1
390,210,3222,-487,-670,-328,3399,0.23,-0.09,0.58,0.51,849,845,3506,24,29,164,94,100,1
391,211,3237,-469,-647,-302,3416,0.23,-0.09,0.58,0.51,834,824,3497,24,29,164,94,100,1
393,212,3252,-451,-624,-275,3431,0.23,-0.09,0.58,0.51,819,804,3489,24,29,164,94,100,1
395,214,3265,-434,-602,-249,3446,0.23,-0.09,0.58,0.51,805,784,3481,24,29,164,94,100,1
396,214,3284,-418,-581,-226,3466,0.23,-0.09,0.58,0.51,792,765,3475,24,29,164,94,100,1
399,216,3313,-403,-561,-200,3498,0.23,-0.09,0.58,0.51,779,747,3469,24,29,164,94,100,1
401,217,3324,-387,-541,-175,3510,0.23,-0.09,0.58,0.51,766,729,3464,24,29,164,94,100,1
402,218,3337,-373,-522,-152,3523,0.23,-0.09,0.58,0.51,754,712,3460,24,29,164,94,100,1
403,218,3349,-359,-503,-131,3537,0.23,-0.09,0.58,0.51,742,695,3456,24,29,164,94,100,1
405,220,3360,-345,-485,-115,3549,0.23,-0.09,0.58,0.51,731,680,3453,24,29,164,94,100,1
407,221,3384,-332,-468,-97,3575,0.23,-0.09,0.58,0.51,720,664,3451,24,29,164,94,100,1
408,221,3392,-320,-452,-81,3584,0.23,-0.09,0.58,0.51,710,650,3449,24,29,164,94,100,1
409,222,3398,-308,-436,-66,3591,0.23,-0.09,0.58,0.51,700,635,3447,24,29,164,94,100,1
408,222,3391,-297,-421,-56,3584,0.23,-0.09,0.58,0.51,690,622,3445,24,29,164,94,100,1
404,219,3356,-287,-407,-61,3546,0.23,-0.09,0.58,0.51,680,608,3442,24,29,206,94,100,1
394,213,3262,-281,-396,-90,3442,0.23,-0.09,0.80,0.59,671,595,3436,24,29,206,94,100,1
390,211,3222,-276,-385,-130,3399,0.23,-0.09,0.80,0.59,661,582,3429,24,29,206,94,100,1
386,208,3188,-272,-376,-175,3361,0.23,-0.09,0.80,0.59,652,570,3421,24,29,206,94,100,1
383,206,3158,-268,-366,-217,3329,0.23,-0.09,0.80,0.59,643,558,3413,24,29,206,94,100,1
381,205,3139,-262,-356,-239,3308,0.23,-0.09,0.80,0.59,635,546,3403,24,29,206,94,100,1
381,205,3138,-256,-346,-252,3308,0.23,-0.09,0.80,0.59,626,534,3395,24,29,206,94,100,1
381,205,3147,-249,-335,-253,3318,0.23,-0.09,0.80,0.59,618,523,3386,24,29,206,94,100,1
383,206,3159,-240,-323,-245,3329,0.23,-0.09,0.80,0.59,610,513,3379,24,29,206,94,100,1
384,207,3170,-232,-312,-229,3341,0.23,-0.09,0.80,0.59,603,503,3372,24,29,206,94,100,1
386,208,3182,-223,-301,-211,3355,0.23,-0.09,0.80,0.59,595,493,3365,24,29,206,94,100,1
389,210,3213,-213,-290,-188,3373,0.23,-0.09,0.80,0.59,589,483,3360,24,29,206,94,100,1
391,211,3231,-204,-279,-164,3408,0.23,-0.09,0.80,0.59,582,474,3356,24,29,206,94,100,1
392,212,3245,-196,-268,-140,3423,0.23,-0.09,0.80,0.59,576,466,3352,24,29,206,94,100,1
394,213,3262,-187,-258,-116,3441,0.23,-0.09,0.80,0.59,570,457,3349,24,29,206,94,100,1
395,214,3275,-180,-249,-97,3456,0.23,-0.09,0.80,0.59,564,449,3347,24,29,206,94,100,1
399,216,3290,-172,-239,-80,3473,0.23,-0.09,0.80,0.59,558,441,3345,24,29,206,94,100,1
399,216,3314,-164,-230,-61,3499,0.23,-0.09,0.80,0.59,553,434,3344,24,29,206,94,100,1
401,218,3323,-157,-221,-44,3509,0.23,-0.09,0.80,0.59,548,427,3343,24,29,206,94,100,1
401,217,3331,-150,-213,-29,3517,0.23,-0.09,0.80,0.59,543,420,3343,24,29,206,94,100,1
403,219,3346,-144,-206,-14,3534,0.23,-0.09,0.80,0.59,538,413,3343,24,29,206,94,100,1
405,219,3355,-138,-198,-4,3543,0.23,-0.09,0.80,0.59,534,406,3343,24,29,206,94,100,1
406,220,3370,-132,-191,7,3560,0.23,-0.09,0.80,0.59,530,400,3344,24,29,206,94,100,1
403,218,3347,-127,-184,11,3535,0.23,-0.09,0.80,0.59,525,394,3344,24,29,206,94,100,1
399,216,3301,-124,-178,0,3485,0.23,-0.09,0.80,0.59,521,388,3343,24,29,220,94,100,1
392,212,3247,-123,-174,-26,3426,0.23,-0.09,1.14,0.70,517,382,3340,24,29,220,94,100,1
382,209,3199,-124,-171,-67,3373,0.23,-0.09,1.14,0.70,512,377,3335,404,29,220,94,100,1
378,204,3113,-126,-169,-121,3282,0.23,-0.09,1.14,0.70,508,371,3328,404,29,220,94,100,1
374,201,3075,-128,-167,-172,3240,0.23,-0.09,1.14,0.70,503,365,3319,404,29,220,94,100,1
371,199,3050,-129,-165,-213,3214,0.23,-0.09,1.14,0.70,499,360,3310,404,29,220,94,100,1
372,200,3048,-127,-161,-243,3210,0.23,-0.09,1.14,0.70,495,354,3302,404,29,220,94,100,1
374,199,3054,-124,-157,-249,3217,0.23,-0.09,1.14,0.70,491,349,3293,404,29,220,94,100,1
374,201,3075,-120,-152,-241,3240,0.23,-0.09,1.14,0.70,487,344,3286,404,29,220,94,100,1
375,202,3085,-115,-146,-224,3250,0.23,-0.09,1.14,0.70,483,339,3279,404,29,220,94,100,1
377,203,3096,-110,-140,-205,3263,0.23,-0.09,1.14,0.70,480,335,3273,404,29,220,94,100,1
378,203,3110,-105,-135,-185,3277,0.23,-0.09,1.14,0.70,476,331,3268,404,29,220,94,100,1
381,205,3126,-100,-129,-166,3295,0.23,-0.09,1.14,0.70,473,326,3263,404,29,220,94,100,1
384,207,3158,-94,-124,-143,3330,0.23,-0.09,1.14,0.70,470,322,3260,404,29,220,94,100,1
385,208,3175,-89,-118,-119,3349,0.23,-0.09,1.14,0.70,467,319,3257,404,29,220,94,100,1
387,209,3193,-84,-113,-95,3367,0.23,-0.09,1.14,0.70,465,315,3255,404,29,220,94,100,1
389,210,3211,-79,-108,-72,3387,0.23,-0.09,1.14,0.70,462,311,3253,404,29,220,94,100,1
391,211,3228,-75,-103,-52,3406,0.23,-0.09,1.14,0.70,460,308,3252,404,29,220,94,100,1
394,213,3258,-70,-99,-30,3440,0.23,-0.09,1.14,0.70,457,305,3252,404,29,220,94,100,1
396,214,3274,-66,-94,-9,3457,0.23,-0.09,1.14,0.70,455,302,3253,404,29,220,94,100,1
397,215,3291,-61,-90,10,3475,0.23,-0.09,1.14,0.70,453,299,3254,404,29,220,94,100,1
399,216,3304,-57,-86,28,3489,0.23,-0.09,1.14,0.70,452,296,3256,404,29,220,94,100,1
400,217,3317,-54,-82,41,3503,0.23,-0.09,1.14,0.70,450,294,3258,404,29,220,94,100,1
394,213,3261,-53,-79,36,3443,0.23,-0.09,1.14,0.70,448,291,3258,404,29,238,94,100,1
388,209,3208,-53,-78,15,3384,0.23,-0.09,1.36,12.34,446,288,3257,404,29,238,94,100,1
384,207,3161,-55,-78,-19,3334,0.23,-0.09,1.36,12.34,444,285,3253,322,29,238,94,100,1
379,204,3118,-58,-78,-67,3287,0.23,-0.09,1.36,12.34,442,283,3249,322,29,238,94,100,1
375,201,3077,-61,-78,-109,3244,0.23,-0.09,1.36,12.34,440,280,3243,322,29,238,94,100,1
368,197,3018,-64,-79,-151,3179,0.23,-0.09,1.36,12.34,437,277,3236,322,584,238,94,100,1
368,197,3014,-66,-79,-182,3175,0.23,-0.09,1.36,12.34,435,275,3228,322,584,238,94,100,1
368,198,3019,-66,-77,-200,3180,0.23,-0.09,1.36,12.34,433,272,3221,322,584,238,94,100,1
370,199,3032,-65,-75,-204,3194,0.23,-0.09,1.36,12.34,431,270,3215,322,584,238,94,100,1
370,199,3041,-63,-72,-191,3204,0.23,-0.09,1.36,12.34,429,267,3209,322,584,238,94,100,1
373,200,3062,-59,-69,-173,3227,0.23,-0.09,1.36,12.34,427,265,3204,322,584,238,94,100,1
374,201,3074,-56,-66,-154,3239,0.23,-0.09,1.36,12.34,425,263,3200,322,584,238,94,100,1
376,203,3090,-52,-63,-135,3256,0.23,-0.09,1.36,12.34,423,261,3196,322,584,238,94,100,1
377,203,3104,-49,-60,-115,3272,0.23,-0.09,1.36,12.34,422,259,3193,322,584,238,94,100,1
380,205,3124,-45,-57,-97,3294,0.23,-0.09,1.36,12.34,420,257,3191,322,584,238,94,100,1
384,207,3162,-41,-53,-72,3335,0.23,-0.09,1.36,12.34,419,255,3190,322,584,238,94,100,1
386,208,3181,-38,-50,-48,3355,0.23,-0.09,1.36,12.34,418,254,3190,322,584,238,94,100,1
388,209,3199,-34,-47,-23,3374,0.23,-0.09,1.36,12.34,417,252,3190,322,584,238,94,100,1
390,211,3218,-30,-44,0,3395,0.23,-0.09,1.36,12.34,416,251,3191,322,584,238,94,100,1
391,211,3234,-27,-42,17,3412,0.23,-0.09,1.36,12.34,415,250,3192,322,584,238,94,100,1
394,213,3263,-25,-39,36,3444,0.23,-0.09,1.36,12.34,415,248,3195,322,584,238,94,100,1
396,214,3277,-22,-36,54,3458,0.23,-0.09,1.36,12.34,414,247,3197,322,584,238,94,100,1
397,215,3289,-19,-34,69,3473,0.23,-0.09,1.36,12.34,413,246,3200,322,584,238,94,100,1
397,215,3290,-17,-32,81,3473,0.23,-0.09,1.36,12.34,413,245,3203,322,584,238,94,100,1
395,214,3265,-16,-31,78,3446,0.23,-0.09,1.36,12.34,412,244,3206,322,584,250,94,100,1
384,207,3166,-19,-31,49,3338,0.23,-0.09,30.69,10.02,411,243,3204,254,584,250,94,100,1
379,204,3120,-22,-33,6,3288,0.23,-0.09,30.69,10.02,410,242,3201,254,584,250,94,100,1
375,201,3076,-27,-35,-45,3241,0.23,-0.09,30.69,10.02,409,240,3197,254,584,250,94,100,1
370,199,3035,-32,-38,-99,3198,0.23,-0.09,30.69,10.02,408,239,3192,254,584,250,94,100,1
367,197,3006,-35,-39,-134,3165,0.23,-0.09,30.69,10.02,406,237,3186,254,584,250,94,100,1
366,196,2997,-37,-39,-160,3156,0.23,-0.09,30.69,10.02,405,236,3179,254,584,250,94,100,1
367,198,3008,-38,-39,-171,3168,0.23,-0.09,30.69,10.02,404,235,3174,254,584,250,94,100,1
368,198,3018,-37,-38,-169,3180,0.23,-0.09,30.69,10.02,403,234,3168,254,584,250,94,100,1
370,199,3030,-35,-36,-158,3192,0.23,-0.09,30.69,10.02,402,232,3164,254,584,250,94,100,1
371,200,3043,-33,-34,-141,3206,0.23,-0.09,30.69,10.02,400,231,3160,254,584,250,94,100,1
375,202,3075,-30,-32,-120,3240,0.23,-0.09,30.69,10.02,400,230,3157,254,584,250,94,100,1
376,202,3091,-27,-29,-99,3258,0.23,-0.09,30.69,10.02,399,229,3155,254,584,250,94,100,1
379,204,3111,-24,-27,-76,3280,0.23,-0.09,30.69,10.02,398,229,3153,254,584,250,94,100,1
380,205,3131,-21,-25,-52,3302,0.23,-0.09,30.69,10.02,398,228,3153,254,584,250,94,100,1
383,206,3153,-18,-24,-32,3325,0.23,-0.09,30.69,10.02,397,227,3153,254,584,250,94,100,1
387,209,3191,-15,-21,-6,3367,0.23,-0.09,30.69,10.02,397,227,3154,254,584,250,94,100,1
389,211,3210,-12,-19,17,3388,0.23,-0.09,30.69,10.02,396,226,3156,254,584,250,94,100,1
390,211,3226,-9,-17,39,3405,0.23,-0.09,30.69,10.02,396,225,3158,254,584,250,94,100,1
392,212,3243,-6,-15,60,3423,0.23,-0.09,30.69,10.02,396,225,3161,254,584,250,94,100,1
394,213,3258,-4,-13,74,3440,0.23,-0.09,30.69,10.02,396,225,3164,254,584,250,94,100,1
397,215,3286,-2,-12,90,3471,0.23,-0.09,30.69,10.02,396,224,3168,254,584,250,94,100,1
398,216,3294,0,-10,104,3478,0.23,-0.09,30.69,10.02,396,224,3172,254,584,250,94,100,1
399,217,3304,1,-9,115,3489,0.23,-0.09,30.69,10.02,396,224,3177,254,584,250,94,100,1
398,216,3297,2,-8,120,3483,0.23,-0.09,30.69,10.02,396,224,3181,254,584,250,94,100,1
395,214,3264,1,-8,111,3446,0.23,-0.09,30.69,10.02,396,223,3184,200,584,260,94,100,1
384,207,3164,-2,-10,76,3337,0.23,-0.09,32.07,6.18,396,223,3183,200,446,260,98,100,1
379,205,3123,-6,-12,29,3293,0.23,-0.09,32.07,6.18,395,222,3181,200,446,260,98,100,1
375,202,3085,-12,-15,-22,3252,0.23,-0.09,32.07,6.18,395,221,3178,200,446,260,98,100,1
372,201,3053,-17,-18,-72,3216,0.23,-0.09,32.07,6.18,394,221,3174,200,446,260,98,100,1
369,198,3029,-20,-19,-103,3192,0.23,-0.09,32.07,6.18,393,220,3169,200,446,260,98,100,1
370,199,3033,-22,-20,-121,3197,0.23,-0.09,32.07,6.18,392,219,3164,200,446,260,98,100,1
371,200,3045,-22,-20,-126,3208,0.23,-0.09,32.07,6.18,392,219,3160,200,446,260,98,100,1
373,200,3056,-21,-19,-121,3221,0.23,-0.09,32.07,6.18,391,218,3157,200,446,260,98,100,1
374,201,3067,-19,-18,-108,3233,0.23,-0.09,32.07,6.18,390,217,3154,200,446,260,98,100,1
375,202,3082,-17,-17,-93,3249,0.23,-0.09,32.07,6.18,390,217,3151,200,446,260,98,100,1
379,205,3116,-15,-15,-72,3285,0.23,-0.09,32.07,6.18,390,217,3150,200,446,260,98,100,1
381,205,3135,-12,-13,-51,3306,0.23,-0.09,32.07,6.18,389,216,3150,200,446,260,98,100,1
383,207,3155,-10,-11,-28,3328,0.23,-0.09,32.07,6.18,389,216,3150,200,446,260,98,100,1
385,208,3176,-7,-10,-4,3350,0.23,-0.09,32.07,6.18,389,216,3151,200,446,260,98,100,1
387,209,3195,-5,-8,14,3371,0.23,-0.09,32.07,6.18,389,215,3152,200,446,260,98,100,1
391,211,3230,-2,-6,37,3409,0.23,-0.09,32.07,6.18,389,215,3155,200,446,260,98,100,1
393,213,3245,0,-5,57,3426,0.23,-0.09,32.07,6.18,389,215,3158,200,446,260,98,100,1
394,213,3259,2,-3,75,3440,0.23,-0.09,32.07,6.18,389,215,3161,200,446,260,98,100,1
396,214,3269,4,-2,91,3452,0.23,-0.09,32.07,6.18,389,215,3165,200,446,260,98,100,1
397,215,3288,5,-1,102,3472,0.23,-0.09,32.07,6.18,390,215,3169,200,446,260,98,100,1
399,217,3306,7,0,113,3492,0.23,-0.09,32.07,6.18,390,215,3173,200,446,260,98,100,1
398,215,3294,7,0,118,3479,0.23,-0.09,32.07,6.18,390,215,3177,200,446,260,98,100,1
395,214,3262,7,0,112,3444,0.23,-0.09,32.07,6.18,390,215,3180,200,446,256,98,100,1
389,210,3211,5,-1,90,3389,0.23,-0.09,25.77,6.37,390,215,3181,158,446,256,98,100,1
384,208,3164,1,-3,53,3337,0.23,-0.09,25.77,6.37,390,215,3181,158,446,256,98,100,1
376,202,3088,-4,-6,1,3256,0.23,-0.09,25.77,6.37,390,214,3178,158,446,256,96,100,1
372,201,3056,-9,-9,-48,3221,0.23,-0.09,25.77,6.37,389,214,3174,158,446,256,96,100,1
370,199,3032,-14,-11,-90,3195,0.23,-0.09,25.77,6.37,389,213,3169,158,446,256,96,100,1
370,199,3031,-17,-13,-119,3193,0.23,-0.09,25.77,6.37,388,213,3164,158,446,256,96,100,1
371,199,3039,-17,-13,-127,3202,0.23,-0.09,25.77,6.37,387,212,3160,158,446,256,96,100,1
374,201,3064,-16,-13,-121,3230,0.23,-0.09,25.77,6.37,387,212,3157,158,446,256,96,100,1
374,202,3074,-14,-12,-106,3240,0.23,-0.09,25.77,6.37,386,212,3154,158,446,256,96,100,1
376,203,3088,-12,-10,-89,3255,0.23,-0.09,25.77,6.37,386,211,3152,158,446,256,96,100,1
377,203,3102,-11,-9,-71,3270,0.23,-0.09,25.77,6.37,386,211,3150,158,446,256,96,100,1
380,205,3123,-9,-8,-54,3292,0.23,-0.09,25.77,6.37,386,211,3149,158,446,256,96,100,1
384,207,3160,-6,-6,-32,3333,0.23,-0.09,25.77,6.37,386,211,3150,158,446,256,96,100,1
386,209,3180,-4,-5,-8,3355,0.23,-0.09,25.77,6.37,386,211,3151,158,446,256,96,100,1
388,210,3197,-1,-3,14,3373,0.23,-0.09,25.77,6.37,386,211,3152,158,446,256,96,100,1
390,211,3217,1,-1,36,3395,0.23,-0.09,25.77,6.37,386,211,3154,158,446,256,96,100,1
391,212,3232,2,0,53,3412,0.23,-0.09,25.77,6.37,386,211,3157,158,446,256,96,100,1
394,214,3261,4,0,71,3444,0.23,-0.09,25.77,6.37,386,211,3160,158,446,256,96,100,1
396,215,3275,6,2,87,3458,0.23,-0.09,25.77,6.37,387,211,3164,158,446,256,96,100,1
397,216,3288,8,3,101,3472,0.23,-0.09,25.77,6.37,387,211,3168,158,446,256,96,100,1
398,216,3294,9,4,113,3480,0.23,-0.09,25.77,6.37,387,211,3173,158,446,256,96,100,1
400,217,3307,10,5,120,3493,0.23,-0.09,25.77,6.37,388,211,3177,158,446,256,96,100,1
394,214,3258,9,4,112,3441,0.23,-0.09,25.77,6.37,388,212,3180,125,446,254,96,100,1
388,210,3203,7,2,87,3379,1.83,-0.07,26.34,4.03,388,212,3181,125,446,254,96,100,1
382,207,3149,3,0,50,3322,1.83,-0.07,26.34,4.03,388,211,3179,125,446,254,96,100,1
378,204,3105,-2,-2,0,3273,1.83,-0.07,26.34,4.03,387,211,3177,125,446,254,94,100,1
373,201,3061,-7,-5,-48,3226,1.83,-0.07,26.34,4.03,387,211,3173,125,446,254,94,100,1
366,196,2994,-12,-8,-96,3154,1.83,-0.07,26.34,4.03,386,210,3167,125,446,254,94,100,1
365,196,2985,-15,-11,-133,3144,1.83,-0.07,26.34,4.03,385,210,3161,125,446,254,94,100,1
365,196,2990,-18,-12,-156,3149,1.83,-0.07,26.34,4.03,385,209,3155,125,446,254,94,100,1
367,197,3004,-19,-13,-165,3164,1.83,-0.07,26.34,4.03,384,209,3150,125,446,254,94,100,1
368,198,3017,-18,-12,-154,3177,1.83,-0.07,26.34,4.03,384,209,3146,125,446,254,94,100,1
371,200,3042,-16,-11,-135,3205,1.83,-0.07,26.34,4.03,383,208,3142,125,446,254,94,100,1
372,200,3055,-14,-9,-115,3219,1.83,-0.07,26.34,4.03,383,208,3140,125,446,254,94,100,1
375,202,3073,-11,-8,-94,3239,1.83,-0.07,26.34,4.03,383,208,3137,125,446,254,94,100,1
376,202,3090,-9,-7,-73,3257,1.83,-0.07,26.34,4.03,382,208,3136,125,446,254,94,100,1
379,204,3112,-7,-5,-54,3281,1.83,-0.07,26.34,4.03,382,207,3135,125,446,254,94,100,1
383,207,3152,-4,-3,-29,3324,1.83,-0.07,26.34,4.03,382,207,3136,125,446,254,94,100,1
385,208,3172,-1,-2,-4,3345,1.83,-0.07,26.34,4.03,382,208,3137,125,446,254,94,100,1
387,209,3190,1,0,19,3365,1.83,-0.07,26.34,4.03,383,208,3139,125,446,254,94,100,1
389,211,3209,3,1,42,3386,1.83,-0.07,26.34,4.03,383,208,3141,125,446,254,94,100,1
391,211,3228,5,1,59,3406,1.83,-0.07,26.34,4.03,383,208,3144,125,446,254,94,100,1
394,213,3261,7,3,79,3442,1.83,-0.07,26.34,4.03,383,208,3148,125,446,254,94,100,1
396,215,3272,9,4,96,3455,1.83,-0.07,26.34,4.03,384,208,3152,125,446,254,94,100,1
397,215,3286,11,5,111,3471,1.83,-0.07,26.34,4.03,384,208,3156,125,446,254,94,99,1
397,215,3289,12,6,122,3474,1.83,-0.07,26.34,4.03,385,209,3161,125,446,254,94,99,1
395,215,3268,11,6,120,3451,1.83,-0.07,26.34,4.03,385,209,3164,101,446,262,94,99,1
384,208,3168,8,4,91,3342,1.83,-0.07,25.77,3.17,385,209,3164,101,446,262,94,99,1
380,205,3121,4,1,48,3291,1.83,-0.07,25.77,3.17,385,209,3163,101,446,262,94,99,1
375,202,3079,-1,-1,-3,3245,1.83,-0.07,25.77,3.17,384,208,3160,101,446,262,94,99,1
371,200,3039,-7,-4,-59,3202,1.83,-0.07,25.77,3.17,384,208,3156,101,446,262,94,99,1
367,197,3006,-10,-7,-96,3165,1.83,-0.07,25.77,3.17,383,208,3151,101,446,262,94,99,1
366,196,2991,-13,-9,-124,3150,1.83,-0.07,25.77,3.17,383,207,3146,101,446,262,92,99,1
367,197,3003,-15,-10,-138,3162,1.83,-0.07,25.77,3.17,382,207,3141,101,446,262,92,99,1
369,198,3016,-15,-10,-139,3177,1.83,-0.07,25.77,3.17,382,207,3137,101,446,262,92,99,1
369,199,3027,-14,-9,-130,3189,1.83,-0.07,25.77,3.17,382,206,3133,101,446,262,92,99,1
371,200,3042,-12,-8,-113,3205,1.83,-0.07,25.77,3.17,381,206,3130,101,446,262,92,99,1
375,202,3074,-10,-6,-92,3240,1.83,-0.07,25.77,3.17,381,206,3128,101,446,262,92,99,1
376,203,3090,-8,-5,-71,3257,1.83,-0.07,25.77,3.17,381,206,3127,101,446,262,92,99,1
379,204,3111,-5,-3,-48,3279,1.83,-0.07,25.77,3.17,381,206,3126,101,446,262,92,99,1
381,205,3131,-3,-2,-25,3301,1.83,-0.07,25.77,3.17,381,206,3127,101,446,262,92,99,1
383,207,3152,-1,-1,-5,3324,1.83,-0.07,25.77,3.17,381,206,3127,101,446,262,92,99,1
387,209,3173,1,0,14,3347,1.83,-0.07,25.77,3.17,381,206,3129,101,446,262,92,99,1
389,211,3209,4,2,37,3386,1.83,-0.07,25.77,3.17,381,206,3132,101,446,262,92,99,1
390,211,3224,6,3,58,3402,1.83,-0.07,25.77,3.17,382,206,3135,101,446,262,92,99,1
392,213,3239,8,4,77,3419,1.83,-0.07,25.77,3.17,382,207,3138,101,446,262,92,99,1
394,213,3253,9,5,94,3435,1.83,-0.07,25.77,3.17,382,207,3142,101,446,262,92,99,1
395,214,3263,10,6,104,3446,1.83,-0.07,25.77,3.17,383,207,3146,101,446,262,92,99,1
397,216,3288,12,7,116,3472,1.83,-0.07,25.77,3.17,383,207,3151,101,446,262,92,99,1
399,216,3293,13,7,125,3477,1.83,-0.07,25.77,3.17,384,208,3156,101,446,262,92,99,1
396,215,3278,13,7,127,3463,1.83,-0.07,25.77,3.17,384,208,3160,101,446,262,92,99,1
392,212,3233,12,7,115,3413,1.83,-0.07,25.77,3.17,384,208,3162,83,446,263,92,99,1
386,209,3180,9,5,85,3354,1.83,-0.07,25.78,2.60,384,208,3163,83,446,263,93,99,1
376,203,3088,3,1,33,3255,1.83,-0.07,25.78,2.60,384,208,3160,83,446,263,93,99,1
371,200,3045,-2,-2,-23,3208,1.83,-0.07,25.78,2.60,384,208,3156,83,446,263,93,99,1
368,198,3012,-8,-5,-76,3173,1.83,-0.07,25.78,2.60,383,207,3152,83,446,263,93,99,1
365,196,2992,-13,-8,-119,3150,1.83,-0.07,25.78,2.60,383,207,3146,83,446,263,93,99,1
366,197,2992,-15,-9,-138,3151,1.83,-0.07,25.78,2.60,382,207,3141,83,446,263,93,99,1
368,198,3013,-15,-9,-141,3174,1.83,-0.07,25.78,2.60,382,206,3137,83,446,263,93,99,1
370,199,3027,-14,-9,-133,3188,1.83,-0.07,25.78,2.60,381,206,3133,83,446,263,93,99,1
370,200,3037,-13,-7,-118,3200,1.83,-0.07,25.78,2.60,381,206,3130,83,446,263,93,99,1
373,201,3054,-11,-6,-99,3217,1.83,-0.07,25.78,2.60,381,206,3127,83,446,263,93,99,1
374,202,3070,-9,-5,-81,3235,1.83,-0.07,25.78,2.60,380,206,3125,83,446,263,93,99,1
379,204,3108,-6,-4,-59,3278,1.83,-0.07,25.78,2.60,380,206,3125,83,446,263,93,99,1
381,205,3129,-3,-2,-35,3300,1.83,-0.07,25.78,2.60,380,205,3125,83,446,263,93,99,1
383,207,3149,0,-1,-11,3322,1.83,-0.07,25.78,2.60,380,206,3126,83,446,263,93,99,1
385,208,3168,1,0,12,3342,1.83,-0.07,25.78,2.60,381,206,3127,83,446,263,93,99,1
387,210,3189,3,1,32,3364,1.83,-0.07,25.78,2.60,381,206,3129,83,446,263,93,99,1
391,212,3223,5,3,53,3401,1.83,-0.07,25.78,2.60,381,206,3132,83,446,263,93,99,1
392,212,3237,7,4,73,3417,1.83,-0.07,25.78,2.60,381,206,3136,83,446,263,93,99,1
393,213,3248,9,5,90,3429,1.83,-0.07,25.78,2.60,382,206,3140,83,446,263,93,99,1
395,214,3260,11,6,104,3443,1.83,-0.07,25.78,2.60,382,207,3144,83,446,263,93,99,1
396,214,3271,12,6,112,3454,1.83,-0.07,25.78,2.60,383,207,3148,83,446,263,93,99,1
398,216,3290,13,7,121,3475,1.83,-0.07,25.78,2.60,383,207,3153,83,446,263,93,99,1
397,216,3286,13,8,126,3471,1.83,-0.07,25.78,2.60,384,207,3157,83,446,263,93,99,1
393,213,3248,12,7,119,3429,1.83,-0.07,25.78,2.60,384,208,3160,69,446,264,93,99,1
388,210,3198,10,6,97,3375,1.83,-0.07,25.67,2.15,384,208,3161,69,446,264,93,99,1
383,207,3152,6,3,61,3325,1.83,-0.07,25.67,2.15,384,208,3161,69,446,264,91,99,1
375,203,3112,0,0,17,3282,1.83,-0.07,25.67,2.15,384,208,3159,69,446,264,91,99,1
372,200,3049,-4,-2,-31,3214,1.83,-0.07,25.67,2.15,383,207,3156,69,446,264,91,99,1
370,199,3031,-8,-5,-71,3194,1.83,-0.07,25.67,2.15,383,207,3152,69,446,264,91,99,1
370,199,3029,-11,-7,-98,3191,1.83,-0.07,25.67,2.15,383,207,3148,69,446,264,91,99,1
371,200,3038,-12,-7,-113,3201,1.83,-0.07,25.67,2.15,382,207,3144,69,446,264,91,99,1
373,201,3051,-11,-7,-109,3216,1.83,-0.07,25.67,2.15,382,206,3141,69,446,264,91,99,1
375,203,3075,-10,-5,-94,3241,1.83,-0.07,25.67,2.15,382,206,3139,69,446,264,91,99,1
376,203,3086,-8,-4,-77,3253,1.83,-0.07,25.67,2.15,381,206,3137,69,446,264,91,99,1
378,204,3104,-6,-3,-59,3272,1.83,-0.07,25.67,2.15,381,206,3136,69,446,264,91,99,1
379,205,3120,-4,-2,-40,3290,1.83,-0.07,25.67,2.15,381,206,3135,69,446,264,91,99,1
382,206,3140,-2,-1,-23,3312,1.83,-0.07,25.67,2.15,381,206,3135,69,446,264,91,99,1
385,208,3175,0,0,-1,3351,1.83,-0.07,25.67,2.15,381,206,3137,69,446,264,91,99,1
388,210,3193,2,1,20,3369,1.83,-0.07,25.67,2.15,382,206,3139,69,446,264,91,99,1
388,210,3208,4,2,41,3386,1.83,-0.07,25.67,2.15,382,206,3141,69,446,264,91,99,1
391,212,3223,6,3,59,3402,1.83,-0.07,25.67,2.15,382,207,3144,69,446,264,91,99,1
392,213,3237,7,4,72,3418,1.83,-0.07,25.67,2.15,383,207,3147,69,446,264,91,99,1
395,214,3262,9,5,87,3445,1.83,-0.07,25.67,2.15,383,207,3150,69,446,264,91,99,1
395,215,3271,10,6,99,3455,1.83,-0.07,25.67,2.15,383,207,3155,69,446,264,91,99,1
398,216,3286,11,7,111,3470,1.83,-0.07,25.67,2.15,384,208,3159,69,446,264,91,99,1
398,216,3290,13,7,120,3476,1.83,-0.07,25.67,2.15,384,208,3163,69,446,264,91,99,1
398,216,3289,13,8,123,3474,1.83,-0.07,25.67,2.15,385,208,3167,69,446,264,91,99,1
389,211,3209,11,6,104,3387,1.83,-0.07,25.67,2.15,385,208,3169,58,446,257,91,99,1
384,208,3162,7,4,70,3335,1.83,-0.07,26.44,1.86,385,208,3169,58,446,257,91,99,1
379,205,3118,2,2,26,3289,1.83,-0.07,26.44,1.86,385,208,3167,58,446,257,91,99,1
376,203,3085,-2,-1,-23,3253,1.83,-0.07,26.44,1.86,384,208,3164,58,446,257,91,99,1
372,201,3054,-6,-3,-60,3219,1.83,-0.07,26.44,1.86,384,208,3161,58,446,257,91,99,1
369,199,3033,-10,-5,-89,3196,1.83,-0.07,26.44,1.86,383,207,3156,58,446,257,91,99,1
370,199,3034,-11,-7,-106,3197,1.83,-0.07,26.44,1.86,383,207,3152,58,446,257,91,99,1
372,201,3046,-12,-7,-112,3210,1.83,-0.07,26.44,1.86,383,207,3149,58,446,257,91,99,1
373,201,3057,-11,-7,-108,3223,1.83,-0.07,26.44,1.86,382,207,3146,58,446,257,91,99,1
374,202,3070,-10,-6,-95,3236,1.83,-0.07,26.44,1.86,382,207,3143,58,446,257,91,99,1
378,204,3084,-8,-4,-80,3251,1.83,-0.07,26.44,1.86,382,206,3141,58,446,257,91,99,1
380,205,3119,-5,-3,-60,3289,1.83,-0.07,26.44,1.86,382,206,3140,58,446,257,91,99,1
381,206,3135,-3,-2,-39,3307,1.83,-0.07,26.44,1.86,382,206,3140,58,446,257,91,99,1
383,207,3155,-1,0,-17,3328,1.83,-0.07,26.44,1.86,382,206,3141,58,446,257,91,99,1
385,208,3171,0,0,4,3346,1.83,-0.07,26.44,1.86,382,207,3142,58,446,257,91,99,1
387,210,3190,2,1,21,3366,1.83,-0.07,26.44,1.86,382,207,3143,58,446,257,91,99,1
391,212,3220,4,2,41,3399,1.83,-0.07,26.44,1.86,382,207,3146,58,446,257,91,99,1
391,212,3233,6,3,58,3413,1.83,-0.07,26.44,1.86,383,207,3149,58,446,257,91,99,1
393,213,3244,8,4,74,3426,1.83,-0.07,26.44,1.86,383,207,3152,58,446,257,91,99,1
394,214,3258,9,5,88,3440,1.83,-0.07,26.44,1.86,383,207,3155,58,446,257,91,99,1
395,215,3264,10,6,96,3448,1.83,-0.07,26.44,1.86,384,208,3159,58,446,257,91,99,1
397,216,3288,11,7,106,3473,1.83,-0.07,26.44,1.86,384,208,3163,58,446,257,91,99,1
396,216,3282,11,7,112,3467,1.83,-0.07,26.44,1.86,385,208,3167,58,446,257,91,99,1
392,213,3243,10,7,104,3425,1.83,-0.07,26.44,1.86,385,208,3170,50,446,249,91,99,1
387,210,3191,8,5,83,3367,1.83,-0.07,27.30,1.65,385,208,3171,50,446,249,91,99,1
382,207,3140,4,3,44,3311,1.83,-0.07,27.30,1.65,385,208,3170,50,446,249,91,99,1
373,201,3057,-1,0,-11,3222,1.83,-0.07,27.30,1.65,384,208,3166,50,446,249,91,98,1
368,199,3018,-7,-3,-65,3179,1.83,-0.07,27.30,1.65,384,208,3161,50,446,249,91,98,1
366,197,2989,-11,-6,-112,3148,1.83,-0.07,27.30,1.65,383,207,3155,50,446,249,91,98,1
364,196,2977,-15,-9,-147,3136,1.83,-0.07,27.30,1.65,383,207,3149,50,446,249,91,98,1
365,196,2982,-17,-10,-160,3141,1.83,-0.07,27.30,1.65,382,207,3144,50,446,249,91,98,1
367,197,3005,-17,-10,-158,3166,1.83,-0.07,27.30,1.65,382,206,3139,50,446,249,91,98,1
369,199,3016,-15,-9,-146,3179,1.83,-0.07,27.30,1.65,381,206,3135,50,446,249,91,98,1
369,199,3027,-14,-8,-129,3190,1.83,-0.07,27.30,1.65,381,206,3131,50,446,249,91,98,1
371,200,3041,-12,-7,-111,3205,1.83,-0.07,27.30,1.65,380,206,3128,50,446,249,91,98,1
373,201,3058,-10,-6,-94,3224,1.83,-0.07,27.30,1.65,380,206,3126,50,446,249,91,98,1
377,204,3095,-7,-5,-72,3263,1.83,-0.07,27.30,1.65,380,206,3125,50,446,249,91,98,1
378,204,3112,-5,-3,-49,3281,1.83,-0.07,27.30,1.65,380,205,3124,50,446,249,91,98,1
381,206,3132,-2,-1,-25,3304,1.83,-0.07,27.30,1.65,380,205,3125,50,446,249,91,98,1
382,207,3149,0,0,-3,3322,1.83,-0.07,27.30,1.65,380,206,3126,50,446,249,91,98,1
385,208,3165,1,0,14,3340,1.83,-0.07,27.30,1.65,380,206,3127,50,446,249,91,98,1
388,209,3182,3,1,30,3358,1.83,-0.07,27.30,1.65,381,206,3129,50,446,249,91,98,1
389,211,3210,5,2,48,3389,1.83,-0.07,27.30,1.65,381,206,3131,50,446,249,91,98,1
390,212,3221,7,4,64,3402,1.83,-0.07,27.30,1.65,381,206,3134,50,446,249,91,98,1
392,213,3235,8,5,79,3416,1.83,-0.07,27.30,1.65,381,206,3138,50,446,249,91,98,1
393,213,3246,9,6,92,3428,1.83,-0.07,27.30,1.65,382,207,3141,50,446,249,91,98,1
394,214,3255,10,6,99,3437,1.83,-0.07,27.30,1.65,382,207,3145,50,446,249,91,98,1
387,210,3188,9,5,88,3364,1.83,-0.07,27.30,1.65,382,207,3147,44,446,251,91,98,1
381,206,3131,6,3,60,3303,1.83,-0.07,27.01,1.44,382,207,3146,44,446,251,91,98,1
374,203,3077,2,1,17,3244,1.83,-0.07,27.01,1.44,382,207,3144,44,446,251,91,98,1
370,200,3029,-4,-2,-38,3193,1.83,-0.07,27.01,1.44,382,206,3140,44,446,251,91,98,1
364,196,2980,-9,-5,-87,3139,1.83,-0.07,27.01,1.44,381,206,3135,44,446,251,91,98,1
357,192,2911,-15,-8,-137,3064,1.83,-0.07,27.01,1.44,380,206,3127,44,446,251,91,98,1
356,191,2901,-19,-11,-175,3054,1.83,-0.07,27.01,1.44,380,205,3120,44,446,251,91,98,1
357,192,2909,-21,-12,-198,3062,1.83,-0.07,27.01,1.44,379,205,3113,44,446,251,91,98,1
358,192,2918,-22,-13,-206,3072,1.83,-0.07,27.01,1.44,378,204,3106,44,446,251,91,98,1
360,193,2930,-20,-12,-195,3085,1.83,-0.07,27.01,1.44,377,204,3100,44,446,251,91,98,1
362,195,2951,-18,-11,-176,3108,1.83,-0.07,27.01,1.44,377,204,3095,44,446,251,91,98,1
363,195,2964,-16,-10,-157,3121,1.83,-0.07,27.01,1.44,377,203,3091,44,446,251,91,98,1
365,196,2978,-14,-8,-137,3137,1.83,-0.07,27.01,1.44,376,203,3087,44,446,251,91,98,1
366,197,2995,-12,-7,-117,3155,1.83,-0.07,27.01,1.44,376,203,3084,44,446,251,91,98,1
368,198,3010,-10,-6,-99,3172,1.83,-0.07,27.01,1.44,376,203,3082,44,446,251,91,98,1
372,201,3047,-8,-5,-75,3192,1.83,-0.07,27.01,1.44,375,203,3080,44,446,251,91,98,1
374,202,3067,-5,-3,-51,3232,1.83,-0.07,27.01,1.44,375,203,3080,44,446,251,91,98,1
376,203,3084,-2,-2,-28,3252,1.83,-0.07,27.01,1.44,375,203,3080,44,446,251,91,98,1
378,204,3104,0,0,-4,3273,1.83,-0.07,27.01,1.44,375,203,3081,44,446,251,91,98,1
380,206,3124,1,0,14,3294,1.83,-0.07,27.01,1.44,376,203,3082,44,446,251,91,98,1
384,207,3142,4,2,31,3313,1.83,-0.07,27.01,1.44,376,203,3084,44,446,251,91,98,1
385,209,3175,6,3,52,3349,1.83,-0.07,27.01,1.44,376,203,3087,44,446,251,91,98,1
387,210,3188,7,5,71,3364,1.83,-0.07,27.01,1.44,377,203,3091,44,446,251,91,98,1
388,210,3197,9,5,86,3374,1.83,-0.07,27.01,1.44,377,204,3094,44,446,251,91,98,1
386,209,3184,9,6,93,3360,1.83,-0.07,27.01,1.44,377,204,3097,44,446,251,91,98,1
382,207,3143,8,5,82,3316,1.83,-0.07,27.01,1.44,377,204,3099,41,446,263,91,98,1
371,200,3042,4,2,44,3206,1.83,-0.07,25.76,1.28,377,204,3097,41,446,263,91,98,1
365,197,2992,-1,0,-6,3152,1.83,-0.07,25.76,1.28,377,203,3093,41,446,263,91,98,1
361,195,2949,-7,-3,-63,3106,1.83,-0.07,25.76,1.28,376,203,3089,41,446,263,91,98,1
357,192,2914,-13,-7,-116,3067,1.83,-0.07,25.76,1.28,376,203,3083,41,446,263,91,98,1
355,191,2894,-16,-9,-148,3045,1.83,-0.07,25.76,1.28,375,202,3076,41,446,263,91,98,1
356,191,2898,-18,-10,-166,3050,1.83,-0.07,25.76,1.28,374,202,3071,41,446,263,91,98,1
357,192,2910,-18,-10,-169,3063,1.83,-0.07,25.76,1.28,374,202,3065,41,446,263,91,98,1
358,192,2919,-17,-10,-162,3074,1.83,-0.07,25.76,1.28,373,201,3060,41,446,263,91,98,1
359,193,2929,-16,-9,-149,3084,1.83,-0.07,25.76,1.28,373,201,3056,41,446,263,91,98,1
360,194,2941,-14,-8,-133,3097,1.83,-0.07,25.76,1.28,372,201,3052,41,446,263,91,98,1
364,196,2971,-12,-7,-114,3129,1.83,-0.07,25.76,1.28,372,201,3049,41,446,263,91,98,1
365,196,2986,-10,-6,-94,3146,1.83,-0.07,25.76,1.28,372,201,3047,41,446,263,91,98,1
368,198,3006,-7,-4,-72,3167,1.83,-0.07,25.76,1.28,372,200,3046,41,446,263,91,98,1
369,199,3025,-5,-3,-49,3187,1.83,-0.07,25.76,1.28,372,200,3045,41,446,263,91,98,1
372,201,3045,-3,-1,-30,3209,1.83,-0.07,25.76,1.28,372,200,3045,41,446,263,91,98,1
376,203,3066,0,0,-10,3232,1.83,-0.07,25.76,1.28,372,201,3046,41,446,263,91,98,1
378,205,3107,1,1,14,3276,1.83,-0.07,25.76,1.28,372,201,3048,41,446,263,91,98,1
380,205,3125,4,2,38,3296,1.83,-0.07,25.76,1.28,372,201,3051,41,446,263,91,98,1
383,207,3146,7,4,61,3319,1.83,-0.07,25.76,1.28,373,201,3054,41,446,263,91,98,1
384,208,3161,8,5,82,3336,1.83,-0.07,25.76,1.28,373,201,3057,41,446,263,91,98,1
386,210,3181,10,6,97,3358,1.83,-0.07,25.76,1.28,373,202,3061,41,446,263,91,98,1
390,212,3218,12,7,116,3398,1.83,-0.07,25.76,1.28,374,202,3067,41,446,263,91,98,1
391,213,3229,14,9,133,3410,1.83,-0.07,25.76,1.28,374,202,3072,41,446,263,91,98,1
389,211,3215,15,9,141,3395,1.83,-0.07,25.76,1.28,375,203,3077,41,446,263,91,98,1
386,209,3179,14,8,136,3356,1.83,-0.07,25.76,1.28,375,203,3080,39,446,275,96,98,1
381,207,3138,11,7,112,3312,1.83,-0.07,24.61,1.16,376,203,3082,39,446,275,96,98,1
374,202,3074,7,4,71,3241,1.83,-0.07,24.61,1.16,375,203,3082,39,446,275,96,98,1
372,200,3047,3,1,28,3212,1.83,-0.07,24.61,1.16,375,203,3081,39,446,275,96,98,1
370,199,3029,-1,-1,-9,3192,1.83,-0.07,24.61,1.16,375,203,3079,39,446,275,96,98,1
368,199,3019,-4,-3,-37,3181,1.83,-0.07,24.61,1.16,375,203,3077,39,446,275,96,98,1
370,200,3030,-5,-3,-46,3192,1.83,-0.07,24.61,1.16,375,202,3075,39,446,275,96,98,1
374,202,3066,-4,-2,-40,3231,1.83,-0.07,24.61,1.16,375,202,3075,39,446,275,96,98,1
376,203,3082,-3,-1,-26,3250,1.83,-0.07,24.61,1.16,375,202,3075,39,446,275,96,98,1
378,204,3099,0,0,-6,3268,1.83,-0.07,24.61,1.16,375,203,3076,39,446,275,96,98,1
380,206,3122,2,1,16,3292,1.83,-0.07,24.61,1.16,375,203,3078,39,446,275,96,98,1
382,207,3142,4,2,34,3315,1.83,-0.07,24.61,1.16,375,203,3080,39,446,275,96,98,1
387,209,3187,6,3,58,3340,1.83,-0.07,24.61,1.16,376,203,3083,39,446,275,96,98,1
390,211,3208,9,5,82,3386,1.83,-0.07,24.61,1.16,376,203,3088,39,446,275,96,98,1
392,212,3228,11,6,105,3408,1.83,-0.07,24.61,1.16,377,204,3092,39,446,275,96,98,1
393,213,3248,14,7,127,3429,1.83,-0.07,24.61,1.16,377,204,3097,39,446,275,96,98,1
396,215,3265,15,9,142,3448,1.83,-0.07,24.61,1.16,378,204,3103,39,446,275,96,98,1
400,216,3286,17,9,156,3471,1.83,-0.07,24.61,1.16,379,205,3109,39,446,275,96,98,1
400,218,3316,19,11,172,3503,1.83,-0.07,24.61,1.16,379,205,3116,39,446,275,96,98,1
402,219,3323,20,12,184,3510,1.83,-0.07,24.61,1.16,380,205,3123,39,446,275,96,98,1
403,219,3333,21,12,195,3522,1.83,-0.07,24.61,1.16,381,206,3130,39,446,275,96,98,1
404,220,3341,21,13,201,3530,1.83,-0.07,24.61,1.16,382,206,3137,39,446,275,96,98,1
405,221,3350,22,13,203,3540,1.83,-0.07,24.61,1.16,382,207,3144,39,446,275,96,98,1
403,220,3334,21,13,199,3523,1.83,-0.07,24.61,1.16,383,207,3150,36,446,268,96,98,1
398,216,3292,19,12,182,3478,1.83,-0.07,25.32,1.10,384,208,3155,36,446,268,96,98,1
393,214,3247,16,10,154,3429,1.83,-0.07,25.32,1.10,384,208,3158,36,446,268,96,98,1
389,211,3204,12,7,113,3383,1.83,-0.07,25.32,1.10,384,208,3160,36,446,268,96,98,1
385,209,3167,7,4,69,3341,1.83,-0.07,25.32,1.10,384,208,3160,36,446,268,96,98,1
379,204,3111,2,1,23,3280,1.83,-0.07,25.32,1.10,384,208,3158,36,446,268,96,98,1
378,204,3103,-1,-1,-12,3272,1.83,-0.07,25.32,1.10,384,208,3156,36,446,268,96,98,1
378,205,3110,-4,-2,-34,3280,1.83,-0.07,25.32,1.10,384,208,3155,36,446,268,96,98,1
380,206,3126,-5,-3,-43,3296,1.83,-0.07,25.32,1.10,383,208,3154,36,446,268,96,98,1
381,207,3139,-4,-2,-35,3311,1.83,-0.07,25.32,1.10,383,208,3153,36,446,268,96,98,1
384,209,3164,-2,-1,-19,3339,1.83,-0.07,25.32,1.10,383,208,3154,36,446,268,96,98,1
385,209,3176,0,0,-2,3351,1.83,-0.07,25.32,1.10,383,208,3155,36,446,268,96,98,1
388,210,3192,1,0,13,3368,1.83,-0.07,25.32,1.10,384,208,3156,36,446,268,96,98,1
389,211,3205,3,1,28,3383,1.83,-0.07,25.32,1.10,384,208,3157,36,446,268,96,98,1
391,212,3220,4,2,41,3400,1.83,-0.07,25.32,1.10,384,208,3160,36,446,268,96,98,1
393,214,3247,6,3,57,3428,1.83,-0.07,25.32,1.10,384,208,3162,36,446,268,96,98,1
395,215,3261,7,5,72,3444,1.83,-0.07,25.32,1.10,385,208,3166,36,446,268,96,98,1
395,215,3267,9,5,84,3452,1.83,-0.07,25.32,1.10,385,209,3169,36,446,268,96,98,1
397,216,3282,10,6,96,3468,1.83,-0.07,25.32,1.10,385,209,3173,36,446,268,96,98,1
398,216,3289,11,6,103,3475,1.83,-0.07,25.32,1.10,386,209,3177,36,446,268,96,98,1
400,218,3298,12,7,109,3484,1.83,-0.07,25.32,1.10,386,209,3181,36,446,268,96,98,1
401,218,3316,13,7,117,3504,1.83,-0.07,25.32,1.10,387,210,3185,36,446,268,96,98,1
402,219,3321,13,8,122,3511,1.83,-0.07,25.32,1.10,387,210,3190,36,446,268,96,98,1
401,218,3320,14,8,126,3510,1.83,-0.07,25.32,1.10,388,210,3194,36,446,268,96,98,1
400,218,3303,13,8,123,3490,1.83,-0.07,25.32,1.10,388,210,3198,36,446,244,96,98,1
389,211,3256,10,6,104,3440,1.98,-0.06,27.84,1.22,388,210,3200,36,446,244,96,98,1
384,208,3156,5,3,61,3330,1.98,-0.06,27.84,1.22,388,210,3198,36,446,244,96,98,1
379,205,3114,0,0,9,3285,1.98,-0.06,27.84,1.22,388,210,3195,36,446,244,96,98,1
375,203,3078,-6,-3,-45,3246,1.98,-0.06,27.84,1.22,387,210,3192,36,446,244,96,98,1
371,200,3043,-10,-6,-95,3208,1.98,-0.06,27.84,1.22,387,210,3187,36,446,244,96,98,1
369,200,3021,-13,-7,-124,3184,1.98,-0.06,27.84,1.22,386,209,3181,36,446,244,96,98,1
369,199,3023,-15,-9,-142,3185,1.98,-0.06,27.84,1.22,386,209,3176,36,446,244,96,98,1
370,200,3031,-16,-9,-149,3194,1.98,-0.06,27.84,1.22,385,209,3171,36,446,244,96,98,1
371,200,3040,-15,-9,-145,3204,1.98,-0.06,27.84,1.22,385,208,3167,36,446,244,96,98,1
373,201,3050,-14,-8,-133,3214,1.98,-0.06,27.84,1.22,384,208,3163,36,446,244,96,98,1
373,202,3062,-12,-7,-119,3227,1.98,-0.06,27.84,1.22,384,208,3159,36,446,244,96,98,1
376,203,3090,-11,-6,-101,3258,1.98,-0.06,27.84,1.22,384,208,3157,36,446,244,96,98,1
378,205,3104,-8,-5,-82,3273,1.98,-0.06,27.84,1.22,383,208,3155,36,446,244,96,98,1
380,205,3119,-6,-4,-62,3291,1.98,-0.06,27.84,1.22,383,208,3154,36,446,244,96,98,1
381,207,3135,-4,-3,-42,3308,1.98,-0.06,27.84,1.22,383,208,3153,36,446,244,96,98,1
383,208,3154,-2,-1,-25,3328,1.98,-0.06,27.84,1.22,383,208,3153,36,446,244,96,98,1
387,210,3185,0,0,-5,3361,1.98,-0.06,27.84,1.22,383,208,3154,36,446,244,96,98,1
387,210,3195,1,0,13,3373,1.98,-0.06,27.84,1.22,383,208,3156,36,446,244,96,98,1
389,211,3206,3,1,29,3384,1.98,-0.06,27.84,1.22,384,208,3158,36,446,244,96,98,1
390,212,3214,4,2,43,3394,1.98,-0.06,27.84,1.22,384,208,3159,36,446,244,96,98,1
391,212,3224,5,3,51,3404,1.98,-0.06,27.84,1.22,384,208,3162,36,446,244,96,98,1
393,213,3243,6,4,61,3425,1.98,-0.06,27.84,1.22,384,208,3164,36,446,244,96,98,1
392,214,3239,7,4,67,3422,1.98,-0.06,27.84,1.22,385,208,3167,36,446,244,96,98,1
388,211,3202,6,4,61,3381,1.98,-0.06,27.84,1.22,385,209,3168,32,446,237,96,98,1
383,208,3147,4,3,41,3320,1.98,-0.06,28.52,1.11,385,209,3167,32,446,237,96,98,1
376,204,3090,0,0,2,3259,1.98,-0.06,28.52,1.11,384,208,3165,32,446,237,96,98,1
365,197,3037,-6,-3,-46,3201,1.98,-0.06,28.52,1.11,384,208,3160,32,446,237,96,98,1
359,193,2929,-13,-7,-110,3084,1.98,-0.06,28.52,1.11,383,207,3153,32,446,237,96,98,1
356,191,2893,-19,-11,-168,3044,1.98,-0.06,28.52,1.11,382,207,3144,32,446,237,96,98,1
353,190,2874,-24,-14,-214,3026,1.98,-0.06,28.52,1.11,381,206,3135,32,446,237,96,98,1
353,190,2873,-26,-15,-247,3024,1.98,-0.06,28.52,1.11,380,206,3126,32,446,237,96,98,1
355,190,2882,-26,-15,-250,3034,1.98,-0.06,28.52,1.11,379,205,3118,32,446,237,96,98,1
357,192,2901,-25,-15,-240,3054,1.98,-0.06,28.52,1.11,379,205,3111,32,446,237,96,98,1
357,191,2906,-23,-14,-224,3060,1.98,-0.06,28.52,1.11,378,204,3104,32,446,237,96,98,1
358,193,2918,-21,-13,-206,3073,1.98,-0.06,28.52,1.11,377,204,3098,32,446,237,96,98,1
359,193,2929,-20,-12,-187,3084,1.98,-0.06,28.52,1.11,377,204,3092,32,446,237,96,98,1
360,194,2942,-18,-11,-171,3098,1.98,-0.06,28.52,1.11,376,203,3087,32,446,237,96,98,1
363,196,2967,-16,-9,-151,3126,1.98,-0.06,28.52,1.11,376,203,3083,32,446,237,96,98,1
365,197,2983,-14,-8,-130,3142,1.98,-0.06,28.52,1.11,375,203,3080,32,446,237,96,98,1
366,198,2997,-12,-6,-109,3158,1.98,-0.06,28.52,1.11,375,203,3077,32,446,237,96,98,1
369,199,3015,-9,-5,-88,3177,1.98,-0.06,28.52,1.11,375,203,3075,32,446,237,96,98,1
370,200,3031,-7,-4,-70,3195,1.98,-0.06,28.52,1.11,375,203,3074,32,446,237,96,98,1
374,202,3068,-5,-3,-47,3235,1.98,-0.06,28.52,1.11,375,202,3073,32,446,237,96,98,1
376,203,3084,-2,-1,-24,3252,1.98,-0.06,28.52,1.11,375,203,3074,32,446,237,96,98,1
378,205,3103,0,0,-2,3272,1.98,-0.06,28.52,1.11,375,203,3075,32,446,237,96,98,1
379,205,3119,1,1,19,3290,1.98,-0.06,28.52,1.11,375,203,3076,32,446,237,96,98,1
382,207,3139,3,2,35,3311,1.98,-0.06,28.52,1.11,375,203,3078,32,446,237,96,98,1
381,207,3138,5,3,47,3311,1.98,-0.06,28.52,1.11,375,203,3080,32,446,237,96,98,1
377,204,3096,4,2,44,3265,1.98,-0.06,28.52,1.11,375,203,3081,32,446,252,96,98,1
371,200,3042,2,1,24,3207,1.98,-0.06,26.86,1.04,375,203,3080,32,446,252,96,98,1
366,198,2995,-1,0,-11,3155,1.98,-0.06,26.86,1.04,375,203,3077,32,446,252,96,98,1
361,194,2947,-6,-3,-57,3104,1.98,-0.06,26.86,1.04,374,202,3072,32,446,252,96,98,1
353,190,2878,-11,-7,-108,3029,1.98,-0.06,26.86,1.04,374,202,3066,32,446,252,96,98,1
352,189,2861,-16,-9,-148,3010,1.98,-0.06,26.86,1.04,373,202,3059,32,446,252,96,98,1
352,189,2860,-18,-11,-175,3009,1.98,-0.06,26.86,1.04,372,201,3052,32,446,252,96,98,1
353,189,2867,-20,-12,-189,3017,1.98,-0.06,26.86,1.04,372,201,3046,32,446,252,96,98,1
355,190,2881,-19,-11,-182,3032,1.98,-0.06,26.86,1.04,371,200,3041,32,446,252,96,98,1
357,192,2902,-17,-10,-166,3041,1.98,-0.06,26.86,1.04,371,200,3036,32,446,252,96,98,1
357,192,2912,-15,-9,-148,3066,1.98,-0.06,26.86,1.04,370,200,3032,32,446,252,96,98,1
359,193,2924,-13,-8,-129,3079,1.98,-0.06,26.86,1.04,370,200,3028,32,446,252,96,98,1
360,194,2939,-11,-7,-111,3095,1.98,-0.06,26.86,1.04,369,199,3025,32,446,252,96,98,1
362,195,2954,-10,-6,-94,3111,1.98,-0.06,26.86,1.04,369,199,3023,32,446,252,96,98,1
365,197,2972,-7,-4,-77,3131,1.98,-0.06,26.86,1.04,369,199,3021,32,446,252,96,98,1
368,199,3006,-5,-2,-54,3167,1.98,-0.06,26.86,1.04,369,199,3021,32,446,252,96,98,1
369,200,3022,-3,-1,-33,3185,1.98,-0.06,26.86,1.04,369,199,3021,32,446,252,96,98,1
372,201,3043,0,0,-10,3207,1.98,-0.06,26.86,1.04,369,199,3022,32,446,252,96,98,1
373,202,3062,1,1,11,3228,1.98,-0.06,26.86,1.04,369,199,3023,32,446,252,96,98,1
375,203,3081,3,2,29,3248,1.98,-0.06,26.86,1.04,369,200,3025,32,446,252,96,98,1
379,205,3115,5,3,50,3285,1.98,-0.06,26.86,1.04,370,200,3028,32,446,252,96,98,1
381,207,3131,7,4,70,3303,1.98,-0.06,26.86,1.04,370,200,3031,32,446,252,96,98,1
382,207,3146,9,5,88,3320,1.98,-0.06,26.86,1.04,371,200,3035,32,446,252,96,98,1
384,209,3159,11,7,104,3334,1.98,-0.06,26.86,1.04,371,200,3039,32,446,252,96,98,1
385,209,3168,12,7,113,3344,1.98,-0.06,26.86,1.04,371,201,3044,32,446,252,96,98,1
379,206,3112,11,7,105,3283,1.98,-0.06,26.86,1.04,372,201,3046,32,446,264,103,98,1
372,202,3057,8,5,80,3224,1.98,-0.06,25.60,0.99,372,201,3046,32,446,264,103,98,1
368,199,3012,4,3,42,3174,1.98,-0.06,25.60,0.99,372,201,3045,32,446,264,103,98,1
363,196,2968,-1,0,-7,3126,1.98,-0.06,25.60,0.99,371,201,3043,32,446,264,103,98,1
359,193,2928,-6,-3,-52,3083,1.98,-0.06,25.60,0.99,371,200,3039,32,446,264,103,98,1
354,190,2881,-10,-6,-92,3033,1.98,-0.06,25.60,0.99,370,200,3033,32,446,264,103,98,1
354,191,2883,-13,-7,-120,3035,1.98,-0.06,25.60,0.99,370,200,3028,32,446,264,103,98,1
355,191,2888,-14,-8,-136,3041,1.98,-0.06,25.60,0.99,369,200,3024,32,446,264,103,98,1
356,192,2900,-14,-8,-138,3053,1.98,-0.06,25.60,0.99,369,199,3020,32,446,264,103,98,1
357,192,2909,-13,-8,-127,3063,1.98,-0.06,25.60,0.99,368,199,3016,32,446,264,103,98,1
359,194,2932,-11,-7,-111,3087,1.98,-0.06,25.60,0.99,368,199,3013,32,446,264,103,98,1
361,194,2943,-10,-6,-94,3100,1.98,-0.06,25.60,0.99,368,199,3011,32,446,264,103,98,1
363,196,2960,-8,-5,-76,3118,1.98,-0.06,25.60,0.99,368,199,3009,32,446,264,103,98,1
364,196,2975,-6,-3,-57,3134,1.98,-0.06,25.60,0.99,368,198,3008,32,446,264,103,98,1
366,198,2995,-4,-2,-40,3155,1.98,-0.06,25.60,0.99,368,198,3008,32,446,264,103,98,1
370,200,3029,-2,-1,-18,3193,1.98,-0.06,25.60,0.99,368,199,3008,32,446,264,103,98,1
372,201,3046,0,0,2,3212,1.98,-0.06,25.60,0.99,368,199,3010,32,446,264,103,98,1
373,202,3063,2,1,24,3230,1.98,-0.06,25.60,0.99,368,199,3011,32,446,264,103,98,1
376,203,3082,4,2,44,3250,1.98,-0.06,25.60,0.99,368,199,3014,32,446,264,103,98,1
377,204,3099,6,3,59,3269,1.98,-0.06,25.60,0.99,368,199,3016,32,446,264,103,98,1
380,207,3131,8,5,78,3304,1.98,-0.06,25.60,0.99,369,199,3020,32,446,264,103,98,1
382,207,3145,10,6,95,3319,1.98,-0.06,25.60,0.99,369,200,3024,32,446,264,103,98,1
384,208,3158,11,7,111,3333,1.98,-0.06,25.60,0.99,370,200,3029,32,446,264,103,98,1
385,209,3165,13,8,123,3341,1.98,-0.06,25.60,0.99,370,200,3033,32,446,264,103,98,1
383,208,3153,13,8,124,3328,1.98,-0.06,25.60,0.99,371,200,3037,32,446,264,103,98,1
373,202,3060,10,6,99,3281,1.98,-0.06,25.60,0.99,371,200,3038,31,446,264,103,98,1
368,199,3014,6,4,61,3177,1.98,-0.06,25.66,0.96,371,200,3037,31,446,264,101,98,1
364,197,2971,1,1,12,3130,1.98,-0.06,25.66,0.96,370,200,3035,31,446,264,101,98,1
359,194,2933,-4,-2,-41,3088,1.98,-0.06,25.66,0.96,370,200,3032,31,446,264,101,98,1
356,192,2902,-8,-4,-78,3055,1.98,-0.06,25.66,0.96,370,200,3028,31,446,264,101,98,1
355,191,2890,-11,-6,-105,3042,1.98,-0.06,25.66,0.96,369,200,3023,31,446,264,101,98,1
356,192,2899,-13,-7,-119,3052,1.98,-0.06,25.66,0.96,369,199,3019,31,446,264,101,98,1
357,192,2907,-13,-7,-121,3061,1.98,-0.06,25.66,0.96,368,199,3015,31,446,264,101,98,1
358,193,2916,-12,-7,-114,3070,1.98,-0.06,25.66,0.96,368,199,3012,31,446,264,101,98,1
359,193,2927,-10,-6,-101,3082,1.98,-0.06,25.66,0.96,368,199,3009,31,446,264,101,98,1
362,195,2939,-8,-5,-88,3095,1.98,-0.06,25.66,0.96,367,199,3007,31,446,264,101,98,1
363,196,2968,-7,-4,-70,3126,1.98,-0.06,25.66,0.96,367,198,3005,31,446,264,101,98,1
365,197,2985,-5,-3,-51,3145,1.98,-0.06,25.66,0.96,367,198,3005,31,446,264,101,98,1
367,198,3001,-2,-1,-32,3162,1.98,-0.06,25.66,0.96,367,198,3004,31,446,264,101,98,1
369,199,3020,-1,0,-11,3183,1.98,-0.06,25.66,0.96,367,198,3005,31,446,264,101,98,1
373,201,3040,1,0,6,3204,1.98,-0.06,25.66,0.96,368,199,3006,31,446,264,101,98,1
375,204,3078,3,2,28,3245,1.98,-0.06,25.66,0.96,368,199,3009,31,446,264,101,98,1
377,204,3093,5,3,50,3262,1.98,-0.06,25.66,0.96,368,199,3011,31,446,264,101,98,1
379,205,3111,8,4,70,3281,1.98,-0.06,25.66,0.96,368,199,3015,31,446,264,101,98,1
380,206,3126,9,5,88,3297,1.98,-0.06,25.66,0.96,369,199,3018,31,446,264,101,98,1
382,207,3140,11,6,101,3313,1.98,-0.06,25.66,0.96,369,200,3022,31,446,264,101,98,1
384,209,3165,12,7,115,3341,1.98,-0.06,25.66,0.96,370,200,3027,31,446,264,101,98,1
385,209,3172,13,8,126,3348,1.98,-0.06,25.66,0.96,370,200,3032,31,446,264,101,98,1
383,208,3153,13,8,128,3328,1.98,-0.06,25.66,0.96,371,200,3036,31,446,264,101,98,1
378,205,3108,12,7,116,3279,1.98,-0.06,25.66,0.96,371,201,3039,30,446,260,101,98,1
372,202,3056,8,5,85,3222,1.98,-0.06,25.94,0.95,371,201,3039,30,446,260,100,98,1
362,196,2961,2,2,32,3119,1.98,-0.06,25.94,0.95,371,200,3036,30,446,260,100,98,1
357,193,2916,-3,-1,-26,3071,1.98,-0.06,25.94,0.95,370,200,3032,30,446,260,100,98,1
354,191,2884,-9,-4,-79,3035,1.98,-0.06,25.94,0.95,370,200,3028,30,446,260,100,98,1
352,189,2863,-13,-7,-123,3013,1.98,-0.06,25.94,0.95,369,200,3022,30,446,260,100,98,1
352,189,2861,-15,-9,-143,3011,1.98,-0.06,25.94,0.95,369,199,3017,30,446,260,100,98,1
354,191,2880,-16,-9,-147,3032,1.98,-0.06,25.94,0.95,368,199,3012,30,446,260,100,98,1
355,191,2889,-15,-9,-141,3042,1.98,-0.06,25.94,0.95,368,199,3008,30,446,260,100,98,1
356,191,2898,-13,-8,-128,3051,1.98,-0.06,25.94,0.95,367,198,3004,30,446,260,100,98,1
357,193,2910,-12,-7,-112,3064,1.98,-0.06,25.94,0.95,367,198,3001,30,446,260,100,98,1
358,193,2923,-10,-6,-98,3078,1.98,-0.06,25.94,0.95,367,198,2999,30,446,260,100,98,1
362,195,2954,-8,-5,-79,3111,1.98,-0.06,25.94,0.95,366,198,2997,30,446,260,100,98,1
364,197,2971,-6,-3,-58,3128,1.98,-0.06,25.94,0.95,366,198,2996,30,446,260,100,98,1
365,197,2988,-4,-2,-38,3148,1.98,-0.06,25.94,0.95,366,198,2996,30,446,260,100,98,1
367,198,3004,-1,-1,-17,3165,1.98,-0.06,25.94,0.95,366,198,2996,30,446,260,100,98,1
370,200,3024,0,0,0,3187,1.98,-0.06,25.94,0.95,366,198,2997,30,446,260,100,98,1
374,202,3062,2,1,22,3228,1.98,-0.06,25.94,0.95,367,198,2999,30,446,260,100,98,1
375,203,3078,5,2,43,3245,1.98,-0.06,25.94,0.95,367,198,3002,30,446,260,100,98,1
377,204,3094,7,4,63,3264,1.98,-0.06,25.94,0.95,367,198,3005,30,446,260,100,98,1
379,205,3110,9,5,82,3281,1.98,-0.06,25.94,0.95,368,199,3009,30,446,260,100,98,1
380,206,3125,10,6,94,3297,1.98,-0.06,25.94,0.95,368,199,3012,30,446,260,100,98,1
383,207,3149,11,6,108,3324,1.98,-0.06,25.94,0.95,369,199,3017,30,446,260,100,98,1
382,208,3138,12,7,115,3311,1.98,-0.06,25.94,0.95,369,199,3021,30,446,260,100,98,1
376,204,3094,11,7,108,3263,1.98,-0.06,25.94,0.95,369,200,3023,29,446,260,100,98,1
371,201,3038,9,5,83,3203,1.98,-0.06,25.93,0.91,369,200,3024,29,446,260,100,98,1
365,197,2986,4,2,41,3147,1.98,-0.06,25.93,0.91,369,200,3023,29,446,260,100,98,1
355,191,2889,-2,-1,-20,3041,1.98,-0.06,25.93,0.91,369,199,3018,29,446,260,100,98,1
351,189,2852,-8,-5,-78,3001,1.98,-0.06,25.93,0.91,368,199,3013,29,446,260,100,98,1
348,187,2828,-13,-8,-126,2976,1.98,-0.06,25.93,0.91,367,199,3007,29,446,260,100,98,1
348,186,2822,-17,-10,-161,2969,1.98,-0.06,25.93,0.91,367,198,3000,29,446,260,100,98,1
349,187,2832,-18,-11,-170,2981,1.98,-0.06,25.93,0.91,366,198,2995,29,446,260,100,98,1
351,189,2857,-17,-10,-163,3007,1.98,-0.06,25.93,0.91,366,197,2990,29,446,260,100,98,1
353,190,2866,-15,-9,-148,3016,1.98,-0.06,25.93,0.91,365,197,2986,29,446,260,100,98,1
353,190,2875,-14,-8,-130,3026,1.98,-0.06,25.93,0.91,365,197,2982,29,446,260,100,98,1
355,191,2886,-12,-7,-113,3039,1.98,-0.06,25.93,0.91,365,197,2979,29,446,260,100,98,1
356,192,2901,-10,-6,-99,3053,1.98,-0.06,25.93,0.91,364,197,2977,29,446,260,100,98,1
360,194,2932,-8,-5,-79,3087,1.98,-0.06,25.93,0.91,364,197,2975,29,446,260,100,98,1
361,195,2946,-6,-3,-60,3103,1.98,-0.06,25.93,0.91,364,196,2974,29,446,260,100,98,1
363,196,2963,-4,-2,-39,3122,1.98,-0.06,25.93,0.91,364,196,2974,29,446,260,100,98,1
364,197,2979,-2,0,-19,3139,1.98,-0.06,25.93,0.91,364,196,2974,29,446,260,100,98,1
367,198,2997,0,0,-3,3159,1.98,-0.06,25.93,0.91,364,197,2975,29,446,260,100,98,1
370,201,3034,2,1,18,3178,1.98,-0.06,25.93,0.91,364,197,2977,29,446,260,100,98,1
373,202,3054,4,2,39,3220,1.98,-0.06,25.93,0.91,365,197,2979,29,446,260,100,98,1
374,203,3070,6,4,60,3237,1.98,-0.06,25.93,0.91,365,197,2982,29,446,260,100,98,1
377,204,3089,8,5,80,3258,1.98,-0.06,25.93,0.91,365,197,2986,29,446,260,100,98,1
378,205,3104,10,6,95,3274,1.98,-0.06,25.93,0.91,366,198,2990,29,446,260,100,98,1
381,206,3122,12,7,108,3293,1.98,-0.06,25.93,0.91,366,198,2994,29,446,260,100,98,1
380,206,3122,13,7,117,3295,1.98,-0.06,25.93,0.91,367,198,2998,29,446,260,100,98,1
375,204,3081,12,7,111,3250,1.98,-0.06,25.93,0.91,367,198,3001,30,446,267,100,98,1
369,200,3026,9,6,89,3190,1.98,-0.06,25.32,0.92,367,198,3002,30,446,267,100,98,1
365,197,2977,5,3,51,3137,1.98,-0.06,25.32,0.92,367,198,3001,30,446,267,100,98,1
355,193,2928,-1,0,2,3083,1.98,-0.06,25.32,0.92,367,198,2999,30,446,267,100,98,1
351,189,2853,-6,-3,-53,3003,1.98,-0.06,25.32,0.92,366,198,2994,30,446,267,100,98,1
349,188,2834,-11,-6,-97,2982,1.98,-0.06,25.32,0.92,365,198,2988,30,446,267,100,98,1
348,187,2828,-15,-8,-130,2977,1.98,-0.06,25.32,0.92,365,197,2983,30,446,267,100,98,1
349,188,2838,-15,-9,-147,2987,1.98,-0.06,25.32,0.92,364,197,2978,30,446,267,100,98,1
352,189,2851,-15,-9,-143,3000,1.98,-0.06,25.32,0.92,364,197,2974,30,446,267,100,98,1
353,190,2871,-13,-8,-129,3021,1.98,-0.06,25.32,0.92,364,196,2971,30,446,267,100,98,1
354,191,2880,-11,-7,-112,3032,1.98,-0.06,25.32,0.92,363,196,2968,30,446,267,100,98,1
355,191,2893,-10,-6,-95,3046,1.98,-0.06,25.32,0.92,363,196,2965,30,446,267,100,98,1
357,192,2907,-8,-5,-79,3061,1.98,-0.06,25.32,0.92,363,196,2963,30,446,267,100,98,1
359,193,2923,-6,-4,-63,3078,1.98,-0.06,25.32,0.92,363,196,2962,30,446,267,100,98,1
362,195,2958,-4,-3,-42,3115,1.98,-0.06,25.32,0.92,363,196,2962,30,446,267,100,98,1
364,197,2975,-2,-1,-21,3135,1.98,-0.06,25.32,0.92,363,196,2962,30,446,267,100,98,1
366,198,2992,0,0,0,3153,1.98,-0.06,25.32,0.92,363,196,2963,30,446,267,100,98,1
368,199,3010,2,1,20,3172,1.98,-0.06,25.32,0.92,363,196,2965,30,446,267,100,98,1
370,201,3030,4,2,37,3194,1.98,-0.06,25.32,0.92,363,196,2967,30,446,267,100,98,1
374,203,3067,6,4,58,3235,1.98,-0.06,25.32,0.92,364,196,2970,30,446,267,100,98,1
375,203,3082,8,5,78,3251,1.98,-0.06,25.32,0.92,364,197,2974,30,446,267,100,98,1
377,205,3099,10,6,97,3270,1.98,-0.06,25.32,0.92,364,197,2978,30,446,267,100,98,1
379,206,3115,12,7,114,3287,1.98,-0.06,25.32,0.92,365,197,2983,30,446,267,100,98,1
381,207,3129,13,8,125,3302,1.98,-0.06,25.32,0.92,365,197,2988,30,446,267,100,98,1
379,206,3112,14,8,128,3283,1.98,-0.06,25.32,0.92,366,198,2992,30,446,267,100,98,1
374,203,3067,12,8,116,3234,1.98,-0.06,25.32,0.92,366,198,2994,29,446,269,100,98,1
368,199,3015,9,6,88,3178,1.98,-0.06,25.07,0.88,366,198,2995,29,446,269,100,98,1
364,197,2972,5,3,47,3132,1.98,-0.06,25.07,0.88,366,198,2994,29,446,269,99,98,1
359,194,2930,0,0,2,3086,1.98,-0.06,25.07,0.88,366,198,2992,29,446,269,99,98,1
353,190,2871,-4,-3,-45,3049,1.98,-0.06,25.07,0.88,365,198,2988,29,446,269,99,98,1
351,189,2861,-8,-5,-81,3011,1.98,-0.06,25.07,0.88,365,197,2984,29,446,269,99,98,1
353,190,2865,-11,-6,-104,3017,1.98,-0.06,25.07,0.88,365,197,2980,29,446,269,99,98,1
353,190,2878,-12,-7,-113,3029,1.98,-0.06,25.07,0.88,364,197,2976,29,446,269,99,98,1
355,191,2887,-11,-7,-105,3040,1.98,-0.06,25.07,0.88,364,197,2973,29,446,269,99,98,1
357,192,2899,-9,-6,-92,3053,1.98,-0.06,25.07,0.88,364,196,2971,29,446,269,99,98,1
359,194,2925,-7,-4,-75,3081,1.98,-0.06,25.07,0.88,363,196,2969,29,446,269,99,98,1
360,194,2938,-5,-3,-58,3094,1.98,-0.06,25.07,0.88,363,196,2968,29,446,269,99,98,1
362,196,2954,-3,-2,-40,3113,1.98,-0.06,25.07,0.88,363,196,2968,29,446,269,99,98,1
363,196,2970,-2,-1,-21,3129,1.98,-0.06,25.07,0.88,363,196,2968,29,446,269,99,98,1
366,198,2990,0,0,-5,3151,1.98,-0.06,25.07,0.88,363,196,2969,29,446,269,99,98,1
370,200,3026,2,1,16,3190,1.98,-0.06,25.07,0.88,364,196,2971,29,446,269,99,98,1
372,202,3045,4,2,37,3210,1.98,-0.06,25.07,0.88,364,197,2973,29,446,269,99,98,1
373,202,3061,6,4,58,3228,1.98,-0.06,25.07,0.88,364,197,2976,29,446,269,99,98,1
376,204,3081,8,5,78,3249,1.98,-0.06,25.07,0.88,365,197,2979,29,446,269,99,98,1
377,204,3095,10,6,92,3265,1.98,-0.06,25.07,0.88,365,197,2983,29,446,269,99,98,1
380,207,3126,11,7,109,3299,1.98,-0.06,25.07,0.88,366,198,2988,29,446,269,99,98,1
382,207,3139,13,8,124,3312,1.98,-0.06,25.07,0.88,366,198,2993,29,446,269,99,98,1
383,208,3149,14,8,136,3324,1.98,-0.06,25.07,0.88,367,198,2998,29,446,269,99,98,1
382,208,3146,15,9,144,3321,1.98,-0.06,25.07,0.88,367,199,3003,29,446,269,99,98,1
379,206,3115,14,8,137,3288,1.98,-0.06,25.07,0.88,368,199,3007,29,446,266,98,98,1
369,200,3020,10,6,103,3183,1.98,-0.06,25.34,0.89,368,199,3007,29,446,266,98,98,1
364,197,2978,6,3,59,3139,1.98,-0.06,25.34,0.89,367,199,3006,29,446,266,98,98,1
360,194,2939,0,0,7,3096,1.98,-0.06,25.34,0.89,367,199,3004,29,446,266,98,98,1
357,193,2909,-4,-2,-43,3063,1.98,-0.06,25.34,0.89,367,198,3001,29,446,266,98,98,1
355,191,2888,-7,-4,-73,3040,1.98,-0.06,25.34,0.89,366,198,2997,29,446,266,98,98,1
355,191,2890,-9,-6,-92,3037,1.98,-0.06,25.34,0.89,366,198,2994,29,446,266,98,98,1
356,192,2900,-10,-6,-99,3053,1.98,-0.06,25.34,0.89,366,198,2991,29,446,266,98,98,1
357,192,2909,-10,-6,-95,3064,1.98,-0.06,25.34,0.89,365,198,2988,29,446,266,98,98,1
358,193,2918,-9,-5,-85,3074,1.98,-0.06,25.34,0.89,365,197,2986,29,446,266,98,98,1
360,194,2931,-7,-4,-72,3087,1.98,-0.06,25.34,0.89,365,197,2984,29,446,266,98,98,1
363,194,2943,-5,-4,-59,3100,1.98,-0.06,25.34,0.89,365,197,2982,29,446,266,98,98,1
364,197,2974,-3,-2,-42,3134,1.98,-0.06,25.34,0.89,365,197,2982,29,446,266,98,98,1
366,198,2993,-1,-1,-22,3154,1.98,-0.06,25.34,0.89,365,197,2982,29,446,266,98,98,1
368,199,3010,0,0,-2,3173,1.98,-0.06,25.34,0.89,365,197,2983,29,446,266,98,98,1
370,200,3029,2,1,18,3193,1.98,-0.06,25.34,0.89,365,197,2985,29,446,266,98,98,1
372,202,3049,3,2,36,3214,1.98,-0.06,25.34,0.89,366,198,2987,29,446,266,98,98,1
376,204,3083,6,3,56,3251,1.98,-0.06,25.34,0.89,366,198,2990,29,446,266,98,98,1
377,205,3096,8,5,75,3266,1.98,-0.06,25.34,0.89,366,198,2994,29,446,266,98,98,1
379,206,3110,9,6,92,3282,1.98,-0.06,25.34,0.89,367,198,2998,29,446,266,98,98,1
380,207,3124,11,7,107,3297,1.98,-0.06,25.34,0.89,367,199,3002,29,446,266,98,98,1
382,207,3137,12,7,116,3311,1.98,-0.06,25.34,0.89,368,199,3006,29,446,266,98,98,1
383,208,3150,13,8,126,3325,1.98,-0.06,25.34,0.89,368,199,3011,29,446,266,98,98,1
380,207,3122,13,8,124,3295,1.98,-0.06,25.34,0.89,368,199,3015,29,446,256,98,98,1
374,203,3073,11,7,108,3241,1.96,-0.06,26.40,0.93,369,200,3017,27,446,256,98,98,1
369,200,3022,8,5,76,3186,1.96,-0.06,26.40,0.93,369,200,3017,27,446,256,98,98,1
364,197,2979,3,2,32,3139,1.96,-0.06,26.40,0.93,369,199,3016,27,446,256,97,98,1
356,192,2901,-3,-1,-21,3055,1.96,-0.06,26.40,0.93,368,199,3012,27,446,256,97,98,1
353,190,2871,-8,-4,-69,3024,1.96,-0.06,26.40,0.93,368,199,3007,27,446,256,97,98,1
352,190,2863,-11,-6,-105,3013,1.96,-0.06,26.40,0.93,367,199,3002,27,446,256,97,98,1
352,190,2863,-14,-8,-130,3014,1.96,-0.06,26.40,0.93,367,198,2998,27,446,256,97,98,1
354,191,2876,-14,-8,-132,3028,1.96,-0.06,26.40,0.93,366,198,2994,27,446,256,97,98,1
356,192,2896,-13,-7,-121,3049,1.96,-0.06,26.40,0.93,366,198,2990,27,446,256,97,98,1
357,193,2907,-11,-6,-107,3061,1.96,-0.06,26.40,0.93,365,198,2988,27,446,256,97,98,1
358,193,2918,-9,-5,-90,3074,1.96,-0.06,26.40,0.93,365,198,2985,27,446,256,97,98,1
361,195,2935,-7,-4,-72,3091,1.96,-0.06,26.40,0.93,365,197,2984,27,446,256,97,98,1
361,195,2949,-5,-3,-57,3107,1.96,-0.06,26.40,0.93,365,197,2982,27,446,256,97,98,1
365,197,2985,-3,-2,-36,3146,1.96,-0.06,26.40,0.93,365,197,2983,27,446,256,97,98,1
367,199,3002,-1,0,-15,3165,1.96,-0.06,26.40,0.93,365,197,2983,27,446,256,97,98,1
369,200,3020,0,0,6,3184,1.96,-0.06,26.40,0.93,365,198,2984,27,446,256,97,98,1
371,201,3038,3,1,27,3203,1.96,-0.06,26.40,0.93,365,198,2986,27,446,256,97,98,1
373,203,3056,4,3,43,3223,1.96,-0.06,26.40,0.93,366,198,2989,27,446,256,97,98,1
376,203,3072,6,3,59,3241,1.96,-0.06,26.40,0.93,366,198,2991,27,446,256,97,98,1
378,205,3102,8,5,76,3274,1.96,-0.06,26.40,0.93,366,198,2995,27,446,256,97,98,1
379,206,3115,10,6,92,3287,1.96,-0.06,26.40,0.93,367,198,2999,27,446,256,97,98,1
381,207,3129,12,7,107,3302,1.96,-0.06,26.40,0.93,367,199,3003,27,446,256,97,98,1
381,207,3138,12,7,119,3312,1.96,-0.06,26.40,0.93,368,199,3008,27,446,256,97,98,1
382,207,3136,13,8,124,3309,1.96,-0.06,26.40,0.93,368,199,3012,27,446,256,97,98,1
372,202,3046,11,6,103,3212,1.96,-0.06,26.40,0.93,368,199,3013,27,446,256,97,98,1
366,198,2993,7,4,66,3155,1.96,-0.06,26.38,0.86,368,199,3013,27,446,256,97,98,1
361,195,2944,2,1,17,3102,1.96,-0.06,26.38,0.86,368,199,3010,27,446,256,97,98,1
356,192,2900,-4,-2,-40,3054,1.96,-0.06,26.38,0.86,368,199,3007,27,446,256,97,98,1
352,189,2861,-9,-5,-83,3013,1.96,-0.06,26.38,0.86,367,199,3002,27,446,256,97,98,1
348,187,2825,-13,-8,-121,2973,1.96,-0.06,26.38,0.86,366,198,2996,27,446,256,96,98,1
349,188,2830,-15,-9,-144,2978,1.96,-0.06,26.38,0.86,366,198,2990,27,446,256,96,98,1
350,188,2841,-16,-10,-154,2990,1.96,-0.06,26.38,0.86,365,198,2985,27,446,256,96,98,1
351,189,2851,-16,-9,-151,3001,1.96,-0.06,26.38,0.86,365,197,2981,27,446,256,96,98,1
352,190,2862,-14,-8,-137,3012,1.96,-0.06,26.38,0.86,364,197,2977,27,446,256,96,98,1
355,192,2887,-12,-7,-119,3040,1.96,-0.06,26.38,0.86,364,197,2974,27,446,256,96,98,1
356,192,2899,-10,-6,-101,3053,1.96,-0.06,26.38,0.86,364,197,2971,27,446,256,96,98,1
358,193,2915,-8,-5,-82,3070,1.96,-0.06,26.38,0.86,364,197,2970,27,446,256,96,98,1
360,194,2931,-6,-4,-62,3088,1.96,-0.06,26.38,0.86,364,197,2968,27,446,256,96,98,1
361,195,2949,-5,-3,-45,3107,1.96,-0.06,26.38,0.86,363,196,2968,27,446,256,96,98,1
365,197,2986,-2,-1,-23,3147,1.96,-0.06,26.38,0.86,364,196,2968,27,446,256,96,98,1
368,199,3005,0,0,0,3168,1.96,-0.06,26.38,0.86,364,197,2969,27,446,256,96,98,1
369,200,3023,2,1,21,3186,1.96,-0.06,26.38,0.86,364,197,2971,27,446,256,96,98,1
371,201,3041,4,2,43,3206,1.96,-0.06,26.38,0.86,364,197,2974,27,446,256,96,98,1
373,202,3059,6,3,59,3226,1.96,-0.06,26.38,0.86,364,197,2976,27,446,256,96,98,1
377,205,3091,8,5,78,3242,1.96,-0.06,26.38,0.86,365,197,2980,27,446,256,96,98,1
377,205,3103,10,6,95,3274,1.96,-0.06,26.38,0.86,365,198,2984,27,446,256,96,98,1
379,206,3116,11,7,110,3289,1.96,-0.06,26.38,0.86,366,198,2989,27,446,256,96,98,1
379,206,3115,12,7,119,3287,1.96,-0.06,26.38,0.86,366,198,2993,27,446,256,96,98,1
376,204,3085,12,7,114,3254,1.96,-0.06,26.38,0.86,366,198,2996,27,446,260,96,98,1
365,198,3035,8,5,94,3199,1.96,-0.06,25.96,0.85,366,198,2997,28,446,260,96,98,1
360,195,2936,4,2,47,3092,1.96,-0.06,25.96,0.85,366,198,2995,28,446,260,96,98,1
354,191,2889,-2,-1,-8,3042,1.96,-0.06,25.96,0.85,366,198,2992,28,446,260,96,98,1
351,189,2853,-8,-4,-64,3003,1.96,-0.06,25.96,0.85,365,198,2987,28,446,260,96,98,1
348,187,2828,-12,-7,-112,2977,1.96,-0.06,25.96,0.85,365,197,2982,28,446,260,96,98,1
348,187,2819,-14,-9,-137,2966,1.96,-0.06,25.96,0.85,364,197,2976,28,446,260,95,98,1
348,188,2830,-15,-9,-146,2979,1.96,-0.06,25.96,0.85,364,197,2972,28,446,260,95,98,1
350,189,2842,-15,-9,-144,2991,1.96,-0.06,25.96,0.85,363,196,2967,28,446,260,95,98,1
351,189,2851,-14,-8,-134,3001,1.96,-0.06,25.96,0.85,363,196,2963,28,446,260,95,98,1
352,190,2862,-12,-7,-119,3012,1.96,-0.06,25.96,0.85,362,196,2960,28,446,260,95,98,1
355,190,2874,-10,-6,-104,3026,1.96,-0.06,25.96,0.85,362,196,2957,28,446,260,95,98,1
357,193,2905,-8,-5,-85,3058,1.96,-0.06,25.96,0.85,362,196,2955,28,446,260,95,98,1
358,193,2920,-6,-4,-66,3074,1.96,-0.06,25.96,0.85,362,196,2954,28,446,260,95,98,1
360,195,2938,-4,-3,-45,3095,1.96,-0.06,25.96,0.85,362,195,2954,28,446,260,95,98,1
362,196,2955,-2,-1,-24,3113,1.96,-0.06,25.96,0.85,362,196,2954,28,446,260,95,98,1
364,197,2976,-1,0,-6,3135,1.96,-0.06,25.96,0.85,362,196,2954,28,446,260,95,98,1
368,200,3012,1,1,15,3176,1.96,-0.06,25.96,0.85,362,196,2956,28,446,260,95,98,1
370,201,3031,4,2,37,3195,1.96,-0.06,25.96,0.85,362,196,2959,28,446,260,95,98,1
372,202,3047,6,4,58,3214,1.96,-0.06,25.96,0.85,363,196,2962,28,446,260,95,98,1
374,203,3065,8,5,78,3234,1.96,-0.06,25.96,0.85,363,196,2965,28,446,260,95,98,1
375,203,3078,10,6,91,3248,1.96,-0.06,25.96,0.85,363,197,2969,28,446,260,95,98,1
378,206,3109,11,7,107,3280,1.96,-0.06,25.96,0.85,364,197,2974,28,446,260,95,98,1
380,207,3120,13,8,121,3293,1.96,-0.06,25.96,0.85,364,197,2979,28,446,260,95,98,1
380,207,3121,14,8,130,3294,1.96,-0.06,25.96,0.85,365,197,2983,28,446,260,95,98,1
376,205,3092,14,9,129,3263,1.96,-0.06,25.96,0.85,365,198,2987,28,446,264,95,98,1
371,202,3044,11,7,109,3210,1.96,-0.06,25.49,0.87,366,198,2989,28,446,264,95,98,1
362,196,2952,7,4,65,3156,1.96,-0.06,25.49,0.87,365,198,2988,28,446,264,95,98,1
357,193,2909,1,1,12,3065,1.96,-0.06,25.49,0.87,365,198,2985,28,446,264,95,98,1
353,191,2874,-4,-2,-41,3026,1.96,-0.06,25.49,0.87,365,197,2981,28,446,264,95,98,1
351,189,2851,-9,-5,-86,3001,1.96,-0.06,25.49,0.87,364,197,2977,28,446,264,95,98,1
350,188,2841,-11,-7,-110,2990,1.96,-0.06,25.49,0.87,364,197,2972,28,446,264,95,98,1
351,189,2847,-12,-7,-121,2996,1.96,-0.06,25.49,0.87,363,197,2968,28,446,264,95,98,1
353,190,2868,-12,-7,-118,3019,1.96,-0.06,25.49,0.87,363,196,2965,28,446,264,95,98,1
353,191,2878,-11,-7,-108,3029,1.96,-0.06,25.49,0.87,363,196,2962,28,446,264,95,98,1
355,191,2888,-9,-6,-93,3041,1.96,-0.06,25.49,0.87,362,196,2959,28,446,264,95,98,1
356,192,2902,-8,-5,-77,3055,1.96,-0.06,25.49,0.87,362,196,2958,28,446,264,95,98,1
358,193,2917,-6,-4,-62,3072,1.96,-0.06,25.49,0.87,362,196,2956,28,446,264,95,98,1
361,195,2949,-4,-3,-43,3107,1.96,-0.06,25.49,0.87,362,196,2956,28,446,264,95,98,1
364,197,2968,-2,-1,-22,3128,1.96,-0.06,25.49,0.87,362,196,2956,28,446,264,95,98,1
365,198,2986,0,0,-1,3147,1.96,-0.06,25.49,0.87,362,196,2957,28,446,264,95,98,1
367,199,3006,2,1,20,3168,1.96,-0.06,25.49,0.87,362,196,2959,28,446,264,95,98,1
369,200,3024,4,2,37,3188,1.96,-0.06,25.49,0.87,363,196,2961,28,446,264,95,98,1
373,203,3059,6,4,58,3226,1.96,-0.06,25.49,0.87,363,196,2964,28,446,264,95,98,1
374,203,3073,8,5,77,3242,1.96,-0.06,25.49,0.87,363,197,2968,28,446,264,95,98,1
376,205,3088,9,6,94,3258,1.96,-0.06,25.49,0.87,364,197,2972,28,446,264,95,98,1
377,205,3101,11,7,110,3272,1.96,-0.06,25.49,0.87,364,197,2976,28,446,264,95,98,1
379,206,3113,12,7,119,3285,1.96,-0.06,25.49,0.87,365,197,2981,28,446,264,95,98,1
381,207,3135,13,8,130,3309,1.96,-0.06,25.49,0.87,365,198,2986,28,446,264,95,98,1
382,208,3133,14,9,137,3307,1.96,-0.06,25.49,0.87,366,198,2991,28,446,264,95,98,1
377,205,3100,14,8,132,3271,1.96,-0.06,25.49,0.87,366,198,2995,28,446,263,95,98,1
373,202,3056,12,7,113,3222,1.96,-0.06,25.65,0.87,366,198,2997,27,446,263,95,98,1
367,199,3009,8,5,79,3172,1.96,-0.06,25.65,0.87,366,198,2997,27,446,263,95,98,1
360,195,2939,3,2,30,3132,1.96,-0.06,25.65,0.87,366,198,2995,27,446,263,95,98,1
357,193,2909,-1,0,-17,3063,1.96,-0.06,25.65,0.87,366,198,2992,27,446,263,95,98,1
356,192,2891,-6,-3,-56,3044,1.96,-0.06,25.65,0.87,366,198,2989,27,446,263,95,98,1
355,191,2885,-8,-5,-84,3039,1.96,-0.06,25.65,0.87,365,198,2985,27,446,263,95,98,1
356,192,2895,-9,-6,-92,3049,1.96,-0.06,25.65,0.87,365,198,2982,27,446,263,95,98,1
358,193,2905,-9,-5,-90,3059,1.96,-0.06,25.65,0.87,365,197,2980,27,446,263,95,98,1
359,194,2923,-8,-5,-79,3079,1.96,-0.06,25.65,0.87,365,197,2978,27,446,263,95,98,1
359,194,2933,-6,-4,-65,3089,1.96,-0.06,25.65,0.87,364,197,2976,27,446,263,95,98,1
361,196,2946,-5,-2,-50,3104,1.96,-0.06,25.65,0.87,364,197,2975,27,446,263,95,98,1
362,196,2960,-4,-2,-35,3119,1.96,-0.06,25.65,0.87,364,197,2975,27,446,263,95,98,1
365,198,2978,-2,-1,-21,3137,1.96,-0.06,25.65,0.87,364,197,2975,27,446,263,95,98,1
368,200,3012,0,0,-1,3175,1.96,-0.06,25.65,0.87,364,197,2976,27,446,263,95,98,1
370,201,3028,2,1,18,3193,1.96,-0.06,25.65,0.87,365,197,2978,27,446,263,95,98,1
371,201,3043,4,2,38,3208,1.96,-0.06,25.65,0.87,365,198,2980,27,446,263,95,98,1
374,203,3060,6,3,56,3228,1.96,-0.06,25.65,0.87,365,198,2983,27,446,263,95,98,1
374,203,3074,7,4,69,3243,1.96,-0.06,25.65,0.87,365,198,2986,27,446,263,95,98,1
378,205,3101,9,5,84,3272,1.96,-0.06,25.65,0.87,366,198,2990,27,446,263,95,98,1
379,206,3113,10,6,98,3285,1.96,-0.06,25.65,0.87,366,198,2994,27,446,263,95,98,1
380,207,3125,11,7,111,3298,1.96,-0.06,25.65,0.87,367,199,2998,27,446,263,95,98,1
381,208,3134,13,8,122,3308,1.96,-0.06,25.65,0.87,367,199,3003,27,446,263,95,98,1
383,208,3144,13,8,128,3319,1.96,-0.06,25.65,0.87,368,199,3007,27,446,263,95,98,1
378,206,3100,13,8,121,3271,1.96,-0.06,25.65,0.87,368,199,3011,27,446,252,95,98,1
372,202,3051,10,6,99,3218,1.96,-0.06,26.78,0.88,368,200,3012,26,446,252,94,98,1
367,199,3004,7,4,64,3167,1.96,-0.06,26.78,0.88,368,200,3012,26,446,252,94,98,1
363,197,2965,2,1,18,3124,1.96,-0.06,26.78,0.88,368,199,3010,26,446,252,94,98,1
359,194,2928,-2,-1,-23,3084,1.96,-0.06,26.78,0.88,368,199,3007,26,446,252,94,98,1
353,191,2874,-7,-4,-65,3026,1.96,-0.06,26.78,0.88,367,199,3003,26,446,252,94,98,1
353,191,2870,-10,-5,-95,3021,1.96,-0.06,26.78,0.88,367,199,2998,26,446,252,94,98,1
354,191,2877,-12,-7,-113,3028,1.96,-0.06,26.78,0.88,366,198,2994,26,446,252,94,98,1
354,191,2886,-13,-7,-119,3038,1.96,-0.06,26.78,0.88,366,198,2991,26,446,252,94,98,1
356,192,2895,-12,-7,-110,3049,1.96,-0.06,26.78,0.88,366,198,2988,26,446,252,94,98,1
358,194,2918,-10,-6,-95,3073,1.96,-0.06,26.78,0.88,365,198,2985,26,446,252,94,98,1
359,194,2930,-8,-5,-79,3086,1.96,-0.06,26.78,0.88,365,198,2983,26,446,252,94,98,1
361,196,2946,-6,-4,-62,3103,1.96,-0.06,26.78,0.88,365,198,2982,26,446,252,94,98,1
363,196,2962,-4,-3,-44,3121,1.96,-0.06,26.78,0.88,365,198,2982,26,446,252,94,98,1
365,198,2978,-3,-2,-28,3138,1.96,-0.06,26.78,0.88,365,198,2981,26,446,252,94,98,1
368,200,2996,0,0,-11,3159,1.96,-0.06,26.78,0.88,365,198,2982,26,446,252,94,98,1
370,201,3029,1,0,9,3193,1.96,-0.06,26.78,0.88,365,198,2983,26,446,252,94,98,1
371,201,3041,3,2,28,3207,1.96,-0.06,26.78,0.88,365,198,2985,26,446,252,94,98,1
373,203,3057,5,3,46,3224,1.96,-0.06,26.78,0.88,366,198,2988,26,446,252,94,98,1
374,203,3069,6,4,62,3238,1.96,-0.06,26.78,0.88,366,198,2990,26,446,252,94,98,1
376,204,3083,7,4,73,3252,1.96,-0.06,26.78,0.88,366,198,2994,26,446,252,94,98,1
378,206,3107,9,5,86,3279,1.96,-0.06,26.78,0.88,367,199,2997,26,446,252,94,98,1
380,207,3117,10,6,98,3290,1.96,-0.06,26.78,0.88,367,199,3001,26,446,252,94,98,1
380,207,3124,11,7,108,3297,1.96,-0.06,26.78,0.88,367,199,3005,26,446,252,94,98,1
379,206,3108,12,7,111,3280,1.96,-0.06,26.78,0.88,368,199,3009,26,446,252,94,98,1
374,203,3066,10,6,97,3234,1.96,-0.06,26.78,0.88,368,200,3011,26,446,246,94,98,1
363,197,2962,6,3,56,3122,1.96,-0.06,27.29,0.86,368,200,3009,26,446,246,94,98,1
357,193,2911,0,0,3,3067,1.96,-0.06,27.29,0.86,368,199,3006,26,446,246,94,98,1
353,190,2867,-6,-3,-55,3019,1.96,-0.06,27.29,0.86,367,199,3001,26,446,246,94,98,1
349,188,2830,-11,-7,-110,2980,1.96,-0.06,27.29,0.86,366,199,2996,26,446,246,94,98,1
347,187,2809,-15,-9,-143,2958,1.96,-0.06,27.29,0.86,366,198,2989,26,446,246,94,98,1
347,187,2811,-17,-10,-163,2960,1.96,-0.06,27.29,0.86,365,198,2983,26,446,246,94,98,1
348,187,2822,-17,-10,-168,2971,1.96,-0.06,27.29,0.86,365,197,2978,26,446,246,94,98,1
348,188,2830,-17,-10,-162,2979,1.96,-0.06,27.29,0.86,364,197,2973,26,446,246,94,98,1
350,189,2841,-16,-9,-149,2991,1.96,-0.06,27.29,0.86,364,197,2969,26,446,246,94,98,1
351,189,2851,-14,-8,-135,3002,1.96,-0.06,27.29,0.86,363,197,2965,26,446,246,94,98,1
354,191,2879,-12,-7,-117,3032,1.96,-0.06,27.29,0.86,363,196,2962,26,446,246,94,98,1
356,192,2894,-10,-6,-97,3048,1.96,-0.06,27.29,0.86,363,196,2960,26,446,246,94,98,1
357,193,2909,-8,-5,-78,3065,1.96,-0.06,27.29,0.86,362,196,2958,26,446,246,94,98,1
358,194,2924,-6,-3,-57,3081,1.96,-0.06,27.29,0.86,362,196,2957,26,446,246,94,98,1
361,196,2943,-4,-2,-40,3101,1.96,-0.06,27.29,0.86,362,196,2956,26,446,246,94,98,1
365,198,2959,-1,0,-23,3119,1.96,-0.06,27.29,0.86,362,196,2956,26,446,246,94,98,1
367,199,2996,0,0,-1,3159,1.96,-0.06,27.29,0.86,362,196,2958,26,446,246,94,98,1
368,200,3013,3,2,20,3176,1.96,-0.06,27.29,0.86,363,196,2960,26,446,246,94,98,1
370,201,3030,5,3,40,3195,1.96,-0.06,27.29,0.86,363,197,2962,26,446,246,94,98,1
371,202,3044,6,4,59,3211,1.96,-0.06,27.29,0.86,363,197,2965,26,446,246,94,98,1
374,203,3062,7,4,73,3230,1.96,-0.06,27.29,0.86,364,197,2968,26,446,246,94,98,1
376,205,3087,9,5,89,3258,1.96,-0.06,27.29,0.86,364,197,2972,26,446,246,94,98,1
375,205,3080,10,6,98,3251,1.96,-0.06,27.29,0.86,364,198,2975,26,446,246,94,98,1
372,202,3043,10,6,94,3210,1.96,-0.06,27.29,0.86,365,198,2978,26,446,251,94,98,1
366,199,2990,7,5,74,3152,1.96,-0.06,26.73,0.85,365,198,2978,26,446,251,94,98,1
359,195,2935,3,2,35,3092,1.96,-0.06,26.73,0.85,364,198,2977,26,446,251,94,98,1
349,188,2838,-3,-1,-24,2987,1.96,-0.06,26.73,0.85,364,197,2972,26,446,251,94,98,1
