2598,2774,2277,628,670,550,7648,-1,-1,0,0,86,92,75,0,0,0,0,0,0
0,0,0,607,648,532,0,-1,-1,0,0,83,89,73,0,0,0,0,0,0
0,0,0,587,626,514,0,-1,-1,0,0,80,86,70,0,0,0,0,0,0
0,0,0,567,606,497,0,-1,-1,0,0,78,83,68,0,0,0,0,0,0
0,0,0,-79,-84,-69,0,-1,-1,0,0,75,80,66,0,0,0,0,0,0
0,0,0,-76,-81,-67,0,-1,-1,0,0,73,78,64,0,0,0,0,0,0
0,0,0,-74,-79,-65,0,-1,-1,0,0,70,75,62,0,0,0,0,0,0
0,0,0,-71,-76,-62,0,-1,-1,0,0,68,73,59,0,0,0,0,0,0
0,0,0,-69,-74,-60,0,-1,-1,0,0,66,70,58,0,0,0,0,0,0
0,0,0,-66,-71,-58,0,-1,-1,0,0,63,68,56,0,0,0,0,0,0
0,0,0,-64,-69,-56,0,-1,-1,0,0,61,66,54,0,0,0,0,0,0
0,0,0,-62,-66,-55,0,-1,-1,0,0,59,63,52,0,0,0,0,0,0
0,0,0,-60,-64,-53,0,-1,-1,0,0,57,61,50,0,0,0,0,0,0
0,0,0,-58,-62,-51,0,-1,-1,0,0,55,59,49,0,0,0,0,0,0
0,0,0,-56,-60,-49,0,-1,-1,0,0,54,57,47,0,0,0,0,0,0
0,0,0,-54,-58,-47,0,-1,-1,0,0,52,55,45,0,0,0,0,0,0
0,0,0,-52,-56,-46,0,-1,-1,0,0,50,53,44,0,0,0,0,0,0
2178,2324,1908,475,507,416,6409,-1,-1,0,0,121,129,106,0,0,0,0,0,0
2751,2934,2409,1124,1199,984,8091,-1,-1,0,0,209,223,183,0,0,0,0,0,0
2751,2933,2408,1751,1868,1533,8091,-1,-1,0,0,293,313,257,0,0,0,0,0,0
2752,2933,2408,2358,2514,2064,8092,-1,-1,0,0,375,400,329,0,0,0,0,0,0
2752,2933,2409,2418,2578,2116,8091,-1,-1,0,0,455,485,398,0,0,0,0,0,0
2752,2934,2408,2338,2492,2046,8091,-1,-1,0,0,531,566,465,624,665,546,0,0,0
2752,2934,2409,2260,2409,1978,8091,-1,-1,1,1,605,645,530,624,665,546,0,0,0
2752,2933,2409,2185,2329,1912,8091,-1,-1,1,1,677,722,592,624,665,546,0,0,0
2753,2934,2408,2112,2251,1848,8093,-1,-1,1,1,746,795,653,624,665,546,0,0,0
2752,2933,2408,2042,2176,1787,8090,-1,-1,1,1,813,867,711,624,665,546,0,0,0
2752,2934,2408,1973,2103,1727,8092,-1,-1,1,1,878,936,768,624,665,546,0,0,0
2752,2934,2408,1908,2033,1669,8092,-1,-1,1,1,940,1002,823,624,665,546,0,0,0
2753,2934,2408,1844,1965,1613,8092,-1,-1,1,1,1000,1067,875,624,665,546,0,0,0
2753,2934,2408,1783,1900,1559,8092,-1,-1,1,1,1059,1129,927,624,665,546,0,0,0
2753,2934,2408,1724,1837,1507,8092,-1,-1,1,1,1115,1189,976,624,665,546,0,0,0
2754,2934,2408,1667,1776,1457,8092,-1,-1,1,1,1170,1247,1024,624,665,546,0,0,0
2752,2933,2407,1611,1716,1408,8089,-1,-1,1,1,1223,1303,1070,624,665,546,0,0,0
2753,2934,2408,1557,1659,1361,8091,-1,-1,1,1,1274,1358,1114,624,665,546,0,0,0
2753,2934,2408,1505,1604,1316,8092,-1,-1,1,1,1323,1410,1157,624,665,546,0,0,0
2754,2935,2408,1455,1551,1272,8092,-1,-1,1,1,1371,1461,1199,624,665,546,0,0,0
2753,2934,2407,1407,1499,1230,8092,-1,-1,1,1,1417,1510,1239,624,665,546,0,0,0
2753,2934,2407,1360,1449,1189,8092,-1,-1,1,1,1461,1558,1278,624,665,546,0,0,0
2754,2933,2408,1315,1401,1149,8092,-1,-1,1,1,1504,1603,1316,624,665,546,0,0,0
2753,2934,2407,1271,1354,1111,8092,-1,-1,1,1,1546,1648,1352,624,665,546,0,0,0
2753,2934,2407,1229,1308,1073,8092,-1,-1,1,1,1586,1691,1388,624,665,546,0,0,0
2752,2934,2407,1187,1265,1037,8091,-1,-1,1,1,1625,1732,1422,624,665,546,0,0,0
2753,2933,2408,1147,1223,1003,8093,-1,-1,1,1,1663,1772,1454,624,665,546,0,0,0
2754,2933,2408,1109,1182,970,8093,-1,-1,1,1,1699,1811,1486,624,665,546,0,0,0
2753,2933,2407,1072,1142,937,8093,-1,-1,1,1,1734,1848,1517,624,665,546,0,0,0
2754,2934,2407,1037,1104,906,8094,-1,-1,1,1,1768,1884,1547,624,665,546,0,0,0
2753,2933,2408,1003,1067,876,8091,-1,-1,1,1,1801,1919,1575,624,665,546,0,0,0
2753,2934,2408,969,1032,847,8093,-1,-1,1,1,1833,1953,1603,624,665,546,0,0,0
2754,2934,2408,937,998,819,8093,-1,-1,1,1,1863,1986,1630,624,665,546,0,0,0
2753,2933,2407,905,964,791,8092,-1,-1,1,1,1893,2017,1656,624,665,546,0,0,0
2754,2932,2408,875,932,765,8093,-1,-1,1,1,1922,2048,1681,624,665,546,0,0,0
2754,2934,2408,846,901,739,8092,-1,-1,1,1,1950,2078,1705,624,665,546,0,0,0
2754,2933,2408,818,870,715,8091,-1,-1,1,1,1976,2106,1729,624,665,546,0,0,0
2753,2933,2408,791,841,691,8091,-1,-1,1,1,2002,2134,1751,624,665,546,0,0,0
2753,2932,2408,764,813,668,8092,-1,-1,1,1,2027,2160,1773,624,665,546,0,0,0
2754,2933,2408,739,786,646,8091,-1,-1,1,1,2052,2186,1794,624,665,546,0,0,0
2754,2933,2408,714,760,624,8093,-1,-1,1,1,2075,2211,1815,624,665,546,0,0,0
2754,2934,2408,690,735,604,8093,-1,-1,1,1,2098,2235,1834,624,665,546,0,0,0
2755,2933,2407,668,710,583,8094,-1,-1,1,1,2119,2258,1854,624,665,546,0,0,0
2754,2934,2408,646,687,564,8093,-1,-1,1,1,2141,2281,1872,624,665,546,0,0,0
2754,2934,2408,624,664,545,8092,-1,-1,1,1,2161,2303,1890,624,665,546,0,0,0
2754,2934,2408,603,642,527,8092,-1,-1,1,1,2181,2324,1907,624,665,546,0,0,0
2754,2933,2408,583,620,509,8091,-1,-1,1,1,2200,2344,1924,624,665,546,0,0,0
2755,2934,2407,564,600,492,8092,-1,-1,1,1,2218,2364,1940,624,665,546,0,0,0
2754,2933,2407,545,580,475,8092,-1,-1,1,1,2236,2382,1956,624,665,546,0,0,0
2753,2933,2407,527,560,459,8091,-1,-1,1,1,2254,2401,1971,624,665,546,0,0,0
2754,2934,2407,509,542,444,8092,-1,-1,1,1,2270,2419,1985,624,665,546,0,0,0
2754,2933,2407,492,523,429,8092,-1,-1,1,1,2286,2436,1999,624,665,546,0,0,0
2754,2934,2407,475,506,415,8092,-1,-1,1,1,2302,2452,2013,624,665,546,0,0,0
2754,2933,2407,460,489,401,8092,-1,-1,1,1,2317,2468,2026,624,665,546,0,0,0
2754,2932,2407,444,473,387,8092,-1,-1,1,1,2332,2484,2039,624,665,546,0,0,0
2754,2933,2407,429,457,374,8090,-1,-1,1,1,2346,2499,2051,624,665,546,0,0,0
2754,2933,2407,415,441,362,8092,-1,-1,1,1,2359,2513,2063,624,665,546,0,0,0
2754,2933,2407,401,427,350,8093,-1,-1,1,1,2372,2527,2074,624,665,546,0,0,0
2754,2933,2407,388,413,338,8092,-1,-1,1,1,2385,2541,2085,624,665,546,0,0,0
2754,2932,2407,375,399,327,8092,-1,-1,1,1,2397,2554,2096,624,665,546,0,0,0
2755,2933,2408,363,385,317,8092,-1,-1,1,1,2409,2566,2106,624,665,546,0,0,0
2754,2933,2407,351,372,306,8092,-1,-1,1,1,2421,2579,2116,624,665,546,0,0,0
2755,2934,2408,339,360,296,8093,-1,-1,1,1,2432,2591,2126,624,665,546,0,0,0
2755,2933,2407,328,348,286,8092,-1,-1,1,1,2443,2602,2136,624,665,546,0,0,0
2754,2933,2407,317,337,276,8092,-1,-1,1,1,2453,2613,2145,624,665,546,0,0,0
2755,2933,2407,307,325,267,8092,-1,-1,1,1,2463,2624,2153,624,665,546,0,0,0
2754,2932,2407,296,314,258,8091,-1,-1,1,1,2473,2634,2162,624,665,546,0,0,0
2754,2934,2408,286,304,249,8094,-1,-1,1,1,2482,2644,2170,624,665,546,0,0,0
2754,2933,2407,277,294,241,8092,-1,-1,1,1,2491,2654,2178,624,665,546,0,0,0
2754,2933,2407,267,284,233,8092,-1,-1,1,1,2500,2663,2186,624,665,546,0,0,0
2754,2933,2407,258,275,225,8092,-1,-1,1,1,2509,2672,2193,624,665,546,0,0,0
2754,2934,2407,249,265,217,8093,-1,-1,1,1,2517,2681,2200,624,665,546,0,0,0
2755,2933,2407,241,257,210,8093,-1,-1,1,1,2525,2689,2207,624,665,546,0,0,0
2754,2932,2407,233,248,203,8092,-1,-1,1,1,2532,2697,2214,624,665,546,0,0,0
2755,2932,2407,226,239,196,8092,-1,-1,1,1,2540,2705,2220,624,665,546,0,0,0
2754,2933,2407,218,231,190,8092,-1,-1,1,1,2547,2713,2226,624,665,546,0,0,0
2755,2933,2407,211,223,184,8093,-1,-1,1,1,2554,2720,2232,624,665,546,0,0,0
2755,2933,2407,204,216,178,8092,-1,-1,1,1,2561,2727,2238,624,665,546,0,0,0
2754,2933,2407,197,209,172,8092,-1,-1,1,1,2567,2734,2244,624,665,546,0,0,0
2755,2933,2407,191,202,166,8093,-1,-1,1,1,2573,2740,2249,624,665,546,0,0,0
2755,2933,2407,184,196,160,8093,-1,-1,1,1,2579,2747,2254,624,665,546,0,0,0
2754,2933,2407,178,189,155,8092,-1,-1,1,1,2585,2753,2260,624,665,546,0,0,0
2755,2934,2408,172,183,150,8092,-1,-1,1,1,2591,2759,2264,624,665,546,0,0,0
2754,2934,2407,166,177,145,8092,-1,-1,1,1,2596,2765,2269,624,665,546,0,0,0
2755,2933,2408,161,171,140,8093,-1,-1,1,1,2602,2771,2274,624,665,546,0,0,0
2755,2933,2407,155,165,136,8093,-1,-1,1,1,2607,2776,2278,624,665,546,0,0,0
2755,2933,2406,150,160,131,8093,-1,-1,1,1,2612,2781,2283,624,665,546,0,0,0
2755,2933,2407,145,154,126,8094,-1,-1,1,1,2616,2786,2287,624,665,546,0,0,0
2755,2934,2407,141,149,122,8093,-1,-1,1,1,2621,2791,2291,624,665,546,0,0,0
2754,2934,2408,136,145,118,8092,-1,-1,1,1,2625,2796,2295,624,665,546,0,0,0
2755,2933,2407,131,140,114,8092,-1,-1,1,1,2630,2801,2298,624,665,546,0,0,0
2755,2934,2407,127,135,110,8091,-1,-1,1,1,2634,2805,2302,624,665,546,0,0,0
2755,2932,2407,123,130,107,8092,-1,-1,1,1,2638,2809,2305,624,665,546,0,0,0
2755,2933,2407,119,126,103,8091,-1,-1,1,1,2642,2813,2309,624,665,546,0,0,0
2754,2933,2407,114,122,100,8091,-1,-1,1,1,2646,2817,2312,624,665,546,0,0,0
2754,2933,2407,110,117,96,8092,-1,-1,1,1,2649,2821,2315,624,665,546,0,0,0
2756,2933,2407,107,114,93,8092,-1,-1,1,1,2653,2825,2318,624,665,546,0,0,0
2755,2934,2408,103,110,90,8092,-1,-1,1,1,2656,2829,2321,624,665,546,0,0,0
2755,2934,2407,100,106,87,8093,-1,-1,1,1,2659,2832,2324,624,665,546,0,0,0
2755,2934,2407,97,103,84,8092,-1,-1,1,1,2663,2835,2327,624,665,546,0,0,0
2754,2933,2407,93,100,81,8092,-1,-1,1,1,2666,2839,2330,624,665,546,0,0,0
2754,2934,2407,90,96,78,8093,-1,-1,1,1,2669,2842,2332,624,665,546,0,0,0
2755,2933,2408,87,93,76,8094,-1,-1,1,1,2671,2845,2335,624,665,546,0,0,0
2754,2933,2407,84,89,73,8094,-1,-1,1,1,2674,2848,2337,624,665,546,0,0,0
2754,2933,2407,81,86,71,8094,-1,-1,1,1,2677,2851,2340,624,665,546,0,0,0
2755,2933,2407,79,83,68,8094,-1,-1,1,1,2679,2853,2342,624,665,546,0,0,0
2755,2934,2406,76,81,66,8094,-1,-1,1,1,2682,2856,2344,624,665,546,0,0,0
2756,2933,2408,74,78,64,8094,-1,-1,1,1,2684,2859,2346,624,665,546,0,0,0
2756,2933,2407,72,76,62,8094,-1,-1,1,1,2687,2861,2348,624,665,546,0,0,0
2755,2934,2407,70,73,60,8094,-1,-1,1,1,2689,2864,2350,624,665,546,0,0,0
2755,2934,2407,67,71,58,8094,-1,-1,1,1,2691,2866,2352,624,665,546,0,0,0
2755,2933,2407,65,68,56,8094,-1,-1,1,1,2693,2868,2354,624,665,546,0,0,0
2755,2933,2407,62,66,54,8095,-1,-1,1,1,2696,2870,2356,624,665,546,0,0,0
2756,2933,2406,60,64,52,8094,-1,-1,1,1,2698,2872,2357,624,665,546,0,0,0
2755,2933,2407,58,62,50,8093,-1,-1,1,1,2699,2874,2359,624,665,546,0,0,0
2755,2933,2407,56,60,48,8093,-1,-1,1,1,2701,2876,2360,624,665,546,0,0,0
2755,2933,2407,55,58,47,8092,-1,-1,1,1,2703,2878,2362,624,665,546,0,0,0
2755,2933,2408,53,56,46,8093,-1,-1,1,1,2705,2880,2364,624,665,546,0,0,0
2756,2932,2407,51,53,44,8093,-1,-1,1,1,2707,2882,2365,624,665,546,0,0,0
2755,2932,2407,49,51,43,8093,-1,-1,1,1,2708,2884,2366,624,665,546,0,0,0
2755,2933,2406,47,49,41,8092,-1,-1,1,1,2710,2885,2368,624,665,546,0,0,0
2756,2934,2407,46,48,39,8094,-1,-1,1,1,2711,2887,2369,624,665,546,0,0,0
2755,2933,2407,44,47,38,8093,-1,-1,1,1,2713,2888,2370,624,665,546,0,0,0
2755,2933,2407,43,45,37,8094,-1,-1,1,1,2714,2890,2372,624,665,546,0,0,0
2756,2933,2407,42,44,36,8093,-1,-1,1,1,2716,2891,2373,624,665,546,0,0,0
2755,2934,2408,40,42,35,8093,-1,-1,1,1,2717,2893,2374,624,665,546,0,0,0
2756,2933,2407,39,41,33,8092,-1,-1,1,1,2718,2894,2375,624,665,546,0,0,0
2755,2933,2407,38,40,32,8092,-1,-1,1,1,2719,2895,2376,624,665,546,0,0,0
558,343,4704,6,2,85,5024,0.47,-0.08,23.06,9.13,550,340,4601,194,304,177,96,99,1
558,343,4704,6,2,85,5024,0.47,-0.08,23.06,9.13,550,340,4601,194,304,177,96,99,1
558,343,4704,6,2,85,5024,0.47,-0.08,23.06,9.13,550,340,4601,194,304,177,96,99,1
561,346,4729,7,3,99,5053,0.47,-0.08,23.06,9.13,550,340,4605,194,304,177,96,99,1
563,347,4744,9,4,113,5068,0.47,-0.08,23.06,9.13,551,340,4610,194,304,177,96,99,1
565,348,4756,11,6,125,5082,0.47,-0.08,23.06,9.13,551,340,4615,194,304,177,96,99,1
566,349,4767,12,7,136,5095,0.47,-0.08,23.06,9.13,552,341,4620,194,304,177,96,99,1
566,349,4765,13,7,140,5094,0.47,-0.08,23.06,9.13,552,341,4625,194,304,177,96,99,1
557,343,4690,11,6,122,5063,0.47,-0.08,23.06,9.13,552,341,4627,151,304,180,96,99,1
551,339,4643,8,4,91,4958,0.47,-0.08,22.92,7.03,552,341,4627,151,304,180,96,99,1
547,337,4604,3,1,49,4915,0.47,-0.08,22.92,7.03,552,341,4627,151,304,180,96,99,1
545,334,4581,-2,-2,3,4889,0.47,-0.08,22.92,7.03,552,340,4625,151,304,180,96,99,1
543,333,4565,-5,-4,-27,4871,0.47,-0.08,22.92,7.03,551,340,4623,151,304,180,96,99,1
542,332,4559,-7,-6,-46,4863,0.47,-0.08,22.92,7.03,551,340,4621,151,304,180,96,99,1
543,332,4562,-8,-7,-55,4866,0.47,-0.08,22.92,7.03,551,340,4619,151,304,180,96,99,1
543,333,4570,-8,-7,-56,4876,0.47,-0.08,22.92,7.03,551,339,4617,151,304,180,96,99,1
544,334,4581,-7,-6,-50,4887,0.47,-0.08,22.92,7.03,550,339,4616,151,304,180,96,99,1
545,334,4587,-6,-6,-41,4894,0.47,-0.08,22.92,7.03,550,339,4615,151,304,180,96,99,1
546,335,4596,-5,-5,-32,4904,0.47,-0.08,22.92,7.03,550,339,4614,151,304,180,96,99,1
548,336,4617,-4,-4,-19,4927,0.47,-0.08,22.92,7.03,550,339,4615,151,304,180,96,99,1
549,337,4626,-3,-3,-8,4936,0.47,-0.08,22.92,7.03,550,339,4615,151,304,180,96,99,1
550,338,4639,-1,-2,4,4952,0.47,-0.08,22.92,7.03,550,339,4616,151,304,180,96,99,1
552,340,4653,0,-1,18,4967,0.47,-0.08,22.92,7.03,550,339,4617,151,304,180,96,99,1
554,341,4671,1,0,30,4987,0.47,-0.08,22.92,7.03,550,339,4619,151,304,180,96,99,1
557,343,4697,3,1,46,5016,0.47,-0.08,22.92,7.03,550,339,4621,151,304,180,96,99,1
559,344,4711,5,3,62,5031,0.47,-0.08,22.92,7.03,551,339,4624,151,304,180,96,99,1
560,346,4723,7,4,77,5045,0.47,-0.08,22.92,7.03,551,339,4628,151,304,180,96,99,1
562,347,4736,8,5,90,5060,0.47,-0.08,22.92,7.03,551,340,4631,151,304,180,96,99,1
564,347,4749,10,6,100,5074,0.47,-0.08,22.92,7.03,552,340,4635,151,304,180,96,99,1
565,349,4763,11,7,109,5090,0.47,-0.08,22.92,7.03,552,340,4639,151,304,180,96,99,1
562,347,4734,11,7,108,5059,0.47,-0.08,22.92,7.03,553,340,4643,151,304,176,96,99,1
556,343,4684,9,6,92,5003,1.96,-0.07,23.59,7.2,553,341,4644,151,304,176,96,99,1
550,339,4637,5,4,62,4950,1.96,-0.07,23.59,7.2,553,340,4644,151,304,176,96,99,1
546,336,4599,0,1,20,4909,1.96,-0.07,23.59,7.2,552,340,4642,151,304,176,96,99,1
542,333,4559,-4,-2,-22,4864,1.96,-0.07,23.59,7.2,552,340,4640,151,304,176,96,99,1
541,331,4548,-7,-5,-54,4851,1.96,-0.07,23.59,7.2,552,340,4636,151,304,176,96,99,1
540,331,4541,-9,-7,-76,4845,1.96,-0.07,23.59,7.2,551,339,4633,151,304,176,96,99,1
541,331,4545,-10,-8,-86,4848,1.96,-0.07,23.59,7.2,551,339,4630,151,304,176,96,99,1
542,332,4556,-10,-8,-84,4859,1.96,-0.07,23.59,7.2,551,339,4628,151,304,176,96,99,1
544,334,4568,-9,-7,-76,4874,1.96,-0.07,23.59,7.2,550,339,4626,151,304,176,96,99,1
545,334,4589,-7,-6,-62,4897,1.96,-0.07,23.59,7.2,550,339,4625,151,304,176,96,99,1
547,335,4599,-5,-5,-47,4907,1.96,-0.07,23.59,7.2,550,339,4624,151,304,176,96,99,1
548,336,4611,-4,-4,-32,4921,1.96,-0.07,23.59,7.2,550,338,4623,151,304,176,96,99,1
549,337,4625,-2,-3,-17,4935,1.96,-0.07,23.59,7.2,550,338,4623,151,304,176,96,99,1
551,338,4640,-1,-1,-4,4952,1.96,-0.07,23.59,7.2,550,338,4624,151,304,176,96,99,1
554,341,4671,0,0,12,4987,1.96,-0.07,23.59,7.2,550,338,4626,151,304,176,96,99,1
556,342,4687,2,1,30,5004,1.96,-0.07,23.59,7.2,550,339,4628,151,304,176,96,99,1
558,344,4700,4,2,47,5020,1.96,-0.07,23.59,7.2,551,339,4630,151,304,176,96,99,1
560,345,4715,6,4,64,5036,1.96,-0.07,23.59,7.2,551,339,4633,151,304,176,96,99,1
561,346,4724,8,5,74,5046,1.96,-0.07,23.59,7.2,551,339,4636,151,304,176,96,99,1
564,348,4750,9,6,87,5077,1.96,-0.07,23.59,7.2,552,340,4640,151,304,176,96,99,1
566,349,4764,11,7,100,5092,1.96,-0.07,23.59,7.2,552,340,4644,151,304,176,96,99,1
567,350,4772,12,8,110,5101,1.96,-0.07,23.59,7.2,553,340,4648,151,304,176,96,99,1
565,349,4762,13,9,116,5090,1.96,-0.07,23.59,7.2,553,340,4652,151,304,176,96,99,1
561,347,4724,12,8,106,5049,1.96,-0.07,23.59,7.2,553,341,4654,119,304,183,96,99,1
550,340,4634,7,6,71,4949,1.96,-0.07,22.67,5.47,553,341,4654,119,304,183,96,99,1
547,336,4601,2,2,27,4911,1.96,-0.07,22.67,5.47,553,340,4652,119,304,183,96,99,1
544,334,4579,-2,-1,-17,4886,1.96,-0.07,22.67,5.47,553,340,4649,119,304,183,96,99,1
543,333,4565,-6,-4,-55,4870,1.96,-0.07,22.67,5.47,552,340,4647,119,304,183,96,99,1
543,332,4558,-8,-6,-72,4862,1.96,-0.07,22.67,5.47,552,340,4644,119,304,183,96,99,1
543,332,4563,-9,-7,-79,4868,1.96,-0.07,22.67,5.47,552,340,4641,119,304,183,96,99,1
544,333,4572,-8,-7,-78,4878,1.96,-0.07,22.67,5.47,552,339,4639,119,304,183,96,99,1
545,334,4582,-8,-6,-71,4889,1.96,-0.07,22.67,5.47,551,339,4637,119,304,183,96,99,1
546,335,4588,-7,-5,-61,4895,1.96,-0.07,22.67,5.47,551,339,4635,119,304,183,96,99,1
547,335,4600,-5,-4,-50,4908,1.96,-0.07,22.67,5.47,551,339,4634,119,304,183,96,99,1
549,337,4612,-4,-3,-39,4920,1.96,-0.07,22.67,5.47,551,339,4633,119,304,183,96,99,1
550,338,4633,-3,-2,-25,4945,1.96,-0.07,22.67,5.47,551,339,4633,119,304,183,96,99,1
551,339,4645,-1,-1,-11,4958,1.96,-0.07,22.67,5.47,551,339,4634,119,304,183,96,99,1
553,340,4656,0,0,3,4970,1.96,-0.07,22.67,5.47,551,339,4634,119,304,183,96,99,1
554,341,4671,1,0,17,4987,1.96,-0.07,22.67,5.47,551,339,4636,119,304,183,96,99,1
556,342,4686,2,1,29,5003,1.96,-0.07,22.67,5.47,551,339,4637,119,304,183,96,99,1
559,344,4710,4,2,44,5030,1.96,-0.07,22.67,5.47,551,339,4640,119,304,183,96,99,1
560,345,4721,6,4,58,5042,1.96,-0.07,22.67,5.47,552,339,4642,119,304,183,96,99,1
562,346,4732,7,5,71,5055,1.96,-0.07,22.67,5.47,552,340,4645,119,304,183,96,99,1
563,347,4744,9,6,82,5070,1.96,-0.07,22.67,5.47,552,340,4649,119,304,183,96,99,1
565,348,4757,10,6,91,5085,1.96,-0.07,22.67,5.47,553,340,4652,119,304,183,96,99,1
562,347,4738,10,7,92,5062,1.96,-0.07,22.67,5.47,553,340,4655,119,304,183,96,99,1
557,344,4692,9,6,79,5011,1.96,-0.07,22.67,5.47,553,340,4656,119,304,180,96,99,1
551,340,4646,5,4,53,4959,1.96,-0.07,23.13,5.57,553,340,4656,119,304,180,96,99,1
548,337,4612,1,2,16,4922,1.96,-0.07,23.13,5.57,553,340,4655,119,304,180,96,99,1
546,335,4590,-2,-1,-19,4898,1.96,-0.07,23.13,5.57,553,340,4652,119,304,180,96,99,1
543,333,4566,-6,-3,-49,4872,1.96,-0.07,23.13,5.57,553,340,4650,119,304,180,96,99,1
543,332,4563,-7,-5,-68,4867,1.96,-0.07,23.13,5.57,552,340,4647,119,304,180,96,99,1
543,333,4566,-8,-6,-77,4871,1.96,-0.07,23.13,5.57,552,339,4644,119,304,180,96,99,1
544,333,4575,-9,-6,-78,4880,1.96,-0.07,23.13,5.57,552,339,4642,119,304,180,94,99,1
545,334,4585,-8,-6,-71,4892,1.96,-0.07,23.13,5.57,551,339,4640,119,304,180,94,99,1
547,335,4601,-6,-5,-59,4909,1.96,-0.07,23.13,5.57,551,339,4638,119,304,180,94,99,1
548,336,4609,-5,-4,-46,4919,1.96,-0.07,23.13,5.57,551,339,4637,119,304,180,94,99,1
549,337,4621,-3,-3,-34,4930,1.96,-0.07,23.13,5.57,551,339,4637,119,304,180,94,99,1
550,338,4634,-2,-2,-21,4945,1.96,-0.07,23.13,5.57,551,339,4637,119,304,180,94,99,1
551,339,4648,-1,-1,-9,4961,1.96,-0.07,23.13,5.57,551,339,4637,119,304,180,94,99,1
555,341,4658,0,0,3,4972,1.96,-0.07,23.13,5.57,551,339,4638,119,304,180,94,99,1
556,342,4687,2,1,18,5004,1.96,-0.07,23.13,5.57,551,339,4640,119,304,180,94,99,1
558,344,4700,3,2,34,5019,1.96,-0.07,23.13,5.57,552,339,4642,119,304,180,94,99,1
559,345,4714,5,4,48,5034,1.96,-0.07,23.13,5.57,552,339,4644,119,304,180,94,99,1
561,346,4724,6,5,63,5046,1.96,-0.07,23.13,5.57,552,339,4647,119,304,180,94,99,1
562,347,4739,8,6,73,5062,1.96,-0.07,23.13,5.57,552,340,4650,119,304,180,94,99,1
565,349,4763,9,7,86,5090,1.96,-0.07,23.13,5.57,553,340,4653,119,304,180,94,99,1
567,350,4771,11,8,97,5099,1.96,-0.07,23.13,5.57,553,340,4657,119,304,180,94,99,1
566,349,4765,12,8,104,5092,1.96,-0.07,23.13,5.57,554,341,4661,119,304,180,94,99,1
562,347,4732,11,8,99,5055,1.96,-0.07,23.13,5.57,554,341,4663,94,304,180,96,99,1
556,343,4687,9,6,77,5007,1.96,-0.07,23.09,4.4,554,341,4664,94,304,180,96,99,1
549,337,4620,4,3,38,4931,1.96,-0.07,23.09,4.4,554,341,4663,94,304,180,96,99,1
547,336,4600,0,0,-3,4910,1.96,-0.07,23.09,4.4,554,341,4661,94,304,180,96,99,1
546,335,4587,-4,-3,-38,4895,1.96,-0.07,23.09,4.4,553,340,4658,94,304,180,96,99,1
545,334,4580,-6,-5,-62,4887,1.96,-0.07,23.09,4.4,553,340,4655,94,304,180,96,99,1
544,334,4580,-7,-5,-70,4887,1.96,-0.07,23.09,4.4,553,340,4653,94,304,180,96,99,1
546,335,4591,-7,-5,-69,4898,1.96,-0.07,23.09,4.4,553,340,4651,94,304,180,96,99,1
547,335,4597,-7,-5,-65,4904,1.96,-0.07,23.09,4.4,552,340,4649,94,304,180,96,99,1
548,336,4605,-6,-5,-57,4914,1.96,-0.07,23.09,4.4,552,340,4648,94,304,180,96,99,1
549,337,4616,-4,-4,-46,4925,1.96,-0.07,23.09,4.4,552,339,4647,94,304,180,96,99,1
550,338,4625,-3,-3,-36,4936,1.96,-0.07,23.09,4.4,552,339,4646,94,304,180,96,99,1
552,339,4647,-2,-1,-23,4960,1.96,-0.07,23.09,4.4,552,339,4646,94,304,180,96,99,1
553,340,4658,-1,0,-9,4972,1.96,-0.07,23.09,4.4,552,339,4646,94,304,180,96,99,1
555,342,4673,0,0,4,4989,1.96,-0.07,23.09,4.4,552,340,4647,94,304,180,96,99,1
556,342,4688,2,1,19,5006,1.96,-0.07,23.09,4.4,552,340,4649,94,304,180,96,99,1
558,344,4700,3,2,31,5020,1.96,-0.07,23.09,4.4,553,340,4650,94,304,180,96,99,1
561,346,4725,5,3,46,5047,1.96,-0.07,23.09,4.4,553,340,4653,94,304,180,96,99,1
562,347,4737,6,4,60,5061,1.96,-0.07,23.09,4.4,553,340,4656,94,304,180,96,99,1
564,348,4749,8,6,73,5075,1.96,-0.07,23.09,4.4,554,340,4659,94,304,180,96,99,1
565,349,4763,9,7,86,5090,1.96,-0.07,23.09,4.4,554,341,4662,94,304,180,96,99,1
567,350,4776,10,8,95,5104,1.96,-0.07,23.09,4.4,554,341,4666,94,304,180,96,99,1
565,351,4782,11,8,103,5111,1.96,-0.07,23.09,4.4,555,341,4670,94,304,180,96,99,1
560,346,4717,9,7,92,5040,1.96,-0.07,23.09,4.4,555,342,4671,94,304,179,96,99,1
555,342,4672,7,5,67,4990,1.96,-0.07,23.2,4.42,555,342,4671,94,304,179,95,99,1
551,339,4639,2,3,32,4954,1.96,-0.07,23.2,4.42,555,341,4670,94,304,179,95,99,1
549,338,4618,-1,0,-8,4931,1.96,-0.07,23.2,4.42,555,341,4669,94,304,179,95,99,1
548,336,4603,-4,-2,-36,4913,1.96,-0.07,23.2,4.42,554,341,4666,94,304,179,95,99,1
545,335,4586,-6,-4,-55,4895,1.96,-0.07,23.2,4.42,554,341,4664,94,304,179,95,99,1
546,335,4587,-7,-5,-66,4895,1.96,-0.07,23.2,4.42,554,341,4661,94,304,179,95,99,1
547,335,4595,-7,-5,-69,4903,1.96,-0.07,23.2,4.42,554,341,4659,94,304,179,95,99,1
548,336,4605,-7,-5,-67,4914,1.96,-0.07,23.2,4.42,553,340,4657,94,304,179,95,99,1
549,337,4614,-6,-4,-58,4924,1.96,-0.07,23.2,4.42,553,340,4656,94,304,179,95,99,1
550,338,4634,-4,-3,-44,4945,1.96,-0.07,23.2,4.42,553,340,4655,94,304,179,95,99,1
552,339,4646,-3,-2,-31,4958,1.96,-0.07,23.2,4.42,553,340,4655,94,304,179,95,99,1
553,340,4656,-2,-1,-17,4969,1.96,-0.07,23.2,4.42,553,340,4655,94,304,179,95,99,1
554,341,4668,0,0,-4,4984,1.96,-0.07,23.2,4.42,553,340,4655,94,304,179,95,99,1
556,342,4679,0,0,7,4996,1.96,-0.07,23.2,4.42,553,340,4656,94,304,179,95,99,1
558,344,4702,2,1,20,5021,1.96,-0.07,23.2,4.42,553,340,4657,94,304,179,95,99,1
559,345,4714,3,2,34,5034,1.96,-0.07,23.2,4.42,554,341,4659,94,304,179,95,99,1
560,346,4721,4,3,45,5043,1.96,-0.07,23.2,4.42,554,341,4661,94,304,179,95,99,1
562,347,4731,6,4,56,5055,1.96,-0.07,23.2,4.42,554,341,4664,94,304,179,95,99,1
563,348,4742,7,5,64,5067,1.96,-0.07,23.2,4.42,554,341,4666,94,304,179,95,99,1
566,350,4755,8,6,72,5081,1.96,-0.07,23.2,4.42,555,342,4669,94,304,179,95,99,1
567,350,4775,10,7,82,5104,1.96,-0.07,23.2,4.42,555,342,4673,94,304,179,95,99,1
565,349,4761,10,7,87,5089,1.96,-0.07,23.2,4.42,555,342,4676,94,304,179,95,99,1
561,347,4727,9,7,80,5051,1.96,-0.07,23.2,4.42,556,342,4678,94,304,173,95,99,1
556,344,4684,6,5,60,5003,1.96,-0.07,24.04,4.57,556,342,4678,94,304,173,95,99,1
552,340,4647,2,3,27,4962,1.96,-0.07,24.04,4.57,556,342,4677,94,304,173,94,99,1
548,336,4603,-1,0,-11,4913,1.96,-0.07,24.04,4.57,555,342,4674,94,304,173,94,99,1
546,335,4587,-5,-3,-44,4895,1.96,-0.07,24.04,4.57,555,342,4671,94,304,173,94,99,1
545,334,4580,-7,-5,-68,4886,1.96,-0.07,24.04,4.57,555,342,4668,94,304,173,94,99,1
545,334,4579,-8,-7,-82,4885,1.96,-0.07,24.04,4.57,554,341,4665,94,304,173,94,99,1
545,334,4584,-9,-7,-84,4890,1.96,-0.07,24.04,4.57,554,341,4663,94,304,173,94,99,1
547,336,4600,-8,-6,-78,4908,1.96,-0.07,24.04,4.57,554,341,4661,94,304,173,94,99,1
548,336,4608,-7,-6,-69,4917,1.96,-0.07,24.04,4.57,554,341,4659,94,304,173,94,99,1
549,337,4616,-6,-5,-58,4925,1.96,-0.07,24.04,4.57,553,341,4657,94,304,173,94,99,1
550,338,4626,-5,-4,-45,4937,1.96,-0.07,24.04,4.57,553,340,4656,94,304,173,94,99,1
551,339,4636,-3,-3,-35,4948,1.96,-0.07,24.04,4.57,553,340,4656,94,304,173,94,99,1
554,341,4660,-2,-1,-21,4973,1.96,-0.07,24.04,4.57,553,340,4656,94,304,173,94,99,1
555,341,4672,0,0,-7,4987,1.96,-0.07,24.04,4.57,553,340,4656,94,304,173,94,99,1
556,342,4683,1,0,6,4999,1.96,-0.07,24.04,4.57,553,341,4657,94,304,173,94,99,1
557,343,4696,2,1,21,5014,1.96,-0.07,24.04,4.57,554,341,4658,94,304,173,94,99,1
559,345,4710,3,2,32,5029,1.96,-0.07,24.04,4.57,554,341,4660,94,304,173,94,99,1
562,347,4732,4,3,45,5055,1.96,-0.07,24.04,4.57,554,341,4663,94,304,173,94,99,1
563,347,4744,6,4,59,5068,1.96,-0.07,24.04,4.57,554,341,4665,94,304,173,94,99,1
564,349,4755,7,6,71,5081,1.96,-0.07,24.04,4.57,555,341,4668,94,304,173,94,99,1
566,349,4766,9,6,82,5094,1.96,-0.07,24.04,4.57,555,342,4672,94,304,173,94,99,1
567,350,4774,10,7,89,5104,1.96,-0.07,24.04,4.57,555,342,4675,94,304,173,94,99,1
561,346,4759,9,6,90,5085,1.96,-0.07,24.04,4.57,556,342,4678,94,304,173,94,99,1
556,343,4684,7,5,70,5003,1.96,-0.07,24.04,4.57,556,342,4678,94,304,173,94,99,1
553,340,4652,3,2,40,4966,1.96,-0.07,24.04,4.57,556,342,4677,94,304,173,94,99,1
550,338,4627,0,0,3,4939,1.96,-0.07,24.04,4.57,555,342,4675,94,304,173,94,98,1
548,337,4609,-3,-2,-32,4919,1.96,-0.07,24.04,4.57,555,342,4673,94,304,173,94,98,1
546,335,4598,-6,-4,-52,4907,1.96,-0.07,24.04,4.57,555,342,4671,94,304,173,94,98,1
546,335,4585,-7,-5,-67,4892,1.96,-0.07,24.04,4.57,554,341,4668,94,304,173,94,98,1
546,335,4589,-8,-6,-74,4896,1.96,-0.07,24.04,4.57,554,341,4665,94,304,173,94,98,1
547,336,4596,-8,-6,-74,4903,1.96,-0.07,24.04,4.57,554,341,4663,94,304,173,94,98,1
548,336,4604,-7,-5,-70,4913,1.96,-0.07,24.04,4.57,554,341,4661,94,304,173,94,98,1
549,337,4614,-6,-5,-61,4923,1.96,-0.07,24.04,4.57,554,341,4659,94,304,173,94,98,1
550,339,4631,-5,-4,-49,4943,1.96,-0.07,24.04,4.57,553,341,4658,94,304,173,94,98,1
551,339,4641,-4,-3,-36,4953,1.96,-0.07,24.04,4.57,553,340,4658,94,304,173,94,98,1
552,340,4651,-2,-1,-24,4964,1.96,-0.07,24.04,4.57,553,340,4658,94,304,173,94,98,1
554,340,4661,-1,0,-12,4974,1.96,-0.07,24.04,4.57,553,340,4658,94,304,173,94,98,1
555,342,4674,0,0,-1,4990,1.96,-0.07,24.04,4.57,553,341,4658,94,304,173,94,98,1
557,344,4698,1,1,12,5017,1.96,-0.07,24.04,4.57,554,341,4660,94,304,173,94,98,1
558,344,4706,2,1,25,5026,1.96,-0.07,24.04,4.57,554,341,4661,94,304,173,94,98,1
560,345,4716,3,2,38,5036,1.96,-0.07,24.04,4.57,554,341,4663,94,304,173,94,98,1
560,346,4722,4,3,48,5044,1.96,-0.07,24.04,4.57,554,341,4665,94,304,173,94,98,1
562,347,4735,6,4,55,5059,1.96,-0.07,24.04,4.57,554,341,4667,94,304,173,94,98,1
565,349,4761,7,5,67,5088,1.96,-0.07,24.04,4.57,555,342,4670,94,304,173,94,98,1
566,350,4769,8,6,77,5098,1.96,-0.07,24.04,4.57,555,342,4674,94,304,173,94,98,1
565,349,4760,9,7,84,5088,1.96,-0.07,24.04,4.57,555,342,4677,94,304,173,94,98,1
561,347,4728,9,6,79,5052,1.96,-0.07,24.04,4.57,556,342,4678,94,304,169,94,98,1
557,344,4688,6,5,59,5008,1.96,-0.07,24.6,4.68,556,342,4679,94,304,169,94,98,1
550,339,4626,2,2,22,4967,1.96,-0.07,24.6,4.68,556,342,4677,94,304,169,94,98,1
548,337,4606,-1,0,-15,4916,1.96,-0.07,24.6,4.68,555,342,4675,94,304,169,93,98,1
547,336,4591,-5,-3,-48,4901,1.96,-0.07,24.6,4.68,555,342,4672,94,304,169,93,98,1
546,335,4586,-7,-5,-71,4894,1.96,-0.07,24.6,4.68,555,342,4669,94,304,169,93,98,1
546,335,4586,-8,-6,-78,4895,1.96,-0.07,24.6,4.68,554,341,4666,94,304,169,93,98,1
548,335,4594,-7,-6,-78,4903,1.96,-0.07,24.6,4.68,554,341,4664,94,304,169,93,98,1
549,336,4610,-7,-6,-71,4920,1.96,-0.07,24.6,4.68,554,341,4662,94,304,169,93,98,1
549,337,4616,-6,-5,-61,4926,1.96,-0.07,24.6,4.68,554,341,4660,94,304,169,93,98,1
549,338,4622,-5,-4,-50,4933,1.96,-0.07,24.6,4.68,554,341,4659,94,304,169,93,98,1
550,338,4629,-4,-3,-40,4941,1.96,-0.07,24.6,4.68,554,341,4658,94,304,169,93,98,1
551,339,4640,-4,-3,-31,4952,1.96,-0.07,24.6,4.68,553,341,4657,94,304,169,93,98,1
554,340,4657,-2,-2,-20,4971,1.96,-0.07,24.6,4.68,553,341,4657,94,304,169,93,98,1
554,341,4668,-1,-1,-9,4982,1.96,-0.07,24.6,4.68,554,341,4658,94,304,169,93,98,1
556,343,4682,0,0,4,4999,1.96,-0.07,24.6,4.68,554,341,4659,94,304,169,93,98,1
557,344,4695,1,1,17,5013,1.96,-0.07,24.6,4.68,554,341,4660,94,304,169,93,98,1
559,345,4710,2,2,29,5029,1.96,-0.07,24.6,4.68,554,341,4662,94,304,169,93,98,1
562,347,4733,4,3,43,5056,1.96,-0.07,24.6,4.68,554,341,4664,94,304,169,93,98,1
563,348,4743,6,5,57,5065,1.96,-0.07,24.6,4.68,554,341,4667,94,304,169,93,98,1
564,348,4755,7,6,69,5080,1.96,-0.07,24.6,4.68,555,341,4669,94,304,169,93,98,1
566,350,4767,9,7,81,5094,1.96,-0.07,24.6,4.68,555,342,4673,94,304,169,93,98,1
567,350,4777,10,7,89,5106,1.96,-0.07,24.6,4.68,556,342,4676,94,304,169,93,98,1
562,348,4737,9,7,85,5062,1.96,-0.07,24.6,4.68,556,342,4678,94,304,169,93,98,1
558,344,4698,7,6,68,5019,1.96,-0.07,24.6,4.68,556,342,4679,94,304,169,93,98,1
554,342,4663,4,4,41,4979,1.96,-0.07,24.6,4.68,556,342,4678,94,304,169,93,98,1
552,340,4639,0,1,6,4953,1.96,-0.07,24.6,4.68,556,342,4677,94,304,169,93,98,1
550,338,4623,-2,-1,-21,4935,1.96,-0.07,24.6,4.68,555,342,4675,94,304,169,93,98,1
548,336,4605,-4,-3,-43,4915,1.96,-0.07,24.6,4.68,555,342,4673,94,304,169,93,98,1
548,336,4605,-5,-4,-56,4914,1.96,-0.07,24.6,4.68,555,342,4671,94,304,169,93,98,1
549,337,4610,-6,-5,-61,4921,1.96,-0.07,24.6,4.68,555,342,4669,94,304,169,93,98,1
550,337,4620,-6,-5,-60,4931,1.96,-0.07,24.6,4.68,555,341,4667,94,304,169,93,98,1
551,339,4629,-5,-4,-52,4940,1.96,-0.07,24.6,4.68,554,341,4666,94,304,169,93,98,1
552,340,4638,-4,-3,-42,4950,1.96,-0.07,24.6,4.68,554,341,4665,94,304,169,93,98,1
553,340,4654,-2,-2,-30,4967,1.96,-0.07,24.6,4.68,554,341,4664,94,304,169,93,98,1
554,341,4661,-1,-1,-19,4976,1.96,-0.07,24.6,4.68,554,341,4664,94,304,169,93,98,1
555,342,4674,0,0,-7,4990,1.96,-0.07,24.6,4.68,554,341,4665,94,304,169,93,98,1
556,342,4684,0,0,3,5001,1.96,-0.07,24.6,4.68,554,341,4665,94,304,169,93,98,1
558,344,4698,1,1,14,5018,1.96,-0.07,24.6,4.68,555,341,4666,94,304,169,93,98,1
561,346,4724,3,2,29,5045,1.96,-0.07,24.6,4.68,555,342,4668,94,304,169,93,98,1
562,347,4731,4,3,42,5054,1.96,-0.07,24.6,4.68,555,342,4670,94,304,169,93,98,1
563,348,4743,6,4,54,5067,1.96,-0.07,24.6,4.68,555,342,4673,94,304,169,93,98,1
564,348,4753,7,5,66,5079,1.96,-0.07,24.6,4.68,556,342,4676,94,304,169,93,98,1
566,350,4767,8,6,74,5096,1.96,-0.07,24.6,4.68,556,342,4679,94,304,169,93,98,1
570,352,4796,10,7,87,5127,1.96,-0.07,24.6,4.68,556,343,4682,94,304,169,93,98,1
570,353,4801,11,8,98,5134,1.96,-0.07,24.6,4.68,557,343,4686,94,304,169,93,98,1
569,352,4790,12,9,104,5121,1.96,-0.07,24.6,4.68,557,343,4690,94,304,169,93,98,1
565,349,4756,11,8,98,5084,1.96,-0.07,24.6,4.68,557,344,4692,94,304,168,93,98,1
560,346,4719,8,6,76,5043,1.96,-0.07,24.68,4.71,558,344,4693,94,304,168,93,98,1
554,341,4664,4,3,40,4982,1.96,-0.07,24.68,4.71,557,344,4692,94,304,168,93,98,1
552,340,4647,0,0,4,4963,1.96,-0.07,24.68,4.71,557,343,4691,94,304,168,93,98,1
551,339,4636,-3,-2,-24,4950,1.96,-0.07,24.68,4.71,557,343,4689,94,304,168,93,98,1
550,339,4629,-5,-3,-45,4942,1.96,-0.07,24.68,4.71,557,343,4687,94,304,168,93,98,1
550,338,4629,-6,-4,-52,4941,1.96,-0.07,24.68,4.71,557,343,4685,94,304,168,93,98,1
552,339,4636,-6,-4,-53,4949,1.96,-0.07,24.68,4.71,556,343,4683,94,304,168,93,98,1
553,340,4647,-5,-4,-49,4961,1.96,-0.07,24.68,4.71,556,343,4682,94,304,168,93,98,1
553,340,4651,-4,-3,-42,4966,1.96,-0.07,24.68,4.71,556,343,4681,94,304,168,93,98,1
554,341,4658,-3,-3,-33,4974,1.96,-0.07,24.68,4.71,556,343,4680,94,304,168,93,98,1
555,341,4667,-2,-2,-25,4983,1.96,-0.07,24.68,4.71,556,343,4680,94,304,168,93,98,1
556,342,4678,-1,-1,-16,4995,1.96,-0.07,24.68,4.71,556,342,4680,94,304,168,93,98,1
558,344,4699,0,0,-4,5017,1.96,-0.07,24.68,4.71,556,343,4680,94,304,168,93,98,1
559,345,4709,1,0,8,5030,1.96,-0.07,24.68,4.71,556,343,4681,94,304,168,93,98,1
560,346,4719,2,1,20,5042,1.96,-0.07,24.68,4.71,556,343,4682,94,304,168,93,98,1
561,347,4730,3,2,32,5054,1.96,-0.07,24.68,4.71,557,343,4684,94,304,168,93,98,1
563,348,4743,4,3,42,5068,1.96,-0.07,24.68,4.71,557,343,4686,94,304,168,93,98,1
566,349,4763,5,4,53,5091,1.96,-0.07,24.68,4.71,557,343,4689,94,304,168,93,98,1
567,350,4774,7,5,65,5103,1.96,-0.07,24.68,4.71,557,343,4691,94,304,168,93,98,1
568,352,4787,8,6,76,5117,1.96,-0.07,24.68,4.71,558,344,4695,94,304,168,93,98,1
570,352,4799,10,7,87,5131,1.96,-0.07,24.68,4.71,558,344,4698,94,304,168,93,98,1
571,353,4805,11,8,94,5139,1.96,-0.07,24.68,4.71,559,344,4702,94,304,168,93,98,1
565,349,4754,10,7,86,5123,1.96,-0.07,24.68,4.71,559,344,4703,94,304,163,93,98,1
559,346,4712,7,5,65,5035,2.02,-0.06,25.5,4.85,559,345,4704,94,304,163,91,98,1
555,343,4676,3,3,33,4995,2.02,-0.06,25.5,4.85,559,344,4703,94,304,163,91,98,1
553,341,4650,-1,0,-4,4965,2.02,-0.06,25.5,4.85,559,344,4701,94,304,163,91,98,1
551,339,4633,-4,-2,-34,4947,2.02,-0.06,25.5,4.85,558,344,4699,94,304,163,91,98,1
549,337,4621,-6,-4,-54,4932,2.02,-0.06,25.5,4.85,558,344,4696,94,304,163,91,98,1
549,337,4611,-7,-5,-68,4921,2.02,-0.06,25.5,4.85,558,344,4693,94,304,163,91,98,1
549,338,4617,-8,-6,-74,4928,2.02,-0.06,25.5,4.85,557,344,4691,94,304,163,91,98,1
550,338,4624,-8,-6,-74,4936,2.02,-0.06,25.5,4.85,557,343,4689,94,304,163,91,98,1
551,339,4633,-7,-5,-68,4945,2.02,-0.06,25.5,4.85,557,343,4687,94,304,163,91,98,1
552,339,4645,-6,-4,-58,4959,2.02,-0.06,25.5,4.85,557,343,4685,94,304,163,91,98,1
554,341,4661,-5,-3,-45,4976,2.02,-0.06,25.5,4.85,557,343,4684,94,304,163,91,98,1
555,342,4670,-4,-2,-32,4987,2.02,-0.06,25.5,4.85,557,343,4684,94,304,163,91,98,1
556,343,4682,-2,-1,-19,4999,2.02,-0.06,25.5,4.85,557,343,4684,94,304,163,91,98,1
557,343,4694,-1,0,-7,5012,2.02,-0.06,25.5,4.85,557,343,4684,94,304,163,94,98,1
559,345,4708,0,0,4,5029,2.02,-0.06,25.5,4.85,557,343,4685,94,304,163,94,98,1
562,347,4732,1,1,19,5054,2.02,-0.06,25.5,4.85,557,343,4687,94,304,163,94,98,1
563,348,4741,3,2,32,5066,2.02,-0.06,25.5,4.85,557,343,4688,94,304,163,94,98,1
564,348,4750,5,3,45,5075,2.02,-0.06,25.5,4.85,557,344,4691,94,304,163,94,98,1
565,349,4758,6,4,55,5085,2.02,-0.06,25.5,4.85,557,344,4693,94,304,163,94,98,1
566,350,4771,7,5,63,5099,2.02,-0.06,25.5,4.85,558,344,4695,94,304,163,94,98,1
569,352,4795,8,5,74,5126,2.02,-0.06,25.5,4.85,558,344,4699,94,304,163,94,98,1
570,353,4803,9,7,84,5136,2.02,-0.06,25.5,4.85,559,344,4702,94,304,163,94,98,1
570,353,4803,10,7,92,5135,2.02,-0.06,25.5,4.85,559,345,4706,94,304,163,94,98,1
568,352,4777,10,8,90,5109,2.02,-0.06,25.5,4.85,559,345,4708,94,304,163,94,98,1
563,348,4738,8,6,74,5064,2.02,-0.06,25.45,4.86,559,345,4709,94,304,163,94,99,1
555,342,4670,5,3,39,4988,2.02,-0.06,25.45,4.86,559,345,4708,94,304,163,94,99,1
552,340,4646,0,0,0,4962,2.02,-0.06,25.45,4.86,559,345,4706,94,304,163,94,99,1
550,339,4628,-4,-2,-36,4941,2.02,-0.06,25.45,4.86,559,345,4703,94,304,163,94,99,1
550,338,4619,-7,-5,-63,4930,2.02,-0.06,25.45,4.86,558,344,4700,94,304,163,94,99,1
549,338,4615,-8,-5,-74,4926,2.02,-0.06,25.45,4.86,558,344,4697,94,304,163,94,99,1
550,338,4618,-8,-6,-78,4929,2.02,-0.06,25.45,4.86,558,344,4695,94,304,163,94,99,1
551,339,4633,-8,-5,-75,4947,2.02,-0.06,25.45,4.86,558,344,4693,94,304,163,94,99,1
552,339,4641,-7,-5,-67,4954,2.02,-0.06,25.45,4.86,557,344,4691,94,304,163,94,99,1
553,340,4649,-6,-5,-56,4963,2.02,-0.06,25.45,4.86,557,344,4689,94,304,163,94,99,1
554,341,4657,-4,-4,-45,4971,2.02,-0.06,25.45,4.86,557,343,4688,94,304,163,94,99,1
555,342,4670,-3,-3,-34,4985,2.02,-0.06,25.45,4.86,557,343,4688,94,304,163,94,99,1
557,344,4692,-2,-1,-21,5010,2.02,-0.06,25.45,4.86,557,343,4688,94,304,163,94,99,1
558,344,4702,-1,0,-7,5022,2.02,-0.06,25.45,4.86,557,343,4688,94,304,163,94,99,1
559,345,4714,0,0,6,5034,2.02,-0.06,25.45,4.86,557,344,4689,94,304,163,94,99,1
561,346,4723,1,1,19,5046,2.02,-0.06,25.45,4.86,557,344,4690,94,304,163,94,99,1
562,347,4735,3,1,28,5058,2.02,-0.06,25.45,4.86,557,344,4692,94,304,163,94,99,1
564,349,4754,4,2,40,5079,2.02,-0.06,25.45,4.86,558,344,4694,94,304,163,94,99,1
565,350,4763,5,4,50,5089,2.02,-0.06,25.45,4.86,558,344,4696,94,304,163,94,99,1
567,351,4776,6,5,61,5104,2.02,-0.06,25.45,4.86,558,344,4699,94,304,163,94,99,1
568,352,4787,7,6,72,5116,2.02,-0.06,25.45,4.86,559,345,4702,94,304,163,94,99,1
569,352,4797,8,6,80,5127,2.02,-0.06,25.45,4.86,559,345,4705,94,304,163,94,99,1
566,351,4769,8,6,79,5097,2.02,-0.06,25.45,4.86,559,345,4707,94,304,162,94,99,1
561,347,4729,7,5,65,5052,2.02,-0.06,25.6,4.89,559,345,4708,94,304,162,94,99,1
557,344,4690,4,3,39,5010,2.02,-0.06,25.6,4.89,559,345,4707,94,304,162,94,99,1
554,342,4658,0,1,4,4974,2.02,-0.06,25.6,4.89,559,345,4706,94,304,162,94,99,1
551,340,4640,-3,-1,-26,4954,2.02,-0.06,25.6,4.89,559,345,4703,94,304,162,94,99,1
549,338,4617,-6,-4,-53,4938,2.02,-0.06,25.6,4.89,558,345,4701,94,304,162,94,99,1
549,337,4612,-7,-5,-70,4922,2.02,-0.06,25.6,4.89,558,344,4698,94,304,162,94,99,1
549,337,4613,-8,-6,-78,4923,2.02,-0.06,25.6,4.89,558,344,4695,94,304,162,93,99,1
550,338,4621,-8,-6,-80,4932,2.02,-0.06,25.6,4.89,558,344,4692,94,304,162,93,99,1
550,338,4627,-8,-6,-75,4940,2.02,-0.06,25.6,4.89,557,344,4690,94,304,162,93,99,1
552,339,4638,-7,-5,-66,4950,2.02,-0.06,25.6,4.89,557,343,4688,94,304,162,93,99,1
554,341,4660,-5,-4,-52,4973,2.02,-0.06,25.6,4.89,557,343,4687,94,304,162,93,99,1
555,342,4672,-4,-3,-38,4987,2.02,-0.06,25.6,4.89,557,343,4687,94,304,162,93,99,1
557,343,4685,-2,-1,-23,5003,2.02,-0.06,25.6,4.89,557,343,4687,94,304,162,93,99,1
558,344,4696,-1,0,-8,5014,2.02,-0.06,25.6,4.89,557,343,4687,94,304,162,93,99,1
559,345,4712,0,0,4,5031,2.02,-0.06,25.6,4.89,557,343,4688,94,304,162,93,99,1
562,347,4735,2,1,19,5058,2.02,-0.06,25.6,4.89,557,344,4690,94,304,162,93,99,1
563,348,4746,3,2,33,5069,2.02,-0.06,25.6,4.89,557,344,4691,94,304,162,93,99,1
565,349,4758,5,3,47,5083,2.02,-0.06,25.6,4.89,558,344,4694,94,304,162,93,99,1
566,350,4768,6,4,59,5095,2.02,-0.06,25.6,4.89,558,344,4696,94,304,162,93,99,1
568,351,4780,7,5,68,5109,2.02,-0.06,25.6,4.89,558,344,4699,94,304,162,93,99,1
571,353,4806,9,6,80,5138,2.02,-0.06,25.6,4.89,559,345,4703,94,304,162,93,99,1
572,354,4819,10,7,92,5153,2.02,-0.06,25.6,4.89,559,345,4706,94,304,162,93,99,1
573,355,4825,12,8,103,5160,2.02,-0.06,25.6,4.89,560,345,4710,94,304,162,93,99,1
571,354,4812,12,8,107,5145,2.02,-0.06,25.6,4.89,560,346,4714,94,304,162,94,99,1
567,351,4776,11,8,96,5105,2.02,-0.06,25.6,4.89,560,346,4716,94,304,168,94,99,1
558,345,4700,7,5,64,5022,2.02,-0.06,24.66,4.71,560,346,4715,94,304,168,94,99,1
555,343,4672,2,2,25,4989,2.02,-0.06,24.66,4.71,560,346,4714,94,304,168,94,99,1
553,341,4650,-1,0,-14,4966,2.02,-0.06,24.66,4.71,560,345,4712,94,304,168,94,99,1
552,340,4641,-5,-3,-46,4956,2.02,-0.06,24.66,4.71,559,345,4709,94,304,168,94,99,1
551,339,4633,-6,-4,-61,4946,2.02,-0.06,24.66,4.71,559,345,4707,94,304,168,94,99,1
552,340,4639,-7,-5,-67,4951,2.02,-0.06,24.66,4.71,559,345,4705,94,304,168,94,99,1
552,340,4645,-7,-5,-66,4958,2.02,-0.06,24.66,4.71,559,345,4703,94,304,168,94,99,1
552,340,4648,-7,-5,-62,4962,2.02,-0.06,24.66,4.71,558,345,4701,94,304,168,94,99,1
553,341,4653,-6,-4,-55,4967,2.02,-0.06,24.66,4.71,558,344,4699,94,304,168,94,99,1
554,341,4662,-5,-4,-48,4977,2.02,-0.06,24.66,4.71,558,344,4698,94,304,168,94,99,1
556,342,4672,-4,-3,-40,4987,2.02,-0.06,24.66,4.71,558,344,4697,94,304,168,94,99,1
557,343,4691,-3,-2,-28,5008,2.02,-0.06,24.66,4.71,558,344,4697,94,304,168,94,99,1
558,344,4702,-1,-1,-15,5020,2.02,-0.06,24.66,4.71,558,344,4697,94,304,168,94,99,1
559,345,4713,0,0,-2,5034,2.02,-0.06,24.66,4.71,558,344,4698,94,304,168,94,99,1
561,346,4724,0,0,10,5046,2.02,-0.06,24.66,4.71,558,344,4698,94,304,168,94,99,1
564,347,4736,2,1,20,5059,2.02,-0.06,24.66,4.71,558,344,4700,94,304,168,94,99,1
565,349,4759,4,2,33,5085,2.02,-0.06,24.66,4.71,559,345,4702,94,304,168,94,99,1
566,350,4770,5,3,46,5098,2.02,-0.06,24.66,4.71,559,345,4704,94,304,168,94,99,1
568,351,4782,7,4,58,5110,2.02,-0.06,24.66,4.71,559,345,4707,94,304,168,94,99,1
569,352,4795,7,5,71,5125,2.02,-0.06,24.66,4.71,560,345,4709,94,304,168,94,99,1
571,353,4806,9,6,80,5137,2.02,-0.06,24.66,4.71,560,345,4713,94,304,168,94,99,1
570,353,4804,9,7,85,5136,2.02,-0.06,24.66,4.71,560,346,4716,94,304,168,94,99,1
566,350,4770,9,6,79,5098,2.02,-0.06,24.66,4.71,560,346,4718,94,304,164,94,99,1
561,347,4728,7,5,60,5053,2.02,-0.06,25.28,4.83,560,346,4718,94,304,164,94,99,1
558,345,4697,3,2,32,5018,2.02,-0.06,25.28,4.83,560,346,4717,94,304,164,94,99,1
556,343,4673,0,0,0,4992,2.02,-0.06,25.28,4.83,560,346,4716,94,304,164,94,99,1
552,340,4648,-3,-2,-29,4962,2.02,-0.06,25.28,4.83,560,346,4713,94,304,164,94,99,1
552,340,4641,-5,-3,-49,4956,2.02,-0.06,25.28,4.83,560,345,4711,94,304,164,94,99,1
552,339,4642,-6,-5,-61,4956,2.02,-0.06,25.28,4.83,559,345,4709,94,304,164,94,99,1
552,340,4649,-7,-5,-65,4962,2.02,-0.06,25.28,4.83,559,345,4707,94,304,164,93,99,1
554,341,4657,-6,-5,-60,4972,2.02,-0.06,25.28,4.83,559,345,4705,94,304,164,93,99,1
556,342,4676,-5,-4,-50,4982,2.02,-0.06,25.28,4.83,559,345,4704,94,304,164,93,99,1
556,343,4683,-4,-3,-38,5000,2.02,-0.06,25.28,4.83,559,345,4703,94,304,164,93,99,1
557,343,4691,-3,-2,-27,5009,2.02,-0.06,25.28,4.83,559,345,4703,94,304,164,93,99,1
558,344,4701,-2,-2,-15,5020,2.02,-0.06,25.28,4.83,559,345,4703,94,304,164,93,99,1
559,345,4713,-1,-1,-6,5034,2.02,-0.06,25.28,4.83,559,345,4703,94,304,164,93,99,1
562,346,4723,0,0,3,5044,2.02,-0.06,25.28,4.83,559,345,4704,94,304,164,93,99,1
563,348,4746,1,0,17,5071,2.02,-0.06,25.28,4.83,559,345,4705,94,304,164,93,99,1
565,348,4757,3,1,30,5084,2.02,-0.06,25.28,4.83,559,345,4707,94,304,164,93,99,1
566,350,4768,5,3,42,5096,2.02,-0.06,25.28,4.83,559,345,4709,94,304,164,93,99,1
567,351,4779,6,4,54,5109,2.02,-0.06,25.28,4.83,560,345,4711,94,304,164,93,99,1
569,352,4791,7,5,63,5121,2.02,-0.06,25.28,4.83,560,345,4714,94,304,164,93,99,1
572,354,4817,8,6,75,5150,2.02,-0.06,25.28,4.83,560,346,4718,94,304,164,93,99,1
573,355,4828,10,7,87,5163,2.02,-0.06,25.28,4.83,561,346,4721,94,304,164,93,99,1
574,355,4831,11,8,97,5167,2.02,-0.06,25.28,4.83,561,346,4725,94,304,164,94,99,1
573,355,4819,12,8,100,5154,2.02,-0.06,25.28,4.83,562,347,4728,94,304,164,94,99,1
569,352,4787,10,7,90,5118,2.02,-0.06,25.28,4.83,562,347,4730,94,304,165,94,99,1
561,347,4725,7,5,62,5048,2.02,-0.06,25.11,4.79,562,347,4730,94,304,165,94,99,1
559,346,4708,3,3,30,5029,2.02,-0.06,25.11,4.79,562,347,4729,94,304,165,94,99,1
557,344,4694,0,0,0,5014,2.02,-0.06,25.11,4.79,562,347,4728,94,304,165,94,99,1
557,343,4687,-3,-2,-25,5007,2.02,-0.06,25.11,4.79,561,347,4727,94,304,165,94,99,1
556,343,4685,-4,-2,-33,5004,2.02,-0.06,25.11,4.79,561,346,4725,94,304,165,94,99,1
556,343,4686,-4,-3,-38,5004,2.02,-0.06,25.11,4.79,561,346,4724,94,304,165,94,99,1
557,343,4689,-4,-3,-38,5008,2.02,-0.06,25.11,4.79,561,346,4723,94,304,165,94,99,1
557,344,4694,-4,-2,-35,5013,2.02,-0.06,25.11,4.79,561,346,4722,94,304,165,94,99,1
558,344,4701,-4,-2,-30,5020,2.02,-0.06,25.11,4.79,561,346,4721,94,304,165,94,99,1
559,345,4708,-3,-2,-23,5028,2.02,-0.06,25.11,4.79,561,346,4721,94,304,165,94,99,1
561,346,4723,-2,-1,-14,5038,2.02,-0.06,25.11,4.79,561,346,4721,94,304,165,94,99,1
562,346,4730,-1,0,-5,5053,2.02,-0.06,25.11,4.79,561,346,4721,94,304,165,94,99,1
563,347,4739,0,0,3,5063,2.02,-0.06,25.11,4.79,561,346,4722,94,304,165,94,99,1
564,348,4747,1,0,13,5072,2.02,-0.06,25.11,4.79,561,346,4722,94,304,165,94,99,1
565,349,4757,2,1,21,5084,2.02,-0.06,25.11,4.79,561,346,4724,94,304,165,94,99,1
568,350,4769,4,2,29,5097,2.02,-0.06,25.11,4.79,561,346,4725,94,304,165,94,99,1
569,352,4790,5,3,41,5121,2.02,-0.06,25.11,4.79,561,347,4727,94,304,165,94,99,1
571,353,4805,7,4,53,5137,2.02,-0.06,25.11,4.79,562,347,4730,94,304,165,94,99,1
572,354,4819,8,5,67,5153,2.02,-0.06,25.11,4.79,562,347,4733,94,304,165,94,99,1
574,355,4832,9,6,80,5167,2.02,-0.06,25.11,4.79,563,347,4736,94,304,165,94,99,1
576,357,4847,10,7,91,5184,2.02,-0.06,25.11,4.79,563,348,4740,94,304,165,91,99,1
572,354,4815,10,7,90,5150,2.02,-0.06,25.11,4.79,563,348,4742,94,304,156,91,99,1
567,351,4772,9,6,76,5102,2.02,-0.06,26.55,5.08,563,348,4743,94,304,156,91,99,1
562,348,4732,6,4,49,5057,2.02,-0.06,26.55,5.08,563,348,4743,94,304,156,91,99,1
558,345,4702,1,1,12,5024,2.02,-0.06,26.55,5.08,563,348,4742,94,304,156,91,99,1
556,343,4679,-2,-1,-20,4997,2.02,-0.06,26.55,5.08,563,348,4739,94,304,156,91,99,1
552,340,4649,-6,-3,-49,4963,2.02,-0.06,26.55,5.08,563,347,4736,94,304,156,91,99,1
551,339,4638,-8,-5,-70,4951,2.02,-0.06,26.55,5.08,562,347,4733,94,304,156,91,99,1
551,339,4640,-10,-7,-83,4953,2.02,-0.06,26.55,5.08,562,347,4730,94,304,156,91,99,1
552,339,4647,-10,-7,-88,4959,2.02,-0.06,26.55,5.08,562,347,4727,94,304,156,91,99,1
554,340,4655,-9,-7,-83,4969,2.02,-0.06,26.55,5.08,561,346,4725,94,304,156,91,99,1
556,342,4680,-8,-6,-70,4997,2.02,-0.06,26.55,5.08,561,346,4723,94,304,156,91,99,1
557,343,4689,-6,-5,-56,5007,2.02,-0.06,26.55,5.08,561,346,4722,94,304,156,91,99,1
558,344,4702,-4,-3,-41,5020,2.02,-0.06,26.55,5.08,561,346,4722,94,304,156,91,99,1
559,345,4714,-3,-2,-25,5032,2.02,-0.06,26.55,5.08,561,346,4721,94,304,156,91,99,1
560,346,4724,-2,-1,-14,5044,2.02,-0.06,26.55,5.08,561,346,4721,94,304,156,91,99,1
564,348,4736,0,0,-2,5059,2.02,-0.06,26.55,5.08,561,346,4722,94,304,156,91,99,1
565,349,4761,1,1,12,5086,2.02,-0.06,26.55,5.08,561,346,4723,94,304,156,91,99,1
566,350,4772,2,2,25,5099,2.02,-0.06,26.55,5.08,561,346,4725,94,304,156,91,99,1
568,351,4783,4,3,38,5111,2.02,-0.06,26.55,5.08,561,346,4727,94,304,156,91,99,1
569,352,4792,5,4,51,5122,2.02,-0.06,26.55,5.08,562,347,4729,94,304,156,91,99,1
570,353,4804,6,5,59,5134,2.02,-0.06,26.55,5.08,562,347,4731,94,304,156,91,99,1
573,354,4826,8,5,70,5160,2.02,-0.06,26.55,5.08,562,347,4735,94,304,156,91,99,1
574,355,4835,9,6,81,5171,2.02,-0.06,26.55,5.08,563,347,4738,94,304,156,91,99,1
574,355,4833,10,7,88,5169,2.02,-0.06,26.55,5.08,563,348,4741,94,304,156,91,99,1
571,353,4806,10,6,85,5139,2.02,-0.06,26.55,5.08,563,348,4743,94,304,161,91,99,1
566,350,4766,8,5,68,5094,2.02,-0.06,25.73,4.92,563,348,4744,94,304,161,91,99,1
558,344,4695,4,2,32,5014,2.02,-0.06,25.73,4.92,563,348,4742,94,304,161,91,99,1
555,342,4672,0,0,-7,4987,2.02,-0.06,25.73,4.92,563,348,4740,94,304,161,91,99,1
553,340,4652,-5,-3,-44,4966,2.02,-0.06,25.73,4.92,563,347,4737,94,304,161,91,99,1
552,339,4645,-8,-6,-72,4957,2.02,-0.06,25.73,4.92,562,347,4734,94,304,161,91,99,1
551,339,4643,-9,-7,-82,4955,2.02,-0.06,25.73,4.92,562,347,4731,94,304,161,91,99,1
554,340,4652,-9,-7,-84,4965,2.02,-0.06,25.73,4.92,562,346,4728,94,304,161,91,99,1
554,340,4659,-9,-7,-80,4973,2.02,-0.06,25.73,4.92,561,346,4726,94,304,161,91,99,1
555,341,4669,-8,-6,-71,4983,2.02,-0.06,25.73,4.92,561,346,4724,94,304,161,91,99,1
555,342,4676,-6,-5,-61,4992,2.02,-0.06,25.73,4.92,561,346,4723,94,304,161,91,99,1
556,343,4688,-6,-4,-50,5004,2.02,-0.06,25.73,4.92,561,346,4721,94,304,161,91,99,1
559,345,4714,-4,-3,-35,5033,2.02,-0.06,25.73,4.92,561,346,4721,94,304,161,91,99,1
561,346,4724,-3,-2,-21,5045,2.02,-0.06,25.73,4.92,561,346,4721,94,304,161,91,99,1
562,346,4735,-1,-1,-6,5056,2.02,-0.06,25.73,4.92,561,346,4722,94,304,161,91,99,1
563,348,4748,0,0,8,5071,2.02,-0.06,25.73,4.92,561,346,4723,94,304,161,91,99,1
565,349,4763,1,1,20,5088,2.02,-0.06,25.73,4.92,561,346,4724,94,304,161,91,99,1
569,351,4778,3,2,32,5105,2.02,-0.06,25.73,4.92,561,346,4726,94,304,161,91,99,1
570,352,4803,5,4,47,5132,2.02,-0.06,25.73,4.92,562,346,4728,94,304,161,91,99,1
572,353,4816,7,5,62,5147,2.02,-0.06,25.73,4.92,562,347,4731,94,304,161,91,99,1
574,354,4829,9,6,76,5162,2.02,-0.06,25.73,4.92,562,347,4735,94,304,161,91,99,1
575,355,4842,10,6,89,5177,2.02,-0.06,25.73,4.92,563,347,4738,94,304,161,91,99,1
576,357,4858,11,7,99,5194,2.02,-0.06,25.73,4.92,563,347,4742,94,304,161,91,99,1
572,354,4818,11,7,96,5152,2.02,-0.06,25.73,4.92,563,348,4745,94,304,166,91,99,1
567,350,4772,9,6,79,5101,2.02,-0.06,24.97,4.77,564,348,4746,94,304,166,91,99,1
562,347,4731,5,4,50,5055,2.02,-0.06,24.97,4.77,564,348,4745,94,304,166,91,99,1
558,345,4702,1,1,10,5022,2.02,-0.06,24.97,4.77,563,348,4744,94,304,166,91,99,1
556,342,4681,-2,-1,-22,4998,2.02,-0.06,24.97,4.77,563,347,4742,94,304,166,91,99,1
554,341,4658,-5,-3,-49,4973,2.02,-0.06,24.97,4.77,563,347,4739,94,304,166,91,99,1
553,340,4654,-7,-5,-66,4967,2.02,-0.06,24.97,4.77,562,347,4736,94,304,166,91,99,1
554,340,4658,-8,-6,-74,4972,2.02,-0.06,24.97,4.77,562,347,4733,94,304,166,91,99,1
555,341,4666,-8,-6,-75,4981,2.02,-0.06,24.97,4.77,562,347,4731,94,304,166,91,99,1
556,341,4676,-7,-6,-68,4992,2.02,-0.06,24.97,4.77,562,346,4729,94,304,166,91,99,1
557,343,4691,-6,-5,-57,5008,2.02,-0.06,24.97,4.77,562,346,4728,94,304,166,91,99,1
558,343,4698,-5,-4,-46,5016,2.02,-0.06,24.97,4.77,561,346,4727,94,304,166,91,99,1
559,344,4708,-4,-3,-34,5027,2.02,-0.06,24.97,4.77,561,346,4726,94,304,166,91,99,1
560,345,4719,-2,-2,-22,5039,2.02,-0.06,24.97,4.77,561,346,4726,94,304,166,91,99,1
561,346,4730,-1,-1,-12,5051,2.02,-0.06,24.97,4.77,561,346,4726,94,304,166,91,99,1
565,348,4757,0,0,2,5081,2.02,-0.06,24.97,4.77,561,346,4727,94,304,166,91,99,1
566,349,4769,1,1,16,5095,2.02,-0.06,24.97,4.77,562,346,4729,94,304,166,91,99,1
567,350,4780,3,2,31,5107,2.02,-0.06,24.97,4.77,562,346,4730,94,304,166,91,99,1
569,351,4793,5,3,45,5121,2.02,-0.06,24.97,4.77,562,347,4732,94,304,166,91,99,1
570,352,4804,6,4,55,5133,2.02,-0.06,24.97,4.77,562,347,4735,94,304,166,91,99,1
574,354,4832,7,5,68,5151,2.02,-0.06,24.97,4.77,563,347,4738,94,304,166,91,99,1
575,355,4844,9,6,81,5179,2.02,-0.06,24.97,4.77,563,347,4742,94,304,166,91,99,1
577,356,4854,11,7,93,5191,2.02,-0.06,24.97,4.77,564,347,4745,94,304,166,91,99,1
576,356,4848,12,8,101,5184,2.02,-0.06,24.97,4.77,564,348,4749,94,304,166,91,99,1
572,354,4815,11,7,93,5148,2.02,-0.06,24.97,4.77,564,348,4751,94,304,169,91,99,1
562,347,4772,7,5,73,5100,2.02,-0.06,24.56,4.69,564,348,4752,94,304,169,93,99,1
558,345,4703,3,2,34,5023,2.02,-0.06,24.56,4.69,564,348,4750,94,304,169,93,99,1
556,342,4680,-2,-1,-7,4997,2.02,-0.06,24.56,4.69,564,348,4748,94,304,169,93,99,1
555,341,4664,-6,-4,-44,4979,2.02,-0.06,24.56,4.69,563,347,4745,94,304,169,93,99,1
554,340,4656,-7,-5,-70,4969,2.02,-0.06,24.56,4.69,563,347,4742,94,304,169,93,99,1
553,340,4653,-8,-6,-80,4967,2.02,-0.06,24.56,4.69,563,347,4739,94,304,169,93,99,1
555,341,4666,-8,-6,-81,4980,2.02,-0.06,24.56,4.69,563,347,4737,94,304,169,93,99,1
555,341,4673,-8,-6,-76,4987,2.02,-0.06,24.56,4.69,562,347,4734,94,304,169,93,99,1
556,342,4680,-7,-5,-67,4995,2.02,-0.06,24.56,4.69,562,346,4733,94,304,169,93,99,1
556,342,4688,-6,-5,-57,5004,2.02,-0.06,24.56,4.69,562,346,4731,94,304,169,93,99,1
557,343,4696,-6,-4,-47,5013,2.02,-0.06,24.56,4.69,562,346,4730,94,304,169,93,99,1
560,345,4717,-4,-3,-35,5036,2.02,-0.06,24.56,4.69,562,346,4730,94,304,169,93,99,1
561,345,4724,-3,-2,-23,5045,2.02,-0.06,24.56,4.69,562,346,4729,94,304,169,93,99,1
562,346,4735,-2,-1,-11,5058,2.02,-0.06,24.56,4.69,562,346,4730,94,304,169,93,99,1
564,347,4749,0,0,1,5073,2.02,-0.06,24.56,4.69,562,346,4730,94,304,169,93,99,1
565,349,4761,1,0,12,5087,2.02,-0.06,24.56,4.69,562,346,4731,94,304,169,93,99,1
569,351,4788,3,2,27,5117,2.02,-0.06,24.56,4.69,562,346,4733,94,304,169,93,99,1
570,352,4799,5,3,42,5129,2.02,-0.06,24.56,4.69,562,347,4735,94,304,169,93,99,1
571,353,4812,6,4,55,5144,2.02,-0.06,24.56,4.69,563,347,4738,94,304,169,93,99,1
574,354,4829,8,5,70,5163,2.02,-0.06,24.56,4.69,563,347,4741,94,304,169,93,99,1
575,355,4844,9,6,81,5179,2.02,-0.06,24.56,4.69,563,347,4744,94,304,169,93,99,1
575,356,4857,10,7,92,5194,2.02,-0.06,24.56,4.69,564,348,4748,94,304,169,93,99,1
571,353,4807,10,7,88,5138,2.02,-0.06,24.56,4.69,564,348,4750,94,304,170,93,99,1
565,349,4759,7,5,68,5087,2.03,-0.06,24.41,4.66,564,348,4750,94,304,170,93,99,1
561,346,4724,4,3,37,5047,2.03,-0.06,24.41,4.66,564,348,4749,94,304,170,93,99,1
558,344,4696,0,0,-2,5015,2.03,-0.06,24.41,4.66,564,348,4748,94,304,170,93,99,1
554,342,4677,-4,-2,-34,4993,2.03,-0.06,24.41,4.66,563,347,4745,94,304,170,93,99,1
553,340,4652,-7,-4,-58,4965,2.03,-0.06,24.41,4.66,563,347,4742,94,304,170,93,99,1
552,339,4648,-9,-6,-75,4961,2.03,-0.06,24.41,4.66,563,347,4739,94,304,170,93,99,1
553,340,4652,-9,-6,-83,4965,2.03,-0.06,24.41,4.66,562,347,4736,94,304,170,93,99,1
554,340,4660,-9,-7,-84,4974,2.03,-0.06,24.41,4.66,562,346,4734,94,304,170,89,99,1
555,341,4671,-8,-6,-77,4984,2.03,-0.06,24.41,4.66,562,346,4732,94,304,170,89,99,1
557,342,4690,-7,-5,-64,5006,2.03,-0.06,24.41,4.66,562,346,4730,94,304,170,89,99,1
558,343,4700,-6,-4,-51,5017,2.03,-0.06,24.41,4.66,562,346,4729,94,304,170,89,99,1
560,344,4712,-4,-3,-36,5031,2.03,-0.06,24.41,4.66,561,346,4729,94,304,170,89,99,1
560,345,4724,-2,-2,-22,5043,2.03,-0.06,24.41,4.66,561,346,4728,94,304,170,89,99,1
562,346,4736,-1,-1,-10,5058,2.03,-0.06,24.41,4.66,561,346,4729,94,304,170,89,99,1
566,349,4764,0,0,5,5090,2.03,-0.06,24.41,4.66,562,346,4730,94,304,170,89,99,1
567,350,4778,2,1,21,5104,2.03,-0.06,24.41,4.66,562,346,4731,94,304,170,89,99,1
568,351,4789,4,3,36,5117,2.03,-0.06,24.41,4.66,562,346,4733,94,304,170,89,99,1
570,351,4801,5,4,50,5131,2.03,-0.06,24.41,4.66,562,346,4736,94,304,170,89,99,1
572,353,4815,7,5,61,5147,2.03,-0.06,24.41,4.66,563,347,4738,94,304,170,89,99,1
575,355,4844,8,6,75,5178,2.03,-0.06,24.41,4.66,563,347,4742,94,304,170,89,99,1
577,356,4858,10,7,89,5196,2.03,-0.06,24.41,4.66,563,347,4746,94,304,170,89,99,1
578,357,4861,12,8,100,5201,2.03,-0.06,24.41,4.66,564,348,4750,94,304,170,89,99,1
574,355,4835,12,8,102,5171,2.03,-0.06,24.41,4.66,564,348,4752,94,304,170,89,99,1
569,352,4794,10,7,86,5124,2.03,-0.06,24.41,4.66,564,348,4754,76,304,174,89,99,1
560,345,4713,6,4,48,5033,2.03,-0.06,23.87,3.68,564,348,4752,76,304,174,90,99,1
556,342,4683,0,0,4,4999,2.03,-0.06,23.87,3.68,564,348,4750,76,304,174,90,99,1
554,341,4662,-4,-2,-37,4976,2.03,-0.06,23.87,3.68,564,347,4747,76,304,174,90,99,1
553,339,4650,-8,-5,-71,4962,2.03,-0.06,23.87,3.68,563,347,4744,76,304,174,90,99,1
551,338,4642,-10,-7,-86,4953,2.03,-0.06,23.87,3.68,563,347,4741,76,304,174,90,99,1
553,339,4642,-10,-7,-93,4952,2.03,-0.06,23.87,3.68,563,347,4737,76,304,174,90,99,1
553,339,4655,-10,-8,-92,4967,2.03,-0.06,23.87,3.68,562,346,4735,76,304,174,90,99,1
554,340,4661,-9,-7,-86,4974,2.03,-0.06,23.87,3.68,562,346,4732,76,304,174,90,99,1
555,341,4670,-8,-6,-76,4984,2.03,-0.06,23.87,3.68,562,346,4730,76,304,174,90,99,1
556,342,4680,-7,-5,-64,4995,2.03,-0.06,23.87,3.68,562,346,4728,76,304,174,90,99,1
558,342,4691,-6,-4,-53,5007,2.03,-0.06,23.87,3.68,561,346,4727,76,304,174,90,99,1
560,345,4717,-4,-3,-38,5036,2.03,-0.06,23.87,3.68,561,346,4727,76,304,174,90,99,1
561,345,4725,-2,-2,-24,5045,2.03,-0.06,23.87,3.68,561,346,4727,76,304,174,90,99,1
563,346,4738,0,-1,-9,5060,2.03,-0.06,23.87,3.68,561,346,4727,76,304,174,90,99,1
564,347,4751,0,0,5,5074,2.03,-0.06,23.87,3.68,562,346,4728,76,304,174,90,99,1
566,349,4766,2,0,17,5092,2.03,-0.06,23.87,3.68,562,346,4729,76,304,174,90,99,1
569,351,4793,3,2,33,5121,2.03,-0.06,23.87,3.68,562,346,4731,76,304,174,90,98,1
570,351,4801,5,3,47,5131,2.03,-0.06,23.87,3.68,562,346,4734,76,304,174,90,98,1
572,353,4816,7,5,61,5147,2.03,-0.06,23.87,3.68,563,346,4736,76,304,174,90,98,1
573,354,4828,8,6,74,5162,2.03,-0.06,23.87,3.68,563,347,4739,76,304,174,90,98,1
575,355,4842,9,6,83,5177,2.03,-0.06,23.87,3.68,563,347,4743,76,304,174,90,98,1
574,354,4831,10,7,88,5166,2.03,-0.06,23.87,3.68,564,347,4746,76,304,174,90,98,1
569,352,4790,9,6,79,5120,2.03,-0.06,23.87,3.68,564,347,4747,76,304,175,90,98,1
563,348,4741,6,5,55,5063,2.03,-0.06,23.76,3.66,564,347,4747,76,304,175,90,98,1
558,344,4701,2,2,19,5019,2.03,-0.06,23.76,3.66,564,347,4745,76,304,175,90,98,1
555,342,4672,-2,0,-19,4987,2.03,-0.06,23.76,3.66,563,347,4743,76,304,175,90,98,1
552,339,4639,-6,-3,-55,4951,2.03,-0.06,23.76,3.66,563,347,4740,76,304,175,90,98,1
550,337,4628,-9,-6,-81,4939,2.03,-0.06,23.76,3.66,562,346,4736,76,304,175,90,98,1
551,337,4627,-10,-7,-96,4937,2.03,-0.06,23.76,3.66,562,346,4732,76,304,175,90,98,1
551,338,4636,-11,-8,-101,4947,2.03,-0.06,23.76,3.66,562,346,4729,76,304,175,90,98,1
552,339,4648,-10,-8,-96,4960,2.03,-0.06,23.76,3.66,561,346,4726,76,304,175,90,98,1
555,341,4655,-9,-7,-86,4969,2.03,-0.06,23.76,3.66,561,345,4724,76,304,175,90,98,1
556,341,4677,-7,-5,-71,4992,2.03,-0.06,23.76,3.66,561,345,4722,76,304,175,90,98,1
556,342,4686,-6,-4,-56,5001,2.03,-0.06,23.76,3.66,561,345,4721,76,304,175,90,98,1
557,343,4697,-5,-3,-43,5014,2.03,-0.06,23.76,3.66,561,345,4720,76,304,175,90,98,1
559,344,4708,-4,-2,-28,5025,2.03,-0.06,23.76,3.66,561,345,4720,76,304,175,90,98,1
561,345,4723,-2,-1,-16,5041,2.03,-0.06,23.76,3.66,561,345,4720,76,304,175,90,98,1
564,347,4750,0,0,0,5072,2.03,-0.06,23.76,3.66,561,345,4721,76,304,175,90,98,1
565,349,4764,1,1,15,5088,2.03,-0.06,23.76,3.66,561,345,4723,76,304,175,90,98,1
567,349,4779,3,2,32,5106,2.03,-0.06,23.76,3.66,561,345,4724,76,304,175,90,98,1
569,351,4793,5,3,47,5119,2.03,-0.06,23.76,3.66,561,346,4727,76,304,175,90,98,1
570,352,4806,6,4,59,5134,2.03,-0.06,23.76,3.66,562,346,4729,76,304,175,90,98,1
574,354,4835,8,5,75,5169,2.03,-0.06,23.76,3.66,562,346,4733,76,304,175,90,98,1
576,355,4847,10,7,88,5182,2.03,-0.06,23.76,3.66,563,346,4737,76,304,175,90,98,1
576,356,4852,11,8,100,5187,2.03,-0.06,23.76,3.66,563,347,4740,76,304,175,90,98,1
573,354,4829,12,8,102,5162,2.03,-0.06,23.76,3.66,563,347,4743,76,304,175,90,98,1
568,351,4788,10,7,87,5117,2.03,-0.06,23.76,3.66,563,347,4745,63,304,182,90,98,1
559,344,4706,6,4,50,5026,2.03,-0.06,22.84,2.92,563,347,4744,63,304,182,90,98,1
556,342,4676,1,0,6,4993,2.03,-0.06,22.84,2.92,563,347,4741,63,304,182,90,98,1
554,340,4654,-3,-2,-36,4968,2.03,-0.06,22.84,2.92,563,347,4738,63,304,182,90,98,1
552,339,4644,-7,-5,-69,4956,2.03,-0.06,22.84,2.92,562,346,4735,63,304,182,90,98,1
551,338,4636,-9,-6,-84,4947,2.03,-0.06,22.84,2.92,562,346,4732,63,304,182,90,98,1
552,338,4642,-10,-7,-89,4953,2.03,-0.06,22.84,2.92,562,346,4729,63,304,182,90,98,1
552,339,4647,-10,-7,-88,4959,2.03,-0.06,22.84,2.92,561,346,4726,63,304,182,90,98,1
553,339,4652,-9,-7,-83,4964,2.03,-0.06,22.84,2.92,561,345,4724,63,304,182,90,98,1
554,340,4657,-8,-6,-75,4969,2.03,-0.06,22.84,2.92,561,345,4722,63,304,182,90,98,1
554,340,4664,-7,-5,-68,4978,2.03,-0.06,22.84,2.92,561,345,4720,63,304,182,90,98,1
556,342,4674,-6,-4,-59,4989,2.03,-0.06,22.84,2.92,561,345,4718,63,304,182,90,98,1
558,343,4694,-5,-3,-47,5010,2.03,-0.06,22.84,2.92,560,345,4717,63,304,182,90,98,1
558,344,4705,-4,-2,-33,5023,2.03,-0.06,22.84,2.92,560,345,4717,63,304,182,90,98,1
560,344,4717,-2,-1,-19,5036,2.03,-0.06,22.84,2.92,560,345,4717,63,304,182,90,98,1
561,346,4727,0,0,-6,5046,2.03,-0.06,22.84,2.92,560,345,4717,63,304,182,90,98,1
564,348,4743,0,0,5,5064,2.03,-0.06,22.84,2.92,561,345,4718,63,304,182,90,98,1
566,349,4771,2,1,21,5096,2.03,-0.06,22.84,2.92,561,345,4720,63,304,182,90,98,1
568,350,4785,4,3,37,5112,2.03,-0.06,22.84,2.92,561,345,4722,63,304,182,90,98,1
570,352,4799,6,4,53,5128,2.03,-0.06,22.84,2.92,561,345,4725,63,304,182,90,98,1
571,353,4812,7,5,68,5142,2.03,-0.06,22.84,2.92,562,346,4728,63,304,182,90,98,1
572,354,4821,8,6,77,5154,2.03,-0.06,22.84,2.92,562,346,4731,63,304,182,90,98,1
568,351,4784,8,6,75,5114,2.03,-0.06,22.84,2.92,562,346,4732,63,304,178,90,98,1
562,347,4729,6,5,55,5052,2.03,-0.06,23.36,2.98,562,346,4732,63,304,178,90,98,1
556,342,4681,2,2,22,4998,2.03,-0.06,23.36,2.98,562,346,4731,63,304,178,90,98,1
552,340,4646,-2,-1,-20,4959,2.03,-0.06,23.36,2.98,562,346,4728,63,304,178,90,98,1
550,337,4619,-6,-4,-60,4930,2.03,-0.06,23.36,2.98,561,346,4724,63,304,178,90,98,1
547,334,4587,-10,-7,-92,4894,2.03,-0.06,23.36,2.98,561,345,4720,63,304,178,90,98,1
545,334,4579,-12,-9,-114,4884,2.03,-0.06,23.36,2.98,560,345,4715,63,304,178,90,98,1
545,333,4575,-13,-10,-127,4880,2.03,-0.06,23.36,2.98,560,344,4710,63,304,178,90,98,1
545,334,4575,-14,-10,-133,4879,2.03,-0.06,23.36,2.98,559,344,4706,63,304,178,90,98,1
545,334,4577,-14,-10,-131,4882,2.03,-0.06,23.36,2.98,559,344,4701,63,304,178,90,98,1
547,335,4589,-13,-9,-124,4894,2.03,-0.06,23.36,2.98,558,343,4698,63,304,178,90,98,1
548,335,4597,-12,-9,-115,4904,2.03,-0.06,23.36,2.98,558,343,4694,63,304,178,90,98,1
549,335,4604,-11,-8,-104,4911,2.03,-0.06,23.36,2.98,558,343,4691,63,304,178,90,98,1
549,336,4615,-9,-7,-91,4923,2.03,-0.06,23.36,2.98,557,343,4689,63,304,178,90,98,1
551,337,4627,-8,-7,-79,4936,2.03,-0.06,23.36,2.98,557,342,4687,63,304,178,90,98,1
553,339,4651,-6,-5,-64,4950,2.03,-0.06,23.36,2.98,557,342,4686,63,304,178,90,98,1
554,341,4659,-5,-4,-48,4971,2.03,-0.06,23.36,2.98,557,342,4685,63,304,178,90,98,1
555,341,4671,-3,-2,-33,4986,2.03,-0.06,23.36,2.98,557,342,4684,63,304,178,90,98,1
556,342,4684,-2,-1,-18,4999,2.03,-0.06,23.36,2.98,557,342,4684,63,304,178,90,98,1
558,344,4697,-1,0,-6,5015,2.03,-0.06,23.36,2.98,557,342,4685,63,304,178,90,98,1
560,345,4714,0,1,6,5033,2.03,-0.06,23.36,2.98,557,342,4686,63,304,178,90,98,1
563,347,4742,2,2,23,5063,2.03,-0.06,23.36,2.98,557,343,4687,63,304,178,90,98,1
564,348,4749,4,3,38,5072,2.03,-0.06,23.36,2.98,557,343,4689,63,304,178,90,98,1
562,347,4735,5,4,46,5058,2.03,-0.06,23.36,2.98,558,343,4691,63,304,178,90,98,1
558,344,4700,4,3,42,5018,2.03,-0.06,23.36,2.98,558,343,4691,63,304,179,90,98,1
554,340,4655,2,1,19,4968,2.03,-0.06,23.23,2.96,557,343,4690,63,304,179,90,98,1
546,334,4582,-2,-1,-21,4888,2.03,-0.06,23.23,2.96,557,343,4687,63,304,179,90,98,1
543,332,4554,-7,-5,-64,4856,2.03,-0.06,23.23,2.96,557,342,4682,63,304,179,90,98,1
541,330,4529,-10,-8,-104,4829,2.03,-0.06,23.23,2.96,556,342,4677,63,304,179,90,98,1
538,328,4509,-14,-11,-135,4807,2.03,-0.06,23.23,2.96,555,341,4671,63,304,179,90,98,1
537,327,4496,-16,-12,-152,4792,2.03,-0.06,23.23,2.96,555,341,4666,63,304,179,90,98,1
538,328,4508,-16,-12,-158,4805,2.03,-0.06,23.23,2.96,554,340,4660,63,304,179,90,98,1
540,329,4521,-16,-12,-154,4819,2.03,-0.06,23.23,2.96,554,340,4656,63,304,179,90,98,1
541,330,4533,-15,-11,-144,4831,2.03,-0.06,23.23,2.96,553,340,4652,63,304,179,90,98,1
542,330,4546,-13,-10,-127,4846,2.03,-0.06,23.23,2.96,553,339,4648,63,304,179,90,98,1
544,332,4564,-11,-9,-109,4865,2.03,-0.06,23.23,2.96,553,339,4645,63,304,179,90,98,1
548,335,4595,-9,-7,-87,4899,2.03,-0.06,23.23,2.96,553,339,4644,63,304,179,90,98,1
550,336,4611,-6,-5,-65,4917,2.03,-0.06,23.23,2.96,552,339,4642,63,304,179,90,98,1
551,337,4629,-4,-4,-43,4938,2.03,-0.06,23.23,2.96,552,339,4642,63,304,179,90,98,1
553,339,4650,-1,-2,-21,4962,2.03,-0.06,23.23,2.96,552,339,4642,63,304,179,90,98,1
555,341,4665,0,0,-3,4977,2.03,-0.06,23.23,2.96,553,339,4643,63,304,179,90,98,1
557,343,4680,1,1,13,4995,2.03,-0.06,23.23,2.96,553,339,4644,63,304,179,90,98,1
558,344,4702,3,2,30,5019,2.03,-0.06,23.23,2.96,553,339,4646,63,304,179,90,98,1
560,344,4716,4,4,45,5034,2.03,-0.06,23.23,2.96,553,339,4649,63,304,179,90,98,1
561,346,4730,6,5,59,5049,2.03,-0.06,23.23,2.96,553,340,4651,63,304,179,90,98,1
563,347,4744,7,5,73,5065,2.03,-0.06,23.23,2.96,554,340,4654,63,304,179,90,98,1
562,346,4734,8,6,78,5055,2.03,-0.06,23.23,2.96,554,340,4657,63,304,179,90,98,1
553,339,4647,6,4,59,4960,2.03,-0.06,23.23,2.96,554,340,4657,53,304,193,90,98,1
548,336,4599,2,2,25,4907,2.03,-0.06,21.57,2.31,554,340,4655,53,304,193,90,98,1
544,333,4562,-2,-1,-19,4866,2.03,-0.06,21.57,2.31,553,340,4652,53,304,193,90,98,1
541,330,4534,-7,-5,-67,4834,2.03,-0.06,21.57,2.31,553,339,4648,53,304,193,90,98,1
540,329,4515,-10,-7,-97,4813,2.03,-0.06,21.57,2.31,553,339,4643,53,304,193,90,98,1
538,327,4502,-12,-9,-117,4799,2.03,-0.06,21.57,2.31,552,339,4639,53,304,193,90,98,1
538,328,4508,-13,-10,-126,4805,2.03,-0.06,21.57,2.31,552,338,4634,53,304,193,90,98,1
540,328,4518,-13,-10,-125,4816,2.03,-0.06,21.57,2.31,551,338,4630,53,304,193,90,98,1
541,330,4532,-12,-10,-117,4830,2.03,-0.06,21.57,2.31,551,338,4627,53,304,193,90,98,1
542,330,4546,-11,-8,-102,4846,2.03,-0.06,21.57,2.31,551,337,4624,53,304,193,90,98,1
546,333,4577,-8,-7,-82,4879,2.03,-0.06,21.57,2.31,550,337,4623,53,304,193,90,98,1
547,334,4587,-6,-5,-63,4890,2.03,-0.06,21.57,2.31,550,337,4622,53,304,193,90,98,1
548,335,4600,-4,-4,-45,4906,2.03,-0.06,21.57,2.31,550,337,4621,53,304,193,90,98,1
549,336,4615,-2,-2,-27,4922,2.03,-0.06,21.57,2.31,550,337,4621,53,304,193,90,98,1
550,337,4626,-1,-1,-14,4936,2.03,-0.06,21.57,2.31,550,337,4621,53,304,193,90,98,1
553,339,4653,0,0,2,4950,2.03,-0.06,21.57,2.31,550,337,4622,53,304,193,90,98,1
555,340,4663,1,1,17,4975,2.03,-0.06,21.57,2.31,550,337,4623,53,304,193,90,98,1
556,341,4673,3,2,31,4986,2.03,-0.06,21.57,2.31,551,337,4625,53,304,193,90,98,1
556,341,4680,4,3,43,4994,2.03,-0.06,21.57,2.31,551,337,4627,53,304,193,90,98,1
557,343,4690,5,4,50,5005,2.03,-0.06,21.57,2.31,551,338,4629,53,304,193,90,98,1
558,344,4705,5,4,59,5022,2.03,-0.06,21.57,2.31,551,338,4631,53,304,193,90,98,1
562,346,4732,7,5,71,5052,2.03,-0.06,21.57,2.31,552,338,4635,53,304,193,90,98,1
561,346,4726,8,6,80,5047,2.03,-0.06,21.57,2.31,552,338,4638,53,304,193,90,98,1
558,344,4696,8,6,78,5013,2.03,-0.06,21.57,2.31,552,339,4640,53,304,196,90,98,1
553,341,4654,6,5,63,4967,2.03,-0.06,21.23,2.27,552,339,4640,45,304,196,93,98,1
550,338,4618,3,3,34,4927,2.03,-0.06,21.23,2.27,552,339,4639,45,304,196,93,98,1
545,333,4570,0,0,-4,4874,2.03,-0.06,21.23,2.27,552,338,4637,45,304,196,93,98,1
543,332,4554,-4,-2,-38,4856,2.03,-0.06,21.23,2.27,552,338,4634,45,304,196,93,98,1
542,330,4541,-6,-5,-64,4842,2.03,-0.06,21.23,2.27,551,338,4631,45,304,196,93,98,1
541,330,4535,-8,-6,-82,4837,2.03,-0.06,21.23,2.27,551,338,4628,45,304,196,93,98,1
541,330,4536,-9,-7,-88,4835,2.03,-0.06,21.23,2.27,551,337,4625,45,304,196,93,98,1
542,331,4544,-9,-7,-87,4844,2.03,-0.06,21.23,2.27,550,337,4622,45,304,196,93,98,1
543,332,4553,-8,-6,-81,4854,2.03,-0.06,21.23,2.27,550,337,4620,45,304,196,93,98,1
544,332,4564,-7,-5,-72,4866,2.03,-0.06,21.23,2.27,550,337,4618,45,304,196,93,98,1
545,333,4578,-6,-5,-59,4881,2.03,-0.06,21.23,2.27,550,337,4617,45,304,196,93,98,1
547,334,4591,-5,-4,-46,4896,2.03,-0.06,21.23,2.27,550,337,4616,45,304,196,93,98,1
550,337,4618,-3,-3,-29,4913,2.03,-0.06,21.23,2.27,550,337,4616,45,304,196,93,98,1
551,337,4626,-1,-1,-13,4935,2.03,-0.06,21.23,2.27,550,337,4616,45,304,196,93,98,1
551,338,4635,0,0,1,4945,2.03,-0.06,21.23,2.27,550,337,4617,45,304,196,93,98,1
553,339,4646,1,0,14,4958,2.03,-0.06,21.23,2.27,550,337,4618,45,304,196,93,98,1
554,340,4653,2,1,22,4965,2.03,-0.06,21.23,2.27,550,337,4619,45,304,196,93,98,1
555,341,4660,3,2,29,4973,2.03,-0.06,21.23,2.27,550,337,4621,45,304,196,93,98,1
556,342,4669,4,3,37,4984,2.03,-0.06,21.23,2.27,550,337,4622,45,304,196,93,98,1
556,342,4674,5,4,42,4990,2.03,-0.06,21.23,2.27,550,337,4624,45,304,196,93,98,1
557,342,4683,5,4,48,4999,2.03,-0.06,21.23,2.27,551,338,4626,45,304,196,93,98,1
557,343,4689,6,4,53,5007,2.03,-0.06,21.23,2.27,551,338,4628,45,304,196,93,98,1
555,342,4669,5,4,52,4984,2.03,-0.06,21.23,2.27,551,338,4629,45,304,182,93,98,1
548,336,4596,3,2,31,4904,2.03,-0.06,22.88,2.08,551,338,4628,45,304,182,93,98,1
545,333,4570,0,0,3,4875,2.03,-0.06,22.88,2.08,551,338,4626,45,304,182,93,98,1
543,332,4554,-3,-2,-29,4857,2.03,-0.06,22.88,2.08,550,337,4624,45,304,182,93,98,1
542,331,4546,-6,-4,-58,4848,2.03,-0.06,22.88,2.08,550,337,4621,45,304,182,93,98,1
542,331,4542,-7,-5,-69,4843,2.03,-0.06,22.88,2.08,550,337,4619,45,304,182,93,98,1
543,332,4552,-7,-5,-71,4853,2.03,-0.06,22.88,2.08,550,337,4616,45,304,182,93,98,1
544,332,4561,-7,-5,-67,4864,2.03,-0.06,22.88,2.08,549,337,4615,45,304,182,93,98,1
544,332,4567,-6,-5,-60,4869,2.03,-0.06,22.88,2.08,549,336,4613,45,304,182,93,98,1
546,333,4573,-5,-4,-50,4877,2.03,-0.06,22.88,2.08,549,336,4612,45,304,182,93,98,1
546,334,4581,-4,-3,-42,4886,2.03,-0.06,22.88,2.08,549,336,4611,45,304,182,93,98,1
548,335,4597,-3,-2,-32,4893,2.03,-0.06,22.88,2.08,549,336,4610,45,304,182,93,98,1
549,335,4607,-1,-1,-21,4914,2.03,-0.06,22.88,2.08,549,336,4610,45,304,182,93,98,1
550,336,4615,0,-1,-10,4923,2.03,-0.06,22.88,2.08,549,336,4610,45,304,182,93,98,1
550,337,4626,0,0,1,4934,2.03,-0.06,22.88,2.08,549,336,4611,45,304,182,93,98,1
552,338,4637,1,0,10,4946,2.03,-0.06,22.88,2.08,549,336,4612,45,304,182,94,98,1
555,339,4652,2,1,21,4963,2.03,-0.06,22.88,2.08,549,336,4613,45,304,182,94,98,1
556,341,4675,4,2,34,4990,2.03,-0.06,22.88,2.08,550,337,4615,45,304,182,94,98,1
557,342,4685,5,3,48,5002,2.03,-0.06,22.88,2.08,550,337,4617,45,304,182,94,98,1
558,343,4697,6,4,61,5014,2.03,-0.06,22.88,2.08,550,337,4620,45,304,182,94,98,1
560,345,4715,7,5,74,5035,2.03,-0.06,22.88,2.08,550,337,4623,45,304,182,94,98,1
561,346,4729,8,6,84,5051,2.03,-0.06,22.88,2.08,551,338,4627,45,304,182,94,98,1
563,348,4743,10,8,95,5066,2.03,-0.06,22.88,2.08,551,338,4631,45,304,182,94,98,1
560,346,4719,10,8,98,5038,2.03,-0.06,22.88,2.08,552,338,4633,45,304,182,94,98,1
556,342,4676,8,7,85,4991,2.03,-0.06,22.88,2.08,552,338,4635,45,304,179,94,98,1
552,339,4637,6,5,60,4950,2.03,-0.06,23.29,2.11,552,338,4635,45,304,179,94,98,1
549,337,4610,2,3,26,4919,2.03,-0.06,23.29,2.11,552,338,4634,45,304,179,94,98,1
546,334,4584,-1,0,-7,4889,2.03,-0.06,23.29,2.11,551,338,4632,45,304,179,94,98,1
546,334,4580,-3,-2,-30,4885,2.03,-0.06,23.29,2.11,551,338,4631,45,304,179,94,98,1
546,334,4582,-4,-3,-42,4887,2.03,-0.06,23.29,2.11,551,338,4629,45,304,179,94,98,1
547,335,4590,-4,-3,-46,4897,2.03,-0.06,23.29,2.11,551,338,4628,45,304,179,94,98,1
549,336,4605,-4,-3,-39,4913,2.03,-0.06,23.29,2.11,551,338,4627,45,304,179,94,98,1
551,338,4627,-2,-2,-26,4937,2.03,-0.06,23.29,2.11,551,338,4627,45,304,179,94,98,1
551,338,4636,-1,-1,-12,4946,2.03,-0.06,23.29,2.11,551,338,4627,45,304,179,94,98,1
552,339,4644,0,0,0,4956,2.03,-0.06,23.29,2.11,551,338,4628,45,304,179,94,98,1
554,340,4653,1,0,12,4967,2.03,-0.06,23.29,2.11,551,338,4629,45,304,179,94,98,1
555,341,4669,2,1,22,4984,2.03,-0.06,23.29,2.11,551,338,4630,45,304,179,94,98,1
558,343,4698,3,2,36,5016,2.03,-0.06,23.29,2.11,551,338,4632,45,304,179,94,98,1
559,345,4712,5,4,51,5031,2.03,-0.06,23.29,2.11,552,338,4635,45,304,179,94,98,1
561,346,4725,6,5,67,5045,2.03,-0.06,23.29,2.11,552,339,4638,45,304,179,94,98,1
562,347,4736,8,6,81,5058,2.03,-0.06,23.29,2.11,552,339,4641,45,304,179,94,98,1
564,348,4750,9,7,91,5075,2.03,-0.06,23.29,2.11,553,339,4645,45,304,179,94,98,1
567,351,4764,11,8,100,5090,2.03,-0.06,23.29,2.11,553,340,4649,45,304,179,94,98,1
569,351,4791,12,9,113,5120,2.03,-0.06,23.29,2.11,554,340,4654,45,304,179,94,98,1
570,353,4803,14,11,125,5133,2.03,-0.06,23.29,2.11,554,340,4659,45,304,179,94,98,1
570,353,4806,15,11,134,5137,2.03,-0.06,23.29,2.11,555,341,4663,45,304,179,94,98,1
569,352,4792,15,11,137,5121,2.03,-0.06,23.29,2.11,555,341,4668,45,304,179,94,98,1
559,346,4755,12,10,123,5080,2.03,-0.06,23.29,2.11,555,341,4671,45,304,180,94,98,1
556,343,4676,8,7,89,4993,1.97,-0.06,23.13,2.1,555,341,4671,45,304,180,94,98,1
553,341,4651,4,4,48,4965,1.97,-0.06,23.13,2.1,555,341,4670,45,304,180,94,98,1
552,339,4640,0,1,10,4954,1.97,-0.06,23.13,2.1,555,341,4669,45,304,180,94,98,1
552,339,4635,-1,0,-19,4947,1.97,-0.06,23.13,2.1,555,341,4668,45,304,180,94,98,1
552,339,4635,-2,-1,-28,4946,1.97,-0.06,23.13,2.1,555,341,4667,45,304,180,94,98,1
552,340,4647,-3,-1,-28,4960,1.97,-0.06,23.13,2.1,555,341,4666,45,304,180,94,98,1
553,340,4653,-2,-1,-24,4966,1.97,-0.06,23.13,2.1,555,341,4666,45,304,180,94,98,1
554,341,4660,-2,-1,-17,4974,1.97,-0.06,23.13,2.1,555,341,4666,45,304,180,94,98,1
555,341,4671,-1,0,-8,4986,1.97,-0.06,23.13,2.1,555,341,4666,45,304,180,94,98,1
557,342,4680,0,0,0,4996,1.97,-0.06,23.13,2.1,555,341,4666,45,304,180,94,98,1
558,343,4694,1,0,10,5012,1.97,-0.06,23.13,2.1,555,341,4667,45,304,180,94,98,1
559,344,4704,2,1,20,5023,1.97,-0.06,23.13,2.1,555,341,4668,45,304,180,94,98,1
560,345,4716,3,2,30,5036,1.97,-0.06,23.13,2.1,555,341,4670,45,304,180,94,98,1
561,346,4726,4,3,40,5046,1.97,-0.06,23.13,2.1,555,342,4672,45,304,180,94,98,1
563,347,4740,5,4,50,5062,1.97,-0.06,23.13,2.1,556,342,4674,45,304,180,94,98,1
566,349,4764,7,5,63,5090,1.97,-0.06,23.13,2.1,556,342,4677,45,304,180,94,98,1
567,351,4776,8,6,75,5105,1.97,-0.06,23.13,2.1,556,342,4680,45,304,180,94,98,1
569,352,4791,10,7,89,5121,1.97,-0.06,23.13,2.1,557,343,4684,45,304,180,94,98,1
571,353,4806,11,8,102,5137,1.97,-0.06,23.13,2.1,557,343,4688,45,304,180,94,98,1
572,354,4820,12,9,112,5152,1.97,-0.06,23.13,2.1,558,343,4693,45,304,180,94,98,1
572,354,4815,13,10,117,5147,1.97,-0.06,23.13,2.1,558,344,4697,45,304,180,94,98,1
567,351,4775,12,9,109,5104,1.97,-0.06,23.13,2.1,559,344,4699,45,304,171,94,98,1
561,347,4727,9,7,87,5050,1.97,-0.06,24.28,2.21,559,344,4700,45,304,171,94,98,1
557,344,4689,5,5,52,5007,1.97,-0.06,24.28,2.21,559,344,4700,45,304,171,94,98,1
555,342,4663,1,2,14,4978,1.97,-0.06,24.28,2.21,558,344,4699,45,304,171,94,98,1
551,340,4640,-2,0,-19,4954,1.97,-0.06,24.28,2.21,558,344,4697,45,304,171,94,98,1
551,339,4635,-4,-2,-41,4947,1.97,-0.06,24.28,2.21,558,344,4695,45,304,171,94,98,1
551,339,4639,-6,-4,-51,4950,1.97,-0.06,24.28,2.21,558,344,4693,45,304,171,94,98,1
553,340,4647,-6,-4,-53,4960,1.97,-0.06,24.28,2.21,558,343,4691,45,304,171,94,98,1
554,341,4653,-5,-3,-48,4967,1.97,-0.06,24.28,2.21,557,343,4690,45,304,171,94,98,1
556,341,4662,-4,-3,-40,4977,1.97,-0.06,24.28,2.21,557,343,4689,45,304,171,94,98,1
556,343,4682,-2,-1,-28,4998,1.97,-0.06,24.28,2.21,557,343,4689,45,304,171,94,98,1
557,343,4689,-1,-1,-17,5007,1.97,-0.06,24.28,2.21,557,343,4689,45,304,171,94,98,1
558,344,4698,0,0,-6,5016,1.97,-0.06,24.28,2.21,557,343,4689,45,304,171,94,98,1
559,345,4709,0,0,5,5029,1.97,-0.06,24.28,2.21,557,343,4690,45,304,171,94,98,1
560,346,4721,1,1,14,5042,1.97,-0.06,24.28,2.21,558,343,4691,45,304,171,94,98,1
564,348,4749,2,2,28,5074,1.97,-0.06,24.28,2.21,558,344,4693,45,304,171,94,98,1
565,350,4765,4,3,43,5091,1.97,-0.06,24.28,2.21,558,344,4695,45,304,171,94,98,1
567,351,4780,6,5,59,5108,1.97,-0.06,24.28,2.21,558,344,4698,45,304,171,94,98,1
569,352,4796,8,6,75,5126,1.97,-0.06,24.28,2.21,559,344,4701,45,304,171,94,98,1
571,353,4811,9,7,88,5142,1.97,-0.06,24.28,2.21,559,345,4705,45,304,171,94,98,1
574,355,4831,11,8,101,5166,1.97,-0.06,24.28,2.21,560,345,4709,45,304,171,94,98,1
572,355,4818,12,9,107,5152,1.97,-0.06,24.28,2.21,560,345,4713,45,304,171,94,98,1
567,351,4775,11,8,98,5103,1.97,-0.06,24.28,2.21,560,345,4715,45,304,169,94,98,1
561,347,4725,8,6,74,5049,1.97,-0.06,24.58,2.24,560,346,4715,45,304,169,94,98,1
556,344,4683,4,4,36,5001,1.97,-0.06,24.58,2.24,560,345,4714,45,304,169,94,98,1
551,340,4635,-1,0,-9,4948,1.97,-0.06,24.58,2.24,560,345,4711,45,304,169,94,98,1
550,339,4621,-5,-2,-46,4932,1.97,-0.06,24.58,2.24,559,345,4708,45,304,169,94,98,1
549,337,4612,-8,-5,-71,4922,1.97,-0.06,24.58,2.24,559,345,4705,45,304,169,94,98,1
550,337,4613,-9,-6,-86,4922,1.97,-0.06,24.58,2.24,559,345,4702,45,304,169,94,98,1
550,337,4620,-9,-7,-87,4930,1.97,-0.06,24.58,2.24,559,344,4699,45,304,169,94,98,1
552,339,4633,-8,-7,-81,4943,1.97,-0.06,24.58,2.24,558,344,4697,45,304,169,94,98,1
553,340,4652,-7,-6,-69,4965,1.97,-0.06,24.58,2.24,558,344,4696,45,304,169,94,98,1
554,340,4660,-6,-5,-55,4972,1.97,-0.06,24.58,2.24,558,344,4695,45,304,169,94,98,1
555,342,4672,-4,-3,-41,4985,1.97,-0.06,24.58,2.24,558,344,4694,45,304,169,94,98,1
556,342,4684,-3,-3,-27,4998,1.97,-0.06,24.58,2.24,558,344,4693,45,304,169,94,98,1
558,344,4696,-2,-2,-16,5014,1.97,-0.06,24.58,2.24,558,344,4694,45,304,169,94,98,1
561,346,4725,0,0,0,5044,1.97,-0.06,24.58,2.24,558,344,4695,45,304,169,94,98,1
562,347,4736,1,0,15,5058,1.97,-0.06,24.58,2.24,558,344,4696,45,304,169,94,98,1
564,348,4749,3,2,30,5072,1.97,-0.06,24.58,2.24,558,344,4698,45,304,169,94,98,1
565,350,4765,4,3,46,5090,1.97,-0.06,24.58,2.24,559,344,4700,45,304,169,94,98,1
567,351,4781,6,5,58,5108,1.97,-0.06,24.58,2.24,559,344,4703,45,304,169,94,98,1
571,353,4809,8,6,74,5139,1.97,-0.06,24.58,2.24,559,345,4706,45,304,169,94,98,1
572,354,4817,9,7,88,5147,1.97,-0.06,24.58,2.24,560,345,4710,45,304,169,94,98,1
570,353,4800,10,8,93,5130,1.97,-0.06,24.58,2.24,560,345,4713,45,304,169,94,98,1
565,350,4759,9,7,85,5084,1.97,-0.06,24.58,2.24,560,346,4714,45,304,171,94,98,1
559,346,4708,6,5,58,5027,1.97,-0.06,24.22,2.22,560,346,4714,45,304,171,94,98,1
551,339,4632,1,1,11,4979,1.97,-0.06,24.22,2.22,560,345,4711,45,304,171,94,98,1
549,337,4608,-3,-2,-35,4916,1.97,-0.06,24.22,2.22,559,345,4708,45,304,171,94,98,1
546,336,4589,-8,-5,-75,4895,1.97,-0.06,24.22,2.22,559,345,4704,45,304,171,94,98,1
546,335,4578,-11,-8,-104,4884,1.97,-0.06,24.22,2.22,559,344,4700,45,304,171,94,98,1
545,334,4574,-12,-9,-114,4878,1.97,-0.06,24.22,2.22,558,344,4696,45,304,171,94,98,1
547,334,4581,-12,-9,-117,4886,1.97,-0.06,24.22,2.22,558,344,4692,45,304,171,94,98,1
548,336,4600,-11,-9,-111,4907,1.97,-0.06,24.22,2.22,557,343,4689,45,304,171,94,98,1
549,337,4608,-10,-8,-100,4917,1.97,-0.06,24.22,2.22,557,343,4686,45,304,171,94,98,1
550,338,4619,-8,-7,-85,4928,1.97,-0.06,24.22,2.22,557,343,4684,45,304,171,94,98,1
550,338,4628,-7,-5,-71,4938,1.97,-0.06,24.22,2.22,557,343,4682,45,304,171,94,98,1
552,339,4642,-6,-5,-59,4952,1.97,-0.06,24.22,2.22,556,343,4681,45,304,171,94,98,1
554,341,4662,-5,-4,-44,4975,1.97,-0.06,24.22,2.22,556,343,4680,45,304,171,94,98,1
555,342,4672,-3,-3,-29,4987,1.97,-0.06,24.22,2.22,556,343,4680,45,304,171,94,98,1
556,343,4684,-1,-1,-15,5000,1.97,-0.06,24.22,2.22,556,343,4680,45,304,171,94,98,1
558,344,4696,0,0,-1,5013,1.97,-0.06,24.22,2.22,556,343,4680,45,304,171,94,98,1
559,345,4709,0,0,10,5028,1.97,-0.06,24.22,2.22,557,343,4681,45,304,171,94,98,1
562,347,4734,2,1,24,5055,1.97,-0.06,24.22,2.22,557,343,4683,45,304,171,94,98,1
563,348,4747,3,3,39,5070,1.97,-0.06,24.22,2.22,557,343,4685,45,304,171,94,98,1
565,349,4760,5,4,53,5084,1.97,-0.06,24.22,2.22,557,343,4688,45,304,171,94,98,1
565,349,4763,6,5,64,5089,1.97,-0.06,24.22,2.22,557,343,4690,45,304,171,94,98,1
563,348,4743,6,5,64,5067,1.97,-0.06,24.22,2.22,558,344,4692,45,304,171,94,98,1
552,341,4645,4,3,37,5017,1.97,-0.06,24.22,2.22,557,344,4690,45,304,174,94,98,1
549,337,4604,0,0,-1,4912,1.97,-0.06,23.82,2.18,557,343,4688,45,304,174,94,98,1
545,334,4573,-5,-3,-47,4880,1.97,-0.06,23.82,2.18,557,343,4684,45,304,174,94,98,1
543,333,4554,-9,-7,-91,4857,1.97,-0.06,23.82,2.18,556,343,4679,45,304,174,94,98,1
542,331,4539,-11,-9,-114,4841,1.97,-0.06,23.82,2.18,556,342,4675,45,304,174,94,98,1
540,330,4531,-13,-10,-127,4832,1.97,-0.06,23.82,2.18,555,342,4670,45,304,174,94,98,1
541,331,4535,-14,-11,-132,4835,1.97,-0.06,23.82,2.18,555,342,4665,45,304,174,94,98,1
542,331,4542,-13,-11,-131,4843,1.97,-0.06,23.82,2.18,554,341,4661,45,304,174,94,98,1
543,332,4552,-13,-10,-123,4854,1.97,-0.06,23.82,2.18,554,341,4658,45,304,174,94,98,1
544,332,4560,-11,-9,-112,4864,1.97,-0.06,23.82,2.18,554,341,4654,45,304,174,94,98,1
545,333,4570,-10,-8,-100,4875,1.97,-0.06,23.82,2.18,553,340,4652,45,304,174,94,98,1
547,335,4589,-8,-7,-85,4895,1.97,-0.06,23.82,2.18,553,340,4650,45,304,174,94,98,1
548,336,4599,-7,-6,-71,4906,1.97,-0.06,23.82,2.18,553,340,4648,45,304,174,94,98,1
549,337,4611,-5,-4,-57,4919,1.97,-0.06,23.82,2.18,553,340,4647,45,304,174,94,98,1
551,338,4623,-4,-3,-42,4933,1.97,-0.06,23.82,2.18,553,340,4646,45,304,174,94,98,1
552,339,4637,-3,-2,-29,4947,1.97,-0.06,23.82,2.18,553,340,4646,45,304,174,94,98,1
554,341,4657,-1,-1,-14,4971,1.97,-0.06,23.82,2.18,553,340,4646,45,304,174,94,98,1
555,342,4667,0,0,0,4982,1.97,-0.06,23.82,2.18,553,340,4647,45,304,174,94,98,1
556,342,4677,1,1,12,4994,1.97,-0.06,23.82,2.18,553,340,4648,45,304,174,94,98,1
557,344,4688,2,2,24,5006,1.97,-0.06,23.82,2.18,553,340,4649,45,304,174,94,98,1
558,344,4698,3,3,33,5017,1.97,-0.06,23.82,2.18,553,340,4651,45,304,174,94,98,1
555,342,4660,3,3,31,4976,1.97,-0.06,23.82,2.18,553,340,4651,45,304,172,94,98,1
549,338,4609,1,2,13,4920,1.97,-0.06,24.18,2.2,553,340,4649,45,304,172,94,98,1
544,334,4563,-1,0,-17,4868,1.97,-0.06,24.18,2.2,553,340,4647,45,304,172,94,98,1
541,331,4530,-5,-3,-57,4832,1.97,-0.06,24.18,2.2,553,340,4643,45,304,172,94,98,1
539,329,4507,-9,-6,-92,4806,1.97,-0.06,24.18,2.2,552,339,4638,45,304,172,94,98,1
535,327,4479,-12,-9,-120,4788,1.97,-0.06,24.18,2.2,552,339,4633,45,304,172,94,98,1
535,326,4471,-14,-11,-138,4766,1.97,-0.06,24.18,2.2,551,339,4627,45,304,172,94,98,1
535,326,4471,-15,-11,-148,4765,1.97,-0.06,24.18,2.2,550,338,4622,45,304,172,94,98,1
536,326,4480,-15,-12,-149,4775,1.97,-0.06,24.18,2.2,550,338,4618,45,304,172,94,98,1
537,327,4488,-14,-11,-142,4783,1.97,-0.06,24.18,2.2,550,337,4613,45,304,172,94,98,1
539,328,4499,-13,-10,-131,4796,1.97,-0.06,24.18,2.2,549,337,4609,45,304,172,94,98,1
540,329,4520,-11,-9,-114,4819,1.97,-0.06,24.18,2.2,549,337,4606,45,304,172,94,98,1
541,330,4529,-10,-8,-99,4829,1.97,-0.06,24.18,2.2,549,337,4604,45,304,172,94,98,1
542,331,4542,-8,-7,-82,4842,1.97,-0.06,24.18,2.2,548,336,4602,45,304,172,94,98,1
544,332,4557,-6,-6,-66,4859,1.97,-0.06,24.18,2.2,548,336,4600,45,304,172,94,98,1
546,334,4576,-5,-4,-50,4880,1.97,-0.06,24.18,2.2,548,336,4599,45,304,172,94,98,1
549,336,4608,-2,-2,-29,4916,1.97,-0.06,24.18,2.2,548,336,4600,45,304,172,94,98,1
550,338,4622,0,-1,-9,4931,1.97,-0.06,24.18,2.2,548,336,4601,45,304,172,94,98,1
552,339,4638,1,0,10,4948,1.97,-0.06,24.18,2.2,548,336,4602,45,304,172,94,98,1
553,340,4652,2,2,28,4965,1.97,-0.06,24.18,2.2,549,336,4603,45,304,172,94,98,1
555,341,4666,4,3,41,4980,1.97,-0.06,24.18,2.2,549,337,4606,45,304,172,94,98,1
557,343,4686,5,4,55,5003,1.97,-0.06,24.18,2.2,549,337,4608,45,304,172,94,98,1
556,342,4674,6,4,62,4990,1.97,-0.06,24.18,2.2,549,337,4610,45,304,172,94,98,1
551,339,4632,5,4,55,4945,1.97,-0.06,24.18,2.2,549,337,4611,39,304,181,94,98,1
546,335,4583,3,2,34,4890,1.97,-0.06,22.98,1.81,549,337,4610,39,304,181,94,98,1
542,332,4546,0,0,-1,4849,1.97,-0.06,22.98,1.81,549,337,4608,39,304,181,94,98,1
538,329,4501,-4,-3,-42,4799,1.97,-0.06,22.98,1.81,549,337,4604,39,304,181,94,98,1
537,327,4486,-8,-6,-76,4782,1.97,-0.06,22.98,1.81,548,336,4601,39,304,181,94,98,1
535,327,4479,-10,-7,-99,4774,1.97,-0.06,22.98,1.81,548,336,4596,39,304,181,94,98,1
536,326,4480,-11,-9,-112,4775,1.97,-0.06,22.98,1.81,547,336,4593,39,304,181,94,98,1
536,327,4487,-11,-9,-111,4781,1.97,-0.06,22.98,1.81,547,335,4589,39,304,181,94,98,1
539,329,4501,-10,-8,-104,4797,1.97,-0.06,22.98,1.81,547,335,4586,39,304,181,94,98,1
540,330,4523,-9,-7,-90,4821,1.97,-0.06,22.98,1.81,547,335,4584,39,304,181,94,98,1
541,330,4532,-7,-6,-74,4832,1.97,-0.06,22.98,1.81,546,335,4582,39,304,181,94,98,1
542,331,4545,-6,-5,-58,4845,1.97,-0.06,22.98,1.81,546,335,4581,39,304,181,94,98,1
543,332,4555,-4,-4,-43,4857,1.97,-0.06,22.98,1.81,546,334,4580,39,304,181,94,98,1
545,333,4570,-3,-3,-30,4872,1.97,-0.06,22.98,1.81,546,334,4580,39,304,181,94,98,1
548,336,4598,-1,-1,-13,4903,1.97,-0.06,22.98,1.81,546,335,4580,39,304,181,94,98,1
549,337,4608,0,0,2,4916,1.97,-0.06,22.98,1.81,546,335,4581,39,304,181,94,98,1
550,338,4620,2,1,18,4928,1.97,-0.06,22.98,1.81,546,335,4583,39,304,181,94,98,1
551,338,4631,3,2,32,4941,1.97,-0.06,22.98,1.81,547,335,4584,39,304,181,94,98,1
553,340,4647,4,3,43,4959,1.97,-0.06,22.98,1.81,547,335,4586,39,304,181,94,98,1
555,341,4668,5,4,56,4983,1.97,-0.06,22.98,1.81,547,335,4589,39,304,181,94,98,1
556,342,4675,6,5,67,4990,1.97,-0.06,22.98,1.81,547,335,4592,39,304,181,94,98,1
554,341,4662,7,5,72,4975,1.97,-0.06,22.98,1.81,548,336,4594,39,304,181,94,98,1
550,339,4622,6,5,64,4933,1.97,-0.06,22.98,1.81,548,336,4595,39,304,182,94,98,1
545,335,4571,3,3,38,4877,1.97,-0.06,22.84,1.8,547,336,4594,39,304,182,94,98,1
538,329,4501,0,0,-4,4799,1.97,-0.06,22.84,1.8,547,335,4591,39,304,182,94,98,1
536,327,4481,-5,-3,-48,4777,1.97,-0.06,22.84,1.8,547,335,4588,39,304,182,94,98,1
534,326,4466,-8,-6,-84,4760,1.97,-0.06,22.84,1.8,546,335,4584,39,304,182,94,98,1
533,325,4457,-11,-8,-109,4750,1.97,-0.06,22.84,1.8,546,335,4579,39,304,182,94,98,1
533,325,4459,-12,-9,-115,4751,1.97,-0.06,22.84,1.8,546,334,4575,39,304,182,94,98,1
536,326,4469,-11,-9,-114,4762,1.97,-0.06,22.84,1.8,545,334,4572,39,304,182,94,98,1
537,327,4493,-10,-8,-104,4788,1.97,-0.06,22.84,1.8,545,334,4569,39,304,182,94,98,1
538,328,4502,-9,-7,-90,4800,1.97,-0.06,22.84,1.8,545,333,4567,39,304,182,94,98,1
539,329,4515,-7,-6,-73,4813,1.97,-0.06,22.84,1.8,544,333,4565,39,304,182,94,98,1
540,330,4525,-6,-4,-57,4825,1.97,-0.06,22.84,1.8,544,333,4564,39,304,182,94,98,1
541,331,4539,-4,-3,-44,4839,1.97,-0.06,22.84,1.8,544,333,4563,39,304,182,94,98,1
545,333,4566,-2,-2,-27,4868,1.97,-0.06,22.84,1.8,544,333,4563,39,304,182,94,98,1
546,334,4579,-1,-1,-11,4883,1.97,-0.06,22.84,1.8,544,333,4564,39,304,182,94,98,1
548,336,4595,1,0,6,4899,1.97,-0.06,22.84,1.8,544,333,4565,39,304,182,94,98,1
549,336,4607,2,1,22,4914,1.97,-0.06,22.84,1.8,545,333,4566,39,304,182,94,98,1
550,338,4621,3,2,34,4930,1.97,-0.06,22.84,1.8,545,334,4568,39,304,182,94,98,1
553,340,4647,5,4,50,4958,1.97,-0.06,22.84,1.8,545,334,4571,39,304,182,94,98,1
554,341,4657,6,5,63,4969,1.97,-0.06,22.84,1.8,545,334,4574,39,304,182,94,98,1
555,342,4669,7,6,76,4982,1.97,-0.06,22.84,1.8,546,334,4577,39,304,182,94,98,1
556,342,4671,9,7,85,4985,1.97,-0.06,22.84,1.8,546,335,4580,39,304,182,94,98,1
553,340,4648,8,6,83,4962,1.97,-0.06,22.84,1.8,546,335,4582,34,304,187,94,98,1
542,333,4545,5,4,53,4849,1.97,-0.06,22.24,1.53,546,335,4581,34,304,187,94,98,1
538,329,4504,1,1,11,4803,1.97,-0.06,22.24,1.53,546,334,4578,34,304,187,94,98,1
535,327,4475,-4,-2,-36,4771,1.97,-0.06,22.24,1.53,546,334,4575,34,304,187,94,98,1
532,324,4453,-9,-6,-82,4747,1.97,-0.06,22.24,1.53,545,334,4571,34,304,187,94,98,1
531,323,4439,-11,-8,-104,4731,1.97,-0.06,22.24,1.53,545,334,4566,34,304,187,94,98,1
530,322,4430,-13,-9,-119,4722,1.97,-0.06,22.24,1.53,544,333,4562,34,304,187,94,98,1
531,323,4436,-13,-10,-124,4727,1.97,-0.06,22.24,1.53,544,333,4558,34,304,187,94,98,1
532,324,4446,-13,-10,-122,4737,1.97,-0.06,22.24,1.53,543,332,4554,34,304,187,94,98,1
533,324,4455,-12,-9,-114,4749,1.97,-0.06,22.24,1.53,543,332,4551,34,304,187,94,98,1
534,325,4466,-10,-8,-102,4760,1.97,-0.06,22.24,1.53,543,332,4548,34,304,187,94,98,1
537,326,4478,-8,-7,-88,4774,1.97,-0.06,22.24,1.53,542,332,4545,34,304,187,94,98,1
538,328,4499,-7,-6,-72,4796,1.97,-0.06,22.24,1.53,542,332,4544,34,304,187,94,98,1
539,329,4511,-5,-5,-56,4809,1.97,-0.06,22.24,1.53,542,332,4543,34,304,187,94,98,1
540,330,4527,-3,-3,-39,4827,1.97,-0.06,22.24,1.53,542,331,4542,34,304,187,94,98,1
542,331,4541,-2,-2,-23,4842,1.97,-0.06,22.24,1.53,542,331,4542,34,304,187,94,98,1
544,333,4558,0,0,-8,4861,1.97,-0.06,22.24,1.53,542,332,4543,34,304,187,94,98,1
547,335,4585,1,0,10,4891,1.97,-0.06,22.24,1.53,542,332,4544,34,304,187,94,98,1
548,336,4596,3,2,26,4903,1.97,-0.06,22.24,1.53,543,332,4546,34,304,187,94,98,1
549,337,4611,4,3,42,4919,1.97,-0.06,22.24,1.53,543,332,4548,34,304,187,94,98,1
551,339,4624,6,4,56,4934,1.97,-0.06,22.24,1.53,543,332,4551,34,304,187,94,98,1
552,339,4637,7,5,67,4948,1.97,-0.06,22.24,1.53,543,332,4553,34,304,187,94,98,1
548,337,4597,7,5,65,4905,1.97,-0.06,22.24,1.53,543,333,4555,34,304,188,94,98,1
542,332,4541,5,4,46,4844,1.97,-0.06,22.12,1.52,543,333,4554,34,304,188,94,98,1
537,328,4493,1,1,13,4790,1.97,-0.06,22.12,1.52,543,332,4552,34,304,188,94,98,1
533,325,4457,-3,-2,-30,4752,1.97,-0.06,22.12,1.52,543,332,4549,34,304,188,94,98,1
531,323,4435,-7,-5,-68,4727,1.97,-0.06,22.12,1.52,543,332,4545,34,304,188,94,98,1
527,321,4406,-10,-7,-99,4708,1.97,-0.06,22.12,1.52,542,331,4541,34,304,188,94,98,1
527,320,4400,-12,-9,-118,4687,1.97,-0.06,22.12,1.52,541,331,4536,34,304,188,94,98,1
527,320,4402,-13,-10,-127,4690,1.97,-0.06,22.12,1.52,541,331,4532,34,304,188,94,98,1
528,321,4411,-14,-10,-129,4698,1.97,-0.06,22.12,1.52,541,330,4528,34,304,188,94,98,1
529,322,4423,-13,-9,-121,4712,1.97,-0.06,22.12,1.52,540,330,4524,34,304,188,94,98,1
532,324,4435,-11,-8,-108,4726,1.97,-0.06,22.12,1.52,540,330,4521,34,304,188,94,98,1
533,324,4454,-9,-7,-92,4748,1.97,-0.06,22.12,1.52,540,330,4519,34,304,188,94,98,1
534,325,4465,-7,-6,-76,4759,1.97,-0.06,22.12,1.52,539,330,4517,34,304,188,94,98,1
536,326,4480,-5,-5,-59,4775,1.97,-0.06,22.12,1.52,539,329,4516,34,304,188,94,98,1
537,327,4493,-4,-4,-43,4790,1.97,-0.06,22.12,1.52,539,329,4515,34,304,188,94,98,1
539,329,4510,-2,-2,-28,4809,1.97,-0.06,22.12,1.52,539,329,4515,34,304,188,94,98,1
542,331,4543,0,0,-9,4845,1.97,-0.06,22.12,1.52,539,329,4516,34,304,188,94,98,1
543,332,4555,1,0,9,4857,1.97,-0.06,22.12,1.52,540,330,4517,34,304,188,94,98,1
545,333,4568,2,1,27,4872,1.97,-0.06,22.12,1.52,540,330,4519,34,304,188,94,98,1
546,334,4579,4,2,43,4885,1.97,-0.06,22.12,1.52,540,330,4521,34,304,188,94,98,1
548,336,4594,5,3,54,4902,1.97,-0.06,22.12,1.52,540,330,4523,34,304,188,94,98,1
550,338,4621,7,5,68,4931,1.97,-0.06,22.12,1.52,541,330,4527,34,304,188,94,98,1
549,338,4613,7,6,76,4923,1.97,-0.06,22.12,1.52,541,331,4529,34,304,188,94,98,1
545,335,4576,7,6,73,4883,1.97,-0.06,22.12,1.52,541,331,4531,34,304,192,94,98,1
540,331,4521,5,4,53,4823,1.96,-0.06,21.67,1.48,541,331,4531,31,304,192,94,98,1
535,327,4475,1,1,16,4771,1.96,-0.06,21.67,1.48,541,331,4529,31,304,192,94,98,1
529,322,4420,-3,-2,-31,4710,1.96,-0.06,21.67,1.48,540,330,4525,31,304,192,94,98,1
527,321,4402,-7,-5,-72,4690,1.96,-0.06,21.67,1.48,540,330,4521,31,304,192,94,98,1
526,319,4388,-10,-8,-101,4675,1.96,-0.06,21.67,1.48,539,330,4517,31,304,192,94,98,1
525,319,4384,-12,-9,-120,4671,1.96,-0.06,21.67,1.48,539,329,4512,31,304,192,94,98,1
526,319,4391,-13,-10,-123,4678,1.96,-0.06,21.67,1.48,538,329,4508,31,304,192,94,98,1
529,321,4417,-12,-9,-115,4692,1.96,-0.06,21.67,1.48,538,329,4505,31,304,192,94,98,1
530,322,4428,-10,-8,-102,4717,1.96,-0.06,21.67,1.48,538,328,4503,31,304,192,94,98,1
531,323,4437,-9,-7,-85,4727,1.96,-0.06,21.67,1.48,538,328,4500,31,304,192,94,98,1
532,324,4448,-7,-5,-69,4740,1.96,-0.06,21.67,1.48,537,328,4499,31,304,192,94,98,1
533,324,4457,-6,-4,-57,4750,1.96,-0.06,21.67,1.48,537,328,4497,31,304,192,94,98,1
536,325,4471,-4,-4,-44,4765,1.96,-0.06,21.67,1.48,537,328,4496,31,304,192,94,98,1
537,328,4495,-2,-2,-29,4792,1.96,-0.06,21.67,1.48,537,328,4496,31,304,192,94,98,1
539,329,4509,0,-1,-13,4808,1.96,-0.06,21.67,1.48,537,328,4497,31,304,192,94,98,1
541,330,4526,1,0,3,4825,1.96,-0.06,21.67,1.48,538,328,4498,31,304,192,94,98,1
542,331,4538,2,1,19,4839,1.96,-0.06,21.67,1.48,538,328,4499,31,304,192,94,98,1
543,332,4554,3,2,33,4855,1.96,-0.06,21.67,1.48,538,328,4501,31,304,192,94,98,1
546,335,4580,5,4,49,4885,1.96,-0.06,21.67,1.48,538,328,4504,31,304,192,94,98,1
547,336,4589,6,5,62,4896,1.96,-0.06,21.67,1.48,538,329,4506,31,304,192,94,98,1
548,336,4599,7,6,75,4907,1.96,-0.06,21.67,1.48,539,329,4510,31,304,192,94,98,1
547,336,4590,8,7,81,4898,1.96,-0.06,21.67,1.48,539,329,4512,31,304,192,94,98,1
543,333,4554,7,6,72,4859,1.96,-0.06,21.67,1.48,539,329,4514,29,304,195,94,98,1
533,326,4459,3,3,38,4754,1.96,-0.06,21.39,1.25,539,329,4512,29,304,195,94,98,1
530,323,4427,0,0,-4,4719,1.96,-0.06,21.39,1.25,539,329,4509,29,304,195,94,98,1
528,321,4408,-5,-3,-48,4697,1.96,-0.06,21.39,1.25,538,329,4506,29,304,195,94,98,1
526,320,4392,-9,-6,-85,4680,1.96,-0.06,21.39,1.25,538,328,4502,29,304,195,94,98,1
525,319,4384,-10,-7,-101,4670,1.96,-0.06,21.39,1.25,537,328,4498,29,304,195,94,98,1
526,319,4388,-11,-8,-107,4668,1.96,-0.06,21.39,1.25,537,328,4494,29,304,195,94,98,1
527,320,4397,-11,-8,-106,4684,1.96,-0.06,21.39,1.25,537,328,4491,29,304,195,94,98,1
527,321,4406,-10,-8,-99,4693,1.96,-0.06,21.39,1.25,536,327,4488,29,304,195,94,98,1
529,321,4416,-9,-7,-88,4705,1.96,-0.06,21.39,1.25,536,327,4486,29,304,195,94,98,1
530,322,4428,-8,-6,-75,4717,1.96,-0.06,21.39,1.25,536,327,4484,29,304,195,94,98,1
533,323,4442,-6,-5,-62,4733,1.96,-0.06,21.39,1.25,536,327,4482,29,304,195,94,98,1
534,325,4466,-4,-4,-45,4760,1.96,-0.06,21.39,1.25,536,327,4482,29,304,195,94,98,1
535,326,4479,-3,-3,-28,4773,1.96,-0.06,21.39,1.25,536,327,4482,29,304,195,94,98,1
537,327,4493,-1,-1,-12,4789,1.96,-0.06,21.39,1.25,536,327,4482,29,304,195,94,98,1
539,329,4506,0,0,3,4805,1.96,-0.06,21.39,1.25,536,327,4483,29,304,195,94,98,1
540,330,4521,1,1,17,4821,1.96,-0.06,21.39,1.25,536,327,4484,29,304,195,94,98,1
542,332,4547,3,2,33,4848,1.96,-0.06,21.39,1.25,536,327,4486,29,304,195,94,98,1
544,333,4557,5,4,47,4860,1.96,-0.06,21.39,1.25,536,327,4489,29,304,195,94,98,1
545,334,4571,6,5,61,4876,1.96,-0.06,21.39,1.25,537,327,4491,29,304,195,94,98,1
546,335,4584,7,6,74,4890,1.96,-0.06,21.39,1.25,537,328,4494,29,304,195,94,98,1
548,336,4592,9,7,83,4900,1.96,-0.06,21.39,1.25,537,328,4498,29,304,195,94,98,1
541,331,4532,7,6,74,4833,1.96,-0.06,21.39,1.25,538,328,4499,29,304,194,94,98,1
535,327,4478,5,4,49,4774,1.96,-0.06,21.49,1.25,537,328,4498,29,304,194,94,98,1
531,324,4439,1,1,12,4731,1.96,-0.06,21.49,1.25,537,328,4496,29,304,194,94,98,1
528,321,4410,-3,-2,-31,4699,1.96,-0.06,21.49,1.25,537,328,4493,29,304,194,94,98,1
526,320,4393,-7,-4,-64,4680,1.96,-0.06,21.49,1.25,537,327,4490,29,304,194,94,98,1
525,318,4374,-9,-6,-87,4666,1.96,-0.06,21.49,1.25,536,327,4486,29,304,194,94,98,1
524,318,4372,-10,-8,-100,4656,1.96,-0.06,21.49,1.25,536,327,4482,29,304,194,94,98,1
525,319,4380,-11,-8,-104,4664,1.96,-0.06,21.49,1.25,535,327,4479,29,304,194,94,98,1
526,319,4391,-10,-8,-101,4677,1.96,-0.06,21.49,1.25,535,326,4476,29,304,194,94,98,1
528,320,4406,-9,-7,-90,4693,1.96,-0.06,21.49,1.25,535,326,4474,29,304,194,94,98,1
530,322,4418,-7,-6,-76,4706,1.96,-0.06,21.49,1.25,535,326,4472,29,304,194,94,98,1
531,323,4439,-6,-5,-59,4729,1.96,-0.06,21.49,1.25,535,326,4471,29,304,194,94,98,1
532,324,4448,-4,-3,-44,4740,1.96,-0.06,21.49,1.25,535,326,4470,29,304,194,94,98,1
534,325,4459,-3,-2,-29,4753,1.96,-0.06,21.49,1.25,534,326,4470,29,304,194,94,98,1
535,326,4475,-1,-1,-15,4769,1.96,-0.06,21.49,1.25,535,326,4470,29,304,194,94,98,1
537,328,4491,0,0,-1,4787,1.96,-0.06,21.49,1.25,535,326,4470,29,304,194,94,98,1
540,330,4521,1,1,16,4820,1.96,-0.06,21.49,1.25,535,326,4472,29,304,194,94,98,1
541,331,4535,3,2,34,4835,1.96,-0.06,21.49,1.25,535,326,4474,29,304,194,94,98,1
542,332,4548,5,4,50,4850,1.96,-0.06,21.49,1.25,535,326,4477,29,304,194,94,98,1
544,333,4563,6,5,66,4866,1.96,-0.06,21.49,1.25,535,327,4480,29,304,194,94,98,1
546,335,4581,8,6,78,4886,1.96,-0.06,21.49,1.25,536,327,4483,29,304,194,94,98,1
548,336,4596,9,7,90,4904,1.96,-0.06,21.49,1.25,536,327,4487,29,304,194,94,98,1
544,334,4566,9,7,91,4871,1.96,-0.06,21.49,1.25,537,327,4489,29,304,194,94,98,1
539,330,4511,7,6,76,4812,1.96,-0.06,21.49,1.25,537,327,4490,29,304,194,94,98,1
533,326,4461,4,4,44,4756,1.96,-0.06,21.52,1.25,536,327,4489,29,304,194,94,98,1
530,323,4425,0,1,2,4716,1.96,-0.06,21.52,1.25,536,327,4487,29,304,194,94,98,1
525,319,4379,-4,-2,-43,4666,1.96,-0.06,21.52,1.25,536,327,4483,29,304,194,94,98,1
524,318,4364,-7,-5,-77,4649,1.96,-0.06,21.52,1.25,535,327,4479,29,304,194,94,98,1
523,317,4357,-10,-7,-99,4640,1.96,-0.06,21.52,1.25,535,326,4475,29,304,194,94,98,1
523,317,4358,-11,-8,-112,4641,1.96,-0.06,21.52,1.25,535,326,4471,29,304,194,94,98,1
524,318,4368,-11,-8,-111,4652,1.96,-0.06,21.52,1.25,534,326,4468,29,304,194,94,98,1
527,320,4382,-10,-8,-103,4667,1.96,-0.06,21.52,1.25,534,326,4465,29,304,194,94,98,1
528,321,4406,-8,-6,-88,4694,1.96,-0.06,21.52,1.25,534,325,4463,29,304,194,94,98,1
529,321,4418,-7,-5,-71,4706,1.96,-0.06,21.52,1.25,534,325,4462,29,304,194,94,98,1
530,323,4430,-5,-4,-53,4721,1.96,-0.06,21.52,1.25,534,325,4461,29,304,194,94,98,1
531,324,4444,-4,-2,-37,4735,1.96,-0.06,21.52,1.25,533,325,4460,29,304,194,94,98,1
533,325,4457,-2,-1,-23,4750,1.96,-0.06,21.52,1.25,533,325,4460,29,304,194,94,98,1
537,327,4488,0,0,-5,4783,1.96,-0.06,21.52,1.25,534,325,4461,29,304,194,94,98,1
538,329,4501,1,1,11,4797,1.96,-0.06,21.52,1.25,534,325,4462,29,304,194,94,98,1
539,329,4514,3,2,28,4814,1.96,-0.06,21.52,1.25,534,326,4464,29,304,194,94,98,1
540,330,4528,4,3,44,4828,1.96,-0.06,21.52,1.25,534,326,4466,29,304,194,94,98,1
542,332,4544,5,4,56,4846,1.96,-0.06,21.52,1.25,534,326,4469,29,304,194,94,98,1
546,335,4581,7,5,74,4887,1.96,-0.06,21.52,1.25,535,326,4472,29,304,194,94,98,1
547,336,4593,9,7,90,4901,1.96,-0.06,21.52,1.25,535,327,4476,29,304,194,94,98,1
547,337,4592,10,8,103,4900,1.96,-0.06,21.52,1.25,536,327,4480,29,304,194,94,98,1
544,334,4564,10,8,104,4868,1.96,-0.06,21.52,1.25,536,327,4483,29,304,194,94,98,1
539,330,4513,8,7,84,4812,1.96,-0.06,21.52,1.25,536,327,4484,27,304,199,94,98,1
529,323,4428,3,4,42,4720,1.96,-0.06,20.95,1.14,536,327,4482,27,304,199,94,98,1
527,321,4402,-1,0,-5,4691,1.96,-0.06,20.95,1.14,535,327,4480,27,304,199,94,98,1
525,319,4383,-5,-3,-49,4670,1.96,-0.06,20.95,1.14,535,327,4476,27,304,199,94,98,1
524,319,4372,-9,-6,-81,4657,1.96,-0.06,20.95,1.14,535,326,4473,27,304,199,94,98,1
524,318,4368,-9,-7,-93,4652,1.96,-0.06,20.95,1.14,534,326,4469,27,304,199,94,98,1
525,319,4373,-10,-7,-97,4658,1.96,-0.06,20.95,1.14,534,326,4466,27,304,199,94,98,1
527,320,4395,-9,-7,-91,4682,1.96,-0.06,20.95,1.14,534,326,4464,27,304,199,94,98,1
527,321,4407,-8,-6,-79,4696,1.96,-0.06,20.95,1.14,534,325,4462,27,304,199,94,98,1
528,322,4418,-7,-5,-64,4707,1.96,-0.06,20.95,1.14,533,325,4460,27,304,199,94,98,1
530,323,4430,-5,-3,-48,4720,1.96,-0.06,20.95,1.14,533,325,4459,27,304,199,94,98,1
532,324,4443,-4,-2,-35,4735,1.96,-0.06,20.95,1.14,533,325,4459,27,304,199,94,98,1
535,326,4473,-1,-1,-18,4767,1.96,-0.06,20.95,1.14,533,325,4459,27,304,199,94,98,1
537,327,4488,0,0,0,4784,1.96,-0.06,20.95,1.14,533,325,4460,27,304,199,94,98,1
538,329,4502,2,1,16,4801,1.96,-0.06,20.95,1.14,534,325,4462,27,304,199,94,98,1
540,330,4519,4,2,34,4819,1.96,-0.06,20.95,1.14,534,326,4464,27,304,199,94,98,1
541,331,4533,5,3,47,4834,1.96,-0.06,20.95,1.14,534,326,4466,27,304,199,94,98,1
543,333,4559,6,5,63,4863,1.96,-0.06,20.95,1.14,534,326,4469,27,304,199,94,98,1
545,334,4573,8,6,78,4879,1.96,-0.06,20.95,1.14,535,326,4472,27,304,199,94,98,1
547,335,4587,9,7,92,4894,1.96,-0.06,20.95,1.14,535,327,4476,27,304,199,94,98,1
548,337,4603,10,8,106,4911,1.96,-0.06,20.95,1.14,536,327,4481,27,304,199,94,98,1
549,337,4608,11,9,114,4918,1.96,-0.06,20.95,1.14,536,327,4485,27,304,199,94,98,1
542,332,4540,10,8,102,4844,1.96,-0.06,20.95,1.14,536,327,4487,25,304,202,95,98,1
537,329,4489,8,6,75,4787,1.96,-0.06,20.65,1.04,536,328,4487,25,304,202,95,98,1
533,325,4450,4,3,35,4745,1.96,-0.06,20.65,1.04,536,327,4485,25,304,202,95,98,1
529,323,4425,0,0,-9,4717,1.96,-0.06,20.65,1.04,536,327,4483,25,304,202,95,98,1
528,322,4408,-4,-2,-41,4699,1.96,-0.06,20.65,1.04,536,327,4481,25,304,202,95,98,1
526,320,4398,-6,-4,-61,4687,1.96,-0.06,20.65,1.04,535,327,4478,25,304,202,95,98,1
527,320,4397,-8,-5,-72,4686,1.96,-0.06,20.65,1.04,535,327,4475,25,304,202,95,98,1
528,321,4407,-8,-6,-74,4695,1.96,-0.06,20.65,1.04,535,326,4473,25,304,202,95,98,1
529,322,4419,-7,-5,-69,4708,1.96,-0.06,20.65,1.04,535,326,4471,25,304,202,95,98,1
530,323,4431,-6,-4,-58,4722,1.96,-0.06,20.65,1.04,534,326,4470,25,304,202,95,98,1
531,324,4441,-5,-3,-46,4734,1.96,-0.06,20.65,1.04,534,326,4469,25,304,202,95,98,1
534,325,4461,-3,-2,-31,4756,1.96,-0.06,20.65,1.04,534,326,4469,25,304,202,95,98,1
535,326,4472,-1,-1,-18,4767,1.96,-0.06,20.65,1.04,534,326,4469,25,304,202,95,98,1
536,327,4485,0,0,-4,4781,1.96,-0.06,20.65,1.04,534,326,4469,25,304,202,95,98,1
537,329,4500,1,0,10,4799,1.96,-0.06,20.65,1.04,535,326,4471,25,304,202,95,98,1
540,330,4519,2,2,23,4819,1.96,-0.06,20.65,1.04,535,326,4472,25,304,202,95,98,1
543,333,4552,4,3,42,4856,1.96,-0.06,20.65,1.04,535,327,4475,25,304,202,95,98,1
544,334,4567,6,5,60,4873,1.96,-0.06,20.65,1.04,535,327,4478,25,304,202,95,98,1
546,335,4580,8,6,78,4887,1.96,-0.06,20.65,1.04,536,327,4481,25,304,202,95,98,1
548,336,4595,9,7,93,4903,1.96,-0.06,20.65,1.04,536,327,4485,25,304,202,95,98,1
549,338,4609,11,8,104,4919,1.96,-0.06,20.65,1.04,536,328,4489,25,304,202,95,98,1
551,339,4628,12,9,115,4939,1.96,-0.06,20.65,1.04,537,328,4494,25,304,202,95,98,1
548,338,4605,12,10,117,4915,1.96,-0.06,20.65,1.04,537,328,4498,25,304,202,95,98,1
543,334,4555,10,9,104,4860,1.96,-0.06,20.65,1.04,538,329,4499,25,304,200,95,98,1
538,330,4502,7,6,74,4803,1.96,-0.06,20.79,1.05,538,329,4500,25,304,200,95,98,1
534,327,4463,3,3,32,4759,1.96,-0.06,20.79,1.05,537,329,4498,25,304,200,95,98,1
529,322,4418,-1,0,-13,4709,1.96,-0.06,20.79,1.05,537,328,4496,25,304,200,95,98,1
528,321,4404,-5,-3,-50,4694,1.96,-0.06,20.79,1.05,537,328,4493,25,304,200,95,98,1
527,320,4396,-7,-5,-73,4684,1.96,-0.06,20.79,1.05,536,328,4489,25,304,200,95,98,1
527,321,4398,-8,-7,-87,4687,1.96,-0.06,20.79,1.05,536,328,4486,25,304,200,95,98,1
528,321,4408,-8,-7,-86,4697,1.96,-0.06,20.79,1.05,536,327,4484,25,304,200,95,98,1
530,323,4420,-8,-6,-79,4709,1.96,-0.06,20.79,1.05,536,327,4482,25,304,200,95,98,1
531,324,4440,-7,-5,-66,4732,1.96,-0.06,20.79,1.05,536,327,4480,25,304,200,95,98,1
532,325,4450,-5,-3,-51,4743,1.96,-0.06,20.79,1.05,535,327,4479,25,304,200,95,98,1
534,326,4462,-3,-2,-37,4757,1.96,-0.06,20.79,1.05,535,327,4479,25,304,200,95,98,1
535,327,4477,-2,-1,-22,4774,1.96,-0.06,20.79,1.05,535,327,4479,25,304,200,95,98,1
537,328,4490,0,0,-9,4788,1.96,-0.06,20.79,1.05,535,327,4479,25,304,200,95,98,1
539,330,4515,1,0,6,4815,1.96,-0.06,20.79,1.05,536,327,4480,25,304,200,95,98,1
541,331,4528,2,2,22,4829,1.96,-0.06,20.79,1.05,536,327,4482,25,304,200,95,98,1
542,332,4541,4,3,37,4843,1.96,-0.06,20.79,1.05,536,328,4484,25,304,200,95,98,1
543,333,4555,5,4,51,4859,1.96,-0.06,20.79,1.05,536,328,4486,25,304,200,95,98,1
545,335,4573,6,5,64,4879,1.96,-0.06,20.79,1.05,536,328,4489,25,304,200,95,98,1
549,337,4605,8,6,80,4915,1.96,-0.06,20.79,1.05,537,328,4493,25,304,200,95,98,1
550,338,4617,10,7,96,4929,1.96,-0.06,20.79,1.05,537,329,4497,25,304,200,95,98,1
550,339,4617,11,8,108,4930,1.96,-0.06,20.79,1.05,538,329,4501,25,304,200,95,98,1
547,337,4588,11,9,108,4897,1.96,-0.06,20.79,1.05,538,329,4504,25,304,200,95,98,1
541,332,4536,9,7,87,4841,1.96,-0.06,20.79,1.05,538,329,4505,25,304,198,95,98,1
533,326,4455,4,4,45,4750,1.96,-0.06,21.02,1.06,538,329,4503,25,304,198,95,98,1
530,323,4429,0,0,-1,4721,1.96,-0.06,21.02,1.06,538,329,4501,25,304,198,95,98,1
528,322,4410,-4,-3,-44,4701,1.96,-0.06,21.02,1.06,537,329,4498,25,304,198,95,98,1
527,320,4397,-8,-6,-76,4687,1.96,-0.06,21.02,1.06,537,328,4494,25,304,198,95,98,1
526,320,4392,-9,-7,-89,4681,1.96,-0.06,21.02,1.06,537,328,4491,25,304,198,95,98,1
528,321,4408,-9,-7,-91,4686,1.96,-0.06,21.02,1.06,536,328,4488,25,304,198,95,98,1
529,322,4419,-9,-7,-85,4709,1.96,-0.06,21.02,1.06,536,328,4486,25,304,198,95,98,1
530,323,4431,-8,-6,-74,4723,1.96,-0.06,21.02,1.06,536,328,4484,25,304,198,95,98,1
531,324,4444,-6,-5,-59,4737,1.96,-0.06,21.02,1.06,536,327,4483,25,304,198,95,98,1
533,325,4455,-5,-4,-46,4750,1.96,-0.06,21.02,1.06,536,327,4482,25,304,198,95,98,1
536,326,4469,-3,-2,-32,4764,1.96,-0.06,21.02,1.06,536,327,4481,25,304,198,95,98,1
537,328,4495,-1,-1,-16,4793,1.96,-0.06,21.02,1.06,536,327,4482,25,304,198,95,98,1
539,329,4510,0,0,0,4810,1.96,-0.06,21.02,1.06,536,327,4483,25,304,198,95,98,1
540,331,4526,2,1,17,4826,1.96,-0.06,21.02,1.06,536,328,4484,25,304,198,95,98,1
542,332,4543,3,2,34,4846,1.96,-0.06,21.02,1.06,536,328,4486,25,304,198,95,98,1
543,333,4557,5,3,48,4861,1.96,-0.06,21.02,1.06,536,328,4489,25,304,198,95,98,1
547,335,4584,6,4,64,4891,1.96,-0.06,21.02,1.06,537,328,4492,25,304,198,95,98,1
548,337,4598,8,6,80,4907,1.96,-0.06,21.02,1.06,537,328,4495,25,304,198,95,98,1
549,338,4613,9,7,94,4923,1.96,-0.06,21.02,1.06,538,329,4499,25,304,198,95,98,1
550,339,4625,11,8,107,4937,1.96,-0.06,21.02,1.06,538,329,4503,25,304,198,95,98,1
551,339,4621,11,9,113,4931,1.96,-0.06,21.02,1.06,538,329,4507,25,304,198,95,98,1
541,332,4531,9,7,93,4834,1.96,-0.06,21.02,1.06,538,330,4508,25,304,200,95,98,1
536,328,4482,6,5,58,4780,1.96,-0.06,20.76,1.05,538,329,4507,25,304,200,95,98,1
532,325,4446,2,1,13,4740,1.96,-0.06,20.76,1.05,538,329,4505,25,304,200,93,98,1
529,323,4422,-3,-2,-35,4714,1.96,-0.06,20.76,1.05,538,329,4502,25,304,200,93,98,1
528,321,4406,-6,-4,-64,4696,1.96,-0.06,20.76,1.05,538,329,4499,25,304,200,93,98,1
526,320,4392,-9,-6,-84,4680,1.96,-0.06,20.76,1.05,537,329,4496,25,304,200,93,98,1
527,320,4397,-10,-7,-93,4685,1.96,-0.06,20.76,1.05,537,328,4492,25,304,200,93,98,1
528,321,4409,-10,-8,-93,4698,1.96,-0.06,20.76,1.05,537,328,4490,25,304,200,93,98,1
529,322,4421,-9,-7,-86,4711,1.96,-0.06,20.76,1.05,536,328,4487,25,304,200,93,98,1
530,323,4432,-8,-6,-73,4724,1.96,-0.06,20.76,1.05,536,328,4485,25,304,200,93,98,1
533,324,4454,-6,-5,-57,4747,1.96,-0.06,20.76,1.05,536,328,4484,25,304,200,93,98,1
534,326,4465,-4,-4,-42,4759,1.96,-0.06,20.76,1.05,536,327,4484,25,304,200,93,98,1
535,327,4477,-3,-2,-27,4773,1.96,-0.06,20.76,1.05,536,327,4484,25,304,200,93,98,1
537,328,4491,-1,-1,-12,4789,1.96,-0.06,20.76,1.05,536,327,4484,25,304,200,93,98,1
539,329,4508,0,0,1,4807,1.96,-0.06,20.76,1.05,536,328,4485,25,304,200,93,98,1
542,332,4525,2,1,15,4826,1.96,-0.06,20.76,1.05,536,328,4486,25,304,200,93,98,1
543,333,4551,4,2,33,4856,1.96,-0.06,20.76,1.05,536,328,4488,25,304,200,93,98,1
544,334,4563,5,4,49,4868,1.96,-0.06,20.76,1.05,537,328,4491,25,304,200,93,98,1
546,335,4577,7,5,64,4885,1.96,-0.06,20.76,1.05,537,328,4493,25,304,200,93,98,1
547,336,4590,8,6,78,4898,1.96,-0.06,20.76,1.05,537,329,4497,25,304,200,93,98,1
550,338,4606,9,7,88,4915,1.96,-0.06,20.76,1.05,538,329,4500,25,304,200,93,98,1
550,338,4613,10,8,98,4923,1.96,-0.06,20.76,1.05,538,329,4504,25,304,200,93,98,1
545,335,4576,10,7,94,4884,1.96,-0.06,20.76,1.05,538,329,4506,25,304,198,93,98,1
540,332,4525,8,6,75,4828,1.96,-0.06,21.03,1.06,538,329,4507,25,304,198,93,98,1
535,328,4477,4,4,42,4775,1.96,-0.06,21.03,1.06,538,329,4506,25,304,198,93,98,1
532,325,4446,0,1,0,4740,1.96,-0.06,21.03,1.06,538,329,4504,25,304,198,93,98,1
528,322,4406,-4,-2,-41,4696,1.96,-0.06,21.03,1.06,538,329,4501,25,304,198,93,98,1
527,320,4394,-7,-5,-71,4681,1.96,-0.06,21.03,1.06,537,329,4497,25,304,198,93,98,1
526,320,4390,-9,-7,-90,4677,1.96,-0.06,21.03,1.06,537,328,4494,25,304,198,93,98,1
527,320,4396,-10,-8,-99,4684,1.96,-0.06,21.03,1.06,537,328,4490,25,304,198,93,98,1
528,321,4407,-9,-8,-95,4696,1.96,-0.06,21.03,1.06,536,328,4488,25,304,198,93,98,1
530,323,4430,-8,-7,-83,4722,1.96,-0.06,21.03,1.06,536,328,4486,25,304,198,93,98,1
531,324,4438,-7,-6,-69,4731,1.96,-0.06,21.03,1.06,536,328,4484,25,304,198,93,98,1
532,324,4447,-5,-5,-54,4740,1.96,-0.06,21.03,1.06,536,328,4483,25,304,198,93,98,1
534,325,4457,-4,-3,-40,4751,1.96,-0.06,21.03,1.06,536,327,4482,25,304,198,93,98,1
535,326,4470,-3,-2,-29,4764,1.96,-0.06,21.03,1.06,536,327,4482,25,304,198,93,98,1
538,329,4500,-1,-1,-13,4800,1.96,-0.06,21.03,1.06,536,327,4482,25,304,198,93,98,1
539,330,4517,0,0,3,4818,1.96,-0.06,21.03,1.06,536,328,4483,25,304,198,93,98,1
541,331,4533,2,1,22,4834,1.96,-0.06,21.03,1.06,536,328,4485,25,304,198,93,98,1
543,333,4549,4,3,40,4852,1.96,-0.06,21.03,1.06,536,328,4487,25,304,198,93,98,1
545,334,4564,5,4,54,4869,1.96,-0.06,21.03,1.06,537,328,4490,25,304,198,93,98,1
548,337,4598,7,5,72,4906,1.96,-0.06,21.03,1.06,537,328,4493,25,304,198,93,98,1
550,338,4613,9,7,89,4922,1.96,-0.06,21.03,1.06,538,329,4497,25,304,198,93,98,1
551,339,4625,11,8,104,4937,1.96,-0.06,21.03,1.06,538,329,4502,25,304,198,93,98,1
551,339,4627,12,9,116,4939,1.96,-0.06,21.03,1.06,538,329,4506,25,304,198,93,98,1
549,338,4603,12,9,113,4914,1.96,-0.06,21.03,1.06,539,330,4509,25,304,202,93,98,1
539,330,4508,9,7,84,4863,1.92,-0.06,20.56,1.04,539,330,4509,24,304,202,93,98,1
535,327,4472,4,3,44,4770,1.92,-0.06,20.56,1.04,539,330,4508,24,304,202,92,98,1
532,325,4447,0,0,0,4740,1.92,-0.06,20.56,1.04,538,329,4506,24,304,202,92,98,1
530,323,4428,-4,-3,-42,4720,1.92,-0.06,20.56,1.04,538,329,4503,24,304,202,92,98,1
529,322,4419,-6,-5,-62,4709,1.92,-0.06,20.56,1.04,538,329,4500,24,304,202,92,98,1
530,322,4417,-7,-6,-74,4707,1.92,-0.06,20.56,1.04,538,329,4498,24,304,202,92,98,1
530,324,4434,-8,-6,-74,4725,1.92,-0.06,20.56,1.04,537,329,4495,24,304,202,92,98,1
532,324,4446,-7,-5,-67,4738,1.92,-0.06,20.56,1.04,537,328,4494,24,304,202,92,98,1
533,325,4456,-6,-4,-56,4749,1.92,-0.06,20.56,1.04,537,328,4493,24,304,202,92,98,1
534,326,4467,-4,-3,-42,4762,1.92,-0.06,20.56,1.04,537,328,4492,24,304,202,92,98,1
535,327,4478,-3,-2,-30,4774,1.92,-0.06,20.56,1.04,537,328,4491,24,304,202,92,98,1
538,329,4500,-2,-1,-16,4799,1.92,-0.06,20.56,1.04,537,328,4492,24,304,202,92,98,1
539,330,4513,0,0,-2,4813,1.92,-0.06,20.56,1.04,537,328,4492,24,304,202,92,98,1
540,331,4525,1,1,12,4825,1.92,-0.06,20.56,1.04,537,328,4493,24,304,202,92,98,1
542,332,4540,2,2,26,4841,1.92,-0.06,20.56,1.04,537,328,4495,24,304,202,92,98,1
543,333,4555,4,3,39,4858,1.92,-0.06,20.56,1.04,537,329,4497,24,304,202,92,98,1
546,335,4581,5,4,54,4887,1.92,-0.06,20.56,1.04,538,329,4500,24,304,202,92,98,1
547,336,4591,7,5,68,4900,1.92,-0.06,20.56,1.04,538,329,4503,24,304,202,92,98,1
549,337,4603,8,6,81,4912,1.92,-0.06,20.56,1.04,538,329,4506,24,304,202,92,98,1
550,338,4616,9,7,93,4926,1.92,-0.06,20.56,1.04,539,330,4510,24,304,202,92,98,1
551,340,4632,10,8,102,4944,1.92,-0.06,20.56,1.04,539,330,4514,24,304,202,92,98,1
551,340,4624,11,9,107,4955,1.92,-0.06,20.56,1.04,540,330,4517,24,304,202,92,98,1
546,337,4582,10,8,98,4890,1.92,-0.06,20.56,1.04,540,331,4520,24,304,197,92,98,1
541,333,4534,7,7,75,4837,1.92,-0.06,21.07,1.02,540,331,4520,24,304,197,92,98,1
537,329,4496,3,4,40,4796,1.92,-0.06,21.07,1.02,540,331,4519,24,304,197,92,98,1
535,327,4471,0,0,1,4768,1.92,-0.06,21.07,1.02,540,330,4518,24,304,197,92,98,1
531,326,4455,-3,-1,-29,4750,1.92,-0.06,21.07,1.02,539,330,4516,24,304,197,92,98,1
531,324,4436,-6,-3,-52,4729,1.92,-0.06,21.07,1.02,539,330,4513,24,304,197,92,98,1
531,324,4437,-7,-4,-64,4729,1.92,-0.06,21.07,1.02,539,330,4510,24,304,197,92,98,1
531,325,4444,-7,-5,-68,4737,1.92,-0.06,21.07,1.02,538,330,4508,24,304,197,92,98,1
533,325,4455,-7,-5,-66,4748,1.92,-0.06,21.07,1.02,538,330,4506,24,304,197,92,98,1
534,326,4465,-6,-4,-57,4760,1.92,-0.06,21.07,1.02,538,329,4505,24,304,197,92,98,1
536,328,4486,-4,-3,-43,4782,1.92,-0.06,21.07,1.02,538,329,4504,24,304,197,92,98,1
537,329,4494,-3,-2,-29,4792,1.92,-0.06,21.07,1.02,538,329,4504,24,304,197,92,98,1
539,329,4506,-1,-1,-16,4805,1.92,-0.06,21.07,1.02,538,329,4504,24,304,197,92,98,1
540,330,4518,0,0,-3,4820,1.92,-0.06,21.07,1.02,538,329,4505,24,304,197,92,98,1
541,331,4532,1,0,7,4834,1.92,-0.06,21.07,1.02,538,329,4506,24,304,197,92,98,1
544,334,4562,3,1,24,4867,1.92,-0.06,21.07,1.02,538,330,4507,24,304,197,92,98,1
546,335,4577,4,3,40,4884,1.92,-0.06,21.07,1.02,539,330,4510,24,304,197,92,98,1
547,336,4590,6,4,56,4897,1.92,-0.06,21.07,1.02,539,330,4512,24,304,197,92,98,1
549,338,4604,7,5,72,4914,1.92,-0.06,21.07,1.02,539,330,4515,24,304,197,92,98,1
550,339,4620,8,6,83,4930,1.92,-0.06,21.07,1.02,540,331,4519,24,304,197,92,98,1
553,341,4648,10,8,98,4947,1.92,-0.06,21.07,1.02,540,331,4523,24,304,197,92,98,1
553,342,4651,11,9,109,4966,1.92,-0.06,21.07,1.02,541,331,4528,24,304,197,92,98,1
551,340,4632,11,9,112,4946,1.92,-0.06,21.07,1.02,541,332,4531,24,304,197,92,98,1
547,337,4589,10,8,101,4898,1.92,-0.06,21.07,1.02,541,332,4533,24,304,192,91,98,1
542,333,4541,7,6,72,4846,1.92,-0.06,21.62,1.05,541,332,4533,24,304,192,91,98,1
535,328,4502,2,2,33,4802,1.92,-0.06,21.62,1.05,541,332,4532,24,304,192,91,98,1
533,326,4453,-1,0,-10,4748,1.92,-0.06,21.62,1.05,541,331,4530,24,304,192,91,98,1
531,324,4438,-5,-3,-46,4731,1.92,-0.06,21.62,1.05,540,331,4526,24,304,192,91,98,1
530,323,4427,-8,-6,-72,4719,1.92,-0.06,21.62,1.05,540,331,4523,24,304,192,91,98,1
530,324,4428,-9,-6,-88,4719,1.92,-0.06,21.62,1.05,540,331,4520,24,304,192,91,98,1
532,324,4436,-9,-7,-89,4727,1.92,-0.06,21.62,1.05,539,330,4517,24,304,192,91,98,1
533,325,4456,-8,-6,-82,4749,1.92,-0.06,21.62,1.05,539,330,4515,24,304,192,91,98,1
534,326,4464,-7,-5,-70,4758,1.92,-0.06,21.62,1.05,539,330,4513,24,304,192,91,98,1
535,327,4473,-5,-4,-57,4768,1.92,-0.06,21.62,1.05,539,330,4512,24,304,192,91,98,1
536,328,4484,-4,-3,-43,4780,1.92,-0.06,21.62,1.05,539,330,4511,24,304,192,91,98,1
537,329,4496,-3,-2,-32,4793,1.92,-0.06,21.62,1.05,539,330,4511,24,304,192,91,98,1
540,331,4523,-2,-1,-17,4823,1.92,-0.06,21.62,1.05,539,330,4511,24,304,192,91,98,1
542,332,4537,0,0,-1,4838,1.92,-0.06,21.62,1.05,539,330,4512,24,304,192,91,98,1
543,333,4551,1,1,15,4854,1.92,-0.06,21.62,1.05,539,330,4513,24,304,192,91,98,1
544,334,4565,3,2,31,4870,1.92,-0.06,21.62,1.05,539,330,4515,24,304,192,91,98,1
546,335,4580,4,3,44,4887,1.92,-0.06,21.62,1.05,539,330,4517,24,304,192,91,98,1
549,338,4609,6,4,60,4918,1.92,-0.06,21.62,1.05,540,331,4520,24,304,192,91,98,1
550,339,4620,7,6,74,4931,1.92,-0.06,21.62,1.05,540,331,4524,24,304,192,91,98,1
552,340,4634,9,7,88,4947,1.92,-0.06,21.62,1.05,540,331,4527,24,304,192,91,98,1
552,341,4640,10,8,100,4954,1.92,-0.06,21.62,1.05,541,332,4531,24,304,192,91,98,1
550,340,4625,10,8,100,4938,1.92,-0.06,21.62,1.05,541,332,4534,24,304,192,91,98,1
542,333,4541,8,6,78,4845,1.92,-0.06,21.62,1.05,541,332,4534,24,304,192,91,98,1
538,330,4501,4,4,43,4800,1.92,-0.06,21.62,1.05,541,332,4533,24,304,192,91,98,1
535,328,4473,0,0,2,4770,1.92,-0.06,21.62,1.05,541,332,4531,24,304,192,91,98,1
533,326,4453,-4,-2,-39,4747,1.92,-0.06,21.62,1.05,541,332,4529,24,304,192,91,98,1
531,324,4439,-6,-4,-63,4733,1.92,-0.06,21.62,1.05,540,331,4526,24,304,192,91,98,1
530,324,4431,-8,-6,-78,4723,1.92,-0.06,21.62,1.05,540,331,4522,24,304,192,91,98,1
531,324,4437,-9,-6,-84,4729,1.92,-0.06,21.62,1.05,540,331,4520,24,304,192,91,98,1
532,325,4446,-8,-6,-83,4740,1.92,-0.06,21.62,1.05,539,331,4517,24,304,192,91,98,1
533,325,4458,-8,-6,-75,4752,1.92,-0.06,21.62,1.05,539,330,4515,24,304,192,91,98,1
535,327,4469,-6,-5,-64,4765,1.92,-0.06,21.62,1.05,539,330,4514,24,304,192,90,98,1
537,328,4481,-4,-4,-51,4777,1.92,-0.06,21.62,1.05,539,330,4513,24,304,192,90,98,1
538,329,4505,-3,-2,-35,4804,1.92,-0.06,21.62,1.05,539,330,4512,24,304,192,90,98,1
540,330,4518,-1,-1,-19,4818,1.92,-0.06,21.62,1.05,539,330,4513,24,304,192,90,98,1
541,332,4535,0,0,-3,4836,1.92,-0.06,21.62,1.05,539,330,4513,24,304,192,90,98,1
543,333,4551,1,1,14,4854,1.92,-0.06,21.62,1.05,539,330,4515,24,304,192,90,98,1
547,335,4569,3,2,29,4875,1.92,-0.06,21.62,1.05,539,331,4516,24,304,192,90,98,1
548,337,4597,5,3,47,4905,1.92,-0.06,21.62,1.05,540,331,4519,24,304,192,90,98,1
549,338,4609,7,5,63,4917,1.92,-0.06,21.62,1.05,540,331,4522,24,304,192,90,98,1
550,339,4622,8,6,78,4932,1.92,-0.06,21.62,1.05,540,331,4525,24,304,192,90,98,1
551,340,4634,9,7,91,4946,1.92,-0.06,21.62,1.05,541,332,4529,24,304,192,90,98,1
553,341,4648,10,8,101,4961,1.92,-0.06,21.62,1.05,541,332,4533,24,304,192,90,98,1
553,342,4648,10,8,107,4963,1.92,-0.06,21.62,1.05,542,332,4537,24,304,192,90,98,1
550,340,4622,10,8,103,4936,1.92,-0.06,21.62,1.05,542,332,4540,24,304,191,93,98,1
546,337,4581,8,7,87,4891,1.92,-0.06,21.76,1.05,542,333,4541,24,304,191,93,98,1
542,334,4542,5,5,58,4847,1.92,-0.06,21.76,1.05,542,333,4541,24,304,191,93,98,1
539,331,4510,2,2,23,4812,1.92,-0.06,21.76,1.05,542,333,4540,24,304,191,93,98,1
534,327,4461,-1,0,-16,4758,1.92,-0.06,21.76,1.05,542,332,4537,24,304,191,93,98,1
532,325,4444,-5,-3,-48,4739,1.92,-0.06,21.76,1.05,541,332,4534,24,304,191,93,98,1
530,325,4430,-7,-5,-74,4724,1.92,-0.06,21.76,1.05,541,332,4531,24,304,191,93,98,1
530,324,4427,-9,-6,-91,4720,1.92,-0.06,21.76,1.05,541,332,4527,24,304,191,93,98,1
531,325,4431,-10,-7,-96,4723,1.92,-0.06,21.76,1.05,540,331,4524,24,304,191,93,98,1
531,325,4436,-10,-6,-94,4729,1.92,-0.06,21.76,1.05,540,331,4521,24,304,191,93,98,1
531,325,4437,-9,-6,-89,4731,1.92,-0.06,21.76,1.05,540,331,4518,24,304,191,93,98,1
532,325,4439,-8,-6,-84,4734,1.92,-0.06,21.76,1.05,539,331,4516,24,304,191,93,98,1
532,326,4444,-8,-5,-78,4738,1.92,-0.06,21.76,1.05,539,331,4513,24,304,191,93,98,1
533,326,4451,-7,-5,-71,4746,1.92,-0.06,21.76,1.05,539,330,4511,24,304,191,93,98,1
534,327,4462,-6,-4,-63,4750,1.92,-0.06,21.76,1.05,539,330,4510,24,304,191,93,98,1
535,328,4469,-5,-3,-54,4766,1.92,-0.06,21.76,1.05,539,330,4508,24,304,191,93,98,1
536,329,4478,-4,-2,-44,4777,1.92,-0.06,21.76,1.05,538,330,4507,24,304,191,93,98,1
537,330,4487,-3,-1,-34,4787,1.92,-0.06,21.76,1.05,538,330,4507,24,304,191,93,98,1
538,330,4498,-1,0,-24,4800,1.92,-0.06,21.76,1.05,538,330,4506,24,304,191,93,98,1
540,331,4509,0,0,-13,4811,1.92,-0.06,21.76,1.05,539,330,4506,24,304,191,93,98,1
541,333,4528,0,1,-1,4831,1.92,-0.06,21.76,1.05,539,330,4507,24,304,191,93,98,1
542,334,4538,1,1,11,4842,1.92,-0.06,21.76,1.05,539,331,4508,24,304,191,93,98,1
542,334,4540,2,2,21,4844,1.92,-0.06,21.76,1.05,539,331,4509,24,304,191,93,98,1
541,333,4525,2,2,24,4828,1.92,-0.06,21.76,1.05,539,331,4510,24,304,191,93,98,1
537,330,4489,1,1,14,4790,1.92,-0.06,21.76,1.05,539,331,4509,24,304,174,93,98,1
529,324,4415,-1,0,-16,4708,1.92,-0.06,23.8,1.15,538,330,4506,24,304,174,93,98,1
527,322,4390,-5,-3,-52,4680,1.92,-0.06,23.8,1.15,538,330,4502,24,304,174,93,98,1
525,320,4368,-8,-6,-88,4657,1.92,-0.06,23.8,1.15,538,330,4498,24,304,174,93,98,1
523,319,4354,-11,-8,-118,4642,1.92,-0.06,23.8,1.15,537,329,4493,24,304,174,93,98,1
522,319,4349,-13,-9,-130,4636,1.92,-0.06,23.8,1.15,537,329,4488,24,304,174,93,98,1
524,319,4359,-13,-10,-133,4645,1.92,-0.06,23.8,1.15,536,329,4484,24,304,174,93,98,1
524,320,4365,-13,-9,-129,4652,1.92,-0.06,23.8,1.15,536,329,4480,24,304,174,93,98,1
525,320,4372,-12,-9,-120,4659,1.92,-0.06,23.8,1.15,535,328,4476,24,304,174,93,98,1
525,321,4378,-11,-8,-109,4668,1.92,-0.06,23.8,1.15,535,328,4473,24,304,174,93,98,1
526,321,4387,-10,-7,-99,4677,1.92,-0.06,23.8,1.15,535,328,4470,24,304,174,93,98,1
528,323,4406,-9,-6,-86,4697,1.92,-0.06,23.8,1.15,535,328,4468,24,304,174,93,98,1
529,323,4413,-7,-5,-73,4705,1.92,-0.06,23.8,1.15,534,327,4466,24,304,174,93,98,1
530,324,4422,-6,-4,-60,4715,1.92,-0.06,23.8,1.15,534,327,4465,24,304,174,93,98,1
531,325,4431,-4,-3,-47,4725,1.92,-0.06,23.8,1.15,534,327,4463,24,304,174,93,98,1
532,326,4443,-3,-2,-37,4738,1.92,-0.06,23.8,1.15,534,327,4463,24,304,174,93,98,1
534,328,4453,-2,-1,-26,4750,1.92,-0.06,23.8,1.15,534,327,4462,24,304,174,93,98,1
535,328,4472,-1,0,-13,4770,1.92,-0.06,23.8,1.15,534,327,4463,24,304,174,93,98,1
537,329,4480,0,0,0,4780,1.92,-0.06,23.8,1.15,534,327,4463,24,304,174,93,98,1
537,330,4487,1,1,10,4786,1.92,-0.06,23.8,1.15,534,327,4464,24,304,174,93,98,1
538,330,4494,2,2,19,4795,1.92,-0.06,23.8,1.15,534,328,4465,24,304,174,93,98,1
538,331,4496,3,2,24,4798,1.92,-0.06,23.8,1.15,535,328,4466,24,304,174,93,98,1
533,327,4449,2,1,16,4747,1.92,-0.06,23.8,1.15,535,328,4466,24,304,169,93,98,1
529,324,4410,0,0,-3,4703,1.92,-0.06,24.49,1.19,534,327,4464,24,304,169,93,98,1
525,321,4376,-3,-1,-31,4665,1.92,-0.06,24.49,1.19,534,327,4461,24,304,169,93,98,1
523,319,4351,-6,-4,-65,4638,1.92,-0.06,24.49,1.19,534,327,4457,24,304,169,93,98,1
520,318,4332,-9,-6,-91,4617,1.92,-0.06,24.49,1.19,533,327,4453,24,304,169,93,98,1
518,315,4309,-12,-8,-112,4592,1.92,-0.06,24.49,1.19,533,326,4448,24,304,169,93,98,1
518,315,4304,-13,-9,-126,4586,1.92,-0.06,24.49,1.19,532,326,4443,24,304,169,93,98,1
518,316,4307,-14,-10,-132,4589,1.92,-0.06,24.49,1.19,532,326,4439,24,304,169,93,98,1
519,316,4317,-13,-10,-132,4599,1.92,-0.06,24.49,1.19,531,325,4435,24,304,169,93,98,1
520,317,4328,-12,-9,-123,4612,1.92,-0.06,24.49,1.19,531,325,4431,24,304,169,93,98,1
522,318,4344,-11,-8,-109,4628,1.92,-0.06,24.49,1.19,531,325,4428,24,304,169,93,98,1
522,319,4352,-10,-7,-94,4638,1.92,-0.06,24.49,1.19,530,325,4426,24,304,169,93,98,1
524,319,4360,-8,-6,-81,4647,1.92,-0.06,24.49,1.19,530,324,4424,24,304,169,93,98,1
525,320,4371,-7,-5,-68,4658,1.92,-0.06,24.49,1.19,530,324,4422,24,304,169,93,98,1
526,321,4384,-5,-4,-56,4673,1.92,-0.06,24.49,1.19,530,324,4421,24,304,169,93,98,1
529,323,4412,-4,-3,-40,4688,1.92,-0.06,24.49,1.19,530,324,4420,24,304,169,93,98,1
530,324,4425,-2,-2,-22,4718,1.92,-0.06,24.49,1.19,530,324,4420,24,304,169,93,98,1
531,325,4437,-1,0,-6,4731,1.92,-0.06,24.49,1.19,530,324,4421,24,304,169,93,98,1
533,327,4451,0,0,10,4748,1.92,-0.06,24.49,1.19,530,324,4422,24,304,169,93,98,1
535,328,4465,2,2,23,4763,1.92,-0.06,24.49,1.19,530,324,4423,24,304,169,93,98,1
538,329,4480,4,3,35,4779,1.92,-0.06,24.49,1.19,530,325,4425,24,304,169,93,98,1
538,331,4497,5,4,48,4798,1.92,-0.06,24.49,1.19,531,325,4428,24,304,169,93,98,1
536,329,4481,6,4,54,4780,1.92,-0.06,24.49,1.19,531,325,4429,24,304,169,93,98,1
532,327,4446,5,4,48,4742,1.92,-0.06,24.49,1.19,531,325,4430,24,304,174,93,98,1
529,324,4407,2,2,28,4700,1.92,-0.06,23.81,1.15,531,325,4429,24,304,174,93,98,1
525,321,4373,0,0,-2,4662,1.92,-0.06,23.81,1.15,531,325,4427,24,304,174,93,98,1
520,317,4328,-4,-2,-39,4612,1.92,-0.06,23.81,1.15,530,325,4424,24,304,174,93,98,1
518,316,4311,-7,-5,-70,4594,1.92,-0.06,23.81,1.15,530,324,4420,24,304,174,93,98,1
517,315,4302,-10,-7,-93,4584,1.92,-0.06,23.81,1.15,529,324,4416,24,304,174,93,98,1
517,315,4301,-11,-8,-107,4583,1.92,-0.06,23.81,1.15,529,324,4413,24,304,174,93,98,1
517,315,4304,-12,-8,-110,4586,1.92,-0.06,23.81,1.15,529,323,4409,24,304,174,93,98,1
519,316,4319,-11,-8,-104,4602,1.92,-0.06,23.81,1.15,528,323,4406,24,304,174,93,98,1
520,317,4326,-10,-7,-95,4610,1.92,-0.06,23.81,1.15,528,323,4403,24,304,174,93,98,1
521,317,4331,-9,-6,-84,4616,1.92,-0.06,23.81,1.15,528,323,4401,24,304,174,93,98,1
521,318,4340,-7,-6,-73,4624,1.92,-0.06,23.81,1.15,527,323,4399,24,304,174,93,98,1
523,318,4350,-6,-5,-63,4635,1.92,-0.06,23.81,1.15,527,322,4397,24,304,174,93,98,1
525,320,4372,-4,-4,-50,4647,1.92,-0.06,23.81,1.15,527,322,4396,24,304,174,93,98,1
526,321,4384,-3,-3,-35,4673,1.92,-0.06,23.81,1.15,527,322,4396,24,304,174,93,98,1
527,322,4395,-1,-1,-21,4686,1.92,-0.06,23.81,1.15,527,322,4396,24,304,174,93,98,1
529,323,4409,0,0,-6,4701,1.92,-0.06,23.81,1.15,527,322,4396,24,304,174,93,98,1
530,324,4424,1,0,6,4717,1.92,-0.06,23.81,1.15,527,322,4397,24,304,174,93,98,1
533,326,4437,2,1,19,4732,1.92,-0.06,23.81,1.15,528,322,4399,24,304,174,93,98,1
535,327,4463,4,2,35,4760,1.92,-0.06,23.81,1.15,528,323,4401,24,304,174,93,98,1
