574440,829849,1023974,570169.94,828218.94,1022802.88
574545,830249,1024358,570339.50,828290.50,1022862.25
574511,830000,1024092,570519.63,828365.50,1022923.50
574394,829774,1023823,570707.69,828443.13,1022985.75
573262,829040,1023290,570898.88,828520.50,1023046.38
570488,828064,1022393,571083.88,828592.06,1023100.94
569512,827652,1022173,571250.38,828652.44,1023145.19
568716,827456,1022072,571387.00,828698.75,1023177.38
567330,827408,1021964,571488.75,828730.50,1023197.38
567544,827164,1021796,571554.44,828747.75,1023205.44
567591,826972,1021972,571584.50,828751.13,1023202.63
567322,826921,1022057,571581.25,828741.25,1023190.50
566944,826980,1021927,571547.00,828719.50,1023170.25
567188,827114,1021899,571484.25,828687.75,1023143.13
567270,827056,1022004,571397.13,828647.88,1023110.25
565789,827082,1022122,571289.38,828601.38,1023073.25
566792,827041,1021963,571162.88,828549.81,1023033.13
567098,827024,1021919,571020.06,828493.63,1022990.06
567272,827312,1022160,570865.06,828433.38,1022944.25
567562,827235,1022018,570702.19,828370.50,1022896.44
567914,827354,1022033,570535.56,828306.63,1022847.63
568445,827548,1022404,570369.63,828243.38,1022799.25
569328,827849,1022596,570208.56,828182.63,1022753.25
569645,827886,1022600,570056.50,828126.13,1022711.25
569699,827882,1022637,569917.63,828074.38,1022673.38
569804,828190,1022914,569794.19,828027.50,1022639.88
570204,828325,1023001,569687.25,827986.38,1022611.38
570360,828327,1022788,569596.94,827952.00,1022588.25
570396,828266,1022921,569522.50,827924.25,1022570.00
571009,828395,1023070,569464.31,827902.63,1022556.50
570953,828466,1023209,569423.00,827887.00,1022548.25
571016,828445,1023193,569397.94,827877.31,1022545.63
571175,828805,1023963,569386.00,827873.88,1022548.44
571505,828938,1023428,569385.13,827877.69,1022557.06
571775,829146,1023593,569398.00,827889.25,1022571.38
572059,829251,1024151,569426.75,827908.50,1022591.38
571869,829501,1023909,569470.50,827935.56,1022617.50
572492,829505,1023854,569528.19,827970.50,1022649.50
572756,829521,1024142,569600.13,828012.50,1022687.19
572801,829817,1024183,569686.06,828061.63,1022730.63
573432,829944,1024151,569785.31,828118.38,1022779.44
573670,829971,1024182,569898.63,828182.00,1022832.75
573927,830388,1024493,570026.38,828251.50,1022889.75
574240,830301,1024628,570167.69,828326.63,1022950.69
574504,830408,1024534,570322.19,828407.19,1023015.88
574649,830579,1024732,570489.00,828493.06,1023085.13
575066,830788,1024933,570666.56,828584.13,1023158.38
574790,830565,1024818,570853.13,828679.94,1023235.38
574091,830113,1024314,571045.25,828777.88,1023314.25
571037,829154,1023523,571236.25,828873.94,1023391.13
570224,828599,1023133,571414.56,828963.06,1023461.69
569403,828216,1022944,571566.75,829040.13,1023522.38
568960,827910,1022866,571685.94,829102.38,1023571.75
568131,827764,1022607,571770.50,829148.88,1023609.38
568076,827845,1022613,571820.00,829180.13,1023635.50
568134,827780,1022655,571836.50,829197.75,1023651.13
567151,827904,1022846,571823.63,829203.25,1023657.94
567752,827728,1022660,571784.13,829197.88,1023657.31
567891,827800,1022685,571720.50,829182.75,1023649.81
568099,828027,1022805,571636.38,829159.25,1023636.38
568118,827872,1022843,571535.94,829128.75,1023618.25
568211,827917,1022833,571422.38,829092.63,1023596.63
568492,827977,1023017,571299.00,829052.25,1023572.25
568541,828033,1022988,571168.63,829008.63,1023546.25
569180,828053,1023080,571034.50,828962.94,1023519.38
569409,828290,1023091,570901.25,828916.38,1023492.38
569822,828651,1023759,570773.56,828870.75,1023465.81
570580,828693,1023620,570655.50,828828.13,1023441.13
570544,828789,1023620,570549.75,828789.38,1023420.00
570789,829018,1023734,570456.88,828755.50,1023403.00
570926,829180,1023931,570377.13,828727.38,1023390.50
571061,829061,1023886,570310.75,828705.25,1023383.13
571294,829061,1023726,570257.81,828688.63,1023380.00
571111,829552,1024473,570215.88,828677.31,1023380.88
571618,829473,1024239,570182.44,828672.25,1023386.63
571530,829326,1024117,570160.38,828673.38,1023397.50
571832,829426,1024515,570151.50,828679.63,1023412.63
572042,829720,1024411,570155.88,828690.94,1023431.69
572247,829617,1024133,570173.50,828707.75,1023454.69
572568,829793,1024345,570204.50,828729.69,1023480.81
572220,830010,1024349,570248.63,828757.44,1023509.88
572882,830053,1024605,570305.56,828791.75,1023542.13
573169,830176,1024488,570374.75,828832.00,1023577.75
573321,830732,1024965,570456.00,828877.31,1023616.63
574000,830745,1025159,570549.63,828928.38,1023659.69
574320,830745,1025172,570656.94,828985.88,1023708.06
574313,830837,1025308,570777.88,829049.75,1023761.75
574592,831110,1025451,570908.31,829119.50,1023820.38
574871,831120,1025384,571045.13,829195.25,1023883.75
575208,831165,1025445,571191.38,829276.19,1023950.88
573937,831417,1025708,571348.75,829361.50,1024021.25
575026,831214,1025480,571514.75,829450.25,1024094.31
574478,830605,1024930,571685.81,829540.38,1024168.13
573208,830039,1024162,571855.88,829627.88,1024239.00
570779,829000,1023891,572013.88,829707.19,1024302.88
570013,828675,1023532,572147.25,829773.38,1024356.75
569349,828535,1023523,572249.63,829824.00,1024398.81
568310,828526,1023297,572318.88,829859.56,1024429.13
568433,828264,1023244,572354.63,829880.69,1024448.00
568320,828215,1023250,572357.88,829887.88,1024455.94
568184,828319,1023439,572331.13,829882.25,1024454.25
567877,828148,1023265,572276.94,829865.38,1024444.38
567905,828078,1023173,572197.50,829838.00,1024426.88
567614,828184,1023123,572095.44,829801.31,1024402.44
568131,828090,1023228,571973.25,829756.75,1024371.75
568115,828092,1023247,571834.75,829705.31,1024336.13
568227,828292,1023385,571684.75,829648.50,1024296.94
567793,828344,1023624,571526.00,829588.00,1024255.38
569000,828285,1023469,571361.56,829525.00,1024212.38
569417,828446,1023584,571197.69,829460.56,1024169.00
569827,828601,1023676,571040.00,829396.19,1024126.44
570237,829083,1023967,570889.50,829334.13,1024085.88
570755,829140,1024112,570747.31,829276.75,1024049.00
570934,829196,1024002,570618.75,829225.13,1024016.44
569250,829738,1024534,570505.88,829179.88,1023988.63
570699,829367,1024351,570406.13,829142.00,1023966.63
570869,829233,1024129,570319.50,829110.25,1023949.94
571147,829325,1024270,570247.25,829083.63,1023936.94
571345,829538,1024407,570189.88,829062.13,1023927.56
571691,829553,1024454,570147.94,829046.25,1023922.44
571713,829491,1024405,570121.63,829035.75,1023921.63
571857,829675,1024495,570109.88,829030.38,1023924.75
572084,829631,1024509,570111.88,829029.88,1023931.50
572304,829820,1024576,570127.75,829034.38,1023941.88
572494,830257,1024871,570157.50,829044.00,1023955.44
572571,829986,1024734,570200.75,829059.19,1023972.13
572904,830161,1024891,570256.75,829079.75,1023992.44
573356,830357,1025019,570325.75,829105.75,1024016.88
573615,830553,1025115,570406.25,829138.00,1024045.75
573886,830621,1025261,570496.50,829176.50,1024079.13
573653,830727,1025224,570597.88,829221.19,1024116.88
573694,831021,1025810,570710.81,829271.75,1024159.00
574451,830953,1025454,570834.88,829327.94,1024205.38
574693,831050,1025644,570970.63,829389.50,1024255.94
574825,831126,1025927,571117.50,829456.00,1024310.50
574866,831105,1025691,571274.00,829526.81,1024368.69
574610,830815,1025381,571438.00,829600.38,1024429.19
573713,830392,1025004,571604.75,829673.94,1024489.50
571044,829570,1024480,571766.13,829744.00,1024546.19
570084,829203,1024149,571910.56,829806.63,1024596.13
569259,828810,1023947,572027.00,829857.94,1024637.25
569015,828653,1024144,572110.63,829896.25,1024668.75
568006,828701,1023877,572160.38,829921.63,1024691.00
568086,828702,1023795,572175.81,829935.25,1024704.69
567937,828598,1023706,572159.13,829938.13,1024710.06
567880,828592,1023794,572113.50,829931.00,1024707.75
567807,828701,1023951,572041.63,829915.06,1024699.25
567701,828682,1023848,571946.88,829891.88,1024685.63
567708,829097,1024354,571832.38,829862.63,1024668.00
567927,828876,1024147,571701.50,829828.50,1024647.31
568053,828865,1024037,571558.19,829791.00,1024624.88
568147,828810,1024036,571406.00,829751.06,1024601.00
568318,829176,1024508,571245.56,829709.75,1024576.63
568962,829246,1024411,571078.88,829668.75,1024553.63
569689,829359,1024570,570914.00,829629.63,1024532.69
569038,830071,1025170,570756.88,829593.88,1024514.63
570143,829965,1025081,570608.50,829563.88,1024500.75
570257,829797,1024964,570472.13,829539.88,1024492.13
570845,829957,1025152,570351.13,829521.25,1024488.44
571048,830208,1025154,570247.13,829508.13,1024489.75
570981,830200,1025159,570160.75,829501.13,1024495.75
570987,830212,1025311,570090.56,829500.19,1024506.13
571006,830551,1025676,570033.88,829505.00,1024521.56
571636,830501,1025357,569989.25,829515.88,1024542.38
571659,830566,1025391,569959.50,829532.88,1024567.38
571779,831039,1025931,569945.81,829555.44,1024595.56
571927,830953,1025917,569947.19,829583.94,1024627.75
572422,831012,1025959,569963.50,829618.75,1024665.00
572670,831048,1025886,569995.50,829659.63,1024707.13
573047,831568,1026112,570042.50,829706.75,1024753.50
573332,831498,1026324,570104.00,829760.88,1024804.31
573277,831568,1026329,570180.25,829821.63,1024859.94
573803,831970,1026864,570271.00,829888.31,1024920.06
574263,832096,1026839,570376.50,829961.13,1024985.00
574458,832202,1026920,570497.38,830040.69,1025055.38
574740,832299,1027175,570633.25,830126.69,1025131.38
575212,832706,1027171,570783.50,830219.13,1025212.69
575265,832535,1027335,570947.81,830317.88,1025298.94
575472,832688,1027402,571124.75,830421.75,1025389.88
575767,833020,1027664,571312.63,830530.25,1025485.13
575617,832801,1027458,571509.75,830642.81,1025584.38
575149,832453,1027038,571713.13,830757.50,1025685.25
573813,831851,1026386,571916.13,830870.75,1025784.00
571470,830974,1025936,572107.38,830977.38,1025876.00
570333,830693,1025590,572273.88,831072.56,1025958.00
570162,830665,1025551,572408.31,831154.25,1026028.19
569139,830570,1025619,572507.88,831223.25,1026086.88
569278,830633,1025631,572570.81,831280.75,1026135.19
569115,830549,1025752,572600.50,831327.13,1026174.38
569355,830912,1026247,572602.00,831362.63,1026205.88
569000,830622,1026136,572578.50,831388.13,1026231.50
569222,830645,1026037,572532.56,831405.13,1026252.88
569364,830630,1026065,572467.69,831414.44,1026270.25
569495,830830,1026068,572387.00,831417.25,1026284.13
569663,830759,1026043,572293.38,831415.00,1026294.75
569707,830815,1026319,572190.63,831408.50,1026302.81
570112,831300,1026532,572080.50,831398.81,1026309.56
570470,831273,1026457,571965.25,831387.94,1026315.81
571086,831387,1026548,571851.13,831377.44,1026322.25
571516,831375,1026896,571744.50,831368.00,1026329.75
572149,831687,1026790,571649.13,831360.38,1026339.00
571949,831640,1026875,571567.00,831355.31,1026350.44
572303,831605,1026907,571498.38,831353.00,1026364.25
571884,831865,1027091,571440.25,831353.25,1026380.75
572455,831912,1027223,571390.25,831356.69,1026400.44
572447,831989,1027282,571350.75,831363.75,1026423.75
572581,832215,1027440,571324.25,831374.50,1026450.38
572824,832279,1027358,571310.25,831389.13,1026480.25
573195,832335,1027642,571309.19,831408.25,1026513.38
573348,832460,1027644,571321.63,831431.94,1026550.38
573867,832675,1027679,571347.63,831460.63,1026591.06
573985,832675,1027752,571387.13,831494.38,1026635.00
574154,832789,1027825,571440.63,831533.06,1026682.00
574405,833100,1028030,571507.88,831576.38,1026731.94
574667,833201,1028077,571588.50,831624.50,1026785.13
575018,833235,1028309,571682.25,831678.00,1026841.75
575267,833368,1028788,571789.38,831736.75,1026902.00
575835,833558,1028601,571909.88,831800.75,1026965.94
575815,833657,1028548,572043.88,831869.88,1027033.63
576365,833897,1028747,572190.88,831944.25,1027104.88
576405,834124,1029409,572350.19,832024.19,1027180.63
576801,834183,1029074,572521.19,832109.88,1027262.00
577166,834378,1029227,572703.44,832201.00,1027348.06
577091,834348,1029625,572896.19,832296.94,1027437.44
577145,834335,1029223,573097.25,832396.63,1027529.38
576753,834018,1028848,573303.50,832498.38,1027622.25
575761,833540,1028400,573509.75,832598.88,1027713.06
572700,832548,1027729,573705.13,832695.19,1027797.88
571940,832212,1027489,573875.88,832783.44,1027872.94
571571,831986,1027260,574013.75,832858.88,1027936.50
571125,832117,1027633,574117.50,832919.25,1027988.00
570525,832059,1027418,574186.88,832965.44,1028028.56
570585,831902,1027230,574222.56,832998.88,1028059.31
570687,832046,1027405,574227.50,833020.94,1028081.13
570916,832126,1027409,574205.88,833033.13,1028095.00
571039,832174,1027493,574161.88,833037.25,1028102.50
571102,832167,1027544,574099.63,833034.44,1028104.56
570989,832588,1027820,574022.75,833025.75,1028102.19
571338,832384,1027868,573933.94,833012.50,1028096.63
571715,832460,1027884,573836.81,832996.06,1028089.50
572203,832594,1028300,573735.75,832977.75,1028081.75
572728,832969,1028334,573635.38,832959.13,1028074.38
573326,833137,1028461,573540.25,832942.38,1028069.31
573645,833210,1028624,573454.25,832928.88,1028067.75
572778,833470,1028878,573378.75,832919.25,1028070.63
573442,833395,1028681,573313.00,832914.00,1028078.25
574052,833386,1028627,573257.00,832912.88,1028089.75
573960,833643,1028880,573212.13,832915.25,1028103.88
574018,833524,1028684,573178.25,832920.88,1028120.44
574188,833548,1028912,573154.63,832930.00,1028139.50
574231,833622,1028979,573141.25,832942.75,1028161.75
574406,833682,1028938,573137.31,832958.88,1028187.19
574765,833874,1029244,573143.06,832978.69,1028215.75
574854,833879,1029061,573159.31,833002.38,1028247.63
575302,834322,1029502,573186.63,833030.06,1028282.56
575471,834415,1029569,573225.63,833062.63,1028321.13
575933,834682,1029611,573276.88,833101.13,1028364.00
575851,834613,1029632,573340.56,833146.13,1028410.88
576564,834830,1029930,573416.63,833197.06,1028461.75
576740,834992,1029937,573505.81,833253.88,1028516.88
576819,835121,1030057,573608.00,833316.69,1028576.13
576892,835696,1030928,573719.81,833386.25,1028639.69
577492,835492,1030606,573839.00,833463.13,1028708.56
577862,835722,1030547,573968.56,833546.75,1028782.88
577812,835709,1031015,574110.75,833636.00,1028861.56
577894,836002,1030760,574263.50,833730.50,1028944.00
578435,836171,1031046,574425.88,833830.38,1029030.25
578884,836353,1031199,574598.31,833935.63,1029120.88
578045,836252,1030996,574780.25,834046.50,1029215.50
578218,835799,1030711,574967.94,834161.25,1029311.88
577409,835199,1030218,575156.31,834275.00,1029406.81
575777,834543,1029275,575337.63,834382.50,1029496.50
573664,834000,1029011,575500.00,834479.63,1029576.81
573091,833676,1028821,575632.69,834562.81,1029644.50
572614,833583,1028834,575731.50,834630.13,1029698.63
572378,833487,1028887,575795.75,834681.88,1029740.13
572346,833535,1028821,575826.63,834719.06,1029770.31
572335,833556,1028795,575827.94,834743.19,1029790.13
571679,833768,1029161,575803.25,834755.75,1029800.69
572203,833627,1029184,575755.25,834758.06,1029804.13
572614,833642,1029227,575687.50,834751.75,1029802.25
572826,833714,1029411,575604.88,834738.13,1029796.25
573064,833834,1029274,575511.75,834718.63,1029786.75
573302,833987,1029301,575411.50,834695.13,1029774.44
573747,833914,1029422,575308.00,834668.75,1029760.31
573808,834402,1029758,575204.88,834640.69,1029745.75
574658,834380,1029858,575105.50,834612.88,1029732.50
574908,834331,1029739,575013.75,834586.38,1029721.38
574981,834759,1030046,574931.69,834561.38,1029712.00
574837,834600,1030030,574859.19,834538.56,1029704.50
575089,834535,1029967,574795.75,834518.38,1029699.75
575241,834691,1030098,574741.75,834501.13,1029697.88
575486,834573,1030098,574697.19,834486.81,1029698.88
575778,834787,1030367,574662.38,834475.44,1029703.25
575888,834821,1030216,574638.75,834467.38,1029711.13
575898,835061,1030861,574626.88,834462.75,1029722.13
576096,835219,1030440,574626.00,834462.25,1029736.00
576277,835162,1030598,574636.00,834466.50,1029753.38
576371,835292,1030493,574656.75,834475.75,1029774.38
576612,835529,1030822,574685.75,834490.00,1029799.00
577097,835569,1030945,574721.69,834509.88,1029827.81
577256,835546,1030813,574768.13,834535.13,1029861.00
576256,836121,1031213,574825.63,834565.50,1029898.13
577488,835931,1031087,574891.75,834601.75,1029939.44
578132,836073,1031303,574968.44,834643.75,1029984.88
578128,836240,1031633,575058.13,834691.25,1030034.25
578487,836473,1031544,575160.38,834744.63,1030087.63
578896,836420,1031454,575275.00,834803.94,1030144.94
579135,836610,1031662,575402.38,834868.56,1030205.63
578927,836911,1031937,575541.69,834938.88,1030270.00
579597,837007,1031948,575691.63,835015.63,1030338.50
579740,836888,1031965,575852.00,835097.88,1030410.75
579941,837130,1032249,576022.06,835184.13,1030486.13
579260,836546,1031647,576199.25,835272.63,1030563.25
578225,836029,1031042,576377.38,835360.06,1030638.88
576721,835342,1030554,576547.38,835441.81,1030708.88
574319,834609,1030100,576696.88,835513.13,1030769.63
573969,834501,1029920,576814.63,835570.63,1030818.75
573304,834324,1029819,576897.00,835613.50,1030855.75
572418,834288,1029999,576944.31,835641.88,1030880.88
572638,834206,1029906,576957.31,835656.44,1030895.13
572726,834219,1029834,576938.19,835658.56,1030900.13
572963,834274,1030145,576890.75,835650.00,1030896.69
572912,834267,1029998,576819.56,835632.25,1030886.00
572749,834333,1029944,576728.00,835606.81,1030869.63
573002,834294,1030014,576618.75,835574.75,1030848.50
573263,834790,1030651,576495.38,835537.69,1030824.88
573801,834856,1030564,576362.38,835497.75,1030801.38
574063,834925,1030631,576225.25,835457.38,1030779.25
574369,835205,1031263,576088.50,835418.00,1030758.56
575254,835372,1031104,575956.25,835381.00,1030740.50
575196,835568,1031005,575832.63,835348.00,1030726.38
575487,835612,1031147,575719.50,835320.25,1030716.38
575887,835685,1031266,575617.69,835298.25,1030710.63
576065,835656,1031084,575528.63,835282.38,1030709.13
576178,835706,1031298,575453.50,835271.50,1030711.25
576141,836162,1031872,575392.25,835265.06,1030716.88
576149,835911,1031514,575343.63,835262.88,1030726.19
576585,836070,1031520,575307.44,835265.50,1030739.75
576854,836186,1031680,575284.50,835273.63,1030757.69
576795,836345,1031866,575273.88,835287.63,1030780.31
577256,836490,1031844,575274.06,835307.63,1030807.88
577386,836501,1031880,575286.88,835333.75,1030839.88
576978,837053,1032222,575311.94,835365.88,1030876.00
577747,836804,1032168,575347.06,835404.31,1030916.13
578160,836941,1032271,575394.25,835448.75,1030960.75
578155,836989,1032422,575455.38,835498.75,1031009.63
578920,837331,1032442,575530.50,835554.25,1031062.75
579074,837330,1032518,575620.56,835615.69,1031119.88
579224,837400,1032690,575725.25,835682.63,1031180.63
579318,837503,1032858,575841.25,835754.38,1031245.31
580019,837602,1032971,575966.38,835830.56,1031314.13
580068,837676,1032900,576103.38,835910.81,1031386.69
580285,838033,1033200,576253.50,835994.75,1031462.38
580307,837959,1033277,576415.25,836082.25,1031541.13
580514,838202,1033172,576586.75,836173.56,1031623.00
580716,838220,1033232,576766.94,836268.50,1031706.81
580702,837899,1033153,576954.63,836366.06,1031791.75
579485,837446,1032699,577145.81,836463.13,1031875.94
578072,836958,1032235,577331.50,836555.88,1031956.25
575695,836239,1031583,577501.13,836640.75,1032029.13
575115,835913,1031352,577645.06,836714.13,1032091.50
574403,835700,1031160,577755.38,836773.75,1032141.50
574165,835587,1031632,577829.25,836818.63,1032178.88
574089,835806,1031370,577867.88,836849.81,1032205.00
573938,835632,1031251,577874.19,836869.00,1032221.50
573951,835605,1031409,577851.31,836877.13,1032229.38
573762,835858,1032002,577802.25,836875.75,1032231.19
574129,835852,1031766,577730.44,836867.13,1032229.56
573823,835880,1031586,577639.50,836852.25,1032224.88
573904,835955,1032073,577532.00,836832.19,1032216.44
574245,836217,1031994,577411.13,836808.38,1032205.38
574622,836223,1031801,577281.25,836782.63,1032193.00
575077,836455,1032183,577147.25,836756.13,1032180.38
575344,836950,1032593,577011.13,836731.25,1032169.25
576139,837138,1032772,576875.00,836710.50,1032162.13
576672,837241,1032771,576746.63,836695.19,1032160.00
576838,837803,1033468,576632.06,836685.81,1032162.88
577002,837668,1033145,576532.50,836682.88,1032171.31
577092,837541,1033074,576447.88,836686.69,1032185.38
577160,837609,1033200,576377.75,836696.69,1032204.75
577453,837823,1033326,576321.75,836712.44,1032229.06
577404,837773,1033327,576279.13,836734.00,1032258.38
577767,837865,1033344,576250.13,836760.88,1032292.06
577099,838207,1033585,576235.13,836792.75,1032329.44
577645,838048,1033518,576233.00,836829.13,1032370.06
578217,838031,1033492,576242.88,836870.00,1032413.88
578794,838240,1034046,576266.00,836914.88,1032461.13
578345,838567,1034090,576303.00,836964.50,1032512.75
578833,838845,1034048,576352.25,837019.88,1032569.31
579541,838946,1034153,576414.38,837081.75,1032630.31
578813,839379,1034880,576490.63,837150.69,1032696.50
580201,839530,1034786,576581.25,837227.63,1032769.38
580578,839605,1034882,576687.13,837312.38,1032848.75
580795,840086,1035054,576808.63,837404.13,1032933.81
581416,840049,1035165,576945.88,837502.63,1033024.13
581600,840167,1035158,577098.88,837608.00,1033119.25
581927,840130,1035267,577267.13,837719.38,1033218.38
581876,840267,1035423,577448.88,837835.63,1033320.88
582240,840415,1035717,577642.13,837956.13,1033427.06
582403,840343,1035575,577845.88,838080.00,1033536.75
582031,840359,1035904,578059.00,838206.31,1033648.69
581508,839886,1035075,578277.69,838333.00,1033760.50
580354,839255,1034579,578494.13,838456.13,1033868.88
578633,838666,1033954,578697.75,838570.75,1033969.38
576583,838195,1033630,578876.44,838672.75,1034058.63
576208,838172,1033580,579020.50,838760.25,1034134.75
575962,838041,1033450,579127.31,838832.94,1034197.75
575423,838286,1034154,579196.63,838892.06,1034248.69
575588,838071,1033829,579228.88,838939.13,1034289.75
575715,838038,1033724,579229.38,838974.75,1034322.38
575724,838025,1034342,579203.88,838999.38,1034347.00
575420,838247,1033777,579155.38,839014.44,1034364.38
575720,838184,1033790,579086.25,839021.63,1034375.25
575968,838240,1033894,579000.63,839022.00,1034380.81
575434,838532,1034222,578902.50,839017.25,1034382.56
576198,838608,1034219,578795.06,839009.31,1034382.25
576895,838639,1034429,578682.25,838999.50,1034381.19
577234,839171,1034842,578568.88,838988.56,1034380.50
578204,839398,1035006,578460.25,838978.75,1034381.94
578734,839441,1035028,578361.75,838972.38,1034387.13
578865,839361,1035147,578276.69,838969.88,1034396.50
578717,839676,1035202,578203.00,838971.38,1034410.19
578989,839768,1035255,578137.50,838977.38,1034428.00
579040,839711,1035282,578083.13,838988.13,1034449.81
578342,839853,1035643,578042.38,839003.38,1034475.38
579309,839854,1035506,578014.88,839022.88,1034504.88
579848,840055,1035671,578000.94,839046.63,1034538.50
580093,840093,1035862,578001.63,839074.63,1034576.50
580547,840368,1035878,578017.94,839107.25,1034618.88
580824,840570,1035978,578050.50,839145.13,1034665.63
581159,840599,1036183,578099.63,839188.69,1034716.63
581099,841097,1036400,578165.06,839238.00,1034772.38
581712,841046,1036448,578246.13,839293.44,1034833.25
582066,841115,1036447,578343.00,839355.13,1034898.63
582671,841469,1037070,578456.13,839422.63,1034968.13
582932,841379,1036900,578586.25,839495.44,1035041.75
583249,841625,1036970,578733.00,839573.75,1035120.00
583193,841667,1037024,578894.88,839657.50,1035202.63
583871,841973,1037331,579070.13,839746.63,1035289.38
584312,842184,1037479,579258.63,839841.38,1035380.63
584278,842249,1037475,579460.63,839942.00,1035476.25
584608,842623,1037946,579674.88,840047.75,1035575.63
584840,842658,1037843,579899.94,840158.38,1035678.63
585012,842735,1037912,580134.63,840273.88,1035785.25
585026,842772,1037938,580377.25,840393.88,1035894.75
584369,842318,1037647,580622.88,840516.31,1036005.88
583374,841579,1036859,580863.88,840637.00,1036115.00
581785,840979,1036498,581092.63,840750.75,1036217.50
577804,840506,1036004,581297.25,840853.38,1036309.69
578305,839904,1035468,581464.63,840941.94,1036388.25
577747,839651,1035338,581589.38,841013.50,1036451.50
577631,839656,1035530,581672.19,841067.25,1036499.31
577864,839675,1035442,581716.38,841104.31,1036533.13
577901,839686,1035379,581726.88,841126.63,1036554.75
577550,839583,1035515,581707.38,841135.50,1036565.50
577880,839719,1035655,581659.88,841132.63,1036567.38
578187,839741,1035715,581587.88,841119.75,1036562.25
578310,839877,1035881,581497.88,841098.63,1036551.63
578265,840062,1036270,581394.88,841070.88,1036537.13
578788,840094,1036031,581282.00,841038.25,1036519.88
579386,840118,1036120,581164.25,841002.25,1036501.00
579913,840382,1036410,581047.25,840964.44,1036481.88
580302,840643,1036529,580934.44,840926.75,1036464.25
580659,840799,1036681,580828.63,840891.25,1036449.13
580770,840912,1036629,580732.63,840859.13,1036437.13
580710,840972,1036809,580648.13,840831.00,1036428.50
580982,840861,1036779,580574.88,840806.88,1036423.50
581054,840973,1036779,580513.13,840786.31,1036421.81
580763,840990,1037044,580461.88,840769.38,1036423.13
581468,841217,1037101,580420.63,840756.50,1036427.75
581584,841175,1037111,580390.75,840748.00,1036436.25
581838,841249,1037314,580373.38,840743.81,1036449.13
581850,841586,1037658,580368.06,840743.75,1036467.13
582235,841602,1037448,580374.31,840748.25,1036490.69
582320,841664,1037403,580392.63,840758.00,1036518.75
582500,841967,1038074,580423.00,840773.63,1036550.63
583079,842155,1038041,580465.81,840796.00,1036587.13
583172,842316,1037972,580521.75,840825.63,1036629.13
583327,842233,1038006,580590.63,840862.31,1036676.31
583641,842669,1038428,580669.50,840906.00,1036728.38
584063,842795,1038427,580756.50,840957.63,1036786.00
584292,842907,1038507,580854.88,841017.00,1036849.06
584495,843290,1038956,580966.88,841083.00,1036917.00
584683,843338,1038888,581091.50,841155.13,1036990.00
585097,843279,1038692,581228.13,841233.81,1037067.50
585444,843268,1038851,581376.94,841318.25,1037148.50
585661,843641,1039259,581537.25,841407.75,1037232.94
585853,843677,1039248,581707.63,841502.50,1037321.56
585869,843516,1039114,581887.56,841601.63,1037413.63
584220,842857,1038398,582074.00,841703.13,1037507.13
582684,842078,1037737,582257.50,841802.81,1037597.75
581336,841355,1037300,582424.50,841893.81,1037679.94
580214,840955,1036940,582564.31,841970.75,1037749.63
578944,840679,1036825,582670.25,842031.50,1037805.00
578786,840484,1036746,582738.63,842075.44,1037846.50
578636,840433,1036607,582770.00,842102.75,1037874.88
577570,840629,1036956,582766.13,842114.88,1037891.63
578508,840596,1036725,582728.94,842114.00,1037898.50
578548,840707,1036805,582663.88,842102.06,1037896.56
578663,840677,1037000,582576.38,842081.13,1037886.56
578749,840595,1036937,582470.44,842052.25,1037869.88
578991,840610,1036864,582350.00,842016.25,1037847.75
579038,840711,1037047,582218.75,841974.44,1037821.50
578794,840972,1037202,582079.69,841928.50,1037792.63
579777,841092,1037401,581936.31,841880.63,1037762.88
580359,841204,1037544,581793.75,841832.63,1037733.88
581080,841578,1037982,581657.19,841785.94,1037707.13
580877,841642,1037906,581529.56,841742.13,1037683.88
581476,841745,1038039,581413.06,841702.63,1037665.00
581630,841874,1038570,581309.88,841668.13,1037651.06
581970,841991,1038256,581221.50,841639.13,1037642.44
581840,841989,1038340,581148.13,841615.88,1037639.25
582033,841917,1038299,581089.00,841597.88,1037641.38
581962,842343,1038869,581042.75,841585.50,1037648.63
582127,842322,1038630,581008.38,841579.50,1037661.75
582377,842251,1038630,580986.00,841579.63,1037680.44
582724,842486,1039143,580976.50,841585.31,1037704.13
582619,842642,1038788,580980.19,841596.75,1037732.50
583256,842707,1038941,580996.75,841614.38,1037765.56
583320,842689,1038978,581026.81,841637.75,1037803.13
583789,843155,1039289,581069.88,841667.00,1037845.38
584078,843111,1039375,581125.38,841702.75,1037892.81
584459,843340,1039452,581195.13,841745.06,1037945.50
584888,843786,1039800,581280.63,841793.63,1038003.06
585156,843775,1039832,581382.31,841848.56,1038065.50
585025,843839,1039908,581498.88,841910.38,1038133.13
585333,843895,1039889,581628.38,841979.13,1038205.56
585989,844209,1040220,581769.38,842054.25,1038282.56
586173,844122,1040270,581921.50,842135.63,1038364.13
585941,844265,1040198,582085.00,842222.38,1038449.94
586264,844650,1040431,582258.63,842313.75,1038538.63
586527,844517,1040468,582441.13,842409.31,1038629.63
586684,844375,1040397,582631.94,842508.50,1038722.88
585935,844088,1039764,582828.38,842609.38,1038817.13
583514,842964,1039102,583021.38,842707.75,1038908.50
582132,842668,1038807,583197.31,842798.00,1038992.06
581146,842125,1038549,583345.50,842876.19,1039064.56
579429,841756,1038400,583460.81,842940.69,1039125.00
579691,841802,1038364,583540.50,842991.06,1039173.13
579568,841784,1038332,583584.00,843027.44,1039209.81
579487,841951,1038571,583593.00,843050.50,1039235.75
579279,841994,1038605,583570.69,843062.13,1039252.38
579319,841950,1038471,583520.06,843064.13,1039261.50
579139,841835,1038655,583444.25,843057.56,1039264.38
579097,841830,1038635,583345.88,843043.06,1039262.06
579344,841899,1038691,583228.13,843021.50,1039255.50
579480,841826,1038571,583095.31,842994.06,1039245.31
579693,841827,1039177,582951.75,842961.50,1039231.94
579997,842124,1038943,582801.38,842925.38,1039216.63
580682,842249,1038939,582648.81,842887.38,1039200.75
580632,842380,1039111,582498.38,842849.25,1039185.19
581372,842794,1039555,582351.69,842812.56,1039171.38
581756,842860,1039638,582211.06,842779.44,1039161.31
581840,842942,1039850,582081.38,842750.81,1039156.13
581058,843530,1040257,581962.88,842727.38,1039156.44
582202,843316,1039870,581853.81,842710.25,1039162.19
582327,843202,1039947,581757.56,842699.25,1039172.75
582226,843233,1040151,581676.38,842693.50,1039187.50
582196,843394,1039989,581608.88,842692.56,1039206.13
582810,843530,1040193,581554.75,842696.88,1039228.44
583114,843644,1040405,581515.56,842706.69,1039255.25
583040,843894,1040553,581491.75,842722.63,1039287.25
583619,844090,1040592,581482.63,842745.50,1039324.50
583709,844077,1040741,581489.06,842775.31,1039366.88
584051,844528,1041001,581511.44,842811.38,1039414.13
584558,844463,1041020,581550.13,842853.50,1039465.94
584598,844458,1041026,581605.38,842902.00,1039522.56
584779,844611,1041244,581676.25,842956.44,1039583.94
585067,844841,1041416,581759.13,843016.75,1039650.19
585576,844926,1041573,581851.38,843083.13,1039721.56
585171,845140,1041502,581955.75,843155.38,1039797.69
585227,845369,1041975,582073.13,843233.50,1039877.75
586011,845574,1041854,582202.63,843317.69,1039961.63
586520,845590,1042195,582345.13,843407.88,1040049.63
586355,845763,1042170,582500.13,843503.81,1040142.50
586885,845826,1042049,582666.50,843604.88,1040239.19
587104,845884,1042027,582843.75,843710.25,1040338.00
586396,845291,1041813,583029.63,843818.00,1040437.25
583458,844540,1040971,583217.00,843924.13,1040533.75
582479,843974,1040485,583393.25,844023.75,1040622.75
581662,843724,1040289,583545.25,844112.44,1040700.94
580880,843731,1040679,583665.75,844187.88,1040767.13
580404,843629,1040326,583752.25,844249.94,1040821.69
580276,843566,1040481,583804.88,844299.81,1040866.25
580349,843757,1040573,583825.81,844338.94,1040902.63
579990,843709,1040735,583818.00,844369.44,1040932.50
580147,843744,1040598,583783.81,844393.13,1040956.94
579943,843766,1040746,583726.25,844409.88,1040976.38
579908,844276,1041352,583648.13,844420.00,1040991.38
579968,843928,1041068,583551.88,844424.63,1041003.00
580153,844036,1040938,583441.00,844425.13,1041012.69
580254,844002,1040932,583318.88,844422.38,1041021.00
580828,844296,1041284,583188.00,844417.50,1041028.25
581487,844401,1041460,583052.00,844412.00,1041036.31
581835,844648,1041573,582918.38,844407.25,1041046.38
581926,845269,1042205,582790.69,844405.25,1041059.38
582729,845225,1042238,582670.25,844407.88,1041076.75
582976,845126,1042066,582562.13,844415.69,1041099.56
583081,845028,1042198,582469.38,844427.75,1041126.88
583191,845277,1042224,582392.00,844443.50,1041157.69
583232,845368,1042367,582329.50,844463.19,1041192.50
583151,845306,1042406,582280.63,844486.94,1041231.56
583513,845576,1042623,582242.50,844514.50,1041275.00
583815,845730,1042584,582213.38,844546.38,1041322.75
584300,845847,1042889,582197.56,844583.13,1041374.81
584451,846339,1043271,582198.38,844624.94,1041431.50
584717,846318,1043216,582215.69,844672.38,1041493.38
585173,846433,1043271,582249.69,844726.00,1041560.25
585343,846526,1043459,582300.56,844785.75,1041632.13
585863,846887,1043727,582368.06,844851.75,1041709.00
586072,846999,1043791,582451.94,844924.38,1041791.25
586346,847050,1043837,582552.19,845003.63,1041878.50
586714,847333,1044038,582668.25,845088.50,1041969.75
587054,847226,1044152,582799.50,845178.25,1042064.63
587082,847446,1044251,582945.63,845272.63,1042163.25
587305,847541,1044989,583105.13,845371.56,1042265.75
587936,847683,1044674,583277.38,845474.88,1042372.25
588062,847906,1044687,583462.63,845582.38,1042482.75
588069,847965,1044796,583659.63,845694.06,1042596.63
588259,848007,1045318,583866.19,845809.06,1042714.00
587968,847775,1044831,584080.13,845925.88,1042834.75
587163,847209,1044313,584296.63,846041.75,1042956.00
585693,846635,1043432,584507.50,846152.63,1043072.63
583094,845754,1043129,584700.25,846253.38,1043180.13
582731,845603,1042992,584862.69,846340.00,1043275.31
582019,845442,1042631,584989.94,846411.13,1043356.88
581363,845419,1042758,585079.00,846467.50,1043424.50
581528,845338,1042950,585128.75,846510.31,1043479.44
581752,845324,1042830,585144.75,846540.13,1043523.50
581378,845715,1043314,585133.00,846557.75,1043557.75
581308,845644,1043292,585095.69,846565.38,1043584.00
581613,845634,1043264,585035.75,846565.00,1043604.25
581736,845635,1043445,584957.44,846557.88,1043620.13
582097,846018,1043563,584864.44,846545.63,1043632.75
582163,845988,1043607,584760.13,846530.13,1043643.19
582437,846076,1043812,584648.63,846512.75,1043652.50
582722,846762,1044255,584534.00,846494.75,1043661.88
583539,846599,1044210,584420.50,846477.88,1043673.00
584005,846625,1044327,584313.00,846463.63,1043686.75
584307,846871,1044852,584215.69,846452.63,1043703.63
583984,847059,1044679,584129.25,846445.88,1043724.63
584449,846999,1044660,584053.38,846443.94,1043749.75
584614,846983,1044683,583988.69,846446.38,1043778.69
583505,847212,1045014,583935.63,846453.13,1043811.38
584892,847225,1044929,583893.94,846464.75,1043848.25
585021,847223,1045046,583863.94,846480.75,1043889.13
585155,847574,1045208,583845.94,846500.38,1043933.38
585695,847699,1045220,583840.31,846523.88,1043980.63
585808,847641,1045309,583848.13,846552.25,1044031.25
586104,847643,1045303,583869.75,846585.31,1044085.13
586330,847969,1045683,583904.63,846622.88,1044142.25
586704,848231,1045968,583952.38,846665.75,1044203.75
586745,848229,1045866,584013.63,846714.50,1044270.25
587112,848570,1046398,584088.25,846768.88,1044341.31
587673,848724,1046332,584176.50,846828.75,1044417.00
587966,848682,1046431,584279.50,846894.69,1044497.63
588114,848697,1046406,584397.13,846966.13,1044582.69
588712,848978,1046623,584529.00,847042.31,1044671.63
588907,849286,1046794,584675.25,847123.75,1044764.25
589037,849174,1046733,584835.25,847210.75,1044860.50
588939,849623,1047282,585004.75,847302.75,1044959.88
589486,849512,1047100,585180.25,847399.50,1045062.69
589478,849425,1047010,585363.63,847500.31,1045168.25
589662,849443,1047135,585556.00,847603.50,1045274.94
587928,848842,1046474,585752.25,847706.94,1045380.75
586980,848198,1046053,585942.94,847806.50,1045482.38
585736,847821,1045685,586118.25,847897.63,1045576.38
583193,847414,1045201,586270.13,847978.25,1045659.88
583226,847106,1045049,586390.75,848046.75,1045730.88
583089,847013,1045049,586475.94,848101.50,1045788.81
582959,847190,1044880,586526.38,848142.25,1045834.81
582677,847075,1044908,586544.50,848170.44,1045869.75
582757,847153,1045255,586532.88,848187.50,1045894.69
582840,847155,1045295,586495.00,848194.88,1045911.50
582684,847158,1045462,586432.75,848193.75,1045922.00
582864,847290,1045428,586347.56,848185.38,1045927.56
582716,847325,1045513,586244.69,848171.31,1045929.00
582031,847526,1046044,586128.88,848152.88,1045927.50
583390,847566,1045995,586004.00,848131.25,1045924.75
584187,847703,1046056,585875.50,848108.13,1045922.50
584589,847975,1046602,585748.88,848085.00,1045921.50
585415,848335,1046528,585629.50,848064.00,1045922.75
585537,848325,1046497,585521.13,848046.75,1045927.63
585764,848288,1046514,585425.88,848033.50,1045936.06
585636,848685,1046892,585343.44,848024.25,1045948.44
585735,848577,1046689,585273.00,848019.63,1045965.19
585947,848571,1046838,585214.25,848019.69,1045985.88
585913,848683,1047072,585167.38,848023.81,1046010.25
586135,848733,1046986,585131.88,848031.88,1046038.25
586277,848872,1047037,585107.75,848044.13,1046069.88
586153,849052,1047145,585094.56,848061.00,1046105.00
587072,849341,1047394,585091.63,848083.38,1046143.88
587315,849382,1047438,585100.63,848111.88,1046186.88
587518,849458,1047459,585123.81,848146.50,1046234.00
587492,849791,1047957,585161.38,848186.88,1046284.88
588251,849839,1047813,585213.06,848233.38,1046339.75
588600,849944,1047992,585280.13,848286.13,1046398.88
588673,850113,1047965,585363.13,848345.00,1046462.38
588926,850374,1048191,585458.63,848410.06,1046529.88
589514,850369,1048309,585564.25,848481.38,1046601.38
589616,850545,1048436,585683.13,848558.44,1046677.06
588693,851176,1048875,585815.25,848641.13,1046757.00
589885,851024,1048757,585957.06,848729.75,1046841.38
589817,851061,1048897,586108.94,848824.50,1046930.13
590428,851063,1049118,586271.38,848924.38,1047022.63
590649,851269,1049047,586444.38,849028.63,1047118.38
590704,851265,1049068,586627.63,849136.63,1047216.88
590180,851079,1048758,586818.13,849247.13,1047316.75
587948,849958,1047771,587009.25,849357.63,1047414.25
586714,849432,1047316,587189.63,849463.00,1047503.88
585660,848964,1046978,587347.25,849557.13,1047581.88
584788,848639,1047007,587474.31,849636.13,1047646.75
583723,848375,1046730,587566.50,849698.75,1047698.38
583790,848287,1046615,587621.75,849744.63,1047737.00
583687,848308,1046750,587642.25,849774.75,1047763.38
583487,848386,1046871,587630.88,849790.63,1047779.13
583370,848332,1046877,587590.06,849794.13,1047786.25
583128,848356,1046941,587522.63,849786.63,1047786.00
583255,848521,1047186,587431.63,849769.69,1047779.63
583180,848464,1046974,587320.50,849744.88,1047768.31
583352,848524,1047083,587192.56,849713.56,1047752.88
583374,848648,1047441,587051.25,849677.38,1047734.25
583895,848958,1047484,586900.50,849638.25,1047713.94
584243,849094,1047437,586745.19,849598.38,1047693.69
584582,849115,1047678,586589.75,849559.25,1047674.44
585449,849654,1048138,586437.75,849522.13,1047657.88
585576,849623,1048007,586293.13,849488.63,1047645.75
585612,849637,1047941,586159.13,849459.88,1047637.75
585850,849589,1048308,586037.19,849435.63,1047633.13
585999,849751,1048207,585928.00,849415.69,1047632.00
586091,849664,1048134,585832.13,849400.13,1047634.63
586003,849629,1048155,585749.00,849388.38,1047640.88
586345,850049,1048449,585675.25,849381.00,1047650.56
586601,850017,1048451,585608.69,849379.38,1047664.50
586661,849893,1048445,585553.75,849382.81,1047682.50
586940,850631,1048931,585513.81,849390.13,1047704.13
587198,850423,1048853,585488.88,849401.75,1047729.75
587642,850412,1048777,585479.75,849418.75,1047759.88
587910,850591,1048872,585487.25,849441.38,1047794.13
588229,850960,1049264,585510.63,849470.13,1047832.88
588473,851069,1049285,585549.00,849506.00,1047876.88
588635,851052,1049397,585603.19,849548.88,1047926.13
588895,851658,1049472,585672.75,849598.25,1047980.25
589180,851433,1049540,585756.56,849654.25,1048038.75
589733,851532,1049696,585855.50,849716.75,1048101.38
589672,851567,1050184,585970.00,849785.13,1048168.13
589804,851767,1049987,586098.56,849858.75,1048238.88
590142,851809,1049931,586239.50,849937.50,1048313.50
590629,851972,1050073,586392.75,850020.88,1048391.50
589134,851968,1050353,586557.13,850108.75,1048473.00
590148,851774,1050062,586728.94,850200.31,1048557.63
589987,851427,1049593,586905.19,850292.63,1048643.00
588770,850707,1048925,587081.38,850382.00,1048725.37
586146,850109,1048555,587246.75,850463.88,1048801.00
585298,849930,1048205,587387.88,850534.44,1048866.50
584827,849655,1048101,587497.88,850592.13,1048919.75
583876,849520,1048331,587575.19,850636.50,1048961.50
583847,849416,1048177,587619.38,850667.50,1048993.00
583774,849381,1047972,587631.25,850685.81,1049014.75
583312,849511,1048371,587613.19,850692.50,1049027.00
582994,849444,1048252,587566.63,850689.00,1049031.00
583423,849490,1048214,587493.63,850676.69,1049028.50
583284,849466,1048238,587398.50,850657.13,1049020.50
583205,849453,1048264,587284.38,850631.13,1049007.75
583274,849594,1048287,587154.13,850599.88,1048991.00
583008,849584,1048414,587010.13,850564.63,1048971.25
583353,849877,1049003,586852.75,850527.00,1048950.00
584124,850028,1048837,586684.88,850488.88,1048928.50
584466,850230,1048928,586515.19,850452.00,1048908.50
584927,850315,1049592,586350.56,850417.63,1048891.12
585247,850605,1049349,586194.50,850386.94,1048877.25
585603,850597,1049435,586049.94,850360.88,1048868.25
585853,850651,1049320,585918.75,850339.69,1048864.00
585273,850894,1049498,585801.50,850323.63,1048864.00
585880,850811,1049520,585697.06,850313.19,1048868.50
586086,850876,1049523,585605.94,850307.94,1048877.00
586259,851353,1049826,585529.00,850307.63,1048890.00
586509,851291,1049832,585466.50,850312.88,1048907.50
586835,851288,1049751,585419.13,850324.25,1048929.50
586968,851339,1049901,585387.31,850341.38,1048955.25
587257,851577,1050074,585370.38,850364.19,1048985.12
587635,851547,1050260,585367.75,850392.75,1049019.50
587990,851693,1050286,585381.25,850426.63,1049058.50
587369,852110,1050649,585411.50,850465.75,1049101.75
588269,852021,1050747,585457.50,850510.13,1049149.25
588765,852301,1050640,585518.88,850560.50,1049201.62
588867,852324,1050830,585596.13,850617.13,1049258.50
589290,852344,1050813,585688.88,850679.63,1049318.75
589476,852489,1050954,585796.63,850747.19,1049382.87
589703,852658,1050965,585918.75,850819.63,1049450.75
589676,853047,1051286,586053.88,850897.00,1049522.12
590179,852860,1051204,586201.13,850979.25,1049597.50
590449,852933,1051271,586360.00,851065.75,1049676.00
590340,853101,1051376,586529.50,851155.69,1049756.87
589562,852484,1050679,586705.75,851247.38,1049838.12
588824,852074,1050374,586882.31,851337.56,1049916.50
587605,851568,1049805,587051.50,851422.31,1049988.75
585658,850910,1049537,587205.06,851497.94,1050051.50
584841,850732,1049357,587334.31,851561.25,1050103.50
584352,850574,1049139,587432.25,851611.13,1050143.75
583965,850608,1049546,587496.38,851647.63,1050172.25
583709,850521,1049200,587527.38,851671.44,1050190.00
583656,850514,1049226,587527.19,851683.88,1050198.50
583503,850452,1049259,587498.50,851686.19,1050198.75
583363,850676,1049369,587442.88,851679.69,1050192.25
583306,850523,1049181,587361.75,851665.94,1050180.00
583306,850514,1049254,587259.50,851645.75,1050162.37
582320,850926,1049862,587137.63,851620.25,1050140.62
583225,850645,1049469,586996.75,851591.25,1050116.50
583475,850571,1049358,586842.81,851559.00,1050090.50
583540,850728,1049760,586681.88,851523.63,1050062.50
584749,851063,1049864,586519.00,851487.00,1050033.50
585094,851208,1049966,586360.63,851451.25,1050006.12
585247,851279,1049982,586211.25,851417.75,1049981.50
585273,851465,1050210,586072.31,851387.69,1049960.12
585659,851592,1050309,585945.00,851362.25,1049942.75
585850,851708,1050442,585830.38,851341.88,1049930.25
585927,851860,1050381,585729.06,851326.38,1049922.50
586236,851735,1050368,585641.56,851315.75,1049918.75
586480,851765,1050523,585568.50,851309.63,1049919.00
586718,851868,1050592,585510.63,851307.63,1049923.37
586747,851995,1050579,585466.00,851310.00,1049932.00
587064,852190,1050797,585432.63,851317.25,1049944.75
587485,852352,1051057,585413.25,851330.00,1049962.25
586485,852687,1051488,585410.88,851348.38,1049985.25
587721,852767,1051293,585424.88,851372.63,1050013.75
588322,852811,1051363,585455.13,851403.50,1050047.75
588396,852875,1051398,585501.75,851441.13,1050087.37
588909,853030,1051681,585564.88,851484.94,1050132.00
589466,853074,1051724,585645.25,851534.75,1050182.25
589372,853233,1051715,585742.88,851590.19,1050237.75
589258,853525,1051813,585855.50,851651.13,1050297.62
589885,853436,1051812,585980.81,851717.44,1050361.50
590187,853514,1051732,586119.31,851788.63,1050428.12
590170,853625,1052472,586270.75,851864.00,1050497.00
590548,853775,1052246,586433.63,851943.13,1050568.50
590674,853741,1052240,586607.00,852025.81,1050643.25
590423,853722,1052127,586789.13,852111.44,1050720.75
589103,853111,1051636,586976.00,852197.63,1050798.50
587891,852570,1050951,587159.63,852280.63,1050873.12
587139,852091,1050794,587329.38,852356.13,1050940.50
586404,851977,1050650,587477.88,852421.25,1050998.75
585036,851542,1050379,587599.88,852474.63,1051047.25
584701,851475,1050162,587690.63,852515.38,1051085.00
584399,851407,1050201,587749.00,852543.75,1051112.25
583785,851350,1050174,587774.50,852560.50,1051129.25
583919,851237,1050205,587767.00,852566.38,1051137.50
583926,851176,1050305,587731.13,852561.88,1051138.00
583115,851619,1050459,587669.88,852548.75,1051131.87
583611,851463,1050275,587584.63,852529.25,1051119.75
583586,851377,1050241,587479.13,852504.50,1051102.50
583719,851312,1050486,587357.81,852474.44,1051080.75
584301,851607,1050647,587224.88,852440.00,1051056.12
584708,851668,1050692,587085.88,852403.06,1051030.50
585051,851757,1050664,586945.69,852365.13,1051005.25
585329,852099,1051192,586805.38,852327.25,1050981.50
586075,852097,1051160,586666.56,852290.63,1050961.00
586163,852144,1050925,586536.00,852256.69,1050944.25
586223,852268,1051127,586417.88,852225.63,1050929.50
585741,852292,1051060,586311.31,852197.69,1050916.50
586036,852223,1050987,586214.50,852173.19,1050905.75
586438,852298,1051013,586127.88,852152.25,1050897.00
586699,852421,1051160,586052.63,852134.88,1050890.25
586882,852319,1051296,585989.13,852121.19,1050886.37
587171,852544,1051354,585938.88,852111.13,1050885.75
587123,852664,1051311,585903.44,852105.13,1050888.37
587743,852769,1051527,585883.13,852103.63,1050894.12
587994,852708,1051561,585878.50,852106.75,1050903.50
588220,852940,1052172,585889.81,852114.44,1050916.50
588200,853061,1051891,585916.50,852127.00,1050933.62
588463,853039,1051949,585957.25,852144.75,1050955.25
588905,853312,1052056,586011.81,852167.44,1050981.75
588970,853636,1052525,586080.13,852195.75,1051013.75
589249,853540,1052196,586161.19,852230.19,1051051.50
589411,853552,1052238,586254.75,852270.19,1051093.87
589603,853532,1052802,586360.44,852314.75,1051139.25
589843,853866,1052408,586477.63,852363.69,1051187.25
590235,853728,1052442,586605.88,852417.00,1051238.00
590452,854010,1052543,586745.38,852474.50,1051291.75
590219,854067,1052662,586893.00,852536.50,1051348.37
590160,853787,1052371,587044.31,852602.88,1051407.25
589810,853685,1052391,587198.38,852671.00,1051466.75
589094,853245,1051882,587352.75,852738.13,1051525.25
586766,852682,1051464,587498.88,852801.38,1051580.00
585898,852173,1051013,587625.25,852856.63,1051627.50
585454,852040,1050902,587724.88,852901.06,1051665.75
584308,851831,1050672,587795.75,852933.88,1051693.50
584239,851742,1050621,587836.38,852955.00,1051711.00
584148,851685,1050556,587846.75,852964.88,1051718.37
583430,852122,1050770,587828.50,852964.63,1051716.75
583503,851881,1050624,587783.13,852956.13,1051707.50
583491,851890,1050790,587712.38,852940.63,1051691.75
583633,851837,1051068,587619.38,852919.25,1051671.00
583192,851967,1051093,587507.00,852892.75,1051646.50
583250,851871,1050953,587377.13,852862.13,1051620.25
583488,852019,1051125,587232.69,852828.38,1051592.50
583067,852538,1051590,587077.63,852792.75,1051565.37
584525,852553,1051572,586917.25,852757.75,1051540.75
585035,852602,1051483,586757.44,852724.88,1051519.00
585478,852954,1051665,586603.63,852695.38,1051500.00
585928,853003,1051827,586459.75,852670.13,1051484.87
585887,852855,1051840,586327.88,852649.63,1051473.75
585921,852905,1051787,586208.38,852633.50,1051466.50
585907,853067,1051906,586100.00,852621.38,1051462.75
586185,853014,1052003,586001.88,852613.50,1051462.75
586388,853221,1051938,585915.63,852610.00,1051466.37
586501,853254,1052445,585842.75,852610.88,1051473.12
586856,853285,1052471,585783.63,852616.00,1051483.25
587006,853365,1052329,585738.75,852625.38,1051498.25
587430,853512,1052314,585709.00,852639.19,1051517.62
587823,853505,1052451,585695.25,852657.50,1051540.87
587962,853557,1052423,585698.25,852680.00,1051567.75
588137,853792,1052615,585717.50,852706.63,1051598.25
587728,854421,1052998,585749.81,852738.50,1051632.87
588722,854161,1052879,585792.81,852776.88,1051672.50
588967,854165,1052839,585849.56,852821.13,1051716.50
588607,854325,1053430,585921.38,852870.38,1051763.62
589404,854518,1053098,586006.50,852924.44,1051813.50
589767,854618,1053205,586105.75,852983.69,1051866.75
589872,854695,1053345,586219.63,853047.88,1051923.50
589591,854770,1053310,586346.25,853117.25,1051983.75
590314,854861,1053327,586483.81,853191.75,1052046.75
590664,854980,1053436,586632.63,853270.50,1052111.87
590816,855349,1053562,586793.13,853352.25,1052179.25
589955,854699,1053116,586962.38,853435.75,1052248.00
589097,854192,1052809,587133.75,853518.25,1052315.25
587971,853713,1052359,587298.81,853596.00,1052378.12
585823,853109,1051990,587447.63,853665.38,1052433.50
585424,852926,1051848,587570.38,853723.25,1052479.62
584888,852682,1051686,587662.81,853768.44,1052515.62
582920,852703,1051896,587723.88,853800.63,1052541.62
583593,852584,1051551,587752.38,853820.38,1052558.00
583530,852561,1051428,587748.13,853828.69,1052565.25
583457,852476,1051506,587713.50,853826.63,1052563.25
583040,852582,1051689,587651.13,853815.38,1052553.37
582948,852286,1051467,587563.00,853795.63,1052537.25
582760,852226,1051507,587451.19,853767.56,1052515.75
582566,852487,1051659,587318.06,853731.75,1052489.37
582661,852276,1051479,587166.06,853689.63,1052459.50
582986,852301,1051471,586999.19,853642.25,1052426.00
583071,852722,1052045,586822.13,853590.94,1052390.00
583898,852798,1052111,586639.63,853537.88,1052353.50
584620,853035,1052177,586458.31,853485.63,1052318.87
584566,853128,1052234,586283.38,853435.88,1052287.25
585249,853386,1052475,586116.88,853390.00,1052259.25
585546,853529,1052591,585961.25,853349.25,1052235.87
585456,853463,1052443,585819.38,853314.31,1052217.25
585317,853712,1053081,585691.31,853284.50,1052203.00
585506,853479,1052834,585576.13,853259.38,1052192.87
586009,853591,1052760,585474.50,853238.75,1052188.00
586185,853705,1052771,585388.19,853223.13,1052188.00
585968,853802,1052947,585315.13,853212.88,1052192.50
586414,853870,1052867,585252.88,853208.00,1052201.50
586706,854050,1053024,585204.25,853208.88,1052214.87
586021,854632,1053544,585170.06,853216.00,1052232.50
587291,854447,1053384,585148.75,853230.56,1052255.12
587579,854501,1053421,585143.38,853252.38,1052283.12
587988,854666,1053565,585156.69,853280.88,1052316.25
588326,854810,1053633,585189.00,853316.19,1052354.50
588601,854979,1053652,585240.38,853358.38,1052397.75
588402,854893,1053789,585309.38,853407.00,1052445.00
588667,855257,1054035,585391.63,853461.13,1052497.00
589031,855106,1053959,585484.13,853520.25,1052553.37
589490,855224,1054043,585589.75,853584.06,1052613.87
589732,855506,1054372,585711.13,853652.38,1052678.00
589723,855483,1054235,585847.19,853725.19,1052746.00
590081,855424,1054225,585996.38,853801.94,1052817.00
589845,855301,1054277,586156.88,853881.44,1052890.12
588746,854890,1053491,586325.38,853961.44,1052963.25
587535,854464,1053211,586494.44,854038.88,1053032.75
586588,854018,1052929,586653.31,854110.25,1053095.25
585120,853821,1052593,586793.50,854173.13,1053149.50
584646,853381,1052570,586909.63,854225.63,1053194.50
584061,853360,1052501,586996.69,854266.50,1053230.00
583861,853223,1052583,587052.75,854295.69,1053255.87
583258,853190,1052459,587078.19,854313.81,1053272.75
582971,852973,1052299,587073.25,854321.25,1053281.00
582657,852926,1052354,587038.88,854318.31,1053281.75
582490,853035,1052785,586976.75,854305.94,1053276.00
582399,852905,1052392,586889.25,854285.56,1053266.00
582339,852939,1052371,586779.25,854257.88,1053251.25
582306,852948,1052986,586649.69,854223.81,1053232.00
581958,853079,1052532,586503.00,854184.63,1053208.75
582233,853275,1052590,586341.38,854142.00,1053183.25
582903,853330,1052579,586169.38,854097.75,1053156.25
583615,853668,1053078,585991.00,854053.94,1053129.00
583936,853742,1053037,585809.94,854012.63,1053103.75
584682,853753,1053161,585634.44,853974.38,1053081.25
584726,854363,1053733,585471.31,853939.38,1053061.75
584430,854015,1053311,585321.19,853908.50,1053046.25
584997,854042,1053219,585183.75,853882.00,1053034.00
585114,854015,1053281,585060.13,853859.69,1053025.00
585589,854224,1053518,584951.56,853841.56,1053019.25
585751,854327,1053486,584858.63,853828.19,1053017.25
586034,854536,1053679,584782.63,853820.25,1053019.37
585600,855094,1053970,584724.13,853818.38,1053026.00
586193,854874,1053930,584682.19,853823.13,1053037.50
586637,855054,1054025,584656.63,853835.13,1053054.25
587178,854953,1054523,584648.63,853854.00,1053076.25
586790,855310,1054345,584658.38,853879.63,1053104.00
587598,855514,1054411,584684.75,853912.38,1053137.62
587980,855442,1054289,584728.63,853952.50,1053176.12
586975,855796,1054892,584790.56,853999.63,1053219.75
588198,855809,1054771,584869.38,854053.88,1053269.00
588775,855941,1054907,584964.13,854114.88,1053324.00
588830,856354,1055219,585074.75,854182.00,1053383.75
589430,856300,1055127,585200.81,854255.00,1053447.75
589582,856405,1055110,585342.25,854334.25,1053516.12
589874,856469,1055150,585498.38,854419.19,1053588.25
589988,856652,1055507,585667.50,854509.38,1053663.87
590069,856550,1055527,585847.81,854604.25,1053743.50
589761,856425,1055130,586036.75,854702.13,1053826.25
587854,855810,1054904,586230.38,854800.31,1053908.75
586827,855318,1054329,586419.56,854894.88,1053987.75
586122,855060,1054060,586592.63,854982.06,1054060.12
585576,854637,1053716,586742.19,855059.31,1054124.00
584277,854563,1053711,586864.38,855125.06,1054178.00
584041,854656,1053824,586955.25,855179.25,1054222.50
584106,854549,1053757,587014.69,855222.88,1054258.75
583369,855039,1054438,587043.13,855257.56,1054287.37
583450,854822,1054084,587040.19,855285.13,1054310.37
583598,854738,1053961,587010.13,855306.25,1054328.75
583447,854833,1054095,586958.13,855321.06,1054342.25
583227,854764,1053821,586886.38,855330.31,1054351.12
583493,854718,1053989,586797.13,855334.38,1054355.50
583620,854833,1054039,586693.88,855333.75,1054356.62
583453,855039,1054213,586580.00,855329.88,1054355.50
584715,855207,1054413,586459.88,855324.88,1054353.50
584981,855428,1054641,586339.63,855319.88,1054352.25
585493,855843,1054868,586224.00,855315.81,1054353.00
586051,855623,1054914,586116.63,855313.13,1054356.50
586168,855686,1054930,586020.63,855312.69,1054363.25
586332,855761,1054936,585937.00,855315.06,1054373.25
585994,855792,1055036,585862.81,855320.31,1054386.50
586440,855808,1055063,585795.00,855328.38,1054402.75
586634,855966,1055086,585736.88,855339.25,1054422.00
585585,856223,1055376,585691.88,855353.25,1054443.87
586839,856349,1055390,585659.63,855370.88,1054468.50
587463,856345,1055580,585640.56,855393.00,1054496.75
587707,856427,1055789,585636.38,855419.69,1054529.50
588059,856716,1055793,585648.00,855451.00,1054566.50
588163,856780,1055839,585675.50,855487.44,1054608.00
588449,856975,1055912,585718.25,855529.31,1054653.75
589015,857427,1056432,585775.88,855576.88,1054704.00
589274,857343,1056375,585848.75,855630.69,1054760.25
589554,857371,1056532,585937.50,855690.50,1054822.00
589611,857561,1056919,586041.94,855755.50,1054888.62
590172,857807,1056668,586161.13,855825.25,1054959.75
590387,857631,1056689,586295.13,855900.19,1055034.50
590542,857770,1056771,586443.25,855979.56,1055112.87
590888,857926,1056943,586604.13,856062.75,1055194.25
591161,858052,1056886,586776.94,856149.81,1055278.50
591272,858095,1056944,586961.13,856240.38,1055365.00
591401,858342,1057395,587155.25,856333.88,1055452.75
590744,857847,1056822,587356.25,856429.13,1055541.12
589913,857302,1056212,587558.13,856523.13,1055627.75
588676,856948,1055814,587752.88,856612.13,1055709.00
586712,856460,1055541,587929.88,856692.94,1055781.50
586406,856248,1055316,588079.56,856763.00,1055844.00
585845,856043,1055184,588198.69,856821.13,1055895.25
584234,856260,1055470,588284.88,856867.25,1055935.62
584805,855976,1055258,588335.88,856901.88,1055965.62
584528,855878,1055149,588353.63,856925.75,1055986.50
584565,855954,1055226,588342.00,856939.44,1055999.00
584461,855934,1055366,588303.88,856944.13,1056004.75
584432,855789,1055232,588242.13,856940.63,1056004.50
584107,855816,1055188,588159.38,856929.50,1055998.75
583773,855886,1055457,588055.38,856911.81,1055988.50
584383,855877,1055322,587931.63,856889.06,1055974.75
585063,856172,1055542,587795.38,856862.38,1055958.50
585536,856418,1055990,587654.75,856833.25,1055940.75
585835,856498,1055858,587514.75,856803.38,1055923.25
586338,856580,1055966,587379.25,856774.25,1055907.12
586669,856721,1056135,587251.75,856747.25,1055893.37
586770,856844,1056171,587134.19,856723.19,1055882.75
586798,856762,1055909,587027.00,856702.50,1055875.00
587044,856976,1056144,586930.94,856685.19,1055869.25
587224,857280,1056260,586846.75,856672.13,1055866.00
587542,857171,1056418,586775.38,856664.13,1055866.00
587521,857128,1056427,586717.38,856660.75,1055869.75
587825,857142,1056844,586672.63,856661.38,1055877.25
587997,857290,1056485,586641.38,856665.63,1055888.25
588415,857363,1056646,586624.13,856673.88,1055902.75
588598,857438,1056601,586621.56,856686.13,1055920.50
588988,857897,1057351,586633.63,856703.00,1055942.50
589192,857885,1056964,586660.00,856725.63,1055970.25
589443,858099,1056920,586701.38,856754.44,1056002.75
589607,858215,1057650,586757.81,856789.50,1056038.25
590011,858206,1057292,586828.94,856830.69,1056077.00
590141,858280,1057348,586914.50,856877.19,1056119.62
590483,858431,1057407,587014.06,856928.69,1056166.25
590746,858679,1057807,587124.94,856985.63,1056217.25
590989,858603,1057606,587244.75,857048.25,1056272.75
591221,858740,1057628,587375.69,857115.69,1056331.75
591399,859050,1058228,587519.25,857186.88,1056393.50
591779,859013,1057958,587674.75,857261.63,1056458.37
591959,858994,1057862,587841.75,857340.00,1056526.00
591506,858933,1057653,588018.06,857421.13,1056595.12
590354,858298,1057249,588199.63,857502.75,1056663.50
589424,857806,1056863,588379.50,857580.88,1056728.25
588089,857368,1056465,588546.81,857651.63,1056786.25
586238,857420,1056335,588692.06,857712.25,1056835.25
585853,856934,1056145,588808.75,857761.38,1056874.50
585526,856663,1056026,588892.13,857798.44,1056903.75
584933,856630,1055934,588940.63,857823.38,1056923.00
584240,856507,1055971,588953.88,857836.44,1056933.00
584579,856636,1056024,588933.06,857838.75,1056935.00
584273,856488,1055892,588881.63,857831.50,1056929.50
582540,856513,1055937,588802.63,857815.94,1056917.50
583730,856461,1055801,588698.00,857793.25,1056899.25
584026,856313,1055955,588570.38,857763.63,1056875.75
583999,856610,1056018,588423.88,857727.50,1056848.00
584018,856560,1055905,588262.25,857686.63,1056816.50
584300,856708,1056130,588089.00,857642.38,1056782.50
584976,856834,1056189,587909.13,857596.50,1056747.25
585528,857212,1056702,587727.50,857550.88,1056713.00
585948,857221,1056667,587548.50,857507.50,1056681.62
586399,857299,1056689,587377.75,857467.19,1056654.00
586018,857347,1057040,587219.38,857430.31,1056629.87
586270,857422,1056775,587074.13,857397.25,1056609.12
586677,857415,1056759,586941.38,857368.00,1056592.00
587015,857554,1056868,586822.13,857342.81,1056578.25
587288,857817,1057177,586718.13,857322.38,1056568.50
587346,857780,1057105,586630.25,857307.31,1056563.75
587382,857888,1057185,586557.75,857297.75,1056563.75
587608,858508,1057901,586498.25,857294.38,1056568.87
588278,858424,1057552,586450.63,857298.69,1056580.00
588545,858488,1057559,586419.31,857310.81,1056597.12
588805,858467,1058151,586407.19,857330.00,1056619.50
589147,858880,1058080,586414.19,857356.00,1056647.50
589281,858816,1058046,586439.94,857389.25,1056682.00
589607,859042,1058175,586483.81,857429.63,1056722.75
589686,859458,1058301,586545.13,857477.63,1056769.50
590315,859392,1058684,586623.75,857534.00,1056822.25
590336,859358,1058519,586719.19,857597.75,1056881.50
590908,859939,1058682,586830.88,857667.13,1056946.37
591107,859921,1058800,586958.63,857742.25,1057016.25
591490,859934,1058808,587102.13,857823.75,1057090.75
591552,859886,1058919,587260.31,857911.00,1057169.12
591693,860135,1058935,587429.06,858003.00,1057251.00
591848,860001,1059014,587604.31,858099.13,1057335.87
591533,859912,1058740,587786.75,858198.00,1057422.37
588700,858900,1058144,587974.13,858297.00,1057508.25
588707,858639,1057854,588157.00,858392.13,1057590.00
587917,858352,1057523,588324.44,858478.75,1057664.50
587028,858102,1057344,588469.06,858554.44,1057729.25
585974,858040,1057376,588585.94,858618.25,1057783.75
585544,857768,1057250,588671.13,858669.94,1057828.50
585143,857812,1057425,588723.50,858709.56,1057864.25
584778,858216,1057437,588743.88,858738.13,1057892.37
584846,858022,1057478,588733.94,858757.50,1057913.75
584773,857987,1057574,588696.69,858769.00,1057929.62
584576,858160,1058019,588634.88,858773.75,1057940.75
584319,858156,1057961,588550.38,858773.00,1057948.37
584740,858241,1057899,588446.19,858767.81,1057954.25
584495,858305,1057965,588325.88,858759.38,1057959.25
584944,858404,1058132,588192.13,858748.63,1057964.00
585458,858634,1058392,588049.00,858736.88,1057969.50
585966,858685,1058485,587902.88,858725.38,1057977.25
586195,859301,1059003,587759.31,858715.50,1057987.75
587177,859138,1058946,587622.50,858708.50,1058001.75
587557,859328,1059059,587497.38,858705.63,1058020.50
587626,859476,1059074,587386.75,858707.50,1058044.50
587662,859604,1059234,587288.63,858714.88,1058073.50
587988,859560,1059183,587201.13,858727.50,1058107.00
587947,859519,1059171,587126.75,858744.75,1058144.75
587116,860064,1059522,587065.75,858766.31,1058185.75
588012,859893,1059428,587015.75,858792.63,1058230.12
588426,859850,1059315,586978.13,858823.63,1058277.62
589062,859950,1059778,586955.88,858858.88,1058327.75
589654,860438,1059745,586951.50,858898.63,1058381.00
589840,860462,1059964,586966.75,858944.13,1058437.87
589954,860608,1059910,587001.13,858995.63,1058498.75
590168,860866,1060164,587051.13,859053.00,1058563.50
590910,860908,1060355,587115.00,859116.44,1058632.00
591167,861020,1060401,587196.19,859185.56,1058705.00
591296,861419,1060625,587296.63,859260.25,1058781.50
591669,861519,1060763,587415.06,859340.88,1058861.37
591916,861648,1060795,587550.50,859427.75,1058945.00
592587,861806,1060804,587702.69,859520.63,1059032.50
592611,861900,1061085,587871.38,859619.25,1059123.00
592884,862102,1061138,588055.00,859723.25,1059217.00
593120,862194,1061276,588252.13,859832.25,1059314.12
593430,862400,1061324,588462.00,859945.75,1059413.87
593627,862134,1061159,588683.75,860062.75,1059515.25
592881,861787,1060900,588914.00,860180.88,1059616.25
591847,861328,1060584,589145.75,860296.69,1059714.75
589608,860602,1060084,589367.94,860406.00,1059807.37
588895,860464,1059808,589568.63,860505.00,1059891.50
588137,860323,1059706,589740.75,860592.00,1059965.50
587264,860268,1060113,589881.31,860667.25,1060029.75
587417,860315,1059993,589989.25,860731.25,1060086.12
587112,860285,1059888,590065.38,860784.88,1060135.25
587071,860362,1060899,590111.50,860828.63,1060177.12
586876,860811,1060345,590129.75,860864.56,1060213.25
586974,860764,1060294,590122.50,860895.00,1060245.50
587212,860896,1060430,590093.25,860921.19,1060274.75
586969,861097,1060827,590043.88,860944.69,1060302.00
587163,861213,1060790,589975.13,860967.38,1060329.25
587521,861250,1060925,589892.50,860989.44,1060357.00
588186,862045,1061558,589802.75,861011.06,1060385.62
589079,861839,1061530,589712.06,861033.50,1060416.62
589634,861990,1061640,589626.81,861058.63,1060451.62
590100,862094,1061840,589551.38,861087.50,1060491.50
590642,862546,1062007,589488.25,861121.00,1060536.37
590931,862553,1062163,589438.75,861160.25,1060586.75
591091,862771,1062324,589405.00,861205.38,1060642.75
590706,863220,1062604,589387.25,861256.50,1060704.25
591234,862831,1062589,589384.38,861313.25,1060770.75
591580,862957,1062691,589395.69,861374.88,1060842.50
591608,863172,1062817,589421.06,861441.00,1060919.00
591886,863329,1062814,589459.94,861512.00,1060999.50
592415,863405,1063049,589512.50,861587.75,1061084.25
592775,863409,1062918,589579.81,861667.81,1061172.75
591974,863620,1063338,589662.06,861751.75,1061264.62
593310,863713,1063305,589758.63,861839.75,1061360.12
593831,863884,1063391,589869.94,861931.38,1061458.87
594300,864394,1063790,589997.13,862026.75,1061560.37
594724,864458,1063847,590140.75,862126.38,1061665.00
595045,864482,1063837,590300.88,862230.94,1061772.75
595221,864455,1064042,590476.75,862339.56,1061883.25
595588,864909,1064322,590665.81,862451.75,1061997.00
596168,864904,1064147,590866.56,862568.00,1062113.50
596331,864979,1064351,591080.56,862687.81,1062231.75
596141,865473,1065102,591307.50,862810.63,1062351.75
596539,865465,1064799,591544.94,862936.88,1062473.75
596780,865363,1064777,591791.00,863066.13,1062598.12
597119,865502,1064858,592045.00,863197.50,1062724.00
596527,865127,1064339,592304.56,863329.38,1062849.62
595699,864564,1063857,592564.19,863458.50,1062971.50
594182,863931,1063417,592815.06,863580.50,1063085.50
591262,863687,1063225,593044.63,863692.00,1063189.50
591148,863089,1062756,593240.63,863790.63,1063281.75
590912,862879,1062443,593398.75,863873.63,1063360.00
589968,862650,1062790,593518.88,863939.69,1063422.75
589856,862632,1062454,593600.50,863988.94,1063470.50
589947,862673,1062591,593645.44,864022.63,1063505.25
590278,862823,1062673,593658.50,864042.63,1063529.25
589379,863068,1062840,593643.56,864051.75,1063544.25
589878,863001,1062762,593602.69,864052.50,1063552.00
590145,863185,1062999,593539.38,864046.06,1063553.50
590149,863646,1063303,593458.13,864033.63,1063550.87
590878,863541,1063348,593363.63,864017.00,1063545.75
591258,863662,1063656,593261.25,863998.31,1063539.87
591896,863993,1063697,593156.81,863979.75,1063535.25
592428,864284,1063994,593052.63,863963.31,1063532.75
592711,864244,1064036,592950.50,863950.63,1063533.37
592500,864298,1064172,592855.25,863941.69,1063538.00
592269,864353,1064274,592769.88,863936.50,1063546.25
593076,864508,1064298,592695.56,863935.25,1063558.50
593359,864466,1064397,592633.19,863938.00,1063574.75
593247,864695,1064780,592582.69,863944.81,1063594.75
593902,864927,1064624,592544.38,863956.31,1063619.12
594156,865057,1064822,592519.75,863973.38,1063648.00
594313,865113,1064874,592509.88,863996.31,1063681.75
595042,865685,1065460,592514.63,864025.38,1063721.25
595146,865602,1065348,592534.75,864061.25,1063767.50
595419,865744,1065350,592571.25,864104.38,1063820.25
595690,865941,1066013,592624.31,864154.25,1063878.25
596566,865999,1065693,592694.69,864210.63,1063941.37
596256,866218,1065812,592783.00,864273.50,1064009.75
596767,866316,1065852,592887.88,864343.06,1064083.25
597261,866794,1066418,593007.75,864419.63,1064162.00
597571,866763,1066300,593142.44,864504.00,1064246.75
597419,867007,1066407,593291.88,864595.50,1064337.00
597774,867434,1066828,593454.94,864693.38,1064431.75
597882,867400,1066639,593630.00,864797.25,1064530.50
598460,867331,1066811,593816.56,864907.13,1064633.25
598707,867382,1066645,594014.63,865022.06,1064739.37
599190,867664,1066885,594223.25,865141.19,1064847.75
599269,867519,1066967,594441.19,865264.00,1064958.00
599073,867431,1066657,594667.50,865389.00,1065069.25
596730,866718,1065955,594896.44,865514.38,1065179.50
594919,865816,1065455,595114.88,865636.13,1065284.75
594280,865368,1065000,595309.44,865747.00,1065380.00
593520,865030,1064626,595473.38,865842.25,1065461.50
591994,864822,1064576,595602.44,865920.69,1065527.75
591567,864640,1064454,595691.94,865981.94,1065579.00
591526,864680,1064498,595741.50,866026.63,1065616.25
590219,864719,1064663,595752.06,866056.31,1065641.25
591023,864702,1064653,595724.63,866072.88,1065655.87
591379,864580,1064608,595665.06,866077.38,1065661.37
591397,864656,1064711,595580.50,866070.56,1065658.62
591116,864629,1064623,595474.75,866053.63,1065648.50
591253,864535,1064549,595350.25,866028.00,1065632.00
591497,864482,1064495,595210.56,865994.50,1065609.50
591047,864516,1064644,595059.25,865954.06,1065581.87
591879,864546,1064657,594899.38,865907.81,1065550.25
592390,864713,1064721,594736.00,865857.25,1065516.00
593141,865199,1065212,594574.75,865804.25,1065480.25
593081,865231,1065099,594419.88,865750.88,1065445.00
593461,865213,1065141,594273.88,865699.13,1065411.37
593632,865283,1065779,594138.69,865650.13,1065379.62
593833,865481,1065514,594015.63,865604.31,1065350.50
593885,865619,1065367,593905.44,865562.88,1065325.25
594093,865650,1065469,593808.31,865526.56,1065303.50
594209,866026,1066277,593722.75,865496.25,1065286.50
594770,866065,1065888,593648.25,865473.25,1065275.87
595088,866132,1066102,593588.56,865457.56,1065271.62
595312,866292,1066596,593546.63,865448.81,1065273.75
595128,866578,1066459,593521.88,865447.50,1065282.50
595723,866588,1066356,593513.06,865454.13,1065298.25
596034,866662,1066527,593521.00,865468.38,1065320.25
596066,866946,1066740,593545.94,865490.38,1065348.75
596844,867052,1066710,593587.88,865520.50,1065383.50
597155,867148,1066779,593648.00,865558.63,1065424.25
597286,867604,1067777,593726.31,865603.88,1065470.25
597987,867675,1067419,593822.56,865656.63,1065522.75
598427,867825,1067439,593937.50,865717.38,1065582.12
598740,868032,1067591,594071.63,865786.56,1065648.50
598921,868144,1067800,594222.75,865863.88,1065721.37
599133,868240,1067871,594388.50,865948.81,1065800.75
599602,868297,1068028,594568.88,866040.50,1065886.00
598680,868602,1068086,594764.00,866138.13,1065976.50
599638,868332,1068074,594971.50,866240.88,1066071.37
599208,867918,1067484,595187.88,866346.31,1066168.50
598028,867356,1066385,595407.00,866450.63,1066263.75
595081,866339,1066110,595616.31,866548.50,1066352.12
594349,866045,1065948,595801.25,866634.69,1066429.62
593579,865711,1065660,595953.88,866706.38,1066494.25
592279,865734,1065778,596071.13,866763.38,1066545.87
592172,865577,1065608,596151.00,866806.50,1066585.25
592172,865492,1065692,596193.63,866836.00,1066613.50
591985,865609,1065800,596201.50,866852.25,1066631.50
591562,865595,1065719,596177.13,866856.50,1066640.50
591906,865608,1065746,596123.25,866850.75,1066641.87
591891,865614,1065838,596044.25,866836.63,1066636.50
591586,865518,1066009,595943.25,866815.00,1066626.25
591420,865589,1066109,595821.75,866786.75,1066612.37
591833,865731,1066219,595683.13,866753.19,1066596.50
591881,866218,1066834,595531.88,866716.00,1066579.37
592429,866271,1066614,595372.56,866677.38,1066561.75
593150,866463,1066817,595210.75,866639.88,1066546.00
593614,866515,1066898,595052.31,866605.13,1066534.00
594112,867036,1067324,594899.88,866574.75,1066526.75
594361,866838,1067172,594755.00,866550.00,1066525.00
594466,866890,1067232,594621.81,866530.63,1066528.50
593103,867601,1067682,594500.94,866517.25,1066537.37
594498,867043,1067430,594390.13,866510.63,1066551.75
595099,867159,1067424,594292.06,866509.63,1066571.00
595195,867204,1067618,594210.50,866513.50,1066594.50
595483,867577,1067715,594146.00,866522.50,1066622.25
596081,867664,1067939,594099.50,866537.63,1066654.62
596129,867642,1067948,594071.81,866559.13,1066692.25
596269,867918,1068381,594062.50,866586.50,1066735.50
596950,868092,1068393,594071.00,866620.50,1066784.87
597080,868219,1068236,594098.38,866661.25,1066840.00
597438,868681,1068537,594144.81,866708.63,1066899.25
597674,868587,1068566,594209.63,866762.63,1066962.62
598145,868620,1068855,594292.63,866823.13,1067030.37
598505,868809,1068857,594393.88,866890.00,1067103.00
598806,869305,1069225,594511.56,866963.63,1067180.75
599034,869386,1069334,594643.38,867044.88,1067263.75
598983,869404,1069381,594789.75,867133.69,1067352.00
599332,869853,1069771,594950.44,867228.94,1067444.75
599965,869700,1069682,595125.06,867330.13,1067541.37
600224,869841,1069655,595314.06,867436.88,1067641.75
600126,869844,1069535,595516.13,867548.38,1067745.25
599698,869369,1069295,595727.75,867662.75,1067850.00
598617,868754,1068740,595942.25,867775.94,1067952.87
597348,868280,1068344,596150.88,867883.31,1068049.75
594942,867930,1068006,596343.31,867981.13,1068137.37
594395,867459,1067835,596509.38,868066.75,1068214.25
594016,867329,1067657,596642.38,868138.50,1068279.25
593408,867092,1067922,596740.13,868195.75,1068332.25
592791,866997,1067559,596801.94,868238.38,1068373.50
592592,866940,1067328,596828.00,868267.13,1068403.75
592586,866989,1067502,596820.38,868282.94,1068423.25
592347,867062,1067763,596780.88,868287.94,1068433.75
592319,866946,1067671,596711.06,868284.00,1068437.62
592171,866877,1067678,596615.75,868271.38,1068435.50
592352,867487,1068332,596499.63,868250.50,1068428.37
592044,867363,1067830,596366.00,868223.38,1068417.12
592274,867307,1067747,596217.31,868192.50,1068402.50
592894,867538,1068092,596057.94,868159.25,1068385.75
593830,867874,1068386,595893.19,868125.63,1068368.50
594459,867878,1068421,595729.13,868093.44,1068353.12
594696,868071,1068675,595572.81,868063.75,1068340.37
594838,868764,1068864,595426.75,868038.25,1068331.00
594734,868390,1068778,595290.25,868018.63,1068325.12
595263,868396,1068928,595165.31,868004.50,1068323.12
595349,868266,1069058,595055.00,867994.63,1068325.37
595710,868489,1068980,594960.25,867988.50,1068331.62
595213,868622,1069033,594880.50,867986.63,1068341.75
595680,868603,1069148,594814.38,867989.31,1068355.75
595654,868811,1069434,594760.00,867996.50,1068374.25
596595,868937,1069282,594717.63,868008.25,1068397.50
596949,868970,1069446,594691.50,868025.25,1068425.25
597107,869547,1070080,594684.63,868047.63,1068457.25
597609,869442,1070016,594696.88,868076.25,1068495.00
598200,869537,1069820,594729.25,868111.44,1068538.50
598437,869651,1070071,594782.50,868153.00,1068587.00
598544,869894,1070325,594855.69,868200.81,1068640.87
598918,870065,1070438,594947.13,868255.38,1068700.50
599371,870276,1070657,595056.69,868316.75,1068766.00
599699,870795,1070814,595185.00,868385.38,1068837.00
599980,870891,1070924,595331.75,868461.63,1068913.25
600283,870900,1070983,595495.56,868546.06,1068994.87
600376,871025,1071738,595674.81,868638.06,1069081.75
601031,871351,1071440,595868.50,868737.13,1069174.25
601387,871281,1071467,596076.63,868842.88,1069272.00
601173,871222,1071408,596298.13,868954.19,1069374.25
599618,870504,1071008,596528.94,869069.25,1069479.62
598235,869659,1070018,596759.63,869183.75,1069584.62
597110,869344,1069890,596976.63,869290.75,1069683.00
596058,868955,1069743,597169.25,869385.44,1069771.00
594431,868808,1069342,597330.13,869466.31,1069847.50
594522,868730,1069155,597454.13,869533.00,1069911.50
594252,868708,1069266,597541.38,869586.13,1069963.00
593914,868874,1069436,597593.19,869627.19,1070003.50
593809,868639,1069409,597610.38,869657.50,1070034.50
593936,868734,1069333,597597.13,869677.69,1070057.37
593725,868908,1069685,597558.13,869688.13,1070072.50
593678,868956,1069558,597495.88,869690.19,1070080.75
593684,868900,1069548,597413.13,869685.88,1070084.00
593873,868942,1069761,597313.13,869676.50,1070083.50
594576,869338,1070142,597200.13,869663.50,1070080.75
595031,869484,1070298,597079.63,869649.19,1070078.50
595471,869715,1070576,596957.63,869635.50,1070078.50
595971,870420,1071120,596839.13,869623.94,1070081.75
596565,870355,1071011,596727.94,869616.25,1070089.50
596888,870259,1071111,596628.00,869613.88,1070103.00
596814,870371,1071481,596540.94,869616.94,1070122.12
596754,870457,1071446,596466.13,869625.00,1070147.12
597385,870380,1071313,596403.44,869638.00,1070178.00
597241,870511,1071248,596353.88,869655.19,1070213.75
597045,870900,1071803,596317.31,869677.13,1070254.00
597948,870936,1071701,596293.88,869704.81,1070299.50
598258,871105,1071845,596284.94,869738.50,1070350.62
598321,871694,1072136,596291.00,869778.06,1070406.50
599050,871639,1072185,596312.50,869823.88,1070467.00
599344,871698,1072306,596350.63,869876.88,1070532.75
599619,871760,1072475,596406.13,869936.94,1070603.75
600200,872062,1072805,596477.81,870003.75,1070680.37
600552,871998,1072734,596565.25,870077.13,1070763.00
600715,872139,1072963,596669.81,870156.31,1070850.75
600996,872584,1073261,596792.00,870240.69,1070943.50
601497,872581,1073277,596931.00,870330.25,1071041.00
601814,872799,1073389,597086.75,870425.56,1071143.25
602061,872900,1073319,597258.75,870526.81,1071249.50
602080,873130,1073726,597443.56,870633.81,1071359.37
602462,873305,1073782,597637.88,870746.44,1071473.00
602572,873391,1073805,597842.50,870864.38,1071590.12
601684,874147,1074455,598056.25,870987.88,1071710.75
602630,873548,1073940,598275.31,871116.63,1071835.00
602742,873215,1073674,598499.38,871248.13,1071960.50
601624,872511,1072903,598725.94,871377.88,1072083.25
598548,871525,1072243,598943.63,871500.25,1072198.50
597554,870973,1071947,599136.63,871609.25,1072301.75
596897,870905,1071920,599296.13,871701.63,1072391.00
596182,870695,1071960,599419.38,871777.50,1072466.25
596139,870674,1071778,599506.13,871837.75,1072528.75
596105,870565,1071925,599558.25,871882.63,1072578.87
596188,870947,1072203,599579.19,871912.88,1072618.12
595934,870862,1072250,599572.31,871930.44,1072648.37
596194,870958,1072176,599540.50,871937.81,1072671.50
596209,870863,1072178,599487.56,871936.81,1072688.50
596152,870902,1072332,599414.88,871928.31,1072699.87
596442,870935,1072449,599324.00,871913.25,1072707.25
596594,871000,1072565,599220.63,871892.88,1072711.75
597255,871808,1073358,599111.00,871868.81,1072715.12
598161,871811,1073224,599000.81,871843.69,1072719.75
598678,871928,1073390,598896.56,871820.56,1072727.50
598731,872040,1073675,598802.13,871800.88,1072739.00
599075,872470,1073751,598718.63,871785.88,1072754.75
599236,872292,1073650,598647.31,871776.44,1072775.25
599269,872467,1073752,598588.38,871772.63,1072800.12
599497,872612,1074221,598540.94,871774.25,1072829.75
599880,872649,1074035,598504.88,871781.88,1072864.75
599682,872721,1074060,598481.44,871795.19,1072904.50
599944,873025,1074640,598470.38,871813.63,1072948.25
600625,873122,1074508,598472.13,871837.63,1072996.12
600626,873284,1074575,598488.19,871867.75,1073048.87
600981,873335,1074598,598518.69,871904.50,1073106.50
601392,873608,1075020,598562.38,871948.00,1073169.00
602026,873625,1075088,598619.25,871998.38,1073237.12
602086,873836,1075246,598692.00,872055.38,1073310.87
602450,874429,1075787,598781.63,872118.50,1073390.00
602918,874538,1075693,598887.75,872188.50,1073474.75
603391,874561,1075903,599010.88,872266.38,1073565.50
603613,874689,1076012,599151.25,872352.25,1073662.50
603761,874994,1076188,599306.63,872445.38,1073765.50
604320,875212,1076380,599475.25,872546.13,1073874.12
604622,875531,1076509,599658.00,872654.75,1073988.25
604680,876189,1077122,599853.44,872771.94,1074107.62
604878,875984,1077062,600057.75,872898.19,1074232.50
605455,876031,1077133,600272.19,873032.38,1074363.00
605638,876157,1077271,600498.69,873172.88,1074498.50
605060,875447,1076619,600734.81,873317.25,1074636.75
603901,874676,1075956,600973.88,873460.13,1074772.87
602197,873836,1075157,601205.25,873595.00,1074901.50
598224,873003,1074639,601414.50,873716.63,1075017.50
598242,872710,1074272,601586.88,873821.38,1075117.37
597955,872382,1074091,601715.94,873906.50,1075199.75
597955,872503,1074053,601802.88,873971.00,1075264.50
597328,872365,1074056,601850.25,874016.25,1075313.00
597576,872265,1074179,601860.63,874043.81,1075346.87
597273,872245,1074126,601837.31,874055.25,1075367.87
596678,872437,1074283,601783.50,874052.63,1075377.75
597057,872335,1074391,601701.56,874037.81,1075378.25
597147,872243,1074394,601595.31,874012.38,1075371.37
597472,872753,1074746,601469.13,873977.38,1075358.25
597488,872685,1074813,601327.38,873935.38,1075340.37
597875,872839,1074892,601174.50,873888.88,1075320.25
598339,873066,1075581,601015.56,873840.38,1075299.50
599291,873426,1075471,600856.50,873792.13,1075280.00
599633,873448,1075576,600703.63,873746.19,1075263.75
600095,873600,1075690,600561.00,873703.69,1075251.75
599863,873834,1076174,600429.19,873665.88,1075244.75
600182,873702,1075758,600307.25,873633.75,1075243.50
600416,873884,1075872,600197.25,873606.75,1075246.75
600471,873894,1076220,600101.50,873584.63,1075254.25
600419,874121,1076081,600019.44,873567.88,1075265.62
600750,874191,1076121,599950.63,873556.75,1075281.50
601090,874263,1076206,599895.75,873551.56,1075301.50
600846,874403,1076356,599855.25,873552.63,1075326.00
601757,874353,1076357,599829.50,873560.00,1075354.87
602175,874667,1076453,599820.25,873573.31,1075387.75
602489,875074,1076224,599829.00,873592.50,1075424.87
602883,875065,1076822,599856.44,873618.13,1075466.25
603251,875186,1077017,599902.75,873650.75,1075512.75
603451,875279,1077149,599967.75,873690.75,1075564.75
603912,875552,1077318,600050.00,873738.06,1075622.25
604188,875649,1077292,600147.94,873792.75,1075685.12
604319,875732,1077406,600262.50,873854.56,1075752.50
603546,876050,1078060,600392.50,873923.00,1075824.37
604947,876183,1077949,600536.13,873998.13,1075901.00
605281,876239,1078072,600694.13,874079.94,1075983.12
605554,876373,1078381,600867.06,874168.06,1076070.75
605651,876633,1078324,601053.69,874262.25,1076163.00
605966,876813,1078304,601252.44,874362.63,1076259.75
606253,876781,1078463,601462.25,874468.75,1076360.50
604998,876213,1078056,601681.50,874579.31,1076463.87
603785,875469,1077273,601902.63,874690.38,1076566.00
601978,874783,1076559,602112.25,874795.25,1076661.50
600961,874276,1076238,602297.75,874888.19,1076745.75
599391,874012,1076054,602450.75,874966.63,1076816.50
598964,873755,1075896,602565.50,875029.06,1076873.50
598348,873611,1075880,602640.06,875075.13,1076917.00
597931,873578,1075842,602675.25,875105.19,1076947.75
597568,873365,1075876,602672.50,875120.25,1076967.00
597598,873402,1075724,602633.81,875121.25,1076975.50
597298,873583,1076320,602562.25,875109.38,1076974.50
597538,873495,1075988,602461.50,875086.50,1076965.00
597511,873430,1075750,602336.06,875054.38,1076948.75
597464,873468,1075737,602190.00,875014.25,1076925.87
597434,873876,1076262,602024.25,874968.19,1076898.00
597686,873757,1076174,601840.00,874918.56,1076867.75
598147,873927,1076211,601645.00,874866.81,1076836.25
597478,874722,1076988,601445.50,874814.94,1076805.00
599345,874671,1077104,601245.38,874766.00,1076777.50
600101,874625,1077059,601053.00,874721.63,1076755.25
600084,874803,1077145,600874.88,874682.25,1076738.00
600696,874985,1077249,600712.94,874648.31,1076725.62
600791,874949,1077360,600568.94,874620.50,1076718.37
600658,875112,1077288,600443.00,874598.63,1076716.37
600666,875068,1077186,600333.38,874583.13,1076718.75
601015,875173,1077322,600239.13,874573.88,1076724.50
601345,875398,1077604,600161.25,874570.63,1076734.50
601720,875679,1078105,600101.25,874573.38,1076749.25
602098,875833,1078039,600060.19,874582.63,1076769.75
602319,875954,1078047,600038.56,874599.38,1076796.75
602497,876127,1078163,600036.06,874624.13,1076829.75
603109,876406,1078549,600051.75,874657.13,1076869.25
603656,876630,1078585,600085.81,874698.94,1076915.75
603746,876722,1078703,600140.25,874749.75,1076969.25
604279,877185,1079240,600215.25,874809.13,1077029.00
604558,877209,1079114,600310.50,874877.13,1077095.12
604851,877151,1079158,600425.63,874953.50,1077167.75
604964,877409,1079488,600559.19,875037.50,1077246.50
605638,877804,1079402,600710.38,875129.25,1077331.00
605716,877802,1079572,600878.75,875229.13,1077421.00
606115,877965,1079747,601063.38,875336.38,1077516.00
606268,878431,1080218,601262.44,875450.31,1077616.75
606618,878203,1080096,601474.25,875570.38,1077723.75
606560,878138,1079814,601697.75,875695.38,1077835.12
606073,877653,1079511,601929.75,875822.81,1077948.00
603413,876574,1078672,602161.00,875947.69,1078058.37
601930,876018,1078202,602376.38,876063.38,1078161.00
601040,875704,1077948,602564.25,876165.75,1078252.37
599799,875614,1077747,602717.25,876253.44,1078330.87
599420,875416,1077736,602830.38,876326.75,1078396.25
599255,875363,1077662,602904.50,876385.50,1078449.00
599117,875576,1078030,602943.25,876429.94,1078489.75
598749,875316,1077579,602949.13,876461.13,1078519.50
598898,875272,1077543,602924.44,876480.25,1078538.87
598702,875145,1077663,602872.63,876488.13,1078549.00
598784,875269,1077779,602796.13,876485.75,1078551.50
598954,875235,1077858,602698.13,876474.44,1078547.87
598825,875315,1077755,602583.06,876455.63,1078539.25
598967,875946,1078117,602453.50,876430.81,1078526.50
599559,875793,1078220,602312.38,876402.25,1078510.75
600147,875884,1078412,602166.69,876372.31,1078494.37
600681,876130,1078951,602023.25,876342.56,1078479.00
601228,876501,1078930,601886.75,876315.00,1078466.00
601619,876630,1078957,601761.19,876291.56,1078457.00
601951,876722,1078962,601649.13,876273.25,1078452.75
600819,876676,1079046,601550.25,876260.50,1078453.00
602029,876756,1079091,601462.63,876253.00,1078457.50
602397,876771,1079179,601388.38,876250.25,1078466.00
602298,877206,1079521,601329.31,876251.75,1078478.75
602675,877048,1079502,601285.13,876257.88,1078495.87
602906,877240,1079556,601256.13,876269.13,1078517.75
603204,877392,1079674,601242.63,876286.13,1078544.75
603489,877706,1079920,601245.13,876309.50,1078577.25
603768,877753,1079955,601263.69,876339.81,1078615.25
604273,877910,1080065,601298.81,876377.13,1078658.75
604695,878317,1080428,601351.38,876421.25,1078707.62
604976,878533,1080493,601421.81,876472.50,1078762.12
605433,878497,1080690,601510.25,876531.88,1078822.75
605834,878771,1080832,601617.00,876599.13,1078890.00
606315,878972,1081211,601742.13,876674.31,1078964.00
606657,879165,1081150,601885.88,876757.50,1079045.00
606609,879245,1081364,602046.88,876848.25,1079132.50
606730,879659,1082002,602221.25,876946.63,1079226.62
607161,879714,1081534,602405.88,877052.69,1079328.00
607378,879745,1081545,602601.88,877165.75,1079434.25
607939,879850,1082288,602810.38,877284.56,1079544.00
607414,879914,1081834,603030.00,877408.13,1079656.50
607125,879360,1081321,603256.38,877534.38,1079770.75
606308,878653,1080625,603483.56,877658.94,1079882.75
602777,877677,1079994,603702.75,877777.00,1079986.87
602119,877212,1079522,603900.56,877884.13,1080079.25
601575,877041,1079415,604065.25,877975.63,1080157.37
600920,877134,1079438,604192.25,878049.44,1080220.75
600539,876771,1079243,604280.94,878105.75,1080270.25
600302,876579,1079130,604332.06,878145.25,1080306.25
600066,876557,1079258,604347.75,878169.00,1080329.75
600041,876621,1079455,604330.50,878178.38,1080342.87
600490,876709,1079506,604284.75,878175.31,1080347.75
600185,876572,1079328,604215.13,878161.44,1080345.25
599393,876967,1079536,604125.00,878138.25,1080336.50
600317,876881,1079592,604017.38,878107.75,1080322.50
600648,876941,1079625,603895.88,878071.75,1080305.00
601043,877158,1080172,603765.13,878032.00,1080284.50
601836,877568,1080244,603630.38,877990.88,1080263.62
602269,877658,1080504,603497.75,877950.88,1080244.50
602878,877753,1080462,603371.94,877913.44,1080229.12
602689,878067,1080741,603255.94,877879.63,1080217.75
602858,878034,1080687,603150.13,877850.69,1080211.00
603279,878040,1080602,603055.13,877826.63,1080208.50
603444,878200,1080888,602972.50,877806.75,1080209.50
603582,878143,1080821,602902.88,877791.00,1080213.87
603679,878268,1080897,602846.38,877779.50,1080222.12
603923,878392,1080949,602802.81,877773.00,1080234.25
604328,878555,1081081,602772.25,877771.88,1080250.50
604904,878691,1081207,602755.63,877776.50,1080270.75
604858,878969,1081491,602755.00,877787.50,1080295.75
605187,879152,1081984,602770.50,877805.50,1080326.25
605589,879358,1081921,602801.94,877830.94,1080362.75
605891,879636,1081944,602849.88,877864.50,1080405.50
606202,879659,1081972,602914.50,877906.50,1080454.75
606757,880045,1082356,602993.38,877957.13,1080510.00
607225,879953,1082414,603085.00,878016.25,1080571.50
607530,880206,1082675,603193.38,878083.19,1080639.75
606218,880934,1083267,603317.81,878158.31,1080715.00
607605,880648,1082946,603454.13,878242.44,1080797.50
608159,880566,1082933,603603.50,878334.31,1080886.00
608452,880701,1083182,603768.13,878432.13,1080979.50
608969,881036,1083152,603948.13,878535.50,1081077.00
609028,880975,1083307,604142.88,878644.31,1081178.25
609353,880999,1083278,604351.06,878757.63,1081283.00
608306,880405,1082777,604570.00,878873.88,1081389.25
607254,879722,1082090,604793.00,878989.63,1081492.75
605431,878945,1081463,605007.56,879098.06,1081588.50
604161,878297,1080994,605201.13,879193.06,1081672.50
602434,877938,1080675,605363.50,879271.25,1081741.62
602010,877663,1080541,605487.75,879330.81,1081795.12
601600,877655,1080485,605572.00,879371.69,1081833.25
601195,877580,1080524,605616.25,879395.06,1081857.25
601079,877497,1080402,605621.25,879402.44,1081868.37
600741,877347,1080393,605590.88,879394.88,1081867.75
600292,877662,1080653,605529.75,879373.63,1081856.50
600723,877670,1080577,605441.75,879341.13,1081836.75
600765,877511,1080617,605330.19,879299.50,1081810.12
600704,877582,1080777,605198.13,879250.13,1081777.75
601004,877733,1080807,605049.31,879194.38,1081740.87
601833,877940,1081004,604889.38,879134.63,1081701.50
602035,878241,1081318,604724.63,879073.31,1081662.00
602465,878835,1081801,604559.63,879012.75,1081624.75
603103,878745,1081799,604398.38,878955.13,1081592.50
603409,878810,1082009,604245.63,878902.25,1081565.75
603709,878936,1082455,604104.69,878854.94,1081544.50
604041,879140,1082094,603977.38,878813.94,1081528.75
603929,879123,1082144,603864.69,878779.75,1081518.25
604177,879296,1082227,603766.38,878752.44,1081513.75
604173,879352,1082394,603680.50,878732.25,1081515.25
604548,879334,1082343,603606.13,878719.38,1081522.50
604758,879348,1082255,603545.44,878712.75,1081534.75
605130,879932,1082842,603501.06,878711.88,1081551.50
605231,879831,1082617,603473.25,878717.56,1081573.50
605719,879822,1082854,603462.38,878730.19,1081600.75
606341,879857,1082844,603469.44,878749.38,1081633.62
606412,880306,1083103,603494.75,878775.19,1081672.00
606816,880234,1083199,603537.13,878808.19,1081716.00
607164,880375,1083214,603597.38,878848.13,1081765.50
607016,881097,1083745,603674.69,878895.25,1081820.00
607482,880882,1083683,603766.25,878950.38,1081879.12
607860,880757,1083569,603873.06,879012.88,1081943.50
608248,880976,1084196,603996.50,879081.50,1082013.25
608712,881152,1083915,604136.75,879155.88,1082088.00
608622,881142,1083938,604292.94,879235.75,1082167.50
608782,881351,1084096,604463.00,879320.50,1082251.00
609151,881701,1084515,604642.81,879410.38,1082338.50
609698,881766,1084447,604830.38,879505.63,1082431.00
609580,881643,1084319,605028.19,879605.63,1082527.25
609124,880575,1083780,605235.44,879708.38,1082624.50
606531,879901,1082852,605442.94,879808.50,1082718.25
605112,879205,1082367,605636.25,879898.69,1082803.00
603991,878870,1081896,605803.63,879973.88,1082874.50
602472,878282,1081495,605938.38,880031.75,1082930.50
601958,878315,1081604,606035.94,880071.25,1082970.62
601863,878104,1081379,606094.00,880092.75,1082995.25
601300,878207,1081627,606114.25,880097.63,1083005.75
601424,878115,1081639,606099.88,880087.75,1083003.62
601036,878021,1081527,606052.94,880064.50,1082991.00
601020,878068,1081726,605975.50,880029.31,1082969.37
600656,877974,1081594,605870.19,879983.69,1082939.50
600702,877917,1081572,605739.81,879928.75,1082902.87
600827,877890,1081498,605588.00,879865.63,1082860.75
600670,878268,1082386,605418.75,879796.13,1082814.75
601214,878172,1081715,605235.94,879722.38,1082766.75
601687,878439,1082062,605045.06,879646.50,1082717.87
601950,878709,1082654,604851.63,879570.75,1082669.62
602952,879075,1082398,604661.00,879497.75,1082623.75
603400,879184,1082472,604479.25,879429.69,1082581.50
603691,879270,1082623,604310.63,879367.75,1082543.50
603557,879391,1082677,604155.19,879312.88,1082510.50
603763,879389,1082731,604011.63,879265.75,1082482.50
603904,879499,1082825,603881.63,879225.75,1082459.62
604210,879825,1083091,603767.44,879192.00,1082441.87
604583,879600,1083001,603669.94,879164.38,1082429.00
604969,879783,1083010,603590.50,879143.25,1082421.50
605231,879726,1083009,603530.38,879128.75,1082419.12
605571,880197,1083383,603489.13,879121.31,1082422.00
605796,880113,1083313,603466.63,879121.63,1082430.87
605984,880324,1083631,603463.13,879129.63,1082445.75
606106,880795,1084104,603478.88,879145.13,1082467.00
606752,880767,1083905,603513.75,879168.38,1082495.00
607279,880736,1083887,603568.50,879199.69,1082529.25
607207,880913,1084376,603642.88,879239.00,1082570.25
607803,881255,1084363,603735.88,879286.25,1082618.25
608221,881322,1084473,603847.38,879341.88,1082673.00
608463,881419,1084467,603977.50,879405.50,1082734.50
608118,881623,1084790,604124.88,879476.69,1082802.00
608880,881573,1084875,604288.00,879555.00,1082875.75
609355,881667,1084861,604466.00,879639.25,1082955.25
609496,882108,1085253,604658.19,879728.56,1083039.50
609698,882117,1085004,604863.38,879823.06,1083127.87
609598,881824,1084853,605079.38,879922.25,1083219.00
608854,881358,1084285,605301.88,880023.38,1083310.75
605852,880106,1083475,605522.06,880121.00,1083398.50
604699,879662,1082997,605726.13,880208.50,1083477.25
603525,879303,1082736,605900.63,880281.88,1083543.50
602776,878896,1082744,606038.13,880339.75,1083595.87
602370,878978,1082551,606136.25,880381.75,1083634.25
601909,878836,1082424,606195.25,880408.50,1083659.75
601954,878776,1082473,606216.88,880420.88,1083673.50
601229,878830,1082568,606202.88,880419.88,1083677.00
601382,878679,1082328,606154.75,880407.00,1083671.25
601333,878735,1082427,606076.50,880383.44,1083657.00
600312,878998,1082680,605970.31,880351.00,1083635.75
600979,878715,1082309,605837.13,880311.63,1083608.50
601271,878635,1082539,605682.75,880265.56,1083576.00
601191,878539,1082895,605513.56,880213.00,1083539.25
602098,879089,1082764,605334.38,880155.50,1083499.25
602568,879215,1082842,605151.69,880096.25,1083458.12
603114,879272,1083155,604971.69,880037.25,1083417.75
603339,879466,1083235,604798.25,879980.50,1083379.75
604142,879654,1083355,604634.81,879927.75,1083345.25
604077,879595,1083301,604485.00,879879.38,1083314.37
604222,879871,1083622,604350.13,879834.88,1083287.50
604245,879700,1083442,604230.00,879794.25,1083264.62
604766,879651,1083394,604124.88,879757.63,1083245.75
604855,879846,1083478,604036.00,879724.94,1083230.25
604960,879950,1083688,603961.88,879696.81,1083218.75
605144,880037,1083789,603900.25,879673.75,1083211.75
605575,880052,1083613,603853.63,879656.00,1083209.25
605467,880460,1084408,603824.63,879643.38,1083210.87
606114,880516,1084019,603813.31,879636.50,1083216.75
606484,880660,1084147,603820.13,879636.50,1083227.87
606832,880681,1084401,603845.63,879643.75,1083244.62
607474,880961,1084566,603890.50,879658.25,1083267.75
607670,881107,1084585,603955.50,879680.25,1083297.50
607871,881042,1084573,604040.00,879709.81,1083333.00
608175,881648,1085072,604142.75,879745.88,1083374.25
608503,881456,1084887,604262.75,879788.19,1083422.00
608765,881575,1085040,604399.38,879837.38,1083475.25
608922,881659,1085740,604551.88,879893.38,1083533.75
609605,882043,1085448,604719.31,879956.25,1083597.50
609523,881960,1085409,604901.50,880026.25,1083666.62
609832,882151,1085511,605096.81,880102.63,1083740.75
609826,882192,1085679,605302.38,880185.38,1083819.12
609372,881783,1085227,605514.25,880273.75,1083900.75
608246,881136,1084617,605727.38,880363.13,1083982.25
606697,880448,1084018,605933.13,880447.75,1084059.00
604252,879818,1083513,606118.63,880522.88,1084127.00
603799,879573,1083266,606272.38,880585.00,1084183.12
603112,879288,1083101,606389.63,880632.38,1084226.25
602610,879356,1083180,606469.75,880664.88,1084256.37
602498,879186,1083236,606513.44,880683.63,1084275.25
602701,879194,1083078,606523.50,880689.50,1084283.75
602027,879565,1083191,606501.50,880684.25,1084282.75
601654,879261,1083088,606447.38,880669.88,1084273.12
601887,879071,1083020,606364.50,880647.00,1084255.75
602183,878948,1083151,606258.63,880615.31,1084231.37
602163,878991,1083003,606134.81,880575.50,1084200.75
602098,878868,1083016,605996.38,880528.38,1084164.75
602583,878978,1083127,605846.63,880475.13,1084125.00
602500,879247,1083460,605688.25,880417.38,1084082.87
603583,879397,1083603,605524.75,880357.50,1084040.75
604185,879503,1083469,605364.00,880297.38,1084000.00
604747,879948,1083973,605213.38,880238.44,1083960.62
604792,879769,1083766,605076.00,880181.75,1083923.50
604905,879719,1083678,604952.88,880128.19,1083889.37
604587,879742,1083624,604843.00,880078.00,1083857.75
604934,879914,1083835,604745.25,880031.63,1083828.62
604953,879829,1083848,604659.56,879989.25,1083802.62
605266,879943,1083920,604586.50,879951.00,1083780.00
605634,880066,1084037,604527.06,879917.06,1083761.00
605846,879978,1084083,604482.56,879887.38,1083745.75
606183,880101,1084169,604453.50,879861.94,1083734.75
606624,880329,1084343,604440.75,879841.44,1083728.25
606965,880520,1084393,604445.25,879826.81,1083726.50
607356,880618,1084498,604467.88,879818.81,1083729.75
607510,880652,1084563,604508.44,879817.50,1083738.12
607922,881121,1085312,604566.38,879823.25,1083752.37
608310,881077,1085111,604641.50,879836.75,1083773.75
608450,881084,1085036,604733.81,879857.94,1083802.00
608935,881187,1085337,604843.19,879885.75,1083835.75
608841,881532,1085147,604968.63,879920.25,1083873.75
609316,881488,1085304,605108.63,879961.81,1083916.50
609685,881562,1085226,605262.94,880009.88,1083963.62
609339,881679,1085418,605430.06,880063.88,1084015.00
609959,881768,1085408,605607.63,880123.69,1084070.25
610331,881753,1085516,605795.56,880188.50,1084129.00
610245,881502,1084988,605993.81,880256.81,1084190.50
608503,880771,1084597,606196.88,880325.50,1084252.25
607221,880218,1084046,606393.88,880389.75,1084309.75
605900,879625,1083645,606573.81,880445.13,1084358.75
604124,878998,1083378,606727.56,880488.00,1084397.12
603890,879047,1083226,606848.50,880516.13,1084423.75
603377,878941,1083104,606933.88,880529.94,1084438.62
601679,878868,1083312,606982.56,880530.50,1084442.12
602525,878546,1083023,606994.63,880518.25,1084435.25
602733,878590,1083011,606973.00,880493.69,1084418.87
602742,878508,1083063,606922.50,880457.75,1084393.87
602269,878344,1082939,606846.38,880411.69,1084361.00
602419,878201,1082742,606746.88,880355.88,1084321.00
602266,878379,1082897,606626.88,880291.38,1084274.87
602557,878647,1082811,606489.38,880220.50,1084223.50
603024,878577,1082988,606338.75,880145.38,1084168.25
603336,878633,1083084,606180.75,880067.63,1084110.75
604128,879119,1083487,606021.38,879988.75,1084052.50
604424,879013,1083359,605865.94,879910.75,1083995.00
604782,879034,1083404,605718.25,879835.00,1083939.37
604320,879029,1083460,605579.50,879762.31,1083886.50
604889,879124,1083519,605449.38,879692.94,1083836.50
605168,879068,1083612,605329.13,879627.25,1083790.25
605173,879148,1083437,605220.94,879565.50,1083747.50
604801,879411,1084111,605124.38,879507.69,1083708.00
605509,879300,1083611,605038.75,879454.25,1083672.00
605754,879377,1083711,604965.75,879405.75,1083639.75
605941,879572,1083725,604907.00,879363.00,1083611.75
606327,879533,1083844,604860.50,879326.25,1083587.87
606763,879529,1083975,604825.00,879295.44,1083568.75
607045,879628,1084039,604805.00,879270.13,1083554.75
605824,880205,1084613,604801.69,879251.25,1083546.25
607387,879944,1084098,604812.75,879239.88,1083543.12
607606,880029,1084225,604839.63,879235.63,1083544.75
607912,880052,1084512,604883.69,879237.56,1083551.00
608692,880279,1084452,604945.63,879245.63,1083561.62
608865,880360,1084604,605026.63,879260.00,1083577.25
608755,880342,1084581,605125.63,879280.63,1083598.50
609542,880642,1084863,605239.38,879307.06,1083624.87
609645,880737,1085055,605366.50,879339.50,1083657.12
609882,880734,1084951,605508.50,879378.00,1083695.25
610115,880716,1085252,605665.88,879422.00,1083738.25
610210,880861,1085062,605837.00,879470.63,1083785.25
610596,880790,1084826,606020.63,879523.38,1083835.25
610062,880410,1084671,606214.56,879578.69,1083886.87
607384,879267,1083523,606412.38,879632.19,1083936.25
606192,878807,1083242,606601.56,879678.00,1083978.50
604865,878216,1082931,606767.69,879711.88,1084010.37
603608,878128,1082635,606901.50,879731.63,1084030.62
603341,877696,1082518,606999.25,879736.63,1084038.75
602877,877587,1082432,607059.38,879726.56,1084034.75
602633,877387,1082394,607082.25,879701.88,1084019.87
602283,877215,1082369,607069.63,879663.13,1083995.00
601901,877080,1082269,607023.50,879611.13,1083961.12
602214,877114,1082253,606946.50,879547.00,1083919.00
601746,877109,1082386,606843.25,879472.94,1083870.00
601900,877008,1082202,606717.38,879390.88,1083815.25
601746,876884,1082156,606571.13,879301.44,1083755.50
601917,877098,1082810,606407.25,879205.38,1083691.25
602503,877382,1082536,606230.63,879105.38,1083624.50
602928,877495,1082764,606047.00,879004.13,1083557.50
603239,877653,1082893,605862.00,878903.75,1083492.50
603836,878194,1083219,605677.63,878806.75,1083431.00
604616,878175,1083329,605496.94,878715.63,1083374.75
604747,878381,1083257,605327.50,878631.75,1083324.37
604956,878825,1083902,605173.81,878555.25,1083279.75
604662,878726,1083751,605035.63,878486.88,1083241.75
605085,878726,1083779,604912.25,878427.50,1083211.50
605311,878770,1083676,604804.25,878377.38,1083188.50
606097,879050,1083948,604712.44,878336.38,1083172.62
606281,879149,1084138,604638.13,878305.13,1083164.25
606459,879298,1084122,604583.38,878283.75,1083163.50
606501,879796,1084231,604547.88,878272.50,1083169.75
606996,879754,1084533,604530.25,878272.00,1083183.25
607504,879805,1084659,604532.13,878282.13,1083204.50
607798,879969,1085268,604555.13,878302.38,1083233.50
608384,880413,1085046,604599.63,878333.00,1083270.25
608673,880657,1085377,604666.13,878374.81,1083315.75
609265,880719,1085413,604754.69,878428.13,1083370.25
608780,881114,1086104,604863.75,878492.38,1083434.50
609860,881407,1086002,604991.50,878567.88,1083509.37
610323,881748,1086043,605138.63,878655.25,1083593.87
610822,882078,1086732,605306.50,878754.50,1083687.00
611004,882122,1086525,605494.44,878865.00,1083788.75
611442,882376,1086587,605701.13,878986.25,1083898.25
611649,882443,1086798,605925.25,879117.75,1084015.00
611781,882609,1086842,606164.31,879258.31,1084138.12
612081,882692,1086874,606415.88,879406.75,1084266.50
611862,882325,1086527,606678.00,879561.06,1084398.25
608698,880971,1085369,606945.50,879717.06,1084529.75
606883,880122,1084680,607204.13,879867.63,1084654.75
605571,879675,1084483,607434.50,880004.50,1084767.37
604688,879479,1084231,607625.06,880123.44,1084864.50
604140,879399,1084255,607772.38,880223.94,1084946.25
603985,879409,1084228,607876.56,880306.75,1085013.12
603899,879357,1084267,607940.19,880373.19,1085066.50
603543,879384,1084669,607965.75,880424.81,1085108.25
603970,879191,1084357,607956.31,880462.94,1085140.25
603915,879097,1084078,607917.38,880487.75,1085162.75
603929,879146,1084401,607853.88,880499.75,1085175.25
603594,879121,1084298,607768.50,880500.38,1085179.00
603807,878980,1084094,607663.56,880490.63,1085175.25
603899,879072,1084280,607542.50,880471.38,1085164.75
603804,879313,1084420,607408.69,880444.44,1085148.87
604597,879459,1084482,607266.00,880412.38,1085129.50
605597,879708,1084505,607121.00,880377.38,1085107.50
606029,880401,1085322,606980.75,880341.50,1085084.62
606812,880350,1085281,606850.75,880307.13,1085063.75
607038,880352,1085243,606734.63,880276.44,1085046.25
607272,880283,1085127,606634.31,880249.75,1085032.25
607651,880451,1085425,606550.31,880226.88,1085021.25
607733,880414,1085413,606482.75,880207.94,1085013.75
607590,880294,1085117,606431.50,880192.56,1085009.75
607136,880721,1085520,606395.38,880180.13,1085007.50
608051,880767,1085740,606374.13,880171.06,1085007.87
608499,880818,1085830,606368.13,880166.81,1085012.75
608835,880929,1086111,606378.13,880167.88,1085022.50
609355,881320,1086032,606405.31,880175.00,1085036.50
609760,881272,1086364,606450.63,880188.75,1085056.25
610170,881386,1086290,606514.94,880209.13,1085082.50
610033,881834,1086443,606597.50,880236.25,1085114.75
610831,881846,1086586,606697.31,880270.88,1085153.12
611290,881917,1086628,606815.13,880313.06,1085197.25
611413,882564,1087065,606951.25,880362.06,1085246.50
612117,882363,1087098,607105.06,880417.88,1085300.75
612414,882525,1087066,607276.75,880481.00,1085361.12
612524,882580,1086954,607465.63,880551.50,1085426.62
612788,882561,1087117,607669.00,880628.50,1085496.25
612982,882712,1087166,607884.63,880710.81,1085569.25
613180,882743,1087297,608111.50,880797.94,1085645.75
613534,882989,1087870,608349.25,880889.38,1085725.25
613841,882995,1087538,608596.94,880984.94,1085807.75
613370,882743,1087206,608852.50,881083.44,1085892.50
612048,882015,1086587,609109.63,881181.63,1085976.50
608537,880951,1085659,609355.00,881273.88,1086054.50
607746,880426,1085216,609572.50,881353.81,1086121.50
607235,880341,1085340,609752.63,881418.50,1086174.87
604615,880398,1085334,609890.75,881467.88,1086215.62
605481,880036,1085123,609983.00,881503.00,1086244.62
605519,879725,1084953,610031.25,881523.38,1086262.00
605275,879777,1084998,610040.38,881528.88,1086268.00
605126,879841,1084882,610013.75,881520.88,1086263.75
605021,879777,1084894,609954.50,881501.31,1086250.00
604983,879774,1084857,609866.31,881471.50,1086227.75
604672,879795,1085096,609752.25,881433.25,1086198.75
604991,879742,1084936,609615.75,881387.94,1086164.25
605200,879842,1085072,609461.38,881336.50,1086125.25
605406,880062,1085342,609293.81,881279.94,1086083.25
605999,880153,1085358,609118.25,881219.88,1086039.50
606694,880188,1085454,608940.63,881158.38,1085996.00
607209,880346,1085558,608767.00,881097.31,1085953.50
607764,880702,1085940,608600.88,881038.25,1085913.50
608246,880716,1086001,608444.50,880983.00,1085878.00
608211,880779,1085916,608302.44,880932.31,1085847.25
608139,881068,1086271,608177.00,880886.63,1085820.87
608542,880874,1086296,608068.06,880846.13,1085799.50
608939,880973,1086145,607976.00,880810.75,1085783.62
608685,881150,1086404,607900.69,880780.94,1085772.62
609532,881334,1086407,607841.88,880757.31,1085766.50
609758,881437,1086576,607801.25,880740.50,1085765.75
610016,881685,1086703,607779.75,880731.00,1085771.00
610083,881988,1087082,607776.38,880729.50,1085782.75
610735,881975,1086974,607790.50,880736.31,1085801.75
610992,882065,1086957,607823.38,880751.38,1085827.25
611527,882267,1087774,607876.00,880774.44,1085858.50
611967,882439,1087449,607949.13,880805.69,1085895.75
612202,882678,1087580,608042.63,880845.38,1085939.75
612344,882754,1087729,608155.38,880893.50,1085990.50
612886,883373,1087975,608284.63,880950.81,1086048.37
613352,883450,1088100,608428.88,881018.38,1086113.25
613505,883442,1088185,608590.00,881095.88,1086185.00
613735,884127,1088659,608768.38,881181.81,1086263.00
613892,883942,1088516,608961.94,881276.00,1086347.00
614498,883926,1088573,609169.75,881378.13,1086436.75
614771,884000,1088582,609391.50,881487.13,1086531.50
614861,883976,1088521,609625.75,881601.50,1086630.25
614430,883385,1088092,609868.75,881718.88,1086730.50
613432,882916,1087634,610115.00,881834.88,1086828.75
609622,882175,1086717,610353.13,881945.50,1086921.25
608176,881336,1086148,610565.25,882046.50,1087003.12
607801,880999,1086166,610738.63,882132.25,1087070.75
607393,880847,1086020,610870.00,882199.88,1087123.50
606874,880652,1085951,610960.38,882249.63,1087161.62
606360,880601,1085896,611010.38,882282.13,1087186.37
606491,880523,1085837,611021.50,882298.50,1087198.75
606126,880497,1086059,610996.00,882300.00,1087200.25
606249,880555,1085847,610935.88,882288.50,1087192.37
606214,880359,1085699,610846.75,882265.19,1087175.75
606174,880501,1086071,610734.25,882230.81,1087150.37
606250,880464,1085800,610601.81,882186.56,1087117.75
606577,880579,1085816,610453.50,882134.69,1087079.25
607060,880693,1085906,610294.50,882077.50,1087036.25
608229,881231,1086643,610130.31,882017.75,1086991.00
608474,881331,1086753,609967.06,881958.38,1086947.50
608835,881527,1086899,609810.88,881901.50,1086907.75
609385,881972,1087188,609665.69,881848.63,1086872.37
609698,881887,1087115,609534.00,881801.00,1086841.75
609452,881914,1087022,609417.38,881759.38,1086816.25
609666,882042,1087637,609315.63,881723.94,1086795.50
609998,881929,1087305,609228.50,881694.50,1086779.50
610191,882087,1087251,609157.00,881670.75,1086768.50
610519,882146,1087271,609101.75,881652.69,1086762.62
610666,882255,1087998,609062.50,881640.63,1086761.75
611175,882331,1087607,609039.31,881634.81,1086767.00
611334,882495,1087415,609033.38,881635.13,1086777.62
611603,882544,1088210,609045.13,881641.50,1086792.50
611914,882931,1088011,609074.25,881654.25,1086812.37
612376,883064,1088179,609121.13,881674.50,1086838.50
612740,883185,1088289,609186.00,881702.50,1086871.12
613109,883479,1088680,609267.38,881738.63,1086910.87
613469,883615,1088445,609363.25,881783.50,1086957.75
613758,883724,1088617,609475.75,881836.75,1087010.62
614051,884033,1088969,609606.38,881897.50,1087069.00
614559,884036,1088835,609754.56,881965.13,1087132.75
614896,884171,1088976,609920.25,882039.75,1087201.50
615031,884259,1089151,610102.50,882121.13,1087275.25
615147,884543,1089352,610299.50,882208.94,1087354.00
615416,884436,1089324,610509.13,882302.88,1087437.75
615633,884572,1089215,610730.00,882401.75,1087525.37
615280,884586,1089143,610960.19,882504.44,1087615.50
614656,883893,1088768,611195.13,882608.50,1087706.50
613040,883190,1088080,611426.25,882709.38,1087794.50
611397,882604,1087364,611642.13,882802.19,1087874.37
608689,881812,1087010,611828.94,882882.25,1087942.25
608293,881587,1086947,611975.13,882946.19,1087995.87
607913,881340,1086686,612077.25,882992.63,1088035.25
605984,881442,1086748,612136.75,883022.25,1088060.75
606613,881190,1086585,612154.44,883036.31,1088073.25
606808,881131,1086480,612131.38,883035.75,1088073.50
607047,881215,1086563,612072.19,883021.00,1088062.25
606561,881090,1086465,611981.88,882993.50,1088040.50
606635,880915,1086460,611863.44,882954.63,1088009.75
606732,880979,1086531,611720.69,882905.94,1087971.25
606526,881035,1086580,611556.50,882848.75,1087926.75
606801,881016,1086549,611373.31,882785.00,1087877.50
607393,881073,1086721,611177.63,882715.75,1087824.50
607450,881577,1087386,610976.38,882643.00,1087769.62
608462,881613,1087068,610775.00,882568.88,1087714.25
608904,881614,1087059,610579.56,882495.88,1087660.25
609015,881668,1087082,610394.19,882425.13,1087608.25
609111,881723,1087264,610220.38,882357.13,1087558.75
609393,881717,1087301,610059.25,882292.38,1087512.75
609553,881687,1087366,609911.88,882231.00,1087470.50
609423,882056,1087772,609776.00,882173.38,1087432.75
609754,881790,1087526,609649.13,882120.31,1087399.75
610257,881973,1087557,609535.63,882071.69,1087371.62
610581,882099,1087923,609440.38,882027.94,1087348.12
610931,882397,1088013,609364.63,881990.13,1087329.75
611289,882475,1087928,609309.25,881959.38,1087317.75
611418,882552,1088073,609274.38,881935.94,1087312.00
611480,883013,1088169,609259.88,881920.50,1087312.25
612341,882958,1088392,609266.00,881914.13,1087319.25
612609,883151,1088447,609293.50,881916.56,1087332.75
612903,883728,1088756,609342.00,881927.38,1087353.00
613711,883439,1088726,609411.88,881946.25,1087379.75
614021,883698,1088847,609504.13,881973.75,1087413.00
613889,883686,1088962,609617.75,882010.13,1087453.00
614245,883914,1089153,609747.56,882054.88,1087499.37
614737,884115,1089043,609890.00,882108.00,1087552.00
615034,884108,1089066,610048.13,882169.19,1087609.50
614074,884470,1089514,610223.81,882237.63,1087671.25
615383,884385,1089460,610414.88,882312.75,1087737.25
615840,884650,1089601,610620.13,882394.38,1087808.00
615827,884574,1089686,610838.63,882482.25,1087883.25
614429,883720,1088786,611065.50,882573.75,1087961.00
612773,882979,1088215,611290.00,882663.13,1088036.25
611128,882438,1087696,611499.00,882744.75,1088104.00
608890,881986,1087288,611681.25,882815.00,1088161.00
608444,881688,1086997,611828.19,882872.13,1088205.25
607793,881477,1086962,611934.38,882914.44,1088236.00
607431,881248,1087192,611998.38,882941.25,1088254.00
607017,881181,1086886,612021.31,882953.00,1088260.75
606714,881166,1086865,612005.19,882950.50,1088257.00
606578,881134,1086887,611952.50,882935.25,1088243.50
606431,881213,1086917,611866.38,882908.75,1088221.62
606426,880981,1086983,611750.25,882872.38,1088192.87
606521,881130,1087072,611608.69,882827.13,1088158.75
606033,881530,1087364,611445.44,882774.50,1088120.12
606497,881307,1087218,611263.50,882716.13,1088078.25
606778,881273,1087165,611067.63,882653.94,1088034.50
607207,881508,1087225,610863.56,882589.38,1087989.50
607859,881941,1087788,610654.69,882524.88,1087945.25
608502,882159,1087887,610445.00,882463.25,1087904.25
609051,882327,1088060,610243.00,882406.63,1087868.00
608176,882759,1088391,610053.44,882356.38,1087837.12
609391,882461,1088086,609876.13,882313.38,1087811.87
609489,882422,1088134,609714.00,882276.75,1087791.75
609801,882518,1088337,609569.69,882245.75,1087776.50
610045,882683,1088172,609443.81,882220.50,1087766.25
610302,882603,1088290,609337.13,882201.19,1087760.50
610321,882655,1088361,609249.50,882187.25,1087759.25
610660,882917,1088682,609178.25,882178.63,1087763.00
611032,883039,1088532,609121.56,882175.88,1087772.12
611600,883213,1088708,609083.44,882179.63,1087786.50
611573,883476,1089243,609067.13,882190.25,1087805.75
611959,883555,1089127,609071.75,882207.88,1087830.62
612605,883828,1089308,609097.50,882233.25,1087862.00
612804,883966,1089548,609145.06,882267.06,1087900.25
613677,884432,1089634,609214.25,882310.00,1087945.87
613652,884476,1089798,609304.88,882362.56,1087998.62
614114,884511,1089970,609416.75,882424.44,1088058.37
614695,885050,1090489,609549.69,882494.38,1088125.00
615171,884873,1090216,609703.63,882571.63,1088197.75
614945,884958,1090018,609877.69,882656.25,1088276.25
615250,884987,1090607,610069.38,882747.75,1088359.00
615758,885375,1090435,610276.94,882845.50,1088445.50
615828,885421,1090609,610499.44,882949.63,1088536.25
615840,885368,1090557,610734.75,883059.50,1088631.00
614637,884683,1090317,610979.88,883173.13,1088728.50
613346,883909,1089311,611227.44,883286.25,1088824.75
611597,883217,1088622,611463.00,883391.75,1088913.75
610337,882698,1088565,611672.75,883483.88,1088990.87
607971,882470,1088259,611846.19,883560.00,1089054.00
608043,882370,1088136,611975.44,883619.50,1089103.75
607722,881948,1087748,612060.00,883662.25,1089140.12
607293,881867,1087819,612100.75,883688.75,1089162.87
606676,881746,1087790,612097.06,883700.13,1089173.00
607076,881841,1087704,612054.00,883697.00,1089171.62
607040,881987,1088009,611978.81,883680.25,1089159.75
606475,881829,1087880,611875.38,883651.75,1089139.00
606832,881766,1087840,611746.13,883612.88,1089110.87
606936,881931,1087963,611595.75,883565.56,1089077.00
606994,882053,1088012,611428.50,883511.75,1089039.00
607422,882223,1088126,611248.63,883453.63,1088998.00
607539,882343,1088295,611061.06,883393.25,1088955.50
608398,883094,1088650,610870.06,883332.50,1088913.00
608869,882943,1088829,610680.63,883273.63,1088871.75
609719,883089,1089144,610499.81,883218.69,1088834.62
609839,883125,1089298,610333.13,883169.06,1088803.12
609917,883202,1089007,610182.25,883125.00,1088776.75
609951,883120,1088993,610047.06,883086.38,1088755.00
610115,883316,1089206,609927.25,883053.00,1088738.00
609358,883404,1089329,609822.88,883025.50,1088726.25
610522,883457,1089158,609734.13,883004.31,1088719.75
610854,883484,1089257,609661.69,882989.00,1088717.75
611066,883829,1089630,609606.25,882979.25,1088719.87
611733,883774,1089617,609568.75,882975.13,1088727.00
611971,884006,1089779,609550.75,882977.25,1088739.50
612170,884146,1089905,609552.50,882986.50,1088758.25
612792,884535,1090199,609573.25,883003.69,1088783.37
613226,884574,1090192,609613.56,883029.38,1088815.50
613585,884736,1090311,609674.75,883063.56,1088854.00
613997,885004,1091054,609757.13,883105.88,1088899.00
614187,885036,1090637,609859.69,883156.00,1088950.75
614570,885050,1090692,609981.81,883213.63,1089008.87
614872,885231,1090636,610123.06,883278.19,1089072.25
615212,885675,1091220,610282.50,883350.00,1089140.75
615676,885731,1091328,610459.63,883429.69,1089215.62
615875,885875,1091284,610653.63,883517.06,1089296.87
615935,886349,1091917,610860.75,883612.13,1089383.75
616362,886352,1091704,611077.25,883715.25,1089476.50
616423,886207,1091647,611304.31,883825.25,1089574.25
616239,886084,1091619,611541.75,883939.94,1089675.25
614250,885187,1090747,611782.38,884055.38,1089776.00
612737,884503,1089848,612013.75,884165.94,1089871.50
611148,884016,1089526,612223.19,884266.38,1089956.50
608610,883332,1089178,612401.00,884353.44,1090028.50
608861,883127,1088903,612540.56,884424.94,1090085.75
608640,882952,1088846,612638.56,884479.25,1090128.12
608282,883041,1088907,612695.56,884516.13,1090156.37
608018,882903,1088830,612713.75,884536.88,1090171.75
608020,882747,1088816,612695.88,884542.75,1090175.50
607767,882640,1088794,612645.50,884535.00,1090169.00
607277,882553,1088854,612563.06,884514.25,1090153.25
607661,882631,1088898,612449.63,884481.81,1090129.75
607636,882692,1088790,612311.88,884439.69,1090099.75
606625,882794,1089210,612155.88,884389.63,1090064.00
607963,882959,1089169,611985.31,884333.88,1090023.62
608902,883314,1089497,611806.19,884274.75,1089981.75
609331,883485,1089779,611625.88,884215.25,1089940.62
610277,883925,1089807,611450.88,884157.88,1089901.62
610466,884047,1089976,611286.38,884104.88,1089866.25
610798,884244,1089996,611135.44,884057.88,1089835.50
610975,884286,1090152,610999.19,884017.25,1089809.87
611188,884174,1090133,610878.25,883982.88,1089789.25
611324,884140,1089942,610773.38,883953.88,1089773.37
611359,884389,1090465,610684.56,883930.00,1089761.25
611602,884419,1090236,610611.50,883911.50,1089752.87
611794,884537,1090386,610554.19,883898.88,1089749.25
611933,884588,1090460,610512.56,883892.25,1089750.37
612933,884867,1090896,610486.88,883892.00,1089757.25
613171,885042,1090934,610478.88,883898.75,1089771.00
613245,885110,1090869,610490.25,883912.88,1089791.37
613434,885770,1091556,610520.69,883934.38,1089817.87
614271,885841,1091486,610570.00,883964.31,1089851.25
614615,885846,1091441,610639.75,884003.63,1089891.75
614667,885942,1091530,610729.94,884051.88,1089939.25
615176,886247,1091843,610836.94,884108.75,1089993.00
615757,886404,1092000,610959.00,884174.25,1090054.00
616056,886417,1091903,611099.06,884248.19,1090121.50
614844,887094,1092609,611257.31,884330.13,1090194.75
616297,886990,1092461,611430.19,884420.56,1090274.25
616693,886925,1092341,611617.56,884518.88,1090359.87
616971,886950,1092751,611819.88,884623.44,1090450.37
617460,887310,1092550,612036.50,884733.38,1090545.12
617547,887336,1092482,612266.75,884848.63,1090643.25
617284,887139,1092580,612507.88,884968.19,1090743.50
615389,886072,1091727,612752.75,885089.00,1090843.75
613889,885340,1091076,612989.06,885205.38,1090939.00
612463,884966,1090626,613204.44,885310.75,1091024.50
611208,884223,1090369,613389.50,885401.13,1091097.25
609819,884135,1090125,613536.56,885474.63,1091155.75
609553,883962,1089924,613641.25,885530.19,1091199.87
609381,883928,1089801,613704.00,885568.00,1091229.62
608872,883925,1090069,613727.38,885589.44,1091246.12
608848,883975,1090076,613714.19,885596.25,1091251.50
608929,884001,1090046,613667.50,885590.38,1091247.62
608836,884064,1090264,613591.75,885573.50,1091235.75
608913,884082,1090279,613491.44,885547.13,1091217.37
609019,884176,1090307,613370.00,885513.13,1091194.25
609187,884186,1090696,613231.06,885473.19,1091167.25
610056,884561,1090747,613080.13,885429.25,1091138.12
610549,884568,1090692,612924.13,885383.38,1091108.75
610957,884650,1090947,612768.75,885337.13,1091080.25
611670,885014,1091574,612618.00,885291.81,1091054.75
611991,884906,1091293,612475.38,885248.88,1091034.25
612137,885081,1091100,612344.69,885208.94,1091018.37
612039,884965,1091483,612227.38,885172.25,1091005.25
611615,885039,1091264,612121.75,885138.69,1090994.75
611975,885100,1091144,612026.25,885108.31,1090987.12
612583,885073,1091150,611942.13,885081.25,1090981.75
612657,885523,1091517,611869.19,885058.38,1090978.87
612691,885385,1091438,611805.88,885040.63,1090979.50
613326,885518,1091566,611755.25,885028.00,1090983.75
613620,886056,1092078,611721.38,885020.38,1090991.50
613904,885963,1092030,611705.31,885018.38,1091004.00
614454,885910,1092026,611707.75,885022.75,1091021.50
