251885,221158,193256,251924.94,221259.09,193375.41
251348,221461,193527,251922.20,221255.11,193372.59
251641,221151,193288,251918.36,221251.66,193369.92
251647,221201,193254,251913.03,221248.36,193367.16
251755,221101,193328,251906.58,221244.81,193363.97
251942,221268,193291,251899.91,221241.14,193360.41
251618,221154,193181,251893.41,221237.56,193356.47
251674,221274,193239,251886.34,221234.23,193352.03
251917,221298,193415,251877.84,221231.34,193347.50
251925,221196,193356,251868.11,221228.88,193343.56
251829,221081,193267,251858.69,221226.34,193340.09
251742,221142,193295,251850.19,221223.38,193336.59
252003,221314,193514,251842.53,221220.38,193333.28
251881,221224,193332,251836.22,221217.94,193330.80
251853,221190,193221,251831.17,221215.94,193328.75
252154,221336,193445,251826.75,221214.28,193326.75
251927,221329,193393,251822.81,221213.45,193325.38
251825,221319,193333,251819.63,221213.55,193324.63
251857,221260,193308,251816.91,221214.19,193324.06
252073,221368,193429,251814.83,221215.13,193323.72
252030,221354,193540,251814.25,221216.72,193324.14
251967,221320,193298,251815.28,221219.09,193325.66
251957,221236,193318,251817.38,221221.84,193327.70
252153,221330,193428,251820.63,221224.70,193329.81
252103,221357,193443,251825.48,221227.88,193332.22
251809,221156,193276,251831.53,221231.31,193334.84
251899,221256,193299,251837.75,221234.56,193337.06
252146,221327,193425,251844.19,221237.66,193338.92
252081,221315,193327,251851.48,221240.88,193341.02
251726,221211,193262,251859.08,221244.09,193343.28
252110,221288,193459,251866.16,221247.03,193345.41
252177,221375,193505,251873.59,221249.94,193347.83
251768,221241,193313,251881.09,221253.38,193350.69
251843,221150,193310,251886.86,221257.11,193353.27
251881,221296,193438,251891.13,221260.41,193355.47
252194,221427,193540,251895.31,221263.38,193357.94
251659,221212,193358,251899.66,221266.16,193360.88
251692,221215,193356,251902.75,221268.44,193363.72
251885,221212,193375,251904.25,221270.03,193366.25
251793,221247,193343,251905.41,221271.09,193368.44
251770,221095,193238,251906.72,221271.52,193370.05
251798,221150,193274,251907.44,221270.97,193370.78
251975,221409,193518,251907.41,221269.78,193370.91
251762,221255,193387,251906.81,221268.59,193371.03
251647,221089,193268,251905.28,221267.25,193371.11
251883,221183,193452,251902.69,221265.22,193370.77
251905,221308,193442,251899.84,221262.91,193370.25
251820,221207,193326,251897.19,221260.75,193369.94
251706,221065,193196,251894.22,221258.39,193369.31
251334,221255,193394,251890.50,221255.42,193368.08
252070,221287,193420,251886.61,221252.34,193366.88
251904,221160,193286,251883.59,221249.50,193365.89
251743,221233,193352,251881.11,221246.44,193364.64
252179,221194,193381,251879.00,221242.91,193363.03
252105,221268,193416,251878.39,221239.38,193361.59
251720,221139,193291,251878.95,221236.09,193360.44
251839,221289,193384,251878.89,221233.00,193359.28
252053,221294,193369,251878.09,221230.41,193358.27
251955,221254,193418,251877.80,221228.50,193357.56
251712,221120,193250,251877.95,221226.77,193356.86
251993,221246,193318,251878.05,221224.77,193355.69
252200,221278,193464,251878.94,221222.91,193354.38
251991,221221,193345,251881.31,221221.50,193353.56
251632,221028,193171,251883.94,221220.00,193352.66
251854,221121,193273,251885.47,221217.81,193351.06
251987,221187,193324,251886.44,221215.13,193348.95
251487,221164,193352,251886.52,221212.56,193346.77
251816,221198,193281,251884.50,221210.38,193344.44
252092,221321,193486,251881.78,221208.69,193342.31
252116,221311,193354,251880.45,221207.78,193341.09
251526,221105,193166,251879.88,221207.38,193340.47
251758,221130,193235,251878.28,221206.69,193339.34
251953,221267,193390,251875.94,221205.75,193337.72
251368,221122,193172,251874.00,221205.19,193336.02
251700,221086,193233,251872.22,221205.00,193333.81
251932,221144,193393,251870.22,221204.47,193331.31
252014,221431,193575,251868.63,221203.78,193329.30
251754,221179,193330,251867.66,221203.42,193327.91
251692,221045,193185,251866.34,221202.94,193326.59
251895,221153,193273,251864.38,221201.80,193324.81
251789,221219,193323,251862.61,221200.34,193322.78
251750,221093,193224,251861.25,221198.86,193320.72
251812,221149,193236,251859.72,221197.11,193318.41
251682,221321,193391,251858.09,221195.28,193316.00
251916,221297,193383,251856.88,221193.89,193314.09
251741,221121,193209,251855.91,221193.00,193312.61
251700,221052,193298,251854.44,221191.88,193310.97
251972,221228,193367,251852.59,221190.30,193309.34
251836,221116,193303,251851.09,221188.66,193308.06
251678,221040,193209,251849.63,221186.75,193306.81
251635,221242,193277,251847.30,221184.25,193305.31
251889,221289,193295,251844.28,221181.67,193303.67
251757,221115,193205,251841.25,221179.50,193301.97
251608,221144,193258,251837.94,221177.39,193299.78
252030,221242,193345,251834.36,221175.19,193297.22
251970,221143,193416,251831.77,221173.28,193295.06
251754,221047,193263,251830.19,221171.38,193293.66
251750,221153,193316,251828.16,221169.16,193292.55
251820,221144,193358,251825.00,221166.88,193291.72
251847,221273,193483,251821.63,221164.94,193291.64
251658,221008,193284,251818.44,221163.44,193292.36
251799,221173,193343,251815.05,221162.09,193293.38
252007,221171,193381,251812.06,221160.81,193294.59
251833,221149,193347,251810.16,221159.72,193296.17
251530,221042,193198,251807.97,221158.53,193297.72
251770,221137,193289,251804.09,221156.98,193298.78
251901,221202,193305,251799.78,221155.44,193299.52
251121,221082,193280,251795.52,221154.25,193300.25
251455,220973,193168,251789.75,221153.13,193300.84
251865,221112,193274,251782.81,221151.44,193300.91
251880,221147,193263,251776.55,221149.47,193300.72
251478,220979,193160,251771.03,221147.34,193300.44
251624,221072,193238,251765.00,221144.73,193299.63
251738,221185,193280,251758.61,221141.92,193298.41
251489,221121,193285,251752.59,221139.84,193297.13
251445,221064,193194,251746.63,221138.72,193295.72
251519,221113,193174,251739.80,221137.77,193293.88
251776,221083,193355,251732.50,221136.66,193291.59
251675,221058,193277,251725.72,221135.44,193289.23
251492,220933,193145,251719.20,221133.66,193286.81
251575,221084,193294,251712.28,221131.13,193284.14
251694,221160,193314,251704.38,221128.42,193281.63
251662,221107,193230,251695.31,221126.02,193279.44
251450,221003,193223,251685.86,221123.66,193277.28
251324,221206,193375,251676.66,221121.00,193275.25
251753,221203,193396,251668.38,221118.42,193273.88
251590,221032,193249,251661.31,221116.22,193273.19
251504,220937,193268,251654.69,221113.78,193272.56
251931,221208,193376,251648.69,221111.03,193271.81
251810,221078,193384,251644.45,221108.56,193271.53
251609,221062,193219,251641.78,221106.36,193271.83
251691,221138,193310,251639.31,221104.09,193272.16
251954,221236,193375,251637.09,221102.06,193272.69
251726,221161,193377,251636.17,221100.73,193273.80
251650,221124,193318,251636.30,221100.09,193275.34
251924,221133,193344,251637.14,221099.78,193277.05
251916,221210,193342,251639.47,221099.86,193278.91
251751,221103,193417,251643.27,221100.41,193281.17
251701,220930,193173,251647.25,221100.78,193283.56
251940,221185,193326,251650.97,221100.64,193285.63
252020,221271,193452,251655.70,221100.81,193287.66
251715,221179,193341,251661.84,221101.84,193290.20
251711,221069,193321,251668.22,221103.19,193292.91
251825,221219,193443,251674.38,221104.56,193295.69
251986,221291,193467,251680.97,221106.47,193299.06
251377,221100,193284,251687.02,221109.00,193302.91
251655,221054,193311,251690.44,221111.47,193306.53
251870,221194,193465,251692.47,221113.55,193310.03
250985,221192,193382,251694.27,221115.84,193313.97
251457,221092,193233,251694.56,221118.45,193318.16
251769,221169,193311,251693.50,221121.02,193321.84
251986,221286,193475,251692.94,221123.69,193325.22
251612,221192,193297,251693.52,221126.86,193328.84
251539,221048,193207,251693.98,221130.05,193332.03
251829,221098,193365,251693.92,221132.61,193334.38
251655,221117,193421,251693.67,221134.72,193336.50
251645,221046,193210,251692.81,221136.58,193338.50
251663,221037,193194,251691.41,221137.81,193339.67
251838,221136,193295,251690.25,221138.25,193339.55
251632,221067,193240,251689.59,221138.03,193338.19
251555,220982,193176,251688.84,221137.14,193335.95
251567,221073,193217,251687.38,221135.56,193333.00
251920,221227,193362,251685.47,221133.83,193329.75
251516,221260,193370,251683.45,221132.75,193326.84
251522,221050,193250,251680.88,221132.28,193324.38
251780,221169,193336,251677.67,221131.69,193321.84
251954,221250,193384,251675.06,221130.94,193319.22
251508,221102,193272,251673.45,221130.53,193316.89
251533,221036,193287,251671.69,221130.09,193314.45
251851,221198,193412,251669.66,221129.44,193311.75
251828,221244,193369,251668.56,221129.16,193309.50
251749,221070,193293,251668.67,221129.34,193307.89
251789,221095,193365,251669.05,221129.44,193306.63
252023,221331,193427,251669.56,221129.67,193305.94
251929,221250,193352,251671.47,221130.78,193305.95
251810,221070,193284,251674.98,221132.44,193306.23
251817,221157,193286,251679.31,221133.94,193306.25
251758,221210,193404,251684.03,221135.38,193306.25
251872,221223,193399,251689.03,221137.13,193306.75
251479,221150,193316,251692.95,221139.34,193307.70
251816,221175,193338,251694.33,221142.03,193308.78
251985,221295,193367,251695.20,221145.03,193309.97
251906,221233,193387,251697.63,221148.56,193311.50
251593,221196,193284,251700.88,221152.59,193313.38
252030,221336,193343,251704.31,221156.92,193315.17
252112,221378,193446,251709.09,221161.88,193317.05
251642,221207,193338,251715.58,221167.44,193319.25
251651,221121,193276,251722.34,221172.78,193321.44
251918,221253,193373,251728.59,221177.50,193323.31
251679,221257,193307,251734.69,221182.14,193325.28
251488,221076,193252,251740.03,221186.69,193327.44
251699,221120,193271,251743.78,221190.45,193329.16
251674,221161,193430,251746.31,221193.25,193330.34
251648,221250,193329,251748.02,221195.59,193331.31
251456,221160,193234,251748.50,221197.70,193332.00
251708,221204,193360,251747.58,221199.55,193332.30
251344,221341,193498,251746.00,221201.36,193332.80
251563,221221,193306,251744.05,221203.47,193333.84
251561,221139,193343,251741.25,221205.50,193334.98
251621,221411,193497,251737.56,221207.02,193335.91
251804,221361,193576,251733.69,221208.39,193337.08
251543,221235,193352,251729.97,221210.14,193338.94
251560,221238,193346,251725.81,221212.11,193341.09
251718,221395,193535,251721.16,221214.31,193343.38
251785,221385,193461,251716.78,221217.28,193346.31
251647,221237,193443,251712.97,221220.88,193349.84
251772,221369,193542,251709.33,221224.34,193353.66
251899,221366,193585,251706.00,221227.61,193357.91
251780,221288,193531,251703.77,221231.05,193362.95
251674,221268,193444,251702.36,221234.61,193368.58
251867,221380,193510,251701.47,221238.25,193374.38
251910,221355,193569,251701.63,221242.25,193380.48
251832,221368,193457,251703.05,221246.69,193386.94
251596,221293,193548,251704.50,221251.56,193393.44
252001,221420,193617,251705.22,221257.00,193400.16
252112,221317,193577,251707.03,221262.80,193407.41
251922,221364,193567,251711.03,221268.59,193415.06
251559,221322,193561,251715.80,221274.23,193422.88
252004,221483,193628,251720.34,221279.94,193430.88
252055,221477,193652,251725.69,221286.16,193439.28
251499,221342,193553,251731.95,221293.09,193448.06
251846,221385,193560,251737.91,221300.53,193456.75
252110,221445,193625,251744.06,221308.06,193465.31
252109,221429,193491,251751.66,221315.56,193473.86
251699,221290,193476,251760.25,221322.78,193482.17
251883,221494,193526,251768.48,221329.53,193489.80
252060,221522,193615,251776.56,221336.38,193496.86
251710,221348,193644,251785.20,221343.41,193503.84
251631,221347,193486,251793.56,221349.95,193510.69
251816,221431,193604,251800.59,221355.88,193517.08
251479,221599,193695,251806.86,221361.66,193523.14
251683,221459,193522,251812.77,221367.63,193528.95
251793,221440,193492,251817.75,221373.66,193534.14
252031,221533,193792,251822.19,221379.66,193538.83
251805,221550,193702,251826.80,221385.94,193543.72
251784,221464,193618,251831.09,221392.50,193549.00
251887,221475,193650,251834.75,221399.02,193554.38
251742,221597,193804,251838.39,221405.58,193560.06
251772,221605,193632,251842.19,221412.70,193566.25
251683,221412,193569,251845.28,221420.09,193572.41
251860,221648,193720,251847.31,221426.95,193578.05
252142,221583,193770,251849.41,221433.25,193583.53
252045,221518,193645,251852.69,221439.50,193589.23
251843,221455,193588,251856.81,221445.59,193594.81
252104,221668,193755,251860.81,221451.56,193600.08
252100,221622,193736,251864.88,221457.94,193605.52
251873,221548,193670,251869.39,221464.72,193611.19
251690,221525,193731,251873.50,221471.30,193616.58
252246,221649,193844,251877.13,221477.56,193621.69
252163,221673,193749,251881.84,221484.06,193627.19
251930,221514,193688,251887.83,221490.84,193632.97
251905,221497,193649,251893.78,221497.25,193638.53
252151,221688,193792,251899.63,221503.30,193643.84
251873,221522,193646,251905.66,221509.31,193649.09
251217,221533,193639,251909.75,221514.86,193653.78
251919,221570,193784,251910.19,221519.53,193657.75
252088,221600,193766,251909.38,221523.81,193661.67
251733,221605,193695,251909.00,221528.11,193665.92
251698,221557,193690,251907.95,221532.38,193670.27
251972,221651,193859,251906.06,221536.56,193674.69
252134,221676,193781,251904.67,221541.00,193679.50
251518,221534,193655,251904.28,221545.81,193684.39
251725,221455,193564,251903.75,221550.63,193688.56
252022,221654,193854,251902.75,221554.94,193692.03
252267,221669,193657,251902.63,221559.03,193695.69
251783,221558,193610,251903.88,221563.09,193699.44
251984,221564,193655,251905.33,221566.77,193702.58
252152,221596,193705,251907.13,221570.03,193705.00
251793,221629,193733,251909.06,221573.11,193707.09
251784,221549,193654,251909.56,221576.03,193708.94
252136,221620,193728,251909.28,221578.69,193710.47
251510,221808,193861,251910.22,221581.34,193711.94
251724,221621,193654,251912.38,221584.25,193713.53
251740,221561,193613,251913.88,221587.13,193714.69
251985,221603,193804,251914.34,221589.66,193715.28
252020,221729,193747,251914.91,221592.13,193715.67
251874,221648,193717,251915.83,221594.94,193716.16
251915,221547,193699,251916.69,221597.78,193716.61
252132,221731,193817,251917.56,221600.42,193717.13
252120,221712,193809,251919.13,221603.33,193718.09
251888,221561,193677,251921.39,221606.47,193719.38
251898,221660,193890,251923.59,221609.03,193720.44
252238,221788,193798,251925.95,221611.13,193721.28
252083,221700,193753,251929.42,221613.56,193722.28
251848,221530,193731,251933.44,221616.22,193723.42
252031,221613,193731,251936.81,221618.38,193724.53
252162,221677,193732,251939.75,221620.22,193725.56
252038,221715,193759,251943.19,221622.20,193726.56
251829,221684,193722,251946.75,221624.31,193727.52
252118,221805,193823,251949.95,221626.50,193728.47
252129,221736,193750,251953.50,221629.17,193729.63
251907,221629,193651,251957.50,221632.25,193730.75
251844,221520,193693,251959.81,221634.95,193731.44
252211,221710,193815,251959.50,221637.03,193731.89
252211,221603,193729,251959.28,221638.86,193732.53
251080,221585,193717,251959.41,221640.34,193733.05
251823,221599,193632,251957.66,221641.30,193732.94
251952,221621,193680,251954.58,221641.83,193732.22
251989,221639,193749,251951.67,221642.13,193731.22
251810,221550,193650,251948.98,221642.19,193730.19
251967,221598,193699,251946.22,221641.81,193728.97
252271,221727,193873,251944.17,221641.31,193727.91
251838,221567,193730,251943.47,221641.19,193727.44
251975,221558,193687,251943.17,221641.28,193727.25
252146,221632,193763,251943.25,221641.16,193726.98
252175,221703,193825,251944.53,221641.08,193727.06
251823,221566,193714,251946.66,221641.34,193727.67
251936,221548,193669,251948.47,221641.38,193728.28
252193,221710,193845,251950.23,221641.05,193728.81
252018,221680,193765,251953.03,221640.92,193729.66
251833,221505,193647,251956.47,221640.81,193730.59
251932,221563,193706,251959.38,221640.19,193731.13
252278,221787,193911,251961.98,221639.19,193731.53
252065,221636,193765,251965.17,221638.33,193732.31
251974,221563,193673,251968.75,221637.53,193733.17
252037,221602,193855,251972.20,221636.47,193733.73
252277,221741,193848,251976.06,221635.47,193734.23
251984,221662,193773,251980.69,221634.94,193735.13
251916,221531,193679,251985.19,221634.59,193736.14
252308,221753,193884,251988.91,221634.00,193737.17
252111,221732,193858,251992.22,221633.63,193738.73
251812,221602,193630,251995.22,221633.63,193740.63
251922,221577,193883,251997.28,221633.61,193742.16
252151,221750,193864,251998.78,221633.53,193743.59
252085,221723,193819,252000.67,221633.97,193745.48
251913,221718,193699,252002.77,221635.03,193747.55
251915,221715,193721,252003.23,221636.69,193749.28
252119,221814,193905,252001.28,221639.14,193750.88
252028,221703,193736,251998.84,221642.31,193752.78
251906,221725,193814,251996.86,221645.59,193754.59
252074,221706,193860,251994.97,221648.63,193756.16
252279,221892,193920,251993.94,221651.91,193758.09
252014,221632,193722,251994.27,221655.73,193760.53
251976,221720,193728,251994.63,221659.59,193762.78
252143,221745,193817,251994.19,221663.31,193764.66
252272,221878,193928,251994.36,221667.41,193766.73
251772,221833,193786,251995.23,221672.19,193769.28
251954,221645,193822,251995.36,221677.22,193771.95
252170,221775,193912,251995.09,221681.94,193774.77
252223,221753,193701,251995.83,221686.53,193777.94
251814,221647,193630,251997.31,221690.91,193780.89
252108,221728,193787,251998.53,221694.80,193783.05
252291,221815,193946,252000.22,221698.48,193784.97
251655,221662,193772,252002.25,221702.34,193787.25
251918,221535,193655,252002.98,221705.88,193789.25
252149,221638,193752,252002.88,221708.38,193790.41
252340,221698,193833,252003.75,221710.03,193791.28
252086,221561,193701,252006.19,221711.16,193792.23
252061,221531,193669,252009.33,221711.34,193792.72
252257,221684,193774,252012.88,221710.50,193792.52
252030,221752,193796,252017.47,221709.41,193792.03
251996,221622,193770,252022.88,221708.39,193791.56
252014,221590,193734,252027.98,221707.05,193790.97
252310,221851,193915,252032.78,221705.16,193790.33
251989,221771,193835,252037.69,221703.16,193790.00
251952,221670,193769,252042.06,221701.48,193789.95
251932,221610,193888,252045.31,221699.84,193789.75
252349,221766,193860,252048.13,221698.13,193789.31
252081,221696,193706,252051.58,221696.72,193788.84
252056,221501,193665,252055.28,221695.20,193788.05
252109,221741,193940,252058.41,221693.03,193786.77
252194,221775,193911,252061.03,221690.67,193785.70
252023,221633,193757,252063.53,221688.67,193785.20
251931,221582,193896,252065.61,221686.66,193784.81
252045,221870,193978,252066.81,221684.75,193784.66
252243,221748,193885,252067.88,221683.64,193785.33
251992,221684,193781,252069.28,221683.25,193786.63
251990,221699,193835,252069.13,221682.98,193788.03
252181,221751,193881,252066.19,221682.81,193789.59
252316,221750,193915,252063.06,221683.03,193791.63
251980,221665,193782,252061.28,221683.31,193793.88
252292,221706,193796,252060.31,221683.19,193795.75
252415,221758,193920,252060.80,221683.02,193797.47
252261,221701,193844,252063.31,221683.22,193799.50
251920,221636,193678,252066.66,221683.53,193801.45
252152,221633,193728,252069.66,221683.56,193802.67
252305,221776,193864,252072.78,221683.50,193803.38
251766,221598,193568,252076.73,221683.69,193803.98
251828,221550,193575,252080.59,221683.81,193804.09
252149,221773,193784,252083.38,221683.59,193803.22
252295,221814,193757,252086.02,221683.72,193802.00
251737,221646,193720,252088.58,221684.41,193800.78
251918,221633,193785,252089.63,221685.03,193799.42
252110,221655,193810,252089.31,221685.25,193798.05
251387,221784,193771,252088.75,221685.58,193796.80
251810,221653,193713,252087.72,221686.41,193795.47
252037,221695,193806,252085.67,221687.34,193793.97
252149,221890,193952,252083.28,221688.44,193792.83
251980,221681,193721,252081.16,221689.94,193792.28
251865,221708,193694,252078.61,221691.53,193791.63
251967,221697,193740,252075.22,221693.00,193790.50
252135,221852,193924,252071.03,221694.63,193789.38
252019,221690,193734,252066.33,221696.64,193788.69
251915,221729,193772,252061.34,221698.72,193788.09
252033,221840,194011,252056.63,221700.88,193787.53
252158,221852,193933,252052.94,221703.47,193787.53
252071,221626,193764,252050.39,221706.34,193788.16
252024,221691,193789,252048.36,221708.84,193788.88
252409,221803,193990,252047.17,221710.98,193789.84
252183,221774,193870,252047.66,221713.31,193791.56
251982,221678,193807,252049.13,221715.67,193793.75
252136,221888,193958,252049.41,221717.81,193795.97
252247,221880,193871,252047.83,221720.13,193798.19
252087,221748,193804,252046.23,221722.88,193800.50
251905,221639,193850,252045.09,221725.53,193802.66
252169,221803,193890,252043.88,221727.75,193804.61
252307,221822,193976,252043.48,221730.00,193806.91
252126,221773,193891,252044.48,221732.50,193809.84
251515,221699,193750,252045.88,221735.27,193812.94
252081,221742,193801,252046.78,221738.22,193815.56
252263,221813,193850,252047.83,221741.20,193817.75
252093,221712,193719,252049.69,221744.09,193819.80
251999,221722,193791,252051.78,221746.72,193821.67
252288,221822,193922,252053.97,221749.06,193823.42
252255,221878,193891,252057.00,221751.59,193825.38
252015,221631,193822,252059.69,221754.19,193827.53
252132,221785,193883,252060.23,221756.33,193829.63
252329,221847,194013,252060.31,221758.25,193831.97
251371,221827,193845,252061.72,221760.44,193835.06
251880,221703,193825,252063.53,221762.63,193838.61
252186,221736,193928,252064.91,221764.41,193842.11
252453,221842,193922,252066.94,221765.91,193845.72
252021,221662,193759,252070.25,221767.28,193849.38
252028,221649,193764,252073.63,221768.02,193852.36
252347,221757,193900,252076.84,221768.02,193854.56
252193,221907,193929,252080.78,221767.97,193856.67
251847,221690,193700,252084.78,221768.19,193858.58
251999,221662,193762,252087.47,221768.13,193859.64
252312,221903,193989,252089.50,221767.75,193859.97
252068,221830,193949,252091.91,221767.77,193860.34
252069,221662,193798,252094.31,221768.03,193860.94
251938,221763,193856,252096.00,221767.97,193861.39
252191,221871,194021,252096.97,221767.91,193861.94
252204,221869,193890,252097.92,221768.39,193863.06
252110,221734,193798,252099.25,221769.31,193864.31
252136,221873,194064,252100.75,221770.28,193865.31
252407,221922,193986,252102.77,221771.50,193866.48
252168,221778,193861,252105.84,221773.27,193868.03
252066,221703,193838,252109.25,221774.97,193869.56
252265,221938,194010,252111.16,221776.52,193871.03
252242,221932,193954,252110.88,221778.63,193872.91
252040,221703,193787,252109.91,221781.20,193874.98
251452,221856,193879,252108.03,221783.50,193876.52
252243,221882,194036,252104.47,221785.59,193877.73
252004,221899,193998,252100.67,221788.03,193879.47
251838,221790,193860,252096.75,221790.78,193881.77
252282,221854,193955,252092.50,221793.50,193884.17
252391,221875,193977,252089.52,221796.25,193886.75
252005,221917,193899,252088.19,221799.31,193889.50
251915,221805,193913,252086.47,221802.59,193892.16
252111,221851,193998,252083.20,221805.81,193894.81
252254,221855,193967,252079.95,221808.91,193897.69
252086,221763,193882,252077.78,221811.88,193900.67
251849,221747,193870,252075.81,221814.34,193903.39
252365,221906,193966,252073.75,221816.41,193905.78
252452,221960,194005,252073.31,221818.69,193908.23
251982,221733,193849,252074.69,221821.23,193910.75
252231,221748,193910,252076.66,221823.28,193912.91
252191,221817,193935,252079.03,221824.63,193914.72
252010,221850,193903,252082.28,221825.81,193916.44
252025,221739,193836,252086.09,221827.08,193917.97
252123,221801,193909,252089.72,221827.98,193919.06
252328,221931,193993,252093.38,221828.72,193919.97
252119,221912,193997,252097.56,221829.84,193921.13
251993,221720,193864,252101.55,221831.11,193922.44
252184,221909,194003,252104.84,221832.13,193923.69
252248,222026,194122,252108.22,221833.47,193925.31
252100,221906,193910,252112.00,221835.66,193927.59
252214,221915,194068,252115.83,221838.38,193930.14
252405,221950,194216,252120.06,221841.38,193933.09
252270,221966,194111,252125.28,221844.78,193936.72
252042,221932,193990,252130.78,221848.59,193940.91
252116,221910,194026,252135.55,221852.59,193945.22
252389,222081,194159,252139.05,221857.00,193949.81
252312,222049,194081,252141.48,221862.31,193955.02
252078,221822,193894,252143.67,221868.13,193960.31
252252,222164,194129,252145.88,221873.53,193965.13
252227,222055,194134,252148.23,221878.78,193969.84
252238,221989,194054,252150.95,221884.38,193974.88
252024,222013,194017,252153.58,221890.25,193980.00
252396,222018,194163,252155.47,221896.31,193985.09
252422,221998,194143,252157.16,221902.50,193990.63
252226,221935,194071,252159.63,221908.59,193996.50
252123,222048,194071,252161.48,221914.22,194002.03
252180,222031,194092,252161.17,221919.31,194006.81
252369,222046,194124,252160.30,221924.41,194011.33
252215,221977,194054,252160.41,221929.63,194016.00
252173,221927,193958,252161.13,221934.63,194020.44
252321,222110,194205,252162.19,221939.41,194024.59
252316,222008,194092,252164.03,221944.38,194028.92
251903,221803,194007,252165.31,221949.19,194033.25
252373,222004,194157,252164.75,221953.44,194037.30
252566,222053,194132,252164.58,221957.44,194041.44
252475,221880,194044,252166.84,221961.48,194045.88
252139,221880,193935,252170.66,221965.22,194050.25
252420,221986,194022,252174.94,221968.33,194053.84
252530,222071,194111,252180.19,221971.16,194056.81
252228,221829,193916,252186.75,221973.78,194059.31
252189,221831,193877,252193.63,221975.50,194060.75
252399,221957,194047,252200.25,221976.19,194061.06
252275,221927,193962,252207.36,221976.61,194061.13
252177,221847,193796,252214.98,221977.00,194061.06
252229,221884,193974,252222.13,221976.84,194060.09
252446,221989,194201,252228.75,221976.16,194058.47
252186,222018,194043,252235.34,221975.50,194056.92
252157,221906,193934,252241.22,221974.97,194055.34
252480,221972,193990,252246.44,221974.33,194053.34
252252,222007,194099,252252.16,221973.92,194051.23
252170,221936,193959,252258.28,221974.06,194049.25
252010,221854,193831,252263.31,221974.13,194046.88
252157,221934,194092,252266.47,221973.61,194043.56
252258,222075,194227,252268.38,221972.97,194040.16
252088,221989,194014,252269.47,221972.73,194037.53
252082,221949,194060,252269.41,221972.73,194035.53
252253,222128,194207,252267.39,221972.97,194034.13
252369,222214,194270,252263.56,221974.16,194033.98
252334,221941,194075,252259.75,221976.30,194035.13
252283,222124,194258,252256.94,221978.50,194036.86
252601,222171,194299,252255.30,221980.72,194039.25
252436,222100,194222,252255.50,221983.58,194042.81
252265,221957,194192,252257.00,221986.81,194047.34
252606,222116,194222,252258.55,221990.02,194052.53
252646,222149,194318,252260.41,221993.53,194058.44
252442,222061,194268,252263.67,221997.53,194065.31
252183,222044,194125,252267.75,222001.52,194072.56
252424,222074,194186,252271.63,222005.13,194079.48
252521,222126,194222,252275.88,222008.69,194086.22
252369,222031,193986,252280.97,222012.44,194092.91
252069,221892,194059,252285.84,222015.80,194099.09
252355,221957,194228,252289.63,222018.22,194104.69
252463,222053,194265,252293.13,222019.98,194110.28
251518,221937,194013,252296.84,222021.55,194115.84
252275,222034,194162,252300.09,222023.00,194120.72
252520,222107,194233,252303.16,222024.45,194125.16
252474,222027,194135,252306.91,222026.19,194129.66
252172,221997,194154,252310.95,222028.06,194134.08
252379,222128,194231,252314.44,222029.91,194138.31
252603,222110,194227,252318.03,222031.98,194142.59
252221,221966,194118,252322.13,222034.16,194146.78
252339,221952,194089,252325.77,222035.83,194150.42
252483,222052,194228,252329.06,222036.91,194153.50
252167,222107,194219,252332.86,222037.94,194156.50
252110,221917,194105,252336.67,222039.06,194159.50
252249,221893,194036,252339.33,222039.53,194161.88
252585,222044,194231,252341.38,222039.19,194163.50
252431,222097,194177,252344.06,222038.75,194165.00
252330,221920,194075,252347.19,222038.38,194166.31
252317,221903,194068,252349.97,222037.47,194166.97
252453,222198,194350,252351.48,222036.28,194167.16
252344,222073,194138,252351.16,222035.72,194167.30
252276,221887,194018,252349.94,222035.41,194167.16
252367,222040,194288,252348.59,222034.66,194166.41
252351,222144,194250,252347.36,222033.94,194165.56
252342,221991,194184,252346.31,222033.63,194165.13
252271,221894,194095,252345.23,222033.16,194164.83
252241,222042,194213,252343.91,222032.22,194164.44
252485,222120,194343,252342.69,222031.45,194164.45
252281,221937,194090,252341.91,222031.02,194165.08
252203,222161,194260,252341.02,222030.25,194165.61
252621,222181,194325,252340.13,222029.34,194166.09
252449,222116,194235,252340.31,222029.06,194167.19
252245,222013,194116,252341.22,222029.38,194168.58
252219,222058,194240,252340.34,222029.81,194169.88
252555,222070,194298,252336.78,222030.34,194171.41
252364,222055,194241,252332.97,222031.06,194173.47
251777,221985,194155,252329.97,222031.81,194175.63
252479,222110,194271,252327.38,222032.59,194177.53
252526,222121,194262,252325.84,222033.69,194179.56
252355,222058,194093,252325.55,222035.16,194181.75
252317,221907,194145,252325.75,222036.47,194183.59
252514,222113,194274,252326.31,222037.34,194185.17
252613,222096,194260,252328.00,222038.25,194186.95
252135,221890,194096,252330.75,222039.33,194188.80
252279,221927,194125,252333.34,222040.05,194190.09
252422,221977,194211,252335.47,222040.09,194190.86
252443,221995,194236,252337.75,222039.72,194191.50
252152,222005,194126,252339.97,222039.27,194191.98
252377,222026,194163,252341.50,222038.75,194192.13
252415,222130,194291,252342.75,222038.34,194192.19
252245,221969,194091,252344.52,222038.16,194192.38
252243,221970,194072,252346.64,222037.80,194192.13
252450,222079,194213,252348.63,222037.16,194191.31
252587,222156,194353,252351.00,222036.88,194190.69
252235,221990,194139,252353.92,222037.11,194190.50
252138,221908,194137,252356.11,222037.16,194190.31
252373,221961,194191,252357.05,222036.48,194189.83
252272,222098,194228,252356.59,222035.50,194189.41
252147,221976,194058,252354.00,222034.63,194188.92
252098,221911,194120,252349.58,222033.50,194187.97
251803,222258,194363,252343.58,222032.13,194186.78
252227,222150,194228,252336.09,222031.22,194185.94
252136,222030,194184,252327.94,222031.00,194185.50
252309,221978,194301,252319.84,222030.91,194185.13
252587,222134,194366,252312.78,222030.84,194185.08
252374,222104,194301,252307.66,222031.19,194185.88
252345,222034,194295,252303.97,222031.94,194187.53
252479,222190,194416,252300.94,222032.88,194190.00
252556,222185,194373,252298.77,222034.19,194193.56
252400,222128,194207,252297.95,222036.20,194197.78
252379,222093,194356,252298.22,222038.59,194201.91
252618,222182,194419,252299.50,222041.19,194206.03
252485,222107,194321,252302.31,222044.09,194210.69
252274,222112,194275,252305.97,222047.28,194215.72
252321,222078,194313,252308.88,222050.50,194220.75
252594,222195,194350,252310.81,222053.81,194225.84
252422,222108,194403,252313.25,222057.39,194231.28
252201,222061,194218,252316.30,222060.95,194237.06
252443,222168,194295,252319.34,222064.31,194242.80
252648,222262,194451,252323.06,222068.00,194248.56
252577,222218,194279,252328.20,222072.41,194254.72
252274,222011,194196,252334.16,222077.06,194260.89
252411,222085,194216,252339.78,222081.20,194266.25
252587,222248,194452,252345.31,222085.06,194271.02
252113,222005,194245,252351.41,222089.30,194275.73
252219,222061,194265,252357.31,222093.73,194280.09
252532,222173,194347,252362.52,222097.91,194283.94
252610,222160,194429,252367.91,222101.98,194287.72
252308,222059,194325,252373.75,222105.97,194291.56
252033,222088,194277,252378.47,222109.45,194295.25
252432,222209,194433,252381.36,222112.53,194298.72
252272,222199,194330,252383.44,222116.09,194302.31
252121,222061,194299,252384.84,222120.38,194305.81
252111,222129,194354,252384.63,222124.47,194309.00
252474,222311,194553,252383.09,222128.13,194312.16
252290,222163,194416,252381.41,222131.66,194315.66
252209,222003,194300,252379.47,222134.78,194319.28
252531,222154,194461,252377.22,222137.16,194322.86
252397,222230,194442,252375.30,222139.22,194326.69
252344,222131,194296,252373.41,222141.41,194330.69
252339,222064,194314,252371.38,222143.30,194334.27
252403,222312,194593,252368.70,222144.72,194337.34
252591,222233,194518,252365.30,222146.09,194340.47
252221,222055,194307,252362.16,222147.53,194343.88
252193,221981,194401,252358.97,222148.30,194346.88
252676,222161,194480,252355.89,222148.22,194349.25
252624,222115,194353,252354.53,222147.81,194351.64
252327,221939,194270,252354.84,222146.97,194353.84
252490,222215,194539,252354.13,222145.19,194355.81
252667,222194,194520,252351.22,222142.84,194358.36
252631,222078,194462,252348.92,222140.63,194361.72
252320,222002,194330,252348.47,222138.13,194365.16
252508,222079,194297,252348.75,222134.88,194367.86
252718,222134,194436,252350.20,222131.42,194369.91
252528,222096,194435,252353.44,222128.22,194371.94
252469,222007,194341,252357.50,222125.06,194374.00
252534,222138,194414,252361.47,222121.81,194375.91
252574,222175,194535,252365.88,222118.88,194377.95
252409,222008,194207,252370.94,222116.39,194380.22
252487,222034,194355,252376.20,222113.84,194382.13
252581,222189,194370,252381.72,222111.31,194383.48
252733,222198,194351,252388.16,222109.39,194384.61
252474,221992,194275,252395.59,222107.94,194385.42
252621,222104,194354,252403.48,222106.39,194385.69
252684,222102,194307,252411.91,222104.80,194385.45
252316,222006,194334,252420.97,222103.41,194384.81
252325,221959,194258,252429.81,222101.98,194383.67
252635,222048,194320,252437.86,222100.16,194382.02
252695,222100,194448,252445.97,222098.09,194380.17
252232,221886,194232,252453.97,222095.78,194378.31
252299,221893,194232,252460.39,222092.63,194375.94
252559,222071,194317,252465.23,222088.69,194372.97
252323,222089,194326,252468.41,222085.02,194369.78
252308,221953,194159,252468.78,222081.97,194366.34
252499,222077,194263,252467.41,222079.03,194362.28
252614,222244,194444,252466.28,222076.41,194357.98
252359,222079,194265,252465.72,222074.56,194353.95
252436,221935,194212,252465.03,222072.91,194349.84
252578,221985,194251,252464.34,222070.78,194345.41
252747,222157,194358,252464.34,222068.52,194340.91
252393,222058,194259,252464.94,222066.67,194336.69
252366,221929,194161,252465.25,222064.92,194332.38
252536,222286,194458,252464.69,222062.73,194327.72
252676,222227,194467,252463.69,222060.59,194323.31
252606,222077,194343,252463.45,222059.22,194319.88
252534,222044,194442,252464.28,222058.34,194317.25
252854,222183,194507,252466.25,222057.78,194315.47
252760,222165,194450,252470.06,222057.91,194314.89
252514,222011,194336,252475.25,222058.55,194315.27
252258,222173,194416,252479.91,222059.06,194316.13
252777,222197,194450,252483.42,222059.53,194317.52
252706,222216,194416,252487.41,222060.66,194319.59
252461,222138,194364,252492.19,222062.36,194322.02
252657,222094,194399,252497.00,222064.00,194324.44
252754,222229,194344,252502.25,222065.75,194326.84
252615,222048,194292,252508.28,222067.89,194329.11
252227,221951,194210,252514.20,222069.81,194330.78
252774,222126,194382,252519.55,222071.13,194331.84
252930,222231,194490,252525.69,222072.56,194333.03
252602,222064,194344,252533.25,222074.59,194334.75
252437,221996,194288,252540.94,222076.75,194336.45
252744,222078,194378,252547.91,222078.45,194337.84
252798,222099,194358,252555.03,222079.84,194339.33
252679,222020,194320,252562.78,222081.03,194341.02
252840,222026,194359,252571.00,222081.77,194342.64
252887,222154,194382,252580.00,222082.23,194344.16
252669,222140,194414,252590.09,222083.16,194346.00
252475,222036,194263,252600.38,222084.72,194348.16
252733,222122,194389,252609.72,222086.34,194350.13
252770,222194,194483,252618.47,222088.03,194351.95
252427,222076,194370,252626.59,222089.94,194353.88
252457,221975,194228,252633.00,222091.53,194355.47
252825,222023,194353,252637.97,222092.38,194356.47
252807,222081,194350,252642.27,222092.97,194357.06
252580,222015,194316,252645.38,222093.84,194357.50
252551,221928,194227,252647.25,222094.36,194357.47
252756,222317,194516,252648.64,222094.06,194356.98
252682,222196,194383,252650.13,222093.67,194356.56
252577,222007,194239,252651.63,222093.53,194356.19
252564,222076,194400,252652.56,222093.27,194355.56
252871,222235,194454,252653.03,222093.06,194355.13
252754,222192,194411,252653.69,222093.53,194355.30
252579,222051,194280,252654.63,222094.50,194355.69
252740,222127,194425,252655.47,222095.38,194355.80
252886,222298,194454,252656.80,222096.41,194355.81
252676,222096,194345,252658.97,222098.06,194356.09
252499,222004,194414,252661.06,222099.70,194356.47
252627,222209,194371,252662.30,222101.00,194356.77
252904,222241,194485,252663.39,222102.61,194357.28
252619,222093,194380,252665.09,222104.72,194358.28
252201,222131,194367,252666.38,222106.67,194359.50
252668,222172,194381,252666.41,222108.25,194360.66
252757,222150,194468,252666.13,222109.84,194361.97
252564,222082,194292,252666.00,222111.41,194363.47
252731,222094,194351,252665.81,222112.59,194364.80
252752,222173,194436,252665.86,222113.59,194365.97
252699,222228,194410,252666.38,222114.88,194367.28
252458,222070,194369,252666.22,222116.44,194368.75
252726,222201,194450,252664.41,222118.00,194370.27
252861,222210,194529,252662.48,222119.77,194372.17
252305,222035,194354,252661.84,222121.89,194374.67
252522,221984,194378,252661.80,222123.81,194377.36
252727,222132,194461,252661.56,222125.09,194379.97
252632,222228,194539,252661.30,222126.19,194382.86
252634,222082,194381,252661.02,222127.44,194386.13
252582,222136,194396,252660.47,222128.58,194389.28
252900,222256,194515,252660.11,222129.77,194392.31
252505,222222,194476,252660.13,222131.78,194395.84
252569,222140,194384,252659.63,222134.80,194399.91
252565,222046,194404,252658.28,222137.80,194403.83
252951,222257,194691,252657.11,222140.34,194407.64
252553,222161,194414,252656.80,222142.88,194411.78
252496,222093,194379,252656.38,222145.30,194415.75
252746,222108,194445,252655.41,222147.20,194419.17
252564,222247,194501,252654.91,222148.88,194422.34
252639,222177,194433,252655.25,222150.81,194425.52
252512,222025,194239,252655.53,222152.61,194428.13
252729,222275,194450,252655.38,222153.69,194429.72
252852,222133,194495,252655.59,222154.20,194430.78
252625,222100,194358,252656.59,222154.38,194431.77
252686,222052,194335,252657.75,222154.13,194432.31
252863,222202,194535,252658.16,222153.50,194432.47
252738,222223,194498,252657.34,222153.09,194432.94
252550,222105,194420,252656.05,222153.00,194433.75
252113,222235,194564,252654.09,222152.92,194434.39
252705,222297,194507,252651.13,222153.20,194434.78
252683,222311,194546,252648.19,222154.34,194435.41
252620,222192,194589,252645.78,222156.25,194436.56
252776,222321,194589,252643.88,222158.64,194438.09
252902,222394,194631,252643.09,222161.84,194440.39
252620,222252,194500,252643.56,222166.00,194443.50
252588,222251,194635,252644.03,222170.59,194447.13
252957,222368,194691,252644.27,222175.59,194451.56
252995,222322,194743,252645.91,222181.16,194457.22
252691,222151,194520,252649.30,222187.09,194463.95
252769,222192,194526,252653.28,222192.94,194471.05
252852,222219,194631,252657.66,222198.31,194478.03
252807,222259,194574,252662.69,222203.22,194485.03
252383,222207,194493,252667.64,222207.78,194491.81
252760,222387,194666,252671.66,222212.25,194498.28
252859,222429,194775,252675.48,222217.22,194505.08
252968,222350,194718,252680.22,222223.00,194512.73
252672,222294,194572,252685.78,222229.25,194520.78
252806,222312,194661,252691.38,222235.44,194528.64
252909,222388,194710,252697.09,222241.59,194536.47
252579,222242,194575,252702.59,222247.67,194544.34
252683,222239,194592,252706.72,222253.25,194551.77
252786,222229,194681,252709.89,222258.06,194558.75
252311,222423,194774,252712.22,222262.42,194565.75
252510,222252,194644,252712.69,222266.66,194572.97
252533,222332,194677,252711.31,222270.72,194580.11
252799,222395,194832,252709.25,222274.70,194587.09
252732,222420,194760,252707.47,222279.03,194594.13
252624,222138,194605,252706.02,222283.31,194601.17
252689,222160,194646,252704.44,222286.59,194607.78
252692,222407,194854,252703.09,222289.09,194614.19
252742,222304,194668,252702.41,222291.78,194620.88
252577,222298,194633,252701.94,222294.52,194627.41
252649,222394,194820,252701.03,222296.94,194633.34
252921,222354,194858,252700.25,222299.09,194639.16
252561,222259,194704,252699.98,222301.08,194645.28
252512,222192,194688,252699.30,222302.58,194651.36
252699,222384,194914,252696.53,222303.56,194657.44
252876,222377,194876,252691.61,222304.66,194664.19
252653,222315,194781,252686.66,222306.06,194671.59
252086,222363,194863,252682.19,222307.31,194678.91
252782,222415,194881,252677.83,222308.41,194685.88
252977,222488,194967,252674.63,222309.97,194693.19
252687,222321,194757,252673.11,222312.19,194701.09
252803,222352,194864,252672.63,222314.59,194708.94
253066,222479,194891,252673.41,222317.16,194716.84
252983,222382,194881,252676.33,222320.20,194725.02
252679,222295,194739,252680.83,222323.42,194733.13
252945,222348,194842,252685.97,222326.42,194740.78
253039,222381,194809,252692.14,222329.25,194748.03
252847,222276,194720,252699.63,222331.97,194754.81
252803,222258,194583,252707.56,222334.34,194760.53
253031,222310,194762,252715.78,222336.13,194764.91
252999,222281,194805,252724.84,222337.34,194768.50
252815,222211,194559,252734.66,222337.94,194771.44
252766,222286,194711,252744.31,222337.78,194773.19
253026,222347,194717,252753.63,222337.25,194774.00
253022,222223,194734,252763.36,222336.77,194774.41
252708,222155,194605,252773.28,222336.08,194774.34
252846,222297,194656,252782.38,222334.78,194773.47
253093,222341,194799,252791.08,222333.16,194772.00
252689,222271,194621,252799.31,222331.56,194770.33
252693,222233,194537,252805.58,222329.80,194767.92
252915,222329,194679,252810.22,222327.78,194764.53
252288,222539,194858,252814.09,222326.08,194760.91
252659,222228,194686,252816.64,222324.94,194757.59
252671,222157,194633,252817.66,222323.56,194754.28
252857,222352,194841,252817.80,222321.61,194750.78
252917,222397,194771,252817.97,222319.84,194747.48
252641,222161,194636,252818.25,222318.31,194744.44
252703,222225,194650,252817.81,222316.38,194741.25
252893,222367,194791,252816.84,222314.11,194737.98
253011,222342,194675,252816.47,222312.14,194735.02
252772,222219,194575,252816.95,222310.42,194731.98
252843,222367,194806,252817.61,222308.25,194728.41
253099,222438,194790,252818.72,222305.66,194724.66
252893,222282,194685,252820.91,222303.44,194721.31
252689,222223,194538,252823.36,222301.50,194718.00
252869,222433,194762,252824.45,222299.72,194714.45
252904,222407,194776,252823.88,222298.69,194711.28
252646,222308,194734,252822.59,222298.42,194708.83
252483,222369,194770,252820.67,222298.39,194706.81
252825,222458,194755,252818.06,222298.58,194704.97
252957,222483,194824,252815.75,222299.63,194703.69
252619,222287,194644,252813.88,222301.47,194702.98
252743,222407,194753,252811.66,222303.56,194702.52
252903,222466,194763,252809.25,222306.06,194702.31
252855,222490,194794,252807.44,222309.38,194702.63
252598,222364,194783,252805.84,222313.52,194703.50
252822,222378,194771,252803.88,222318.13,194704.83
252936,222483,194840,252802.13,222322.97,194706.66
252824,222402,194795,252801.14,222328.30,194709.05
252720,222337,194756,252800.44,222334.03,194711.84
252783,222466,194832,252799.55,222339.69,194714.88
252949,222534,194866,252798.81,222345.50,194718.31
252467,222171,194593,252798.44,222351.91,194721.88
252690,222311,194598,252797.64,222358.50,194724.59
252913,222413,194713,252796.50,222364.59,194726.28
253180,222464,194808,252796.42,222370.28,194727.66
252734,222324,194643,252797.86,222375.67,194729.00
252785,222143,194544,252799.56,222380.03,194729.69
253235,222321,194678,252801.69,222382.78,194729.38
252820,222258,194572,252804.94,222384.33,194728.28
252691,222137,194513,252808.00,222384.66,194726.25
252972,222362,194706,252810.34,222383.77,194723.38
252786,222530,194785,252812.47,222382.61,194720.34
252948,222294,194576,252814.25,222381.70,194717.34
252688,222146,194456,252815.72,222380.31,194713.66
252931,222205,194785,252817.00,222377.75,194708.84
252957,222321,194658,252818.58,222374.33,194703.31
252799,222130,194507,252820.64,222370.36,194697.55
252754,222282,194502,252822.50,222365.72,194691.34
252927,222331,194672,252822.61,222360.77,194684.78
253000,222296,194658,252820.41,222355.88,194678.58
252749,222159,194454,252817.77,222350.88,194672.61
252781,222377,194599,252815.44,222345.30,194666.13
252983,222413,194668,252813.47,222339.50,194659.30
252793,222347,194600,252812.22,222334.33,194652.81
252590,222231,194497,252810.97,222329.78,194646.66
252932,222361,194751,252808.72,222325.48,194640.80
252875,222464,194762,252805.84,222321.91,194635.97
252823,222405,194618,252803.31,222319.50,194632.38
252664,222402,194608,252801.03,222317.81,194629.16
252976,222500,194743,252798.91,222316.58,194626.16
252924,222482,194775,252797.70,222316.34,194624.03
252895,222384,194590,252797.59,222317.19,194622.97
252889,222354,194675,252798.23,222318.56,194622.48
252985,222409,194601,252799.66,222320.19,194622.28
253019,222360,194592,252802.16,222322.09,194622.05
252534,222286,194505,252805.50,222323.97,194621.48
252840,222299,194485,252808.97,222325.47,194620.25
253066,222414,194633,252812.63,222326.78,194618.50
253067,222457,194627,252817.31,222328.42,194616.78
252790,222229,194466,252822.75,222330.31,194615.14
252940,222307,194517,252828.09,222331.81,194613.02
253082,222324,194606,252833.63,222332.84,194610.50
252759,222276,194531,252838.69,222333.88,194607.97
252873,222332,194524,252841.81,222335.22,194605.28
253062,222368,194608,252844.16,222336.66,194602.47
253110,222634,194771,252847.56,222338.25,194600.06
252663,222369,194552,252851.58,222340.19,194598.27
252805,222335,194588,252854.83,222342.22,194596.69
253089,222458,194693,252857.59,222344.25,194595.34
252789,222470,194668,252861.09,222346.67,194594.63
252662,222308,194573,252864.83,222349.41,194594.41
252835,222367,194620,252867.63,222351.91,194594.31
252952,222621,194806,252869.22,222354.39,194594.52
252759,222525,194697,252869.69,222357.47,194595.39
252657,222468,194712,252868.94,222361.30,194596.97
252903,222464,194894,252867.34,222365.53,194599.19
253050,222609,194824,252866.03,222370.28,194602.16
252716,222399,194659,252865.31,222375.55,194605.88
252737,222462,194597,252864.25,222380.88,194609.75
252825,222610,194910,252861.47,222386.28,194613.75
253023,222548,194789,252856.86,222392.23,194618.66
252746,222467,194671,252852.09,222398.53,194624.25
252822,222612,194766,252847.78,222404.73,194629.69
252974,222598,194831,252843.91,222410.84,194635.00
253014,222615,194855,252841.23,222417.38,194640.84
252944,222524,194736,252839.94,222424.39,194647.31
253033,222693,194851,252839.38,222431.78,194654.09
253073,222667,194849,252839.27,222439.86,194661.31
253099,222643,194811,252840.38,222448.66,194668.98
252820,222605,194826,252842.75,222457.75,194676.97
253129,222620,194895,252845.84,222466.84,194685.36
253086,222700,194908,252850.03,222476.05,194694.25
253003,222643,194815,252855.41,222485.56,194703.59
252866,222543,194717,252861.11,222495.03,194712.84
253315,222710,194854,252867.25,222504.25,194721.56
253295,222711,194923,252875.09,222513.56,194730.13
252860,222527,194757,252884.72,222523.30,194738.66
252930,222572,194789,252894.77,222533.09,194746.67
253075,222666,194892,252904.41,222542.48,194754.19
253176,222782,194919,252914.11,222551.73,194761.72
252820,222610,194864,252923.75,222561.06,194769.34
253164,222711,194885,252932.78,222570.13,194776.91
253236,222686,194960,252941.94,222578.94,194784.47
252827,222657,194834,252950.84,222587.78,194792.06
252864,222648,194810,252957.66,222596.70,194799.25
253183,222743,194908,252963.02,222605.42,194805.91
253313,222843,195143,252969.00,222614.14,194812.50
252921,222701,194933,252975.86,222623.09,194819.38
252826,222666,194830,252982.06,222631.75,194826.20
253193,222686,194924,252987.22,222639.75,194832.63
253194,222745,194984,252992.69,222647.22,194838.91
252841,222612,194780,252998.41,222654.19,194845.03
253032,222555,194872,253003.38,222660.19,194850.50
252915,222823,194978,253007.86,222665.06,194855.41
253131,222718,194904,253012.67,222669.38,194860.13
252894,222577,194794,253017.41,222673.28,194864.42
252980,222554,194953,253021.31,222676.23,194867.91
252936,222746,195060,253024.19,222678.34,194870.91
252969,222666,194843,253026.22,222680.19,194874.06
252875,222554,194783,253027.38,222681.67,194876.91
252563,222741,194944,253027.39,222682.44,194879.13
253048,222816,194981,253026.53,222683.00,194881.34
252936,222771,194901,253025.36,222684.09,194883.81
252776,222758,194945,253023.59,222685.38,194885.98
253219,222803,195030,253021.31,222686.38,194887.69
253151,222779,194906,253019.81,222687.59,194889.50
252946,222719,194887,253019.19,222689.28,194891.41
253085,222757,194918,253018.31,222691.16,194893.13
253208,222813,194979,253017.08,222693.34,194894.91
253254,222855,194976,253016.81,222696.09,194896.95
253031,222675,194836,253017.84,222699.41,194899.17
253182,222796,195013,253019.59,222702.94,194901.38
253346,222806,195039,253022.39,222706.66,194903.95
253229,222775,195013,253026.72,222710.58,194907.13
252942,222708,194892,253031.70,222714.44,194910.50
253117,222690,194890,253036.28,222717.91,194913.56
253297,222865,195030,253040.94,222721.13,194916.38
252676,222724,194948,253045.19,222724.69,194919.31
252938,222662,194873,253047.31,222728.47,194922.22
253242,222846,195000,253048.19,222732.03,194924.84
253393,222923,195080,253050.11,222735.81,194927.66
252650,222638,194853,253052.67,222739.84,194930.78
253012,222678,194931,253054.02,222743.27,194933.58
253180,222831,194977,253054.53,222746.00,194935.97
252798,222758,195030,253055.53,222749.00,194938.38
252824,222617,194824,253056.56,222752.27,194940.70
252928,222687,194940,253056.53,222754.91,194942.50
253229,222917,194957,253055.94,222756.88,194943.94
252942,222737,194937,253055.63,222758.75,194945.31
252966,222703,194871,253055.06,222760.34,194946.45
253082,222717,194933,253054.09,222761.44,194947.13
253089,222811,195106,253052.84,222762.22,194947.81
252942,222730,194985,253050.92,222762.94,194949.06
252872,222669,194971,253048.19,222763.36,194950.59
252683,222945,195068,253044.53,222763.38,194952.09
253076,222898,195021,253040.20,222763.53,194953.50
252958,222741,194934,253035.97,222764.19,194954.94
252910,222699,194992,253031.78,222764.78,194956.16
253163,223013,195162,253027.75,222765.48,194957.38
253319,222993,195139,253025.00,222767.30,194959.44
252911,222769,194936,253023.69,222770.19,194962.23
252907,222892,195119,253022.25,222773.30,194965.22
253219,223013,195189,253020.38,222776.81,194968.77
253036,222924,195085,253019.09,222781.22,194973.19
252975,222775,195015,253018.31,222786.20,194977.97
253211,222932,195134,253017.84,222791.42,194982.83
253285,222909,195218,253018.53,222796.91,194988.16
253110,222804,195065,253020.63,222802.41,194994.13
253105,222887,195144,253023.02,222807.63,195000.31
253235,223015,195277,253025.08,222812.91,195006.94
253287,222944,195268,253027.84,222818.69,195014.52
253099,222894,195195,253031.75,222824.80,195023.00
253020,222909,195154,253035.88,222830.97,195031.91
253302,223027,195280,253040.06,222837.27,195041.03
253249,222875,195235,253045.06,222843.70,195050.53
252894,222744,194958,253049.84,222849.66,195059.81
253108,222781,195055,253052.84,222854.44,195067.97
253483,222933,195213,253055.63,222858.34,195075.16
252646,222968,195127,253059.14,222862.14,195082.25
252929,222863,195017,253061.53,222866.06,195089.16
253159,222884,195093,253062.70,222869.75,195095.23
253105,223111,195253,253063.94,222873.47,195100.78
252973,222907,195166,253065.16,222877.73,195106.47
253064,222834,195102,253066.00,222881.94,195112.00
253229,222985,195157,253066.84,222885.72,195117.03
253064,223093,195197,253068.50,222889.75,195121.75
253044,222948,195085,253070.81,222894.41,195126.19
253064,222871,195084,253073.08,222899.06,195130.00
253299,223117,195255,253075.39,222903.27,195133.13
253275,223064,195186,253078.59,222907.34,195135.92
253060,222916,195064,253082.50,222911.59,195138.44
253077,222807,195026,253086.22,222915.44,195140.27
253311,223000,195165,253088.72,222918.63,195141.36
253218,223004,195127,253089.72,222921.66,195142.19
253022,222848,195012,253090.25,222924.66,195142.66
252833,222983,195182,253090.69,222927.03,195142.33
253455,222974,195152,253091.63,222928.84,195141.38
253147,222839,194968,253093.89,222930.28,195140.00
253028,222762,194953,253096.63,222931.00,195137.75
253410,222923,195137,253099.44,222930.83,195134.58
253267,222968,195104,253103.25,222930.41,195131.30
253164,222885,195011,253107.91,222930.08,195128.08
253234,223013,195058,253112.34,222929.69,195124.64
253474,222958,195122,253116.73,222929.28,195121.14
253453,222946,195130,253122.38,222929.03,195117.97
253037,222899,195038,253129.05,222928.88,195115.03
253357,222914,195175,253135.61,222928.58,195112.20
253621,223042,195177,253142.91,222928.41,195109.91
253205,222970,195157,253151.63,222928.72,195108.31
253236,222856,195061,253160.23,222929.22,195107.13
253422,222984,195129,253168.13,222929.56,195106.03
253521,222989,195157,253176.53,222930.05,195105.16
253241,222889,195073,253185.77,222930.78,195104.58
253160,222833,194971,253194.69,222931.31,195103.78
253341,222908,195070,253202.78,222931.38,195102.45
253476,223021,195120,253210.88,222931.34,195100.95
252962,222794,194967,253218.14,222931.34,195099.41
253216,222845,195033,253222.81,222930.84,195097.47
253453,222906,195098,253226.22,222929.78,195095.28
252450,222981,195073,253229.41,222928.78,195093.44
253014,222879,195005,253230.94,222928.09,195092.06
253220,222910,195147,253230.81,222927.44,195090.81
253382,223012,195259,253230.55,222926.88,195090.02
253398,222900,195114,253231.16,222926.59,195089.94
253241,222930,195075,253232.59,222926.42,195090.16
253383,222987,195166,253234.47,222926.34,195090.47
253268,223082,195238,253237.34,222926.88,195091.28
253168,222955,195124,253241.28,222928.25,195092.72
253297,222959,195124,253245.25,222930.00,195094.44
253558,223154,195218,253249.36,222931.84,195096.16
253434,223032,195160,253254.55,222934.08,195097.94
253267,222859,195036,253260.34,222936.44,195099.66
253282,222916,194985,253265.84,222938.36,195100.83
253455,223087,195206,253270.03,222940.09,195101.50
253447,223086,195133,253272.63,222942.41,195102.34
253041,223070,195116,253274.38,222945.45,195103.41
253157,223109,195188,253275.06,222948.88,195104.30
253429,223135,195237,253274.88,222952.45,195105.08
253303,222987,195110,253275.03,222956.34,195106.11
253042,222939,195052,253275.09,222960.20,195107.19
253447,223134,195172,253274.69,222963.88,195108.13
253514,223163,195282,253274.94,222968.08,195109.41
253345,223147,195217,253276.50,222973.13,195111.47
253242,223095,195200,253278.50,222978.66,195114.17
253522,223224,195281,253280.66,222984.44,195117.38
253612,223250,195224,253283.97,222991.00,195121.14
253407,223080,195213,253288.77,222998.50,195125.28
253256,223137,195212,253293.95,223006.52,195129.50
253687,223202,195254,253299.33,223014.75,195133.91
253549,223192,195190,253305.88,223023.25,195138.47
253381,222972,195117,253313.30,223031.59,195142.88
253451,223135,195168,253320.66,223039.25,195146.78
253687,223165,195278,253328.34,223046.44,195150.50
253517,223109,195171,253337.00,223053.66,195154.34
253282,223032,195185,253345.84,223060.69,195158.13
253454,223169,195233,253353.92,223067.22,195161.75
253619,223306,195365,253361.78,223073.72,195165.63
253248,223161,195131,253369.17,223080.63,195169.83
253391,223123,195172,253374.84,223087.53,195173.75
253476,223178,195251,253379.41,223094.03,195177.28
252805,223289,195332,253383.34,223100.63,195181.00
253102,223106,195227,253385.52,223107.52,195185.13
253239,223137,195254,253385.64,223114.09,195189.38
253494,223275,195371,253384.91,223120.28,195193.72
253455,223281,195260,253384.52,223126.63,195198.38
253252,223123,195162,253384.38,223133.06,195202.91
253379,223218,195274,253383.89,223139.16,195207.00
253476,223298,195411,253382.72,223145.03,195211.13
253458,223195,195249,253380.84,223151.00,195215.70
253312,223056,195120,253378.86,223156.47,195220.03
253553,223314,195433,253377.34,223161.09,195223.63
253651,223362,195388,253377.00,223165.47,195226.98
253464,223221,195238,253378.19,223170.19,195230.59
253371,223085,195095,253380.03,223174.75,195233.86
253784,223268,195384,253381.97,223178.72,195236.50
253468,223294,195333,253384.16,223182.56,195239.31
253349,223134,195174,253386.52,223186.45,195242.25
253542,223230,195219,253388.72,223189.70,195244.56
253646,223246,195298,253391.31,223192.22,195246.06
253550,223328,195278,253394.95,223194.67,195247.41
253418,223116,195198,253399.22,223197.30,195248.56
253574,223285,195297,253403.69,223199.70,195249.25
253773,223316,195346,253408.94,223202.20,195249.97
253578,223229,195217,253415.50,223205.02,195250.97
253365,223177,195212,253422.52,223207.66,195251.84
253785,223263,195348,253429.52,223209.81,195252.59
253787,223290,195360,253437.56,223211.89,195253.72
253602,223235,195241,253446.91,223214.16,195255.13
253469,223172,195173,253456.38,223216.28,195256.09
253619,223315,195207,253465.34,223218.22,195256.41
253801,223282,195334,253474.47,223220.31,195256.50
253259,223230,195158,253482.94,223222.84,195256.59
253554,223109,195138,253489.02,223225.50,195256.25
253725,223283,195339,253494.00,223227.78,195255.47
253938,223371,195224,253500.16,223230.09,195255.00
253345,223257,195169,253507.31,223232.91,195254.81
253589,223391,195253,253513.98,223236.08,195254.45
253754,223337,195336,253520.28,223239.66,195254.13
253538,223234,195155,253527.13,223243.45,195253.94
253563,223235,195208,253534.25,223246.92,195253.47
253737,223341,195269,253541.28,223250.08,195252.75
253623,223486,195377,253547.88,223253.66,195252.41
253263,223299,195222,253552.81,223258.03,195252.67
253405,223180,195170,253555.45,223262.38,195252.97
253603,223337,195287,253556.78,223266.11,195252.75
253700,223371,195259,253558.13,223269.70,195252.25
253406,223314,195215,253559.64,223273.47,195251.67
253480,223306,195172,253560.52,223277.16,195250.89
253728,223396,195336,253560.13,223280.80,195250.00
253788,223346,195282,253558.88,223284.52,195249.45
253397,223146,195092,253557.72,223287.94,195248.94
253491,223294,195282,253556.42,223290.28,195247.69
253842,223394,195322,253555.27,223291.75,195245.84
253570,223296,195215,253555.20,223293.16,195244.14
253436,223277,195154,253555.50,223294.56,195242.50
253785,223374,195243,253555.27,223295.89,195240.69
253896,223401,195283,253555.28,223297.50,195239.00
253768,223208,195098,253556.84,223299.28,195237.44
253619,223255,195137,253559.63,223300.53,195235.56
253979,223276,195203,253563.25,223301.06,195233.44
253971,223293,195272,253568.73,223301.25,195231.48
253771,223123,195030,253576.16,223301.00,195229.47
253964,223097,195123,253584.86,223299.75,195226.81
254017,223184,195169,253595.06,223297.34,195223.63
254124,223216,195139,253607.23,223294.31,195220.27
253711,222993,195024,253620.72,223290.91,195216.55
253851,223129,195069,253634.08,223287.05,195212.16
254103,223169,195054,253647.56,223282.63,195207.13
253904,223054,194990,253661.97,223277.63,195201.59
253700,223043,194974,253676.47,223271.75,195195.48
254054,223087,195056,253690.44,223265.00,195188.78
253970,223158,195092,253704.64,223257.78,195181.83
253643,223072,194925,253718.16,223250.63,195174.66
253668,223045,194931,253729.19,223243.56,195166.81
253913,223180,195017,253738.38,223236.38,195158.31
254071,223171,195124,253747.59,223229.55,195149.69
253643,222976,194858,253757.02,223223.09,195140.88
253950,223160,195060,253765.84,223216.44,195131.72
253912,223174,195021,253774.36,223209.84,195122.69
253831,223204,195083,253782.89,223203.78,195114.16
253580,223114,194992,253790.63,223198.22,195106.09
253660,223055,195024,253796.63,223192.75,195098.39
253528,223321,195160,253801.38,223187.33,195091.09
253550,223155,195009,253805.59,223182.34,195084.41
253475,223024,194888,253808.11,223177.66,195077.84
253801,223164,195141,253808.63,223172.88,195071.16
253492,223274,195180,253807.88,223168.53,195064.97
253540,223105,195003,253805.56,223164.97,195059.72
253677,223052,194950,253801.72,223161.59,195054.91
253300,223299,195204,253797.16,223158.22,195050.45
253621,223231,195079,253792.06,223155.41,195046.94
253528,223173,194943,253786.25,223153.36,195044.06
253674,223265,195068,253779.66,223151.81,195041.06
254006,223370,195177,253773.41,223150.97,195038.16
253815,223329,195121,253768.63,223151.41,195036.13
253520,223203,194976,253764.56,223152.94,195034.80
253734,223360,195109,253759.75,223155.16,195033.69
253896,223328,195124,253754.44,223158.28,195033.06
253706,223218,195083,253749.77,223162.13,195033.06
253628,223251,195078,253745.28,223166.02,195033.28
253776,223324,195124,253740.41,223169.78,195033.45
253798,223358,195163,253735.91,223174.00,195034.05
253659,223237,195118,253732.08,223178.77,195035.36
253647,223260,195104,253728.39,223183.66,195037.19
253874,223352,195256,253724.98,223188.67,195039.56
253832,223388,195215,253722.56,223194.19,195042.91
253322,223324,195158,253719.59,223200.45,195047.19
253745,223343,195209,253714.22,223207.41,195052.14
253884,223417,195248,253708.39,223214.80,195057.72
253918,223351,195168,253704.34,223222.56,195063.89
253562,223116,195010,253701.63,223230.03,195070.09
253639,223150,195038,253699.00,223236.28,195075.53
253892,223298,195207,253696.56,223241.38,195080.31
253170,223226,195097,253694.95,223246.19,195084.94
253459,223203,195052,253693.34,223250.95,195089.25
253758,223309,195204,253691.11,223255.34,195093.13
253817,223468,195150,253689.20,223259.53,195097.17
253516,223290,195101,253687.78,223263.83,195101.48
253619,223233,195099,253686.03,223267.88,195105.56
253810,223288,195139,253684.14,223271.38,195109.17
253673,223299,195129,253682.33,223274.53,195112.47
253645,223200,194978,253679.91,223277.28,195115.28
253802,223151,195002,253677.39,223279.25,195117.05
253272,223310,195294,253675.80,223280.30,195117.91
253517,223200,195164,253674.81,223280.66,195118.47
253613,223076,194951,253673.47,223280.25,195118.77
253747,223165,195177,253671.91,223278.75,195118.47
253828,223414,195146,253671.00,223276.91,195117.88
253660,223233,195082,253670.88,223275.50,195117.38
253592,223145,194990,253670.88,223274.11,195116.59
253828,223387,195134,253670.39,223272.28,195115.42
253956,223314,195112,253669.97,223270.39,195114.22
253719,223277,195060,253670.53,223268.84,195113.09
253610,223329,195153,253671.66,223267.38,195111.75
253956,223333,195226,253673.00,223265.78,195110.44
253976,223279,195237,253675.66,223264.42,195109.78
253379,223185,195039,253679.09,223263.27,195109.75
253859,223299,195182,253681.19,223262.05,195109.83
253901,223328,195224,253682.17,223261.09,195110.23
253879,223314,195127,253683.84,223260.66,195111.16
253510,223153,195077,253686.09,223260.39,195112.06
253841,223201,195183,253688.06,223259.75,195112.63
253948,223270,195188,253690.53,223258.78,195113.34
253909,223277,195104,253694.31,223257.89,195114.34
253534,223247,195078,253697.44,223257.19,195115.25
253890,223298,195173,253697.95,223256.64,195116.00
254038,223386,195188,253698.25,223256.53,195116.94
252860,223319,195226,253699.44,223257.09,195118.28
253499,223243,195150,253699.45,223258.06,195120.02
253872,223428,195238,253698.41,223259.28,195122.03
253898,223478,195286,253698.11,223261.34,195124.63
253600,223291,195144,253698.72,223264.31,195127.86
253697,223376,195247,253699.27,223267.63,195131.34
254010,223434,195306,253700.13,223271.28,195135.17
253578,223375,195200,253702.22,223275.75,195139.50
253516,223197,195113,253704.70,223280.72,195143.81
253686,223332,195179,253706.38,223285.34,195147.67
253841,223546,195434,253707.69,223289.80,195151.58
253644,223379,195294,253709.17,223294.69,195156.23
253572,223339,195244,253710.22,223299.72,195161.44
253705,223377,195255,253710.52,223304.59,195166.78
253738,223475,195263,253710.14,223309.56,195172.11
253687,223384,195206,253709.03,223314.80,195177.36
253477,223290,195171,253707.19,223319.94,195182.25
253756,223527,195444,253704.91,223324.56,195186.72
253774,223521,195357,253702.97,223329.16,195191.27
253611,223352,195208,253701.56,223334.03,195196.06
253526,223291,195354,253699.80,223338.66,195200.63
253886,223530,195371,253697.78,223342.95,195205.00
253647,223440,195260,253696.30,223347.50,195209.58
253603,223298,195185,253694.97,223352.09,195214.05
253951,223583,195503,253693.45,223356.14,195218.50
254005,223542,195399,253692.66,223359.94,195223.75
253825,223457,195308,253693.41,223364.13,195229.66
253610,223354,195346,253694.97,223368.42,195235.48
253982,223588,195450,253696.80,223372.66,195241.11
254021,223525,195367,253699.88,223377.38,195247.03
253778,223473,195301,253704.44,223382.63,195253.16
253775,223492,195352,253709.06,223388.08,195259.13
253876,223535,195391,253713.05,223393.69,195265.03
253958,223608,195446,253717.34,223399.73,195271.22
253630,223509,195312,253722.16,223406.16,195277.53
253779,223509,195374,253726.59,223412.44,195283.53
253905,223546,195394,253730.86,223418.66,195289.34
254039,223527,195351,253735.91,223424.95,195295.13
253511,223369,195260,253740.88,223431.02,195300.55
253721,223416,195260,253743.98,223436.28,195305.20
253938,223441,195321,253746.09,223440.75,195309.09
253177,223519,195252,253747.81,223444.84,195312.45
253600,223427,195287,253747.78,223448.81,195315.28
253798,223488,195271,253746.50,223452.50,195317.56
253904,223488,195294,253745.59,223455.91,195319.50
253522,223343,195184,253745.06,223458.88,195321.25
253640,223416,195241,253743.88,223461.05,195322.31
253852,223448,195341,253742.23,223462.56,195322.72
253630,223493,195360,253740.34,223463.94,195323.09
253583,223351,195237,253737.31,223465.28,195323.42
253659,223409,195282,253733.30,223466.14,195323.38
253868,223634,195539,253729.47,223466.53,195323.11
253732,223477,195354,253726.44,223466.84,195322.97
253683,223438,195299,253724.00,223467.16,195322.97
253867,223425,195323,253721.97,223467.28,195322.94
254034,223660,195445,253721.28,223467.52,195323.09
253725,223643,195375,253722.27,223468.67,195323.78
253825,223614,195350,253723.98,223470.94,195324.86
254095,223821,195585,253726.42,223474.06,195326.22
254104,223808,195557,253730.56,223478.27,195328.41
253932,223676,195431,253736.47,223483.81,195331.59
253826,223687,195491,253743.25,223490.39,195335.34
254208,223848,195568,253750.72,223497.91,195339.50
254029,223855,195477,253759.64,223506.81,195344.41
253842,223712,195333,253769.47,223516.95,195349.59
254146,223717,195357,253778.78,223527.50,195354.38
254239,223776,195491,253787.69,223538.09,195358.81
254149,223743,195405,253797.72,223548.91,195363.31
253838,223645,195414,253808.72,223559.73,195367.50
254120,223740,195424,253819.75,223570.28,195371.00
254216,223806,195547,253831.31,223580.80,195374.41
254097,223826,195429,253843.97,223591.63,195378.25
253917,223768,195379,253855.53,223602.84,195382.16
254251,223936,195411,253864.50,223614.47,195385.72
254317,223972,195538,253873.44,223626.92,195389.22
254015,223801,195343,253883.91,223640.17,195392.88
253866,223743,195317,253894.38,223653.47,195396.13
254189,223875,195411,253904.27,223666.33,195398.67
254210,223798,195379,253914.53,223678.81,195400.78
253828,223745,195346,253924.97,223690.75,195402.48
254006,223813,195361,253934.38,223701.94,195403.66
254235,223918,195420,253943.22,223712.66,195404.47
253770,223904,195387,253951.91,223723.58,195405.22
253768,223711,195289,253959.14,223734.50,195405.83
254052,223825,195342,253964.66,223744.72,195405.89
254273,223834,195421,253970.06,223754.13,195405.59
253949,223811,195367,253976.03,223762.95,195405.38
253830,223805,195258,253981.50,223771.13,195404.84
254184,223881,195439,253986.06,223778.75,195403.86
253951,223831,195479,253990.03,223786.03,195402.98
253874,223758,195338,253992.69,223792.84,195402.44
254030,223775,195295,253994.14,223798.80,195401.67
254195,223998,195648,253995.70,223804.03,195400.53
254193,223938,195443,253998.23,223809.06,195399.48
253955,223776,195304,254001.47,223814.03,195398.59
254055,223784,195284,254004.59,223818.44,195397.33
254140,223830,195416,254007.75,223822.16,195395.66
253954,223861,195481,254011.16,223825.45,195394.20
254024,223748,195293,254014.28,223828.38,195393.09
254150,223985,195528,254016.88,223830.55,195391.64
254172,223895,195465,254019.34,223832.08,195389.80
254009,223885,195395,254021.98,223833.58,195388.19
253893,223728,195333,254024.31,223835.03,195386.64
254359,223885,195392,254026.47,223836.09,195384.67
254307,223902,195437,254029.84,223837.13,195382.77
254138,223741,195293,254034.63,223838.19,195381.13
254044,223808,195370,254039.77,223838.75,195379.44
254418,223955,195496,254045.19,223838.97,195377.97
254294,223959,195473,254051.78,223839.67,195377.25
254184,223734,195311,254059.41,223840.75,195377.06
254181,223844,195416,254067.25,223841.53,195376.84
254585,223979,195508,254075.75,223842.30,195376.88
254430,223866,195401,254085.94,223843.52,195377.52
253841,223766,195345,254095.97,223844.88,195378.34
254267,223816,195445,254103.41,223845.97,195379.13
254348,223941,195525,254109.81,223846.94,195380.25
254336,223801,195351,254117.05,223848.03,195381.91
253972,223727,195252,254124.39,223848.88,195383.38
254255,223797,195332,254130.94,223849.02,195384.11
254363,223985,195544,254137.31,223848.98,195384.59
253982,223770,195305,254144.09,223849.22,195385.38
254239,223774,195362,254150.88,223849.23,195386.03
254495,223960,195414,254157.91,223849.05,195386.41
253999,223840,195391,254166.06,223849.19,195387.03
254092,223736,195263,254174.75,223849.38,195387.89
254167,223862,195380,254182.63,223849.19,195388.41
254388,223904,195450,254189.75,223848.97,195388.69
253857,223812,195408,254196.09,223848.94,195389.16
253892,223692,195303,254200.28,223848.58,195389.59
254241,223862,195397,254202.28,223847.66,195389.70
253694,223902,195456,254203.88,223846.84,195389.78
253979,223779,195305,254205.47,223846.45,195389.97
254097,223763,195333,254206.13,223845.94,195389.84
254358,224004,195539,254206.16,223845.00,195389.50
254314,223889,195496,254206.73,223843.97,195389.56
254149,223779,195322,254207.81,223843.06,195390.03
254211,223784,195411,254208.77,223841.98,195390.44
254289,223847,195387,254209.22,223840.72,195390.73
254331,223754,195349,254209.30,223839.38,195390.94
254092,223748,195282,254209.31,223837.69,195390.77
254285,223833,195452,254209.06,223835.50,195389.98
254355,223834,195387,254208.81,223832.97,195388.78
254180,223731,195348,254209.03,223830.33,195387.50
254020,223697,195304,254209.02,223827.41,195386.06
254416,223898,195507,254208.66,223824.28,195384.66
254404,223828,195448,254209.09,223821.59,195383.83
254282,223771,195411,254210.72,223819.28,195383.59
254037,223813,195430,254211.25,223817.20,195383.77
254292,223936,195453,254208.94,223815.80,195384.39
254337,223922,195461,254205.94,223815.31,195385.47
254068,223851,195284,254203.67,223815.56,195386.81
254136,223800,195410,254201.30,223816.09,195388.16
254530,223937,195469,254199.31,223816.78,195389.55
254292,223963,195478,254198.83,223818.06,195391.28
253895,223892,195361,254198.69,223820.09,195393.22
254157,223868,195370,254197.39,223822.56,195394.94
254391,223879,195418,254195.81,223825.13,195396.34
254280,223921,195351,254195.22,223827.78,195397.52
254150,223797,195255,254195.27,223830.34,195398.13
254381,223914,195343,254195.63,223832.72,195397.97
254468,224007,195437,254197.05,223835.38,195397.41
254010,223887,195403,254198.75,223838.59,195396.97
254189,223783,195383,254198.97,223841.83,195396.67
254425,223991,195476,254198.64,223844.81,195396.52
253726,224044,195615,254199.66,223848.25,195397.02
254122,223968,195438,254201.75,223852.52,195398.41
254189,223882,195429,254203.78,223857.13,195400.22
254428,223925,195486,254205.77,223861.61,195401.94
254157,223867,195361,254208.22,223865.86,195403.31
254114,223845,195323,254210.44,223869.69,195404.16
254278,223861,195372,254212.05,223872.94,195404.47
254356,224062,195530,254213.94,223876.16,195404.70
254275,223894,195534,254216.58,223879.86,195405.53
254128,223954,195413,254219.34,223883.73,195407.00
254260,224101,195597,254221.64,223887.67,195408.66
254512,223993,195564,254224.16,223891.88,195410.63
254362,223967,195440,254227.75,223896.31,195413.08
254051,223833,195407,254231.63,223900.56,195415.61
254536,224027,195581,254234.52,223904.41,195418.16
254513,223999,195516,254237.05,223908.28,195421.16
254274,223852,195384,254240.25,223912.16,195424.39
254060,224057,195558,254243.38,223915.19,195426.97
254348,223925,195543,254245.72,223917.06,195428.80
254450,223930,195396,254248.19,223918.41,195430.47
254095,223804,195339,254251.02,223919.44,195431.88
254151,223908,195365,254251.84,223919.92,195432.56
254218,224010,195496,254249.36,223920.25,195432.88
254259,223977,195499,254245.63,223920.95,195433.39
253450,223962,195441,254240.98,223922.03,195434.14
254237,223999,195503,254234.28,223923.44,195434.95
254331,224022,195523,254227.22,223925.23,195436.03
254384,224045,195362,254221.69,223927.53,195437.56
254109,223929,195324,254217.41,223930.16,195439.23
254355,224095,195485,254213.75,223932.97,195440.53
254348,224068,195548,254211.11,223936.30,195441.81
254010,223964,195369,254208.44,223940.14,195443.28
254235,223925,195337,254204.22,223944.00,195444.31
254572,224091,195502,254200.19,223947.75,195444.81
254513,224001,195474,254198.63,223951.78,195445.38
253971,223933,195378,254198.67,223956.13,195446.13
254355,223940,195464,254198.75,223960.13,195446.67
254665,224103,195532,254199.81,223963.77,195447.27
254201,223879,195338,254203.19,223967.31,195447.92
254007,223829,195230,254207.59,223970.09,195447.88
254375,224051,195526,254211.48,223972.03,195446.95
254302,224095,195460,254215.53,223973.91,195446.09
254197,223904,195363,254220.06,223975.86,195445.39
254187,223889,195360,254224.28,223977.31,195444.38
254495,223972,195463,254228.31,223978.13,195442.94
254458,224000,195438,254233.19,223978.69,195441.36
254119,223837,195285,254238.59,223979.00,195439.59
254283,223843,195288,254243.41,223978.55,195437.19
254409,224043,195547,254247.81,223977.38,195434.44
254273,223915,195446,254252.34,223975.94,195432.19
254138,223852,195264,254256.47,223974.22,195430.13
254321,223913,195583,254259.81,223972.03,195427.63
254309,224039,195487,254262.88,223969.78,195424.92
254363,224008,195359,254266.00,223968.00,195422.50
254207,223831,195312,254269.13,223966.47,195420.06
254391,224047,195424,254270.53,223964.70,195417.41
254344,224056,195545,254269.30,223963.09,195415.11
254263,223973,195504,254267.20,223962.03,195413.75
254224,224008,195604,254265.41,223961.16,195413.03
254470,224056,195545,254264.03,223960.28,195412.61
254468,224013,195490,254263.88,223959.78,195412.78
254309,224025,195377,254264.94,223959.84,195413.38
254502,223947,195393,254266.38,223960.19,195413.89
254635,224168,195429,254268.34,223960.97,195414.22
254508,224104,195417,254271.84,223962.63,195414.53
253981,223994,195417,254276.39,223964.88,195414.84
254465,224057,195473,254281.06,223967.06,195415.22
254481,224110,195554,254286.14,223969.47,195415.97
254522,224060,195445,254292.09,223972.41,195417.50
254028,223974,195417,254298.06,223975.59,195419.63
254491,224027,195481,254303.09,223978.66,195421.86
254660,224110,195519,254308.38,223981.75,195424.22
253620,223946,195443,254314.72,223985.38,195426.78
254211,223906,195394,254320.91,223989.30,195429.20
254523,224064,195504,254326.39,223992.91,195431.39
254653,224042,195426,254332.34,223996.53,195433.75
254130,223877,195321,254338.75,224000.28,195436.19
254405,224017,195386,254344.31,224003.50,195438.06
254579,224095,195464,254349.50,224006.31,195439.36
254494,224023,195445,254355.38,224009.19,195440.50
254393,223974,195405,254361.70,224011.88,195441.50
254567,223959,195470,254368.11,224014.00,195442.33
254610,223986,195527,254375.09,224015.63,195443.09
254425,223939,195450,254382.75,224016.84,195443.83
254331,223952,195363,254390.11,224017.48,195444.36
254480,224018,195383,254396.61,224017.69,195444.44
254655,224106,195537,254403.00,224017.91,195444.28
254347,223942,195380,254409.61,224018.28,195444.28
254320,223902,195301,254415.50,224018.31,195443.94
254549,224165,195610,254419.28,224017.94,195443.06
254450,224070,195579,254420.56,224017.88,195442.38
254297,223945,195419,254420.64,224018.06,195442.31
254399,223934,195527,254420.25,224017.91,195442.36
254568,224172,195560,254419.89,224017.63,195442.47
254500,223990,195453,254420.22,224017.72,195442.97
254313,223974,195385,254420.88,224017.91,195443.53
254026,224003,195430,254420.73,224017.69,195443.83
254379,224101,195531,254419.41,224017.28,195444.08
254420,224034,195488,254417.63,224017.11,195444.66
254282,224018,195353,254415.75,224016.97,195445.30
254476,224125,195446,254413.72,224016.67,195445.52
254661,224163,195542,254412.34,224016.88,195445.67
254466,224105,195441,254412.25,224017.94,195446.16
254297,223996,195292,254411.50,224019.42,195446.45
254568,224129,195559,254408.53,224021.00,195446.34
254578,224216,195492,254405.47,224023.11,195446.45
253784,224023,195340,254403.63,224025.91,195446.91
254336,224028,195464,254402.02,224028.81,195447.42
254642,224028,195537,254400.72,224031.42,195448.09
254519,224153,195509,254400.56,224033.91,195449.09
254225,223966,195365,254401.00,224036.44,195450.09
254430,224073,195491,254401.00,224038.66,195450.78
254705,224168,195554,254401.33,224040.86,195451.59
254228,224030,195399,254402.97,224043.47,195452.64
254311,223947,195429,254405.19,224046.14,195453.53
254551,224086,195537,254407.22,224048.34,195454.27
254671,224051,195482,254409.86,224050.38,195455.38
254405,223918,195339,254413.39,224052.28,195456.75
254345,223905,195366,254416.83,224053.34,195457.56
254454,224000,195446,254419.64,224053.39,195457.72
254505,224103,195473,254422.38,224053.06,195457.67
254285,223937,195339,254425.13,224052.64,195457.45
254369,224019,195444,254427.19,224051.88,195456.83
254657,224191,195551,254428.97,224050.84,195456.11
254536,224001,195333,254431.47,224049.72,195455.44
254309,223924,195332,254434.23,224048.27,195454.25
254534,223965,195419,254436.59,224046.31,195452.47
254404,224033,195483,254437.88,224044.02,195450.63
254312,223974,195404,254437.13,224041.69,195448.97
254173,223924,195302,254434.63,224039.16,195447.14
253992,224168,195532,254430.31,224036.31,195444.77
254594,224143,195489,254424.56,224033.69,195442.22
254328,223981,195401,254419.05,224031.59,195439.94
254203,223946,195366,254413.77,224029.63,195437.59
254618,224110,195434,254408.53,224027.63,195434.94
254566,224072,195396,254404.61,224026.09,195432.25
254275,223923,195321,254401.88,224024.88,195429.55
254429,224104,195471,254398.19,224023.38,195426.78
254618,224099,195451,254392.88,224021.75,195424.34
254464,224146,195402,254388.05,224020.70,195422.34
254428,224015,195259,254384.56,224020.34,195420.34
254359,223994,195284,254381.72,224020.16,195417.86
254569,224004,195392,254379.58,224019.84,195414.92
254575,224010,195337,254378.69,224019.44,195411.88
254464,223919,195216,254378.86,224018.83,195408.50
254460,223981,195273,254379.25,224017.84,195404.44
254549,224083,195286,254380.09,224016.78,195399.81
254254,223837,195173,254381.75,224015.88,195394.86
254421,223796,195213,254383.88,224014.59,195389.52
254526,223929,195239,254386.31,224012.39,195383.69
254683,223955,195190,254389.59,224009.64,195377.47
254413,223818,195088,254393.84,224006.52,195370.78
254490,223813,195124,254398.38,224002.63,195363.19
254561,223881,195171,254403.05,223997.94,195354.78
254317,223913,195174,254408.13,223993.05,195345.91
254275,223815,195124,254413.09,223988.22,195336.75
254399,223889,195171,254417.17,223983.14,195327.25
254553,223967,195225,254420.69,223977.98,195317.88
254331,223830,195094,254424.06,223972.97,195308.81
254304,223762,195104,254426.72,223967.59,195299.63
254540,223906,195199,254428.66,223961.77,195290.22
254521,223924,195156,254429.59,223956.09,195281.00
254341,223791,195127,254428.59,223950.81,195271.98
254245,223750,195087,254426.11,223945.28,195262.94
254597,224022,195370,254423.42,223939.27,195253.98
254406,223925,195318,254421.31,223933.31,195245.78
254391,223673,195111,254419.69,223927.44,195238.48
254407,223698,195068,254418.09,223920.91,195231.42
254665,223953,195286,254416.97,223913.91,195224.47
254463,223833,195135,254416.84,223907.33,195218.09
254164,223670,194973,254416.81,223900.91,195211.86
254444,223958,195143,254415.28,223894.25,195205.11
254555,223905,195281,254412.42,223887.97,195198.44
254475,223880,195217,254409.88,223882.45,195192.69
254376,223806,195326,254408.06,223877.48,195187.83
254706,223949,195357,254407.03,223872.97,195183.88
254731,223833,195314,254407.72,223869.08,195181.25
254399,223775,195212,254410.06,223865.48,195179.80
253904,223752,195255,254412.06,223861.73,195179.00
254579,223928,195282,254412.91,223858.00,195178.84
254704,223934,195368,254414.17,223854.91,195179.55
254598,223814,195206,254417.00,223852.55,195181.22
254642,223892,195328,254421.09,223850.59,195183.59
254785,223951,195418,254426.50,223849.16,195186.80
254733,223939,195397,254433.53,223848.50,195191.13
254367,223922,195244,254441.36,223848.56,195196.19
254578,223902,195372,254448.81,223849.17,195201.53
254755,223925,195338,254456.28,223850.17,195207.22
254320,223900,195191,254464.63,223851.45,195213.28
254309,223854,195246,254473.03,223852.75,195219.44
254649,223926,195301,254480.55,223854.09,195225.38
254676,224060,195456,254487.84,223855.89,195231.34
254485,223849,195291,254495.28,223858.34,195237.69
254478,223849,195237,254502.09,223860.84,195243.89
254585,223914,195342,254508.14,223863.08,195249.59
254342,223970,195285,254513.28,223865.63,195255.23
254285,223812,195197,254516.69,223868.69,195260.78
254360,223847,195243,254518.14,223871.53,195265.69
254551,223971,195439,254518.47,223874.03,195269.88
254233,223913,195293,254518.06,223876.61,195273.75
254153,223750,195124,254516.06,223878.97,195277.05
254336,223812,195182,254512.13,223880.52,195279.27
254114,223822,195236,254507.23,223881.63,195280.50
254236,223913,195234,254501.94,223883.00,195281.16
254295,223818,195196,254495.84,223884.44,195281.34
254387,224107,195362,254489.03,223885.53,195281.03
254392,223966,195283,254482.13,223886.53,195280.53
254278,223752,195066,254475.16,223887.50,195279.66
254255,223845,195162,254467.73,223887.91,195277.88
254578,223969,195357,254459.78,223888.00,195275.66
254497,223909,195300,254451.92,223888.34,195273.81
254228,223802,195110,254444.50,223888.70,195272.16
254029,223915,195259,254436.72,223888.63,195269.78
254519,224057,195348,254428.61,223888.47,195266.83
254413,223918,195295,254421.28,223888.89,195264.22
254333,223851,195268,254414.78,223889.61,195261.95
254485,223976,195367,254408.88,223890.31,195259.75
254602,223939,195369,254404.16,223891.28,195258.16
254399,223784,195188,254400.86,223892.27,195257.23
254029,223686,195131,254397.88,223892.66,195256.14
254470,223821,195219,254394.53,223892.28,195254.53
254424,223715,195145,254391.45,223891.20,195252.56
254239,223643,195030,254388.73,223889.31,195250.14
254312,223732,195082,254385.70,223886.72,195247.06
254541,223887,195186,254382.78,223883.72,195243.44
254574,223974,195355,254380.98,223880.97,195239.92
254266,223729,195130,254380.19,223878.61,195236.94
254441,223835,195227,254379.55,223876.06,195234.13
254608,223926,195263,254379.41,223873.50,195231.47
254543,223820,195249,254380.53,223871.41,195229.47
254274,223783,195169,254382.34,223869.63,195228.13
254413,223844,195252,254383.89,223867.73,195227.00
254565,223869,195363,254385.50,223865.83,195226.25
254194,223838,195231,254387.19,223864.06,195226.13
254364,223770,195188,254388.13,223862.25,195226.22
254427,223882,195291,254388.52,223860.31,195226.28
253953,223966,195368,254388.20,223858.81,195226.75
254226,223770,195157,254386.20,223858.00,195227.59
254370,223811,195226,254383.08,223857.19,195228.30
254497,223911,195378,254380.19,223856.25,195229.00
254448,223941,195219,254378.19,223855.67,195230.09
254199,223714,195027,254376.55,223855.33,195230.84
254229,223701,195134,254374.31,223854.38,195230.56
254274,223975,195234,254371.42,223852.94,195229.63
254251,223779,195062,254368.27,223851.66,195228.31
254121,223728,195033,254364.55,223850.25,195226.20
254291,223992,195391,254360.03,223848.27,195223.03
254557,223981,195251,254355.72,223846.19,195219.34
254441,223834,195187,254352.69,223844.64,195215.86
254208,223784,195165,254350.44,223843.38,195212.66
254453,223924,195332,254346.84,223842.19,195209.81
254599,223983,195254,254341.42,223841.56,195207.73
254135,223861,195133,254335.97,223841.72,195206.17
254263,223916,195275,254330.47,223842.08,195204.48
254522,223949,195324,254324.80,223842.34,195202.83
254494,223917,195276,254320.41,223842.98,195201.81
254284,223843,195230,254317.48,223844.00,195201.38
254626,223922,195243,254315.66,223845.19,195201.16
254634,223939,195284,254315.70,223846.67,195201.22
254426,223903,195283,254317.69,223848.56,195201.81
254222,223855,195215,254320.09,223850.48,195202.80
254530,223962,195301,254322.22,223852.28,195204.05
254593,223892,195299,254325.03,223854.22,195205.69
254418,223792,195321,254329.06,223856.36,195207.91
254325,223806,195186,254333.41,223858.38,195210.41
254489,223881,195333,254337.66,223860.06,195213.00
254667,223948,195404,254342.53,223861.70,195216.00
254142,223801,195212,254348.19,223863.64,195219.56
254272,223754,195236,254353.39,223865.59,195223.03
254398,223848,195342,254357.64,223867.00,195226.34
254565,223862,195288,254361.78,223867.94,195229.77
254192,223748,195168,254365.94,223868.47,195232.98
254443,223808,195257,254369.47,223868.34,195235.69
254599,223826,195287,254372.97,223867.75,195238.11
254356,223774,195225,254376.97,223866.77,195240.44
254345,223829,195191,254380.78,223865.41,195242.44
254393,223822,195141,254384.00,223863.84,195243.78
254185,223950,195248,254385.97,223862.50,195244.56
254160,223888,195188,254385.67,223861.84,195245.06
254151,223760,195097,254383.31,223861.44,195245.09
254394,223842,195371,254380.00,223860.72,195244.38
254399,223971,195295,254376.73,223860.03,195243.44
254219,223877,195247,254373.67,223859.83,195242.72
254177,223788,195273,254370.09,223859.78,195242.25
254481,223972,195433,254365.05,223859.50,195242.33
254497,223958,195350,254358.69,223859.25,195243.34
254151,223751,195172,254352.30,223859.20,195244.83
254304,223956,195309,254346.09,223858.88,195246.06
254346,223870,195305,254340.11,223858.34,195247.14
254440,223875,195272,254334.97,223857.88,195248.34
254152,223818,195148,254330.47,223857.48,195249.41
254472,223926,195280,254325.72,223857.16,195250.08
254446,224037,195400,254320.69,223857.38,195250.88
254412,224011,195343,254316.55,223858.63,195252.34
254220,223903,195229,254313.58,223860.61,195254.25
254439,223899,195300,254311.61,223862.69,195256.19
254450,224013,195247,254310.70,223864.91,195258.05
254374,223917,195220,254310.77,223867.56,195259.66
254466,223883,195212,254311.59,223870.38,195260.83
254619,224023,195441,254313.56,223873.28,195261.94
254587,224014,195368,254317.19,223876.66,195263.67
254124,223881,195307,254321.78,223880.44,195266.00
254343,223952,195284,254326.13,223884.23,195268.41
254531,224024,195304,254330.25,223888.11,195270.75
254531,223993,195232,254335.03,223892.34,195273.00
254239,223836,195173,254340.16,223896.59,195274.95
254416,223960,195227,254344.78,223900.41,195276.27
254579,224017,195298,254349.38,223904.06,195277.09
254135,223814,195297,254353.41,223908.03,195277.86
254290,223911,195247,254355.34,223912.08,195278.58
254551,224047,195389,254356.19,223916.09,195279.33
254615,224069,195268,254357.98,223920.44,195280.56
254220,223885,195175,254360.63,223925.13,195282.09
254337,223954,195263,254362.86,223929.53,195283.25
254543,224071,195351,254364.81,223933.69,195284.13
254427,223991,195251,254367.56,223938.00,195285.05
254163,223917,195216,254370.81,223942.20,195285.72
254455,223969,195208,254373.50,223945.97,195285.88
254325,224118,195324,254375.97,223949.59,195285.56
254258,224042,195297,254378.47,223953.59,195285.19
254141,223834,195232,254379.98,223957.47,195284.78
254386,223938,195302,254380.23,223960.58,195284.16
254033,223974,195220,254379.41,223963.03,195283.28
254062,223929,195163,254376.88,223965.13,195281.97
254130,223905,195138,254372.38,223966.75,195279.98
253948,224161,195417,254366.83,223967.81,195277.75
254368,224098,195259,254361.25,223968.77,195276.02
254280,223917,195154,254356.09,223969.91,195274.44
254150,223948,195275,254350.91,223970.78,195272.41
254413,224057,195319,254345.59,223971.23,195270.08
254328,224002,195247,254340.75,223971.84,195267.97
254092,223844,195043,254336.11,223972.39,195265.72
254380,224048,195308,254330.59,223972.61,195262.97
254574,224194,195444,254324.72,223973.25,195260.66
254256,224005,195325,254319.81,223974.81,195259.47
254097,224017,195283,254315.38,223976.78,195258.91
254424,224041,195307,254310.92,223978.78,195258.45
254411,224074,195292,254307.27,223981.00,195258.22
254337,223993,195283,254304.69,223983.44,195258.25
254249,224045,195231,254302.63,223985.88,195258.38
254568,224096,195368,254301.16,223988.48,195258.64
254616,224160,195473,254301.33,223991.59,195259.59
254146,224050,195291,254302.09,223995.47,195261.45
254345,223983,195269,254301.36,223999.83,195263.53
254428,224102,195349,254300.06,224004.13,195265.56
254596,224147,195285,254300.03,224008.50,195267.95
254125,223947,195217,254301.00,224012.91,195270.75
254369,223948,195172,254301.86,224016.70,195273.13
254389,224033,195297,254302.72,224019.69,195274.81
253876,223933,195169,254303.72,224022.47,195276.00
253975,223997,195148,254303.81,224025.38,195276.45
254219,224062,195260,254302.34,224028.11,195276.16
254345,224201,195298,254300.22,224030.66,195275.58
254170,224057,195249,254298.16,224033.09,195274.95
254238,224022,195278,254295.81,224035.38,195274.28
254444,224110,195423,254293.59,224037.52,195273.94
254244,224129,195376,254291.41,224039.81,195274.38
254073,223965,195177,254288.06,224042.14,195275.22
254109,223930,195275,254283.34,224043.88,195275.80
253708,224122,195312,254278.22,224044.88,195276.06
254168,224053,195280,254273.31,224045.56,195276.13
254071,223959,195253,254268.31,224046.06,195276.09
254259,224086,195472,254262.97,224046.28,195276.09
254430,224204,195346,254258.19,224046.73,195276.41
254292,224196,195361,254254.69,224048.06,195277.22
253962,224005,195287,254251.50,224049.97,195278.34
254252,224211,195429,254247.53,224051.88,195279.81
254355,224271,195444,254243.41,224054.09,195281.97
254082,224081,195295,254239.72,224057.00,195284.75
254023,224036,195384,254235.69,224059.97,195287.47
254320,224143,195436,254231.25,224062.63,195290.00
254273,224121,195410,254227.34,224065.28,195292.91
254167,224053,195379,254224.11,224067.97,195296.30
254234,224055,195360,254220.97,224070.34,195299.94
254386,224232,195422,254218.03,224072.67,195303.73
254439,224146,195455,254216.31,224075.41,195307.91
253947,224122,195424,254215.41,224078.09,195312.16
254356,224123,195476,254214.31,224080.16,195316.13
254430,224246,195516,254213.78,224082.16,195320.38
254210,224128,195446,254214.34,224084.69,195325.38
254041,224050,195382,254214.03,224087.31,195330.66
254436,224156,195503,254211.81,224089.69,195336.06
254585,224188,195520,254210.22,224092.16,195341.84
253512,224142,195461,254209.50,224094.91,195348.19
253937,224091,195477,254206.94,224097.72,195354.88
254309,224180,195494,254202.81,224100.44,195361.75
254372,224196,195426,254199.39,224103.28,195368.89
254024,223958,195368,254196.86,224106.00,195376.19
254194,223996,195413,254194.31,224107.81,195383.05
254291,224142,195548,254191.94,224108.81,195389.47
253994,224128,195540,254189.28,224109.70,195396.03
254034,224004,195462,254184.97,224110.53,195402.77
254207,224069,195533,254179.72,224110.88,195409.41
254419,224199,195640,254175.34,224111.00,195416.13
254012,224020,195441,254172.16,224111.22,195422.92
254091,224006,195441,254169.05,224111.06,195429.28
254184,224162,195491,254165.77,224110.47,195435.09
254330,224196,195522,254162.95,224110.09,195440.58
254094,224107,195414,254160.72,224110.16,195445.78
254085,224089,195421,254158.53,224110.33,195450.33
254410,224199,195626,254156.67,224110.44,195454.33
254369,224174,195587,254156.25,224110.73,195458.31
254147,224045,195397,254157.13,224111.16,195462.34
254049,224066,195648,254158.05,224111.31,195465.72
254429,224271,195647,254158.94,224111.47,195468.53
254427,224210,195578,254161.00,224112.28,195471.72
254159,224070,195503,254164.28,224113.59,195475.28
254294,224209,195623,254167.84,224114.75,195478.97
254491,224233,195605,254171.94,224115.88,195483.03
254359,224110,195529,254177.23,224117.27,195487.41
254149,224037,195537,254183.09,224118.53,195491.53
254085,224130,195534,254188.30,224119.34,195495.13
254398,224226,195540,254192.83,224120.14,195498.42
254118,224093,195461,254197.23,224121.22,195501.47
254128,224158,195510,254199.91,224122.28,195504.11
254234,224154,195644,254199.53,224123.31,195506.63
254410,224182,195655,254198.41,224124.48,195509.66
254190,224111,195549,254198.22,224125.61,195513.16
254210,224159,195548,254198.45,224126.42,195516.70
254436,224231,195573,254199.11,224127.27,195520.11
254419,224255,195615,254200.98,224128.69,195523.53
254091,223988,195362,254203.83,224130.31,195526.69
254329,224106,195541,254206.88,224131.44,195529.06
254360,224196,195607,254210.23,224132.19,195531.06
253996,224129,195399,254214.13,224133.11,195533.06
254118,224052,195401,254217.97,224134.06,195534.69
254296,224252,195511,254221.30,224134.88,195535.55
254381,224240,195551,254224.63,224136.06,195536.25
253921,224134,195448,254227.69,224137.72,195537.17
254155,224119,195414,254229.44,224139.31,195537.72
254368,224229,195595,254230.39,224140.78,195537.69
253690,224205,195652,254231.69,224142.69,195537.84
253984,224128,195585,254232.84,224145.13,195538.59
254267,224197,195579,254233.13,224147.61,195539.72
254488,224241,195624,254233.48,224150.16,195541.13
254282,224175,195553,254234.89,224152.89,195542.81
254146,224084,195546,254236.59,224155.47,195544.52
254414,224160,195516,254238.19,224157.52,195546.00
254524,224242,195601,254240.53,224159.34,195547.28
254217,224011,195464,254243.78,224161.00,195548.41
254153,224086,195472,254246.86,224161.94,195549.06
254547,224240,195626,254249.47,224162.22,195549.13
254481,224237,195658,254252.59,224162.50,195549.09
254229,224075,195531,254256.44,224162.88,195549.38
254103,224052,195526,254259.84,224162.81,195549.69
254611,224278,195616,254262.86,224162.41,195549.97
254425,224191,195572,254266.81,224162.33,195550.47
254275,224083,195438,254271.50,224162.44,195550.88
254165,224259,195599,254274.66,224162.36,195550.80
254495,224253,195610,254275.31,224162.47,195550.45
254398,224229,195528,254275.63,224163.06,195550.25
254129,224101,195573,254276.48,224163.91,195549.88
254143,224245,195571,254276.67,224164.66,195549.13
254311,224304,195645,254276.13,224165.78,195548.53
254289,224160,195510,254275.56,224167.38,195548.31
253833,224184,195533,254274.81,224168.94,195548.16
254467,224287,195608,254273.83,224170.28,195548.00
254590,224350,195718,254273.88,224172.16,195548.34
254091,224126,195458,254275.09,224174.59,195549.41
254219,224087,195407,254275.97,224176.78,195550.42
254357,224236,195508,254276.34,224178.44,195550.72
254368,224231,195599,254277.03,224180.05,195550.66
253927,224095,195426,254276.69,224181.59,195550.45
254245,224181,195516,254273.64,224182.75,195549.88
254403,224247,195646,254269.66,224183.72,195549.17
253507,224197,195490,254266.75,224184.94,195548.84
254126,224207,195488,254264.58,224186.44,195548.59
254407,224219,195553,254262.59,224188.05,195548.16
254629,224372,195679,254261.81,224189.94,195547.94
254186,224271,195470,254262.59,224192.48,195548.06
254222,224213,195424,254263.59,224195.38,195547.91
254504,224199,195587,254264.64,224198.16,195547.25
254398,224351,195540,254266.84,224200.97,195546.56
254131,224096,195429,254269.97,224203.91,195545.80
254244,224194,195519,254272.63,224206.41,195544.63
254316,224379,195729,254274.69,224208.55,195543.39
254461,224264,195673,254276.94,224210.81,195542.70
254114,224102,195434,254279.39,224213.00,195542.47
254185,224128,195524,254281.09,224214.42,195542.06
254398,224299,195602,254281.94,224215.33,195541.56
254271,224158,195443,254282.44,224216.16,195541.11
254068,224137,195338,254282.47,224216.69,195540.09
254168,224392,195670,254281.47,224216.75,195538.14
254504,224210,195562,254280.19,224216.67,195535.81
254371,224213,195478,254279.83,224216.56,195533.59
254197,224201,195471,254280.09,224216.44,195531.38
254236,224388,195627,254278.98,224216.56,195529.27
254532,224420,195514,254275.92,224217.63,195527.63
254276,224275,195513,254272.97,224219.75,195526.28
253681,224348,195581,254269.89,224222.33,195524.97
254378,224375,195661,254265.47,224225.25,195523.94
254369,224376,195590,254261.25,224228.78,195523.61
254232,224198,195529,254258.06,224232.66,195523.66
254449,224321,195639,254255.69,224236.38,195523.77
254581,224320,195675,254254.88,224240.03,195524.41
254261,224272,195579,254255.72,224243.78,195525.84
254043,224249,195576,254255.97,224247.30,195527.69
254487,224265,195631,254254.41,224250.41,195529.75
254429,224321,195575,254253.11,224253.30,195532.13
254335,224256,195547,254253.17,224256.39,195534.81
254155,224248,195519,254253.67,224259.78,195537.75
254560,224408,195711,254254.44,224263.27,195540.86
254545,224461,195678,254256.59,224267.22,195544.42
254201,224218,195479,254260.19,224271.56,195548.23
254057,224214,195515,254263.69,224275.47,195551.53
254426,224366,195613,254266.36,224278.73,195554.28
254308,224401,195529,254269.63,224282.05,195557.03
254190,224246,195510,254274.06,224285.50,195559.78
254114,224299,195562,254278.06,224288.66,195562.22
254579,224361,195765,254281.38,224291.52,195564.41
254473,224219,195602,254285.44,224294.19,195566.72
254359,224154,195486,254290.38,224296.13,195568.88
254511,224265,195559,254295.72,224297.14,195570.53
254648,224341,195702,254301.94,224297.66,195572.02
254581,224228,195561,254309.50,224297.98,195573.77
254484,224157,195465,254318.03,224297.78,195575.28
254747,224222,195704,254327.44,224296.81,195576.03
254859,224254,195632,254338.53,224295.36,195576.19
254561,224042,195426,254351.39,224293.31,195576.06
254693,224053,195389,254365.06,224290.09,195575.16
254745,224170,195505,254378.42,224285.72,195573.30
254754,224061,195400,254390.88,224280.63,195570.75
254390,223917,195203,254402.88,224274.44,195567.06
254407,224256,195498,254414.09,224266.72,195561.56
254578,224123,195419,254424.19,224257.84,195554.59
254535,224093,195340,254433.88,224248.69,195546.94
254326,224039,195333,254442.84,224239.41,195538.81
254735,224124,195433,254450.31,224230.03,195530.33
254723,224169,195459,254456.81,224220.88,195522.00
254512,224101,195358,254463.41,224212.22,195513.94
254378,224165,195375,254469.34,224204.00,195505.73
254527,224161,195358,254473.66,224196.38,195497.09
254826,224207,195425,254477.75,224189.45,195488.42
254527,224118,195252,254482.81,224183.25,195480.14
254450,224122,195328,254488.00,224177.47,195472.19
254792,224313,195495,254493.09,224172.30,195464.56
254701,224246,195404,254498.97,224168.28,195457.56
253673,224092,195320,254504.94,224165.19,195451.03
254423,224164,195407,254509.38,224162.44,195444.61
254651,224264,195377,254512.72,224160.13,195438.47
254529,224130,195263,254516.03,224158.53,195432.59
254341,224036,195266,254518.92,224157.25,195426.75
254539,224118,195363,254520.88,224155.67,195420.75
254632,224244,195481,254522.55,224154.08,195415.08
254272,224120,195253,254524.31,224152.88,195409.91
254463,224077,195388,254525.69,224151.72,195404.88
254584,224163,195464,254526.63,224150.41,195400.19
254353,224218,195393,254527.66,224149.42,195396.45
254108,224082,195187,254528.13,224149.03,195393.27
254364,224127,195269,254526.78,224148.69,195389.66
254633,224254,195438,254524.45,224148.38,195385.75
254405,224180,195439,254522.28,224148.52,195382.38
254185,224133,195370,254519.50,224148.92,195379.69
254331,224142,195342,254515.28,224149.28,195377.31
254279,224309,195527,254509.38,224149.80,195375.28
254319,224255,195394,254501.66,224150.97,195373.88
254086,224169,195324,254492.55,224152.72,195372.83
254254,224240,195564,254482.25,224154.64,195371.80
254343,224292,195516,254471.34,224156.94,195371.16
254135,224243,195357,254460.25,224159.78,195371.13
254150,224041,195238,254448.47,224162.59,195371.06
254201,224388,195505,254435.81,224164.95,195370.73
254358,224356,195531,254422.84,224167.41,195371.00
254117,224145,195339,254410.05,224170.36,195371.97
254114,224406,195506,254397.03,224173.25,195373.09
254526,224496,195525,254384.25,224176.41,195374.47
254449,224417,195558,254373.09,224180.81,195376.66
254188,224296,195461,254363.47,224186.36,195379.69
254369,224331,195453,254353.50,224192.34,195383.09
254566,224438,195492,254342.84,224198.78,195386.72
254413,224352,195479,254333.44,224205.84,195390.61
253521,224273,195503,254325.06,224213.13,195394.47
254388,224409,195631,254316.38,224220.36,195398.25
254546,224417,195605,254308.61,224227.86,195402.73
254348,224390,195430,254302.84,224235.80,195408.03
254178,224274,195456,254298.16,224243.78,195413.50
254549,224449,195538,254294.11,224251.56,195418.91
254561,224527,195634,254291.75,224259.72,195424.56
254052,224346,195426,254291.19,224268.28,195430.53
254340,224344,195420,254291.41,224276.53,195436.13
254424,224391,195538,254292.09,224284.28,195441.19
254302,224433,195533,254293.28,224291.98,195446.13
254069,224359,195429,254294.17,224299.78,195450.89
254336,224373,195489,254294.22,224307.34,195455.22
254441,224411,195587,254294.28,224314.53,195459.34
254275,224330,195434,254295.06,224321.38,195463.47
254238,224260,195405,254296.14,224327.50,195467.13
254464,224430,195511,254297.28,224332.83,195470.13
254378,224428,195570,254298.94,224337.94,195472.89
254243,224290,195393,254300.91,224342.84,195475.38
254156,224309,195487,254302.30,224347.06,195477.34
254325,224429,195521,254302.92,224350.72,195479.06
254164,224459,195598,254302.34,224354.34,195480.94
254150,224365,195456,254299.67,224358.06,195483.06
254290,224407,195544,254295.81,224361.67,195485.16
253764,224551,195602,254291.48,224365.22,195487.41
254186,224434,195550,254286.22,224368.94,195490.09
254150,224334,195456,254280.34,224372.56,195492.88
254239,224509,195578,254274.42,224376.00,195495.33
254391,224552,195538,254269.06,224379.75,195497.56
254183,224379,195503,254264.56,224383.94,195499.72
254139,224320,195487,254260.28,224387.81,195501.66
254355,224580,195630,254255.50,224391.03,195503.56
254463,224461,195578,254250.63,224394.06,195505.83
254272,224337,195441,254246.72,224396.92,195508.19
254128,224423,195500,254243.53,224399.25,195510.13
254341,224455,195483,254240.53,224401.03,195511.56
254421,224500,195589,254238.38,224402.84,195512.83
254135,224340,195407,254237.16,224404.78,195513.98
254406,224470,195577,254235.31,224406.56,195514.88
254427,224579,195721,254232.38,224408.53,195516.06
254351,224505,195595,254230.00,224411.19,195518.11
254146,224379,195481,254228.66,224414.16,195520.44
254326,224469,195646,254227.78,224416.92,195522.58
254556,224502,195668,254227.91,224419.66,195525.06
254280,224502,195422,254229.50,224422.63,195528.19
254115,224270,195333,254231.47,224425.38,195531.27
254459,224441,195585,254233.28,224427.44,195533.56
254540,224510,195699,254236.06,224429.16,195535.72
254220,224433,195602,254240.19,224431.03,195538.42
254381,224508,195575,254244.97,224433.06,195541.41
254572,224466,195686,254250.44,224435.23,195544.55
254570,224542,195678,254257.25,224437.59,195548.13
254167,224396,195488,254264.84,224440.03,195551.88
254280,224454,195528,254271.75,224442.22,195555.13
254563,224593,195646,254278.25,224444.41,195557.94
254180,224437,195563,254284.22,224447.47,195560.72
254177,224436,195453,254288.19,224451.55,195563.13
254495,224513,195522,254290.84,224455.78,195564.78
254631,224681,195786,254294.34,224459.89,195566.13
254153,224451,195572,254298.78,224463.97,195567.67
254251,224463,195585,254302.67,224467.72,195569.33
254357,224492,195648,254305.75,224471.00,195570.98
254477,224610,195643,254308.69,224474.25,195572.88
254266,224543,195617,254311.53,224477.75,195575.03
254216,224436,195526,254313.83,224481.25,195577.09
254460,224858,195745,254315.06,224484.69,195578.97
254310,224641,195696,254315.28,224488.69,195581.00
254167,224457,195404,254314.83,224493.11,195583.06
254209,224484,195730,254313.69,224497.13,195584.27
254561,224629,195725,254312.48,224500.80,195585.00
254231,224618,195621,254312.00,224504.69,195586.06
254229,224536,195644,254311.56,224508.83,195587.52
253731,224624,195726,254309.78,224512.86,195589.31
254451,224647,195714,254306.41,224516.84,195591.72
254317,224590,195621,254303.03,224521.03,195594.61
254284,224604,195648,254300.34,224525.20,195597.31
254548,224715,195750,254298.38,224529.34,195599.72
254573,224716,195717,254298.05,224534.00,195602.44
254408,224535,195615,254299.41,224539.09,195605.56
253997,224509,195676,254301.09,224543.86,195608.69
254387,224569,195681,254302.11,224547.97,195611.81
254462,224595,195651,254303.22,224551.69,195615.03
254022,224499,195653,254304.91,224555.16,195618.19
254314,224659,195712,254306.69,224558.41,195621.30
254549,224683,195784,254308.69,224561.84,195624.72
254544,224706,195708,254311.78,224565.75,195628.75
254217,224503,195598,254315.63,224569.81,195632.98
254416,224506,195611,254319.25,224573.31,195636.80
254540,224591,195733,254323.03,224576.03,195640.17
254050,224504,195652,254326.69,224578.48,195643.53
254296,224519,195547,254328.94,224580.78,195646.69
254547,224651,195691,254330.56,224582.83,195649.28
254454,224639,195815,254332.95,224584.88,195651.59
254036,224492,195600,254335.36,224586.83,195653.72
254174,224406,195512,254336.31,224587.97,195655.19
254488,224611,195743,254336.28,224588.19,195656.00
254141,224658,195694,254336.47,224588.44,195656.88
254098,224527,195636,254336.34,224589.25,195657.88
254325,224510,195721,254335.31,224589.88,195658.88
254553,224783,195768,254334.31,224590.06,195660.22
254261,224545,195604,254334.09,224590.00,195661.95
254279,224508,195601,254333.92,224589.64,195663.45
254318,224533,195631,254333.41,224588.84,195664.38
254501,224694,195835,254333.09,224587.98,195665.28
254305,224537,195678,254333.31,224587.41,195666.66
254357,224548,195631,254333.75,224586.84,195668.17
254082,224673,195772,254334.13,224586.08,195669.47
254309,224646,195804,254334.38,224585.34,195671.00
254122,224520,195575,254334.09,224584.75,195672.75
254221,224505,195822,254332.81,224583.97,195674.02
254488,224711,195844,254331.16,224583.09,195674.97
254546,224791,195833,254330.48,224583.03,195676.56
254263,224591,195675,254330.84,224584.00,195678.86
254248,224727,195784,254330.84,224585.16,195681.34
254437,224673,195767,254330.06,224586.17,195684.06
254375,224670,195783,254329.41,224587.44,195687.13
254267,224608,195765,254329.08,224588.91,195690.25
254478,224701,195729,254328.91,224590.34,195693.13
254565,224799,195858,254329.63,224592.28,195696.02
254528,224674,195806,254331.77,224595.09,195699.41
254153,224602,195725,254334.50,224598.28,195703.14
254641,224756,195834,254337.22,224601.50,195706.94
254743,224722,195872,254341.16,224605.16,195711.09
254538,224612,195790,254347.03,224609.25,195715.75
254273,224634,195693,254353.50,224613.44,195720.38
254561,224775,195769,254359.63,224617.64,195724.63
254645,224809,195897,254366.16,224622.31,195728.78
254017,224590,195635,254371.92,224627.34,195732.94
254266,224685,195782,254374.58,224632.09,195736.67
254543,224769,195865,254375.44,224636.64,195740.19
253613,224805,195802,254375.81,224641.44,195744.03
254046,224492,195635,254374.23,224646.06,195747.86
254411,224675,195769,254370.91,224649.80,195751.06
254545,224757,195844,254367.84,224653.09,195753.92
254325,224668,195735,254365.78,224656.47,195756.75
254294,224637,195782,254364.02,224659.63,195759.36
254498,224699,195885,254362.38,224662.42,195761.94
254397,224699,195886,254361.47,224665.19,195764.94
254338,224602,195680,254361.23,224668.00,195768.08
254415,224576,195724,254361.22,224670.25,195770.66
254500,224789,195875,254361.63,224671.80,195772.59
254385,224707,195764,254362.63,224673.09,195774.19
254242,224614,195697,254363.59,224674.28,195775.38
254379,224656,195738,254364.09,224675.16,195776.06
254534,224795,195934,254364.00,224675.94,195776.66
254466,224665,195784,254363.38,224677.02,195777.72
254128,224621,195660,254362.41,224678.03,195778.72
254296,224709,196000,254361.09,224678.70,195779.34
254559,224775,195849,254360.25,224679.34,195780.08
254305,224568,195664,254360.34,224680.06,195780.89
254120,224565,195682,254360.16,224680.25,195781.06
254529,224745,195759,254359.30,224679.89,195780.48
254627,224718,195816,254359.22,224679.69,195779.72
254252,224605,195653,254360.23,224679.63,195778.91
254322,224774,195687,254360.83,224679.19,195777.64
254592,224783,195833,254360.80,224678.47,195776.06
254376,224813,195787,254361.23,224678.28,195774.75
254136,224692,195689,254361.69,224678.69,195773.66
254391,224668,195750,254361.33,224679.06,195772.47
254458,224815,195896,254360.88,224679.50,195771.52
254380,224701,195840,254360.94,224680.38,195771.22
254283,224692,195728,254360.59,224681.56,195771.34
254456,224702,195767,254359.28,224682.78,195771.44
254397,224732,195839,254357.94,224684.11,195771.53
254382,224811,195744,254357.09,224685.38,195771.80
254265,224649,195771,254356.38,224686.25,195772.03
254432,224756,195840,254355.56,224686.89,195772.28
254533,224843,195890,254355.28,224687.94,195772.97
254135,224710,195689,254355.50,224689.58,195773.97
254351,224674,195729,254355.28,224691.34,195774.66
254608,224804,195849,254355.20,224693.09,195775.09
254146,224859,195789,254355.63,224695.34,195775.83
254124,224688,195656,254355.22,224698.17,195776.72
254254,224740,195748,254353.41,224701.03,195777.19
254512,224835,195943,254351.31,224703.91,195777.59
254387,224716,195832,254349.97,224707.03,195778.63
254265,224727,195754,254349.03,224710.09,195780.00
254275,224773,195775,254347.84,224712.97,195781.20
254294,224868,195943,254345.47,224716.05,195782.48
254375,224732,195843,254341.41,224719.50,195784.30
254209,224742,195829,254336.80,224722.91,195786.48
254399,224972,196017,254332.44,224726.25,195788.83
254405,224902,195870,254328.72,224730.02,195791.44
254216,224718,195795,254325.66,224734.19,195794.20
254163,224704,195831,254322.39,224738.08,195796.84
254601,224854,195956,254318.98,224741.55,195799.59
254426,224778,195852,254316.41,224745.03,195802.75
254301,224682,195781,254314.75,224748.31,195805.97
254404,224815,195889,254313.33,224750.94,195808.80
254577,224983,196021,254312.31,224753.41,195811.64
254294,224789,195888,254312.23,224756.41,195815.06
254168,224690,195920,254312.31,224759.47,195818.66
254418,224887,196035,254312.03,224762.22,195822.19
254457,224825,195989,254312.17,224765.09,195826.33
254414,224804,195853,254313.19,224768.13,195831.00
254289,224766,195983,254314.70,224771.19,195835.56
254491,224903,196038,254316.45,224774.39,195840.06
254618,224966,196017,254319.16,224778.16,195845.13
254475,224846,195885,254323.22,224782.53,195850.66
254391,224835,195868,254328.02,224787.05,195856.00
254521,224872,195939,254333.11,224791.47,195860.97
254468,224875,195886,254338.66,224795.91,195865.69
254218,224854,195796,254343.50,224800.34,195869.94
254266,224866,195817,254346.19,224804.66,195873.34
254696,224897,195935,254348.05,224808.94,195876.13
254498,224889,195902,254351.08,224813.31,195878.84
254171,224731,195758,254354.59,224817.50,195881.50
254555,224749,195904,254357.66,224820.89,195883.63
254653,224889,195929,254361.28,224823.59,195885.41
254381,224845,195897,254366.05,224826.11,195887.22
254276,224707,195844,254370.88,224828.30,195888.84
254558,224827,195949,254375.28,224829.81,195890.23
254280,224917,195962,254380.06,224831.09,195891.69
254345,224786,195827,254385.38,224832.44,195893.09
254483,224762,195863,254390.50,224833.47,195894.13
254706,224869,195973,254395.88,224834.11,195894.81
254241,224904,195862,254401.63,224834.80,195895.31
254240,224667,195777,254406.38,224835.41,195895.41
254388,224772,195751,254409.63,224835.34,195894.75
254312,224934,196063,254412.34,224834.88,195893.73
254343,224791,195898,254415.03,224834.53,195893.20
254339,224769,195821,254417.25,224834.08,195892.94
254502,224913,196018,254418.92,224833.38,195892.47
254611,224965,195981,254420.92,224832.92,195892.09
254397,224786,195815,254423.48,224832.91,195891.97
254292,224723,195770,254425.75,224832.78,195891.53
254581,224905,195905,254426.83,224832.31,195890.56
254542,224910,195912,254426.94,224832.09,195889.59
254301,224781,195751,254426.81,224832.23,195888.58
254249,224800,195895,254426.13,224832.02,195886.95
254476,224898,195926,254424.72,224831.25,195884.78
254474,224793,195921,254423.47,224830.45,195882.81
254132,224804,195814,254422.08,224829.69,195881.17
254536,224870,195917,254419.06,224828.91,195879.59
254691,225015,196076,254414.67,224828.69,195878.59
254529,224934,195909,254411.19,224829.44,195878.56
253782,224891,195902,254407.67,224830.81,195878.94
254338,224862,195975,254401.88,224832.28,195879.42
254531,224921,195938,254395.36,224833.84,195880.23
254293,224851,195835,254389.81,224835.63,195881.28
254370,224826,195934,254384.80,224837.38,195882.31
254502,224936,196024,254380.36,224839.09,195883.63
254504,224926,196025,254377.09,224841.11,195885.66
254010,224866,195886,254374.78,224843.56,195888.19
254380,224857,195868,254372.77,224846.25,195890.66
254584,225022,195983,254371.28,224849.19,195892.91
254466,224842,195919,254370.95,224852.66,195895.22
254225,224795,195788,254371.13,224856.38,195897.33
254346,224860,195890,254370.89,224859.67,195898.81
254676,225054,196053,254370.88,224862.81,195900.16
254163,224866,195911,254371.14,224866.30,195901.91
254167,224858,195934,254369.97,224869.69,195903.83
254270,224940,195905,254367.22,224872.78,195905.66
254000,225024,196019,254364.30,224875.92,195907.38
254228,224929,195862,254361.75,224879.31,195908.98
254134,224757,195836,254358.84,224882.47,195910.17
254385,224886,196018,254355.25,224884.88,195910.77
254604,224819,195914,254352.25,224886.66,195911.00
254464,224715,195788,254350.78,224887.66,195910.88
254412,224737,195786,254350.50,224887.50,195910.11
254566,224883,195913,254351.09,224886.47,195908.75
254615,224825,195901,254353.03,224885.13,195907.34
254616,224723,195760,254356.59,224883.41,195905.80
254566,224836,195965,254361.56,224880.91,195903.73
254703,224832,195899,254367.77,224877.73,195901.31
254394,224674,195709,254374.88,224874.13,195898.67
254304,224761,195687,254381.72,224869.91,195895.25
254669,224796,195894,254387.69,224865.31,195891.13
254604,224837,195930,254393.59,224860.75,195887.19
254275,224772,195780,254399.55,224856.36,195883.69
254262,224781,195799,254404.47,224851.81,195880.06
254595,224920,195919,254408.41,224847.13,195876.25
254553,224845,195853,254412.56,224842.94,195872.75
254354,224635,195662,254416.97,224839.03,195869.28
254186,224754,195781,254419.47,224834.67,195865.28
254432,224709,195809,254418.75,224829.94,195860.97
254411,224682,195772,254416.75,224824.92,195856.67
253858,224718,195708,254413.69,224819.59,195852.22
254401,224836,195858,254408.38,224814.41,195847.63
254574,224943,195945,254402.69,224810.03,195843.53
254471,224786,195712,254398.41,224806.63,195840.20
254385,224655,195762,254395.19,224803.53,195837.11
254548,224758,195850,254392.72,224800.13,195834.03
254631,224762,195906,254391.53,224796.66,195831.38
254147,224658,195687,254390.80,224793.31,195829.08
254376,224618,195724,254388.91,224789.84,195826.47
254608,224728,195794,254386.75,224785.98,195823.47
254606,224701,195759,254386.03,224781.98,195820.56
254202,224552,195630,254386.28,224777.80,195817.66
254510,224696,195718,254386.44,224773.06,195814.25
254764,224728,195755,254387.39,224768.11,195810.44
254634,224615,195677,254390.47,224763.19,195806.45
254391,224535,195575,254395.16,224757.81,195801.94
254610,224548,195701,254400.28,224751.61,195796.72
254772,224723,195797,254406.38,224744.69,195791.27
254505,224542,195590,254413.91,224737.22,195785.78
254481,224431,195506,254421.81,224729.06,195779.64
254668,224560,195797,254429.61,224720.13,195772.58
254728,224632,195720,254438.00,224710.94,195765.19
254501,224629,195708,254447.00,224702.13,195758.11
254455,224546,195590,254455.69,224693.66,195751.31
254620,224722,195874,254463.53,224685.59,195744.84
254548,224672,195775,254470.81,224678.34,195739.39
254238,224568,195573,254477.20,224671.81,195734.64
254321,224538,195713,254481.81,224665.42,195729.63
254370,224723,195706,254484.66,224659.25,195724.25
254385,224653,195626,254486.25,224653.78,195718.98
254329,224611,195549,254486.81,224649.03,195713.66
254540,224688,195742,254485.19,224644.70,195708.23
254524,224699,195678,254480.91,224641.00,195703.22
254441,224672,195672,254475.89,224638.06,195698.72
254276,224704,195641,254471.06,224635.47,195694.41
254602,224772,195752,254466.27,224632.97,195690.22
254647,224806,195795,254462.52,224631.34,195686.77
254455,224701,195694,254460.11,224630.94,195684.25
254499,224687,195657,254457.91,224631.25,195682.20
254674,224771,195696,254455.50,224632.13,195680.34
254736,224785,195711,254454.28,224633.78,195678.80
254180,224644,195623,254454.66,224636.06,195677.39
254575,224718,195712,254455.81,224638.52,195675.91
254749,224777,195762,254457.84,224641.25,195674.72
254694,224809,195681,254461.34,224644.61,195674.25
254244,224629,195575,254465.44,224648.39,195674.22
254567,224670,195599,254468.84,224652.00,195673.88
254561,224821,195629,254471.94,224655.50,195673.03
253782,224640,195579,254475.19,224659.53,195671.83
254151,224697,195553,254477.59,224664.05,195670.13
254608,224760,195667,254478.75,224668.63,195668.03
254596,224782,195692,254479.84,224673.28,195666.02
254313,224595,195564,254481.19,224677.91,195664.13
254490,224684,195604,254481.97,224681.92,195662.03
254548,224765,195790,254482.52,224685.47,195660.03
254498,224747,195633,254483.28,224689.00,195658.58
254296,224616,195514,254483.78,224692.34,195657.19
254421,224605,195499,254483.47,224694.94,195655.09
254604,224697,195770,254482.83,224696.88,195652.50
254420,224703,195681,254482.48,224698.70,195650.19
254270,224589,195588,254481.78,224700.25,195648.25
254455,224688,195653,254480.23,224701.19,195646.38
254540,224838,195826,254477.84,224702.02,195644.97
254387,224638,195728,254474.42,224703.09,195644.56
254370,224629,195635,254470.34,224703.94,195644.83
254263,224903,195738,254465.16,224704.47,195645.25
254527,224747,195691,254458.31,224705.28,195645.84
254422,224638,195548,254451.38,224706.22,195646.44
254324,224503,195684,254445.06,224706.48,195646.56
254694,224696,195747,254439.47,224705.84,195646.50
254648,224694,195680,254435.63,224704.84,195646.78
254269,224598,195589,254433.17,224703.69,195647.22
254535,224716,195693,254430.67,224702.25,195647.53
254657,224726,195801,254428.31,224700.78,195648.16
254745,224671,195771,254427.53,224699.52,195649.56
254381,224708,195692,254428.34,224698.05,195651.38
254603,224728,195759,254429.78,224696.22,195653.02
254911,224809,195843,254432.47,224694.66,195655.03
254525,224719,195709,254437.08,224693.78,195657.78
254316,224640,195680,254441.19,224693.22,195660.75
254751,224761,195727,254443.22,224692.72,195663.67
254728,224706,195758,254445.50,224692.44,195666.67
254216,224671,195665,254449.38,224692.30,195669.80
254402,224635,195631,254453.70,224691.92,195672.69
254721,224760,195785,254458.06,224691.44,195675.28
254752,224696,195681,254463.33,224691.16,195677.95
254550,224620,195542,254469.66,224690.91,195680.33
254616,224617,195712,254476.31,224690.31,195682.00
254770,224740,195758,254483.38,224689.48,195683.47
254376,224618,195659,254491.31,224688.84,195685.06
254499,224550,195704,254499.63,224688.22,195686.53
254704,224591,195717,254507.75,224687.05,195687.89
254845,224698,195704,254516.22,224685.41,195689.50
254550,224741,195749,254525.31,224683.88,195691.63
254478,224614,195639,254533.92,224682.63,195693.86
254682,224711,195714,254541.63,224681.41,195695.78
254505,224722,195805,254548.47,224680.67,195697.63
254429,224551,195631,254553.81,224680.53,195699.56
254387,224482,195598,254557.42,224679.94,195701.05
254644,224838,195879,254559.91,224678.25,195701.88
254432,224728,195812,254561.88,224676.09,195702.69
254372,224582,195682,254562.91,224674.00,195703.78
254610,224632,195662,254563.00,224671.81,195704.80
254820,224771,195816,254562.98,224669.78,195705.69
254531,224704,195724,254563.22,224668.31,195706.84
