487146,768685,913953,485670.69,767934.13,913376.44
487400,768257,913789,485771.72,768030.06,913440.88
487454,767808,913795,485872.44,768116.81,913500.25
487518,767325,913366,485972.94,768191.81,913553.00
487640,767044,913254,486073.06,768252.38,913598.38
487786,766862,913061,486172.94,768297.19,913635.63
487659,766745,913076,486272.06,768326.38,913664.75
487451,766520,912927,486368.81,768340.38,913685.88
487501,766406,913000,486462.31,768339.63,913699.31
487070,766616,913000,486552.63,768324.88,913705.75
487591,766433,912942,486640.00,768297.63,913705.88
487584,766364,913011,486724.16,768259.75,913700.50
487537,766222,913250,486804.69,768212.19,913690.63
487669,766320,913145,486881.50,768156.13,913677.31
487797,766314,913117,486955.00,768093.00,913661.38
488026,766510,913223,487026.28,768024.63,913643.50
488091,767325,913623,487095.94,767953.69,913625.25
488349,767289,913679,487164.56,767883.50,913608.50
488416,767449,913777,487233.22,767817.00,913594.31
488675,767915,914323,487302.81,767755.63,913583.31
488745,767861,914108,487373.94,767700.75,913576.31
488833,767993,914159,487446.78,767653.38,913573.88
488767,768005,914203,487520.94,767613.75,913576.00
489034,768129,914176,487595.88,767581.88,913582.38
489035,768095,914083,487671.59,767557.44,913592.13
488951,768287,914162,487748.00,767540.19,913604.63
489102,768759,914580,487824.72,767530.25,913619.81
489138,768618,914494,487901.56,767527.88,913638.00
489240,768558,914490,487978.56,767533.25,913659.81
489267,768648,914489,488055.69,767545.75,913685.13
489346,768874,914604,488132.13,767565.13,913713.63
489567,769097,914842,488207.56,767591.75,913745.44
489323,769114,914757,488282.75,767626.00,913781.00
489791,769562,915028,488357.28,767667.44,913819.88
489844,769618,915183,488431.38,767716.44,913862.19
489987,769628,915079,488506.63,767773.13,913908.50
490197,769770,915582,488583.94,767836.94,913958.50
489985,770047,915573,488663.25,767907.63,914012.75
490251,770089,915704,488743.78,767985.31,914071.75
490492,770187,915479,488825.88,768069.38,914135.13
489374,770399,915784,488910.19,768159.00,914201.88
490471,770374,915786,488996.34,768253.63,914271.88
490947,770495,915843,489084.22,768352.75,914344.75
490959,770684,915873,489174.56,768455.63,914420.00
491073,770665,915872,489267.56,768561.63,914496.88
491145,770662,915945,489362.81,768670.25,914574.75
491098,770639,915952,489459.72,768780.75,914653.50
491343,770969,916110,489556.88,768892.50,914732.75
491445,770910,916073,489653.72,769005.63,914812.50
491565,770879,916111,489751.44,769119.44,914892.25
491456,771075,916411,489850.56,769233.00,914971.38
491522,771107,916158,489950.13,769346.00,915049.63
491577,770922,916109,490049.50,769457.94,915126.50
491625,770925,916007,490148.38,769567.81,915201.50
491605,771226,916348,490244.97,769675.25,915274.38
491834,771314,916220,490337.97,769781.06,915345.75
492001,771345,916402,490429.56,769885.63,915415.75
490879,771818,916825,490520.38,769989.13,915484.75
491950,771522,916856,490608.72,770091.75,915554.13
492138,771607,916854,490695.69,770193.25,915624.56
492189,771699,916700,490782.75,770293.25,915695.38
492471,771832,916788,490870.34,770391.88,915765.56
492594,771854,916800,490959.06,770489.25,915834.75
492673,771636,916673,491049.31,770584.75,915902.75
492496,771491,916781,491138.88,770677.56,915968.75
492773,771169,916536,491225.91,770766.25,916032.31
493046,770890,916439,491312.56,770848.25,916092.38
493027,770151,916146,491401.25,770920.50,916147.75
493022,769848,915916,491491.44,770980.63,916197.13
493180,769509,915691,491582.56,771025.88,916238.75
493176,769322,915694,491674.38,771055.00,916272.00
492916,769111,915511,491766.19,771068.00,916296.69
493026,769070,915583,491856.94,771065.50,916313.25
492874,768873,915596,491945.38,771048.38,916322.38
492833,768926,915829,492030.91,771017.88,916325.13
492905,768822,915656,492113.44,770975.31,916322.06
493256,768787,915825,492193.03,770922.13,916314.63
493138,768666,915676,492270.22,770859.44,916303.88
493051,768845,915873,492344.75,770788.63,916290.50
493219,769049,915808,492416.19,770711.88,916275.00
493373,769029,915961,492485.13,770631.63,916258.38
492591,769923,916634,492550.25,770549.75,916242.00
493414,769889,916582,492610.09,770469.50,916228.00
493795,769973,916483,492667.53,770393.75,916217.63
493704,770081,916976,492725.63,770323.88,916210.81
493814,770493,916679,492784.41,770260.94,916207.50
494064,770548,916855,492844.13,770206.38,916208.13
494167,770388,916746,492905.50,770160.38,916212.88
494382,770577,917065,492968.59,770122.25,916221.81
494469,770629,917043,493033.44,770092.13,916235.19
494483,770510,916955,493100.63,770069.50,916252.88
494704,770912,917538,493170.38,770053.50,916273.88
494752,771017,917575,493242.88,770044.88,916298.81
494820,771187,917521,493317.94,770044.25,916329.13
494978,771287,917568,493395.38,770052.00,916364.75
495038,771634,917610,493475.00,770068.38,916405.00
494820,771612,917669,493555.88,770093.50,916449.31
495060,771686,917786,493637.28,770127.06,916497.50
495042,772110,917844,493719.31,770168.31,916549.63
495377,772049,918081,493802.56,770217.25,916606.00
495573,772112,918095,493887.50,770273.63,916666.38
495535,772245,918591,493974.44,770337.00,916730.25
495933,772491,918562,494063.38,770407.13,916798.06
495893,772501,918493,494154.75,770483.88,916870.00
496104,772614,918607,494248.59,770566.56,916945.75
496024,772836,919170,494344.31,770654.88,917025.38
496221,772925,918788,494441.31,770748.88,917109.44
496235,772976,918817,494539.44,770847.88,917196.50
496557,772989,919164,494639.03,770950.81,917285.19
496369,773094,919034,494740.06,771056.75,917375.13
496587,773192,919013,494841.91,771165.13,917466.13
496601,773194,918927,494944.19,771275.50,917557.75
496488,773387,919024,495046.31,771387.56,917649.00
496819,773462,919102,495147.69,771501.38,917739.50
497048,773461,919214,495249.19,771616.25,917829.50
496996,773618,919161,495351.44,771731.19,917918.88
497346,773621,919227,495454.44,771845.75,918007.25
497161,773608,919069,495558.25,771959.50,918093.75
497248,773657,919318,495662.13,772072.13,918178.13
497182,773744,919303,495763.25,772183.13,918260.38
497477,773812,919348,495859.81,772292.56,918340.75
497495,773744,919322,495954.53,772400.06,918419.00
496515,773889,919592,496049.56,772505.06,918494.75
497432,773917,919541,496144.28,772607.50,918568.38
497689,773973,919501,496238.06,772707.50,918640.13
498128,773982,919509,496331.81,772804.94,918709.69
498105,774014,919637,496426.84,772899.63,918777.00
498286,773784,919444,496523.38,772990.88,918842.13
498329,773554,919294,496621.22,773077.19,918904.00
498469,772932,919128,496719.75,773156.56,918961.50
498494,772425,918923,496818.38,773225.88,919013.38
498460,772078,918596,496917.06,773281.88,919058.25
498645,771748,918877,497015.91,773322.56,919095.25
498663,771441,918479,497114.75,773347.00,919124.13
498204,771250,918366,497212.44,773354.81,919145.06
498417,771131,918323,497307.19,773346.44,919158.00
498289,771005,918425,497397.00,773323.63,919163.50
498337,770853,918314,497480.63,773288.06,919162.63
498244,770821,918416,497559.19,773239.88,919156.00
498303,771026,918772,497633.78,773179.94,919144.38
498055,770860,918550,497704.00,773110.38,919128.75
498508,770825,918381,497769.88,773032.56,919110.06
498699,771031,918650,497832.88,772948.13,919089.00
498784,771422,918881,497894.34,772860.00,919067.13
498827,771679,919084,497954.31,772771.38,919046.38
499105,771879,919193,498013.75,772685.06,919028.13
498852,772584,919606,498073.63,772603.38,919013.38
499164,772473,919671,498134.13,772528.25,919003.06
499534,772464,919886,498195.56,772461.25,918998.63
499471,772631,919893,498258.81,772402.38,919000.50
499595,772724,919963,498323.88,772351.88,919007.94
499965,772777,920100,498391.00,772310.00,919021.25
500001,772971,920040,498461.25,772276.69,919040.50
499478,773139,920319,498534.56,772252.25,919065.44
500014,773145,920339,498610.31,772236.63,919096.19
500257,773226,920303,498688.00,772229.63,919132.31
500402,773370,920566,498767.91,772230.75,919173.31
500462,773589,920681,498850.22,772240.13,919219.31
500652,773547,920620,498934.91,772257.69,919270.25
500617,773774,920662,499021.81,772283.13,919325.31
500900,774101,921121,499110.09,772316.63,919384.50
500900,774121,920976,499199.19,772358.63,919448.25
501043,774178,920908,499289.88,772408.75,919515.94
500548,774338,921279,499381.56,772465.75,919585.88
500980,774437,921278,499472.75,772528.88,919657.81
501164,774643,921282,499563.81,772598.44,919732.50
501145,774751,921420,499655.56,772674.63,919809.94
500960,774857,921460,499745.75,772757.06,919889.88
501395,774833,921403,499832.59,772844.94,919971.81
501607,774990,921430,499918.88,772937.38,920054.75
500784,775425,921923,500005.38,773034.19,920138.25
501647,775269,921706,500090.38,773135.50,920222.56
501884,775378,921802,500175.56,773240.69,920307.75
501828,775294,921872,500262.69,773348.88,920393.69
501759,775503,921832,500351.00,773459.13,920479.69
501965,775348,921822,500439.81,773570.75,920565.38
501866,775355,921968,500528.75,773682.63,920650.44
501770,775656,922161,500615.75,773794.00,920735.25
502194,775657,922113,500699.28,773905.00,920820.13
502220,775663,921938,500781.88,774015.63,920904.25
502170,775895,922208,500865.19,774125.25,920986.63
502338,775991,922083,500948.66,774233.75,921066.75
502434,775791,922081,501032.38,774341.25,921144.88
502483,775835,922110,501116.47,774447.31,921220.75
502346,775992,922194,501200.50,774551.25,921294.25
502535,775918,922311,501284.06,774653.06,921365.88
502783,776055,922316,501367.25,774752.63,921435.81
502703,776183,922441,501450.53,774849.63,921504.06
502733,776191,922444,501533.56,774944.00,921570.63
503062,776248,922379,501616.25,775036.25,921635.50
503034,776285,922549,501699.19,775126.38,921698.63
503203,776116,922612,501782.50,775214.13,921760.44
503072,775904,922232,501865.91,775298.06,921820.38
503157,775432,922077,501948.75,775376.13,921876.75
502871,774867,922011,502028.66,775446.25,921928.19
503248,774297,921667,502103.81,775505.88,921973.81
503142,773795,921466,502176.25,775550.81,922012.13
502686,773467,921267,502246.59,775578.00,922041.63
502473,773035,921111,502312.34,775586.38,922061.44
502759,772885,920971,502372.50,775575.63,922071.63
502663,772745,921039,502427.69,775546.50,922072.94
502084,772600,921045,502477.94,775500.81,922066.44
502275,772411,921056,502522.13,775440.38,922053.25
502413,772478,921070,502559.94,775365.88,922034.31
502308,772483,921194,502591.75,775278.75,922010.50
502243,772319,921044,502617.81,775180.88,921982.63
502312,772388,921002,502638.38,775073.88,921951.19
502600,772536,921181,502654.50,774959.88,921916.88
502633,772801,921504,502667.06,774841.69,921881.44
502661,773034,921672,502676.25,774722.38,921847.13
502817,773348,921863,502683.69,774604.88,921815.63
503321,774031,922280,502691.81,774491.94,921788.31
503480,774159,922481,502702.97,774386.50,921766.75
503470,774308,922515,502718.19,774291.13,921752.38
503844,774399,922840,502737.81,774206.94,921745.38
504184,774586,922718,502763.19,774134.25,921745.63
504199,774620,922660,502795.38,774073.06,921752.69
504027,774635,922787,502833.69,774023.00,921765.88
504286,774917,923422,502876.88,773983.63,921786.00
504509,774859,923079,502924.88,773954.56,921813.88
504505,774918,922932,502978.19,773935.50,921848.13
504667,775085,923561,503036.75,773926.13,921886.94
504601,775418,923292,503100.00,773926.63,921930.13
504765,775388,923219,503167.19,773937.38,921977.88
504832,775553,923473,503238.00,773957.81,922029.63
504848,775714,923570,503311.44,773988.00,922085.56
505184,775939,923822,503386.88,774028.25,922146.13
505199,775935,923665,503465.44,774077.81,922211.00
505180,776430,923862,503547.38,774135.50,922279.38
505341,776373,924027,503631.97,774201.00,922350.75
505372,776326,923994,503718.91,774274.13,922425.50
505479,776360,924101,503807.88,774353.88,922503.13
505650,776723,924378,503897.44,774439.56,922583.69
505883,776668,924265,503986.84,774531.13,922667.25
505656,776602,924340,504077.47,774627.50,922753.00
504919,777035,924724,504169.56,774727.38,922840.38
505888,776953,924566,504262.53,774830.19,922929.00
505930,777092,924661,504356.28,774936.25,923019.00
505969,777114,924643,504450.56,775045.44,923110.00
506001,777169,924499,504544.84,775157.00,923200.50
506139,777293,924766,504638.94,775270.38,923290.31
506384,777419,924860,504733.13,775385.25,923380.06
506422,777754,924967,504827.75,775501.63,923470.13
506430,777624,924953,504922.38,775619.50,923560.38
506560,777641,925000,505016.88,775738.25,923650.31
506513,777819,925216,505111.25,775857.13,923739.25
506982,777856,925204,505205.78,775975.75,923827.00
506684,777942,925275,505300.81,776094.13,923914.06
506763,778075,925258,505395.50,776212.19,924000.69
506608,778113,925183,505487.63,776330.56,924086.25
507207,778288,925252,505576.44,776449.50,924170.00
506756,778233,925390,505663.81,776568.25,924252.00
507033,778676,925751,505750.25,776685.44,924332.56
506883,778520,925496,505835.16,776801.00,924411.88
507302,778397,925517,505918.81,776914.88,924489.88
507271,778296,925516,506001.97,777026.31,924566.13
507288,778625,925455,506084.44,777134.75,924640.31
507535,778389,925491,506165.94,777240.38,924711.94
507626,778283,925497,506247.31,777342.25,924780.88
507421,777925,925217,506328.81,777439.00,924846.63
507700,777164,924878,506409.88,777528.13,924907.69
507644,776602,924596,506490.44,777604.88,924961.75
507507,776104,924361,506569.81,777665.50,925006.75
506689,775410,924013,506645.50,777707.19,925041.50
507007,775130,923931,506714.72,777727.94,925065.00
506777,775079,923804,506776.94,777727.69,925077.38
505848,774979,923993,506832.25,777708.06,925079.63
506348,774797,923799,506879.75,777670.88,925072.88
506530,774669,923652,506918.88,777617.25,925057.81
506364,774882,923582,506949.94,777548.81,925034.50
506365,774631,923628,506973.31,777467.75,925003.88
506313,774479,923738,506989.44,777375.50,924967.13
506376,774661,923829,506998.94,777273.38,924925.63
506543,774819,923924,507002.66,777164.19,924880.94
506678,774955,924061,507002.00,777050.63,924834.56
506619,775019,924124,506998.38,776934.88,924787.88
506782,775735,924781,506992.81,776819.13,924742.00
507191,775810,924531,506986.81,776706.19,924698.38
507345,776207,924877,506982.56,776599.81,924659.00
507451,776375,924918,506981.34,776502.56,924625.25
507680,776707,925224,506981.94,776416.13,924598.13
507934,776723,925209,506983.63,776341.38,924578.13
507885,776652,925153,506989.50,776278.00,924565.06
506950,777031,925581,506999.94,776225.50,924558.38
507912,777004,925452,507012.94,776184.00,924558.38
508045,777000,925442,507029.81,776153.38,924564.75
508445,777343,925618,507052.66,776133.13,924577.00
508480,777448,925606,507082.31,776123.69,924594.94
508671,777442,925925,507119.00,776124.88,924618.69
508606,777584,925809,507162.31,776135.81,924648.38
508336,777811,926286,507209.44,776156.13,924684.25
508643,778037,926120,507257.81,776185.75,924726.38
509013,778044,926148,507309.50,776225.00,924774.13
509052,778539,926523,507367.00,776272.88,924826.31
509141,778541,926435,507430.16,776329.19,924882.75
509425,778657,926593,507498.78,776394.38,924943.75
509383,778588,926551,507572.88,776468.06,925009.25
509128,778820,926641,507651.81,776549.25,925078.63
509384,778875,926642,507734.63,776637.13,925151.13
509480,778918,926599,507820.19,776731.13,925226.00
509558,779296,926921,507907.81,776830.38,925302.50
509558,779208,926869,507997.06,776934.75,925380.63
509850,779377,926894,508087.75,777043.63,925460.38
509922,779348,926927,508180.34,777156.50,925541.25
509990,779602,927212,508274.81,777272.63,925623.25
510156,779547,927250,508370.94,777391.69,925706.75
510055,779706,927160,508468.34,777512.88,925791.56
509952,780141,927878,508564.38,777636.25,925877.31
510104,779911,927457,508656.72,777762.00,925964.44
510405,779937,927409,508747.56,777889.00,926052.38
510257,779955,927774,508839.03,778016.13,926139.75
510455,780210,927675,508930.78,778142.94,926226.25
510725,780183,927657,509023.06,778269.50,926312.50
510616,780333,927644,509116.28,778395.63,926398.44
510254,780590,927848,509209.56,778521.63,926483.81
510588,780476,927878,509301.75,778648.25,926568.88
510744,780449,927822,509392.69,778773.94,926653.38
510905,780940,928200,509482.88,778897.56,926736.69
510765,780790,927886,509572.31,779019.38,926818.50
510962,780794,928088,509660.63,779139.56,926898.81
511041,780816,928037,509747.88,779257.81,926978.00
510868,781152,928544,509833.47,779374.13,927056.63
511281,781172,928378,509916.72,779489.31,927135.69
511175,781194,928331,509998.81,779603.31,927214.75
511153,781489,928636,510080.38,779715.75,927293.00
511368,781230,928545,510161.31,779826.44,927370.44
511565,780941,928464,510241.94,779934.06,927447.00
511633,780627,928060,510322.53,780036.38,927521.69
511738,779744,927815,510403.31,780130.00,927592.38
511685,779216,927573,510484.13,780210.50,927656.69
511390,778841,927293,510563.81,780274.50,927712.81
510927,778211,927364,510640.34,780320.75,927760.00
511027,778010,927225,510711.91,780348.00,927798.31
510821,777961,927067,510777.28,780355.88,927828.00
510861,777924,927398,510835.75,780345.38,927848.63
510890,777947,927298,510887.50,780318.38,927861.13
510898,778036,927406,510933.22,780277.38,927867.50
510983,778121,927538,510973.44,780224.81,927869.81
510911,778198,927718,511007.09,780163.31,927869.50
510947,778242,927769,511033.06,780095.13,927867.88
511038,778303,927701,511053.81,780021.88,927865.50
511117,778813,928206,511072.00,779944.31,927862.38
511303,778677,928162,511088.56,779864.31,927859.31
511576,778915,928232,511104.94,779784.75,927858.13
511427,779249,928404,511122.06,779708.25,927859.94
511692,779689,928838,511139.81,779637.56,927866.06
512145,780084,929033,511159.25,779575.50,927878.13
512099,780171,929068,511182.38,779523.75,927897.00
511531,780389,929280,511209.88,779482.75,927922.31
512223,780247,929152,511241.31,779451.63,927953.63
512591,780455,929399,511277.00,779430.38,927990.56
512726,780541,929559,511317.69,779418.75,928033.00
512581,780723,929457,511363.34,779416.94,928080.44
512967,780833,929609,511413.56,779424.75,928132.56
512995,780973,929574,511468.56,779442.06,928189.00
512746,781304,929828,511527.81,779468.56,928249.50
513133,781371,930036,511590.25,779504.44,928314.38
513081,781520,929933,511655.88,779549.63,928383.69
513328,781678,930402,511724.75,779603.63,928456.75
513474,781567,930147,511797.06,779665.06,928533.19
513385,781762,930316,511872.75,779733.38,928612.75
513433,781997,930420,511950.88,779808.56,928695.38
513769,782162,930616,512030.88,779890.81,928781.00
513965,782269,930661,512113.19,779979.94,928869.81
513999,782301,930676,512198.81,780075.25,928961.19
513851,782687,931257,512287.22,780175.88,929054.50
513814,782650,930880,512376.88,780281.19,929149.25
513959,782670,930788,512466.91,780391.13,929245.00
514097,782710,930882,512557.25,780504.88,929341.19
514193,782828,930954,512647.25,780621.50,929437.31
514182,782905,931004,512735.88,780740.63,929533.25
514220,782882,931071,512823.75,780861.38,929628.75
514009,783288,931126,512910.09,780983.50,929723.50
514263,783320,931158,512993.19,781107.63,929817.25
514393,783263,931161,513074.56,781233.25,929909.75
514606,783476,931415,513156.19,781359.44,930000.88
514264,783567,931340,513237.88,781486.13,930090.63
514491,783521,931494,513318.50,781612.88,930179.19
514634,783639,931516,513398.13,781739.13,930266.75
513644,783706,931945,513476.53,781864.44,930354.00
514600,783886,931795,513552.91,781989.00,930441.63
514976,783964,931798,513628.09,782112.75,930529.06
514828,784144,931870,513703.38,782235.25,930615.75
514776,784124,931857,513778.22,782356.25,930701.25
515092,784139,932017,513852.25,782475.63,930785.50
514933,784297,932138,513925.81,782593.38,930868.75
515211,784467,932097,513998.63,782709.81,930951.25
515393,784382,932326,514071.06,782825.00,931032.88
515240,784517,932240,514143.75,782938.44,931113.94
514822,784794,932613,514216.22,783050.00,931194.00
515245,784664,932497,514287.63,783159.56,931273.13
515441,784468,932326,514358.00,783266.75,931351.25
515642,784171,932097,514428.06,783369.94,931427.38
515451,783335,931716,514497.34,783465.88,931499.13
515687,782727,931508,514564.88,783550.06,931564.38
515554,782227,931345,514631.28,783618.56,931621.69
513761,782012,931190,514695.06,783669.63,931670.69
514631,781577,930888,514752.19,783702.63,931711.00
514807,781257,930747,514801.84,783716.75,931741.38
514751,781236,930419,514845.31,783711.75,931760.94
514760,781266,930839,514883.06,783689.25,931770.75
514613,781063,930905,514915.25,783651.31,931772.31
514615,781128,930939,514941.72,783599.38,931767.38
514533,781166,931081,514961.84,783535.56,931757.06
514686,781126,931019,514975.47,783462.38,931742.75
514795,781311,931214,514984.63,783381.38,931725.25
514769,781614,931518,514991.03,783294.50,931705.75
514688,781712,931493,514995.00,783204.25,931685.56
514908,781945,931658,514996.75,783113.50,931666.19
515158,782096,931831,514997.75,783024.69,931649.00
515482,782569,932092,514999.63,782940.06,931635.38
515583,782871,932335,515003.88,782862.38,931626.63
515724,783060,932332,515011.63,782793.63,931623.63
515843,783331,932508,515023.50,782734.63,931626.38
515994,783260,932625,515039.75,782685.44,931634.81
516124,783422,932569,515060.94,782646.19,931649.13
516150,783325,933100,515087.19,782616.75,931668.50
516307,783492,932769,515118.44,782596.50,931692.38
516511,783592,932939,515154.75,782585.00,931721.38
516584,783758,932941,515196.53,782582.38,931755.50
516661,784103,933481,515242.81,782588.88,931794.63
516745,784015,933246,515292.56,782604.63,931838.88
516855,784182,933235,515346.38,782629.31,931888.00
516963,784289,933728,515404.94,782662.38,931941.06
516485,784558,933546,515466.94,782703.69,931997.75
516717,784621,933491,515530.44,782753.38,932058.31
516990,784660,933594,515595.19,782810.88,932122.56
516401,784892,933800,515661.72,782875.75,932190.25
516977,784957,933851,515729.38,782948.13,932261.44
517297,785023,933738,515798.44,783026.94,932335.63
517379,785611,933993,515869.94,783111.13,932411.94
517395,785401,934091,515943.97,783200.38,932490.44
517461,785379,934179,516020.03,783294.63,932571.31
517451,785406,934253,516097.56,783393.13,932654.38
517412,785585,934303,516173.56,783495.13,932739.38
517631,785690,934360,516245.56,783600.25,932825.88
517529,785619,934451,516316.31,783708.06,932913.50
516718,785970,934833,516387.94,783817.63,933001.88
517617,785991,934637,516459.75,783928.63,933090.63
517917,786064,934510,516532.06,784041.50,933179.63
517481,786021,934864,516604.75,784155.63,933268.31
517986,786325,934649,516677.00,784270.75,933356.25
518059,786380,934773,516749.56,784386.88,933443.38
518062,786351,934817,516823.13,784503.81,933529.88
518111,786674,935042,516897.13,784621.06,933616.00
518246,786628,935022,516971.41,784738.56,933702.00
518250,786624,934889,517046.00,784856.00,933787.31
518282,786646,935462,517120.69,784972.75,933871.38
518534,786881,935351,517195.56,785088.38,933954.88
518362,786808,935162,517270.63,785202.94,934038.00
518676,786912,935141,517345.75,785316.13,934119.88
518324,787129,935460,517419.13,785428.19,934200.31
518672,787142,935417,517488.78,785539.63,934279.88
518712,787311,935462,517556.88,785650.19,934358.50
518843,787721,935732,517625.59,785759.63,934435.88
518585,787379,935661,517694.47,785867.63,934511.75
518769,787383,935721,517762.59,785973.94,934586.69
518870,787408,935644,517829.94,786078.13,934660.88
519192,787397,935690,517896.75,786179.75,934733.88
519109,787013,935444,517963.13,786277.69,934804.69
519029,786708,935312,518029.44,786369.75,934872.13
518711,785961,934828,518095.75,786453.00,934934.50
519024,785233,934479,518161.75,786523.75,934989.56
518757,784553,934322,518226.13,786577.13,935035.00
518484,784287,934149,518286.84,786610.25,935069.88
517989,783877,934019,518341.47,786622.25,935093.63
518053,783791,934112,518388.16,786613.25,935107.00
517888,783603,933905,518426.50,786584.63,935111.00
517372,783808,934024,518456.25,786538.13,935106.31
517585,783637,933974,518477.06,786476.38,935093.94
517661,783728,934020,518489.19,786401.56,935075.00
517626,783619,934211,518493.66,786315.63,935050.56
517604,783757,934167,518491.25,786220.44,935021.88
517721,783801,934129,518482.94,786118.25,934990.13
517732,783697,934183,518469.78,786010.75,934955.88
517916,784084,934539,518452.50,785899.81,934920.63
517868,784198,934575,518431.66,785788.13,934886.06
518263,784405,934704,518409.34,785678.06,934853.50
518246,785075,935589,518387.81,785571.75,934824.00
518849,785133,935309,518368.94,785471.63,934799.38
518847,785251,935291,518354.69,785380.25,934780.75
518955,785421,935461,518345.88,785298.75,934768.50
518962,785706,935643,518340.56,785227.88,934762.63
519130,785696,935545,518337.13,785168.31,934763.50
519149,785713,935680,518337.78,785119.63,934770.25
517989,786107,936382,518342.94,785081.63,934782.88
519267,785933,935951,518351.00,785054.38,934801.38
519285,785713,936028,518363.31,785036.50,934825.88
519588,785984,936117,518381.41,785026.63,934856.19
519755,786179,936195,518405.97,785024.75,934891.63
519986,786227,936176,518437.63,785031.25,934932.00
519866,786559,936238,518476.28,785046.25,934976.88
519638,786678,936433,518518.63,785070.13,935026.00
520053,786674,936517,518561.84,785102.44,935079.44
520207,786820,936528,518608.69,785142.63,935137.00
520374,787102,936831,518661.81,785190.13,935198.38
520118,787025,936762,518720.44,785244.63,935263.50
520395,787268,936882,518783.38,785305.88,935332.19
520553,787278,936979,518850.50,785373.88,935404.13
520736,787525,937098,518921.94,785448.25,935479.25
520707,787506,937147,518997.25,785528.63,935557.19
520563,787571,937031,519075.69,785614.19,935637.38
520775,787848,937356,519156.28,785704.00,935718.63
520802,787807,937269,519238.56,785797.69,935800.56
520795,787862,937398,519322.41,785894.88,935883.50
521038,787976,937362,519407.63,785995.19,935967.44
521127,788074,937644,519494.53,786098.25,936052.38
521131,787960,937479,519583.00,786203.25,936138.19
521045,788072,937601,519672.31,786309.25,936224.25
520875,788458,938040,519759.69,786416.25,936310.75
521214,788419,937829,519843.25,786524.88,936398.25
521458,788518,937845,519925.63,786634.88,936486.25
521508,788550,938171,520009.16,786745.63,936573.75
521278,788809,937925,520093.38,786857.00,936660.50
521495,788672,937985,520177.19,786968.88,936746.25
521506,788806,938111,520260.44,787080.63,936831.13
521246,789000,938230,520343.28,787192.38,936915.38
521652,788949,938309,520425.75,787304.63,936999.31
521711,788915,938182,520507.56,787416.13,937082.63
521870,789362,938319,520588.81,787525.88,937164.75
521894,789201,938478,520669.63,787634.06,937245.81
521960,789130,938495,520750.06,787740.63,937326.13
522025,789305,938595,520829.88,787845.38,937405.75
521762,789419,938500,520906.97,787948.38,937484.44
522192,789447,938778,520979.53,788049.88,937562.00
522005,789524,938710,521049.81,788149.81,937638.69
521766,789830,939034,521119.84,788247.88,937714.50
522202,789682,938757,521189.72,788343.88,937788.88
522558,789613,938790,521259.75,788437.88,937861.63
522365,789542,938785,521330.06,788529.38,937932.69
522466,788777,938508,521400.19,788616.38,938001.38
522543,788249,938132,521469.88,788694.75,938065.50
522714,787701,937954,521539.44,788760.75,938123.06
521856,786942,937801,521608.09,788811.31,938172.63
521546,786376,937441,521672.66,788843.75,938213.38
521571,786213,937180,521729.88,788855.63,938243.88
521263,786206,937576,521778.63,788847.06,938263.63
521015,786071,937369,521817.94,788820.00,938273.88
521119,786140,937279,521847.47,788776.25,938275.88
521122,786125,937503,521868.00,788718.25,938271.00
520615,785956,937318,521877.94,788648.38,938260.25
520437,786007,937458,521874.44,788568.63,938244.50
520736,786082,937538,521859.88,788480.13,938224.63
520868,786385,937911,521838.50,788384.19,938202.06
520718,786241,937731,521812.03,788282.94,938177.75
520866,786230,937782,521781.19,788178.25,938152.94
521168,786452,937974,521747.56,788072.06,938128.50
521378,786934,938201,521713.19,787966.88,938105.88
521597,787173,938383,521680.00,787866.06,938086.56
521682,787273,938580,521649.63,787771.75,938071.69
522154,787890,938978,521623.63,787685.13,938062.25
522302,787895,938857,521603.81,787607.94,938058.69
522433,787889,938912,521591.28,787541.25,938061.25
522394,787998,939326,521586.09,787485.19,938069.88
522525,788074,939260,521587.75,787439.38,938084.75
522622,788105,939192,521596.00,787403.44,938105.75
522702,788262,939218,521610.75,787377.13,938132.50
522716,788712,939543,521631.72,787360.38,938164.63
522966,788596,939590,521658.75,787353.63,938202.50
523113,788533,939567,521692.03,787356.38,938246.00
523197,788990,939997,521731.69,787367.69,938294.13
523466,788959,940021,521777.78,787387.31,938347.00
523593,788947,939977,521830.56,787415.50,938405.13
522970,789166,939973,521888.69,787451.94,938468.00
523401,789358,940284,521949.84,787496.63,938535.13
523702,789523,940327,522014.31,787549.69,938606.69
523792,789417,940342,522083.19,787610.50,938682.38
523747,789797,941002,522156.25,787677.88,938761.31
524052,789935,940700,522233.03,787751.88,938843.13
524153,789782,940583,522313.72,787832.31,938928.13
524072,789976,940743,522398.06,787918.19,939015.63
523962,790217,940983,522483.25,788009.13,939105.75
524358,790247,941031,522567.19,788105.13,939198.63
524635,790327,941050,522652.69,788205.69,939294.00
523914,790491,941394,522740.34,788310.25,939391.00
524512,790552,941267,522827.75,788418.38,939489.19
524419,790661,941209,522915.47,788529.75,939588.44
524477,790653,941619,523004.19,788643.38,939688.19
524629,790910,941342,523093.44,788758.88,939788.00
524533,790995,941486,523183.03,788876.31,939887.63
524946,791045,941598,523272.94,788995.44,939987.25
524438,791073,941852,523361.69,789115.75,940087.19
524961,791155,941702,523447.53,789236.75,940187.63
525061,791269,941915,523532.44,789357.88,940288.00
525218,791482,942134,523618.72,789478.63,940388.13
525170,791485,941995,523706.16,789598.94,940487.63
525373,791518,942044,523794.50,789718.63,940586.38
525401,791621,941924,523883.75,789837.63,940683.88
525317,791702,942285,523973.44,789955.63,940779.81
525556,791768,942052,524063.06,790072.63,940874.50
525612,791788,942064,524152.81,790188.13,940967.13
525447,791957,942581,524242.63,790302.19,941057.19
525612,791987,942539,524331.88,790414.81,941145.63
525716,792021,942560,524420.25,790525.75,941233.50
525799,792133,942451,524507.75,790634.88,941320.44
525975,792277,942672,524594.50,790742.19,941406.06
525924,792278,942697,524680.88,790847.88,941490.50
525955,792457,942468,524766.31,790952.00,941573.50
525218,792751,943136,524848.38,791055.13,941654.50
525892,792458,942808,524924.88,791157.38,941734.38
526076,792327,942620,524998.00,791257.38,941812.56
526072,792000,942595,525070.00,791353.13,941887.50
526130,791268,942118,525141.13,791441.75,941957.63
526166,790412,941645,525211.00,791518.44,942020.50
526094,790064,941430,525279.50,791579.00,942073.69
525293,789486,941267,525344.88,791621.50,942116.00
525094,789133,941082,525403.81,791644.88,942147.13
524882,789112,941027,525453.75,791648.25,942167.00
525010,789150,941408,525494.38,791632.63,942176.50
524617,789056,941189,525525.75,791600.19,942177.19
524581,788940,941024,525547.38,791552.75,942170.13
524532,788938,941184,525559.50,791491.94,942156.25
524501,788901,941295,525562.19,791419.50,942136.69
524421,788874,941368,525555.88,791337.19,942113.19
524565,789034,941438,525542.00,791246.81,942087.00
524699,789352,941861,525522.38,791150.50,942059.13
524890,789250,941634,525498.63,791050.25,942030.44
524965,789490,941845,525472.88,790948.50,942002.31
525191,789692,942590,525446.69,790848.00,941976.13
525271,790139,942369,525421.38,790751.19,941953.38
525700,790294,942385,525398.63,790660.75,941935.63
525876,790509,942558,525380.25,790578.31,941923.63
525942,790754,943065,525367.63,790505.00,941918.13
526137,790646,942868,525361.00,790441.38,941920.50
526296,790708,942815,525360.88,790387.06,941929.75
526129,790690,943108,525367.06,790341.25,941944.31
526119,790891,942819,525378.38,790303.88,941963.25
526588,791128,943015,525394.63,790275.25,941986.44
526541,791035,942944,525416.88,790255.56,942014.00
526253,791382,943225,525444.13,790244.88,942045.63
526654,791334,943264,525475.13,790243.25,942081.88
526713,791444,943406,525510.31,790250.13,942122.63
526864,791960,943591,525550.38,790265.13,942167.69
527174,791848,943644,525595.63,790288.19,942216.94
527376,791882,943622,525647.00,790319.56,942270.38
527212,792007,943706,525704.25,790358.88,942327.63
527145,792152,943814,525764.25,790405.63,942388.25
527453,792242,943801,525824.38,790459.63,942452.00
527507,792226,943738,525887.06,790520.13,942518.13
526369,792365,944177,525954.25,790586.38,942585.88
527488,792638,944264,526025.00,790658.25,942655.88
527781,792670,944229,526098.75,790735.75,942728.88
527803,792761,944308,526175.63,790818.50,942804.56
528001,792829,944481,526255.75,790905.69,942882.50
528126,792814,944349,526339.13,790996.63,942962.50
528129,793037,944430,526425.56,791090.56,943043.63
527920,793333,944788,526513.94,791187.31,943125.88
528081,793244,944726,526602.88,791286.56,943209.81
528156,793174,944746,526692.00,791387.88,943295.13
528391,793295,944921,526781.69,791490.75,943381.19
528248,793449,944807,526872.00,791594.88,943467.50
528289,793344,944786,526962.13,791699.81,943553.50
528296,793621,944862,527051.25,791805.13,943638.63
528082,793671,945122,527137.38,791911.50,943723.13
528610,793700,945048,527218.75,792019.00,943807.25
528279,793806,945069,527297.94,792126.88,943890.75
528648,794279,945417,527376.31,792234.25,943973.31
528558,794062,945247,527453.88,792341.50,944054.88
528707,794033,945378,527531.00,792448.38,944135.75
528600,794160,945396,527607.06,792554.56,944216.06
528861,794353,945399,527682.25,792660.25,944295.50
529078,794299,945381,527757.38,792765.50,944373.69
529293,794472,945725,527833.31,792870.00,944450.75
528543,795097,946085,527910.25,792973.94,944527.50
529099,795001,945987,527987.00,793078.13,944604.50
529211,795010,946202,528062.94,793183.56,944682.63
529254,794888,946187,528138.25,793289.75,944762.00
528963,795017,946126,528212.31,793395.63,944841.88
529570,795152,946228,528284.81,793500.94,944921.81
529537,795056,946154,528357.00,793605.56,945001.63
529082,794630,946222,528429.50,793708.94,945080.75
529451,794284,945812,528501.38,793809.00,945158.00
529691,793672,945614,528572.38,793901.25,945231.50
529515,792946,945364,528642.50,793981.44,945299.00
529207,792680,945209,528710.63,794046.63,945359.25
529335,792430,945200,528775.13,794094.75,945411.63
528533,792366,945071,528834.38,794125.50,945456.13
529025,792182,945135,528886.25,794139.44,945492.88
528935,792063,945223,528930.38,794137.63,945522.75
528744,792155,945213,528968.56,794121.13,945546.75
528692,792372,945629,529000.88,794092.19,945565.63
528422,792288,945373,529026.69,794052.88,945580.06
528549,792333,945375,529045.81,794005.25,945591.13
528485,792392,945456,529058.69,793950.94,945599.50
528362,792611,945718,529064.25,793891.88,945606.13
528746,792662,945714,529062.00,793830.13,945612.38
528719,792887,945940,529055.38,793767.38,945619.00
528260,793694,946342,529045.94,793706.00,945627.00
529121,793458,946206,529033.50,793648.50,945637.00
529403,793537,946149,529021.81,793596.38,945649.56
529546,793572,946535,529014.00,793549.75,945664.75
529741,793761,946467,529011.13,793509.13,945682.88
529424,793817,946447,529012.94,793474.75,945704.25
529635,793880,946499,529018.50,793447.00,945728.75
529161,794065,946896,529025.88,793425.75,945756.63
529929,794171,946867,529034.19,793411.19,945788.75
529997,794182,946667,529046.13,793403.63,945824.63
530008,794498,947153,529063.38,793402.88,945863.25
530329,794550,947113,529086.19,793409.00,945904.88
530354,794727,947227,529114.88,793422.63,945950.25
530812,794803,947444,529150.00,793444.00,945999.75
530501,795113,947548,529192.13,793473.25,946053.88
530985,795197,947636,529241.00,793510.63,946112.56
531121,795337,947801,529296.50,793556.06,946175.63
531011,795683,948178,529358.50,793609.19,946243.13
531144,795697,948080,529425.94,793669.94,946315.06
531388,795838,948177,529498.38,793738.25,946391.38
531491,795803,948184,529575.88,793813.69,946471.75
531364,796199,948290,529657.88,793895.56,946555.25
531315,796213,948485,529742.94,793984.00,946641.88
531387,796266,948532,529829.75,794078.50,946731.63
530993,796807,948966,529916.00,794178.38,946824.31
531333,796385,948648,529999.50,794283.31,946919.75
531630,796450,948781,530082.06,794391.81,947017.19
531544,796554,949058,530165.50,794502.75,947115.75
531945,796901,949059,530250.13,794616.13,947215.50
532073,796957,949132,530336.75,794732.38,947316.50
532020,797023,949088,530425.63,794851.38,947418.88
531895,797209,949274,530515.63,794972.38,947521.81
532193,797253,949551,530606.25,795095.13,947625.63
532168,797342,949442,530697.38,795219.25,947730.75
532333,797492,949943,530788.88,795344.13,947836.25
531938,797612,949761,530879.88,795469.25,947942.00
532046,797556,949553,530968.88,795594.75,948047.75
532443,797671,949652,531055.81,795720.13,948152.75
532347,797724,949769,531141.44,795845.00,948256.38
532063,797762,949887,531224.75,795969.00,948359.00
532326,797863,950045,531305.13,796091.63,948460.88
532590,798150,950170,531383.25,796212.56,948562.00
532778,798204,949863,531460.63,796332.00,948661.75
532573,798037,950137,531537.56,796450.19,948759.31
532709,798091,950480,531613.75,796566.50,948855.00
532774,798119,950197,531688.88,796680.31,948948.88
532818,798224,950210,531763.06,796791.38,949040.81
533005,798274,950179,531836.50,796899.88,949130.38
532611,798384,950856,531909.25,797005.75,949217.75
533016,798295,950545,531980.75,797108.88,949303.75
532960,798298,950386,532051.00,797208.75,949388.31
532873,798253,950338,532119.50,797304.75,949470.38
532791,797805,950062,532185.63,797395.75,949548.50
533056,797310,950040,532248.94,797478.88,949621.50
533132,796803,949787,532310.38,797551.00,949688.63
532388,796348,949588,532369.88,797610.19,949748.75
532323,795795,949214,532425.25,797654.63,949800.38
532299,795713,949274,532474.25,797682.00,949842.38
532204,795618,949171,532516.06,797691.25,949874.94
531767,795198,949044,532550.13,797682.63,949898.31
531898,795290,949064,532575.50,797657.31,949912.88
531857,795228,949173,532592.63,797617.31,949919.75
531138,795253,949054,532599.63,797564.69,949919.88
531522,795178,949125,532594.00,797501.13,949914.00
531621,795124,949241,532579.25,797428.13,949903.13
530265,795289,949406,532558.56,797347.19,949888.63
531312,795378,949532,532531.94,797260.50,949871.75
531677,795382,949605,532500.25,797170.13,949854.13
531780,795663,949870,532465.88,797077.75,949836.63
532299,796038,949935,532431.19,796986.00,949820.13
532441,796274,950078,532399.00,796897.88,949806.19
532338,796441,950162,532370.38,796815.38,949795.75
532641,796897,950452,532345.63,796739.88,949789.63
532899,796824,950532,532325.63,796672.63,949788.63
532943,796805,950419,532311.81,796614.00,949792.88
533119,796836,950942,532304.50,796563.75,949801.75
533224,797132,950814,532303.81,796521.75,949815.50
533023,797094,950810,532309.44,796488.63,949834.50
533201,797096,950808,532320.31,796463.88,949858.50
533271,797454,951007,532334.00,796447.63,949886.88
533585,797459,951076,532349.25,796440.50,949920.00
533576,797597,951009,532369.00,796442.25,949957.31
533649,798061,951700,532395.50,796452.13,949998.38
533604,798014,951443,532427.75,796470.06,950043.31
533687,797964,951366,532465.13,796496.50,950092.56
533920,797902,951333,532507.38,796530.50,950145.38
534059,798236,951580,532554.75,796571.25,950201.25
534161,798371,951644,532607.50,796619.13,950260.31
534349,798357,951761,532665.50,796673.88,950322.63
533974,798830,951963,532728.63,796734.63,950387.94
534238,798698,952043,532795.75,796800.88,950456.19
534350,798780,952041,532865.88,796872.81,950527.50
534401,798774,952305,532938.56,796950.13,950601.75
534617,798921,952038,533013.63,797032.00,950678.38
534640,799015,952110,533091.38,797118.00,950756.31
534647,799050,952362,533171.25,797207.75,950835.38
534219,799467,952641,533251.81,797300.75,950916.38
534653,799333,952421,533331.75,797397.13,950999.63
535004,799297,952419,533411.81,797496.13,951083.88
534977,799682,952690,533493.50,797597.00,951168.38
535186,799722,952739,533576.88,797699.56,951253.38
535057,799738,952784,533661.63,797804.38,951339.19
534527,799714,952788,533745.94,797911.00,951425.38
535059,799867,953020,533827.63,798018.63,951511.88
535121,799850,952950,533907.13,798126.88,951598.69
535281,800065,953074,533986.06,798235.44,951685.56
535339,800301,953438,534065.00,798344.25,951772.25
535470,800284,953260,534144.13,798453.25,951858.63
535324,800326,953273,534223.25,798562.63,951944.75
535698,800252,953304,534302.13,798671.75,952030.63
535390,800440,953341,534379.13,798780.13,952115.75
535602,800504,953498,534452.38,798887.81,952200.13
535654,800345,953355,534523.50,798994.25,952283.50
535131,801055,953661,534593.19,799099.19,952365.50
535445,800715,953527,534659.13,799203.31,952445.81
535570,800650,953551,534722.31,799306.38,952524.63
535508,800711,953816,534784.00,799407.38,952602.38
535862,800808,953794,534844.38,799506.13,952679.63
535772,800903,953756,534904.44,799602.81,952756.19
535982,800862,953870,534964.25,799697.38,952831.38
534928,800996,954013,535022.38,799789.75,952905.38
535993,800979,953935,535077.06,799879.75,952978.50
536154,800720,953781,535130.50,799966.88,953049.75
536040,800143,953545,535184.63,800049.25,953117.88
535973,799475,953210,535238.81,800123.44,953180.69
536232,799288,953084,535292.63,800185.63,953236.63
536061,798904,952943,535346.13,800233.63,953284.88
535380,798327,952796,535398.38,800265.88,953325.00
535251,798343,952634,535446.44,800281.38,953356.44
535039,798027,952546,535487.94,800280.13,953379.06
534609,797947,952869,535521.13,800263.00,953393.25
534590,797864,952744,535545.06,800230.56,953400.38
534529,797768,952686,535559.31,800184.50,953401.63
534523,797658,952681,535564.50,800126.13,953397.50
534417,797869,952823,535561.31,800057.19,953388.88
534371,797680,952809,535550.25,799979.56,953376.94
534361,797820,952709,535531.88,799894.81,953362.00
533374,798464,953454,535505.25,799805.25,953344.88
534336,798167,953091,535469.31,799713.63,953327.13
534575,798320,953082,535427.81,799621.69,953309.50
534605,798463,953783,535384.50,799531.00,953292.75
535371,798958,953615,535342.00,799443.81,953278.25
535401,799074,953748,535303.25,799362.63,953267.56
535638,799218,953806,535270.13,799288.88,953261.56
535510,799352,954618,535243.50,799223.44,953261.63
535962,799324,954213,535223.94,799166.75,953269.38
535955,799379,954096,535211.75,799118.25,953283.63
536202,799712,954490,535207.00,799077.50,953302.25
535914,799801,954322,535209.00,799045.00,953324.75
536193,799813,954366,535217.00,799021.38,953351.38
536370,799874,954262,535231.00,799006.38,953382.06
536731,800131,954496,535251.19,798999.88,953416.25
536067,800211,954676,535276.31,799002.00,953454.19
536499,800187,954592,535305.50,799012.56,953496.13
536634,800540,954821,535339.50,799030.75,953541.50
536719,800517,954873,535379.25,799056.19,953590.19
536727,800655,954835,535424.06,799089.25,953642.13
537048,800815,955332,535473.75,799129.88,953696.94
537020,800940,955181,535528.50,799177.94,953754.69
537102,800994,955245,535587.88,799233.13,953815.75
537250,801132,955307,535651.56,799294.94,953880.13
537156,801371,955676,535719.13,799363.00,953947.88
537470,801401,955381,535790.38,799437.38,954018.88
537438,801387,955465,535865.06,799517.19,954092.00
537594,801500,955909,535942.88,799601.63,954166.44
537358,801691,955617,536022.94,799690.19,954241.88
537519,801741,955893,536104.13,799782.75,954318.75
537648,801983,955982,536186.13,799879.13,954397.81
537215,802168,956093,536268.31,799979.88,954479.25
537741,802157,956137,536349.75,800085.38,954562.81
537763,802245,956111,536431.06,800194.25,954647.94
537940,802717,956368,536512.88,800305.69,954733.88
538002,802539,956304,536595.25,800419.75,954820.38
538084,802689,956380,536678.38,800536.13,954907.50
538162,802817,956545,536762.00,800654.50,954995.25
538162,802946,956741,536844.25,800774.94,955084.19
538304,802997,956728,536923.13,800897.00,955174.38
538498,803168,956801,537001.13,801020.25,955265.50
537333,803238,956975,537080.56,801144.63,955357.38
538112,803271,956901,537160.13,801269.63,955449.94
538390,803278,956851,537238.50,801394.50,955542.31
538358,803363,957200,537315.63,801518.75,955634.00
538682,803509,957218,537391.88,801642.00,955725.56
538761,803558,957221,537468.25,801764.25,955817.13
538856,803784,957369,537545.13,801885.63,955908.50
538748,804013,957502,537622.25,802006.38,955999.81
539152,803947,957657,537699.63,802126.50,956091.50
539016,803850,957502,537777.63,802245.56,956183.31
539121,803934,957852,537856.00,802362.75,956274.31
539025,804118,957641,537934.06,802477.88,956363.88
538909,804067,957537,538010.94,802591.06,956451.88
538945,804073,957742,538085.63,802701.88,956538.06
538878,804107,957805,538156.13,802810.25,956622.69
539232,803912,957769,538221.50,802916.00,956705.88
539216,803643,957475,538284.38,803017.00,956786.63
539309,803240,957506,538347.00,803110.44,956863.25
538874,802489,956957,538408.25,803193.25,956934.00
539124,802188,956840,538467.00,803262.00,956997.13
538917,801883,956790,538522.88,803314.81,957051.81
538294,801550,956537,538574.38,803350.88,957097.75
538110,801244,956611,538618.81,803369.63,957134.88
538062,801174,956547,538654.63,803371.00,957163.50
537276,801336,956372,538681.75,803356.38,957184.50
537737,801201,956519,538700.19,803327.69,957198.63
537871,800972,956507,538710.06,803286.50,957206.19
537764,801071,956743,538712.19,803233.75,957207.94
537470,801186,956640,538706.81,803171.38,957204.88
537613,801133,956685,538693.81,803101.50,957198.00
537691,801210,956802,538674.25,803025.69,957188.31
537178,801619,957132,538650.00,802945.63,957177.38
537878,801703,957228,538622.50,802863.81,957166.88
538106,801861,957270,538593.13,802782.75,957158.00
538185,802383,957696,538563.44,802704.88,957151.00
538606,802490,957707,538535.00,802632.25,957147.00
538797,802642,957709,538510.13,802566.94,957146.88
538936,802732,957869,538490.00,802509.75,957151.13
539165,802719,957807,538475.00,802460.63,957159.75
539103,802744,958012,538464.88,802419.31,957172.56
538973,802799,958006,538459.81,802385.25,957189.63
538837,803129,958432,538459.06,802358.06,957210.50
539418,803169,958305,538462.50,802337.94,957235.00
539438,803269,958236,538471.44,802325.75,957263.63
539368,803408,958306,538486.25,802321.88,957296.25
539316,803497,958417,538504.00,802326.50,957332.56
539588,803723,958545,538522.63,802339.25,957372.50
539657,803810,958529,538544.63,802360.50,957416.13
538632,804264,958969,538571.00,802390.13,957463.25
539465,804064,958851,538599.50,802428.13,957514.19
539676,804067,958836,538630.63,802473.69,957568.81
539934,804283,959086,538665.88,802526.00,957626.75
539922,804391,958993,538705.75,802584.81,957687.63
540110,804479,959039,538750.19,802649.94,957751.13
540267,804624,959128,538799.31,802720.88,957816.75
539998,804684,959839,538851.13,802797.31,957885.38
540388,804873,959475,538903.44,802878.75,957958.25
540604,804811,959528,538958.63,802964.63,958034.44
540572,805046,959938,539018.94,803054.50,958112.75
540572,805089,959623,539083.56,803147.81,958192.88
540684,805085,959622,539151.75,803244.25,958274.00
540783,805158,959716,539223.13,803342.94,958355.75
540357,805406,959857,539297.00,803443.63,958437.88
540627,805236,959839,539372.00,803546.13,958520.50
540755,805470,959925,539447.56,803649.69,958603.25
540686,805811,960125,539523.88,803754.06,958685.63
540901,805705,960178,539601.13,803859.44,958767.56
541185,805839,960185,539679.50,803965.88,958849.63
541057,805802,960282,539758.88,804073.25,958931.94
541188,805957,960531,539838.88,804181.00,959014.75
541213,805939,960331,539919.25,804288.88,959098.25
541149,805950,960324,539999.44,804396.13,959181.25
540837,806324,960917,540076.75,804502.38,959263.75
541145,806147,960607,540148.88,804607.63,959346.44
541355,806175,960570,540218.19,804711.81,959428.88
541429,806151,961009,540287.44,804814.38,959510.31
541366,806261,960608,540356.69,804915.00,959590.56
541432,806239,960696,540425.44,805013.38,959669.19
541400,806279,960814,540493.38,805109.25,959746.19
541012,806437,960956,540559.56,805203.00,959822.00
541499,806559,960994,540623.50,805295.13,959897.13
541718,806619,960978,540686.25,805386.00,959971.25
541737,806702,961072,540748.75,805474.81,960044.25
541728,806397,961024,540811.13,805560.75,960115.69
541704,806190,960904,540872.88,805642.50,960185.25
541762,805937,960842,540933.63,805718.63,960251.94
541757,805312,960461,540992.13,805786.75,960314.63
541891,805054,960304,541047.69,805844.13,960371.38
541683,804704,960238,541101.25,805888.75,960421.19
541077,804394,960114,541152.75,805919.38,960463.56
541063,804084,959890,541200.00,805934.88,960497.88
541070,804041,959910,541241.25,805935.25,960524.00
540854,803931,960093,541276.13,805921.75,960542.88
540755,803891,960190,541304.00,805895.25,960556.00
540617,803994,960040,541324.50,805857.56,960564.50
540562,804008,960043,541337.50,805810.50,960568.50
540638,804201,960646,541343.50,805755.88,960569.25
540813,804131,960322,541343.50,805695.63,960568.75
540901,804139,960348,541339.31,805631.06,960567.13
540787,804226,960854,541332.06,805563.25,960564.00
540601,804728,960748,541321.50,805494.38,960560.25
541277,804906,960784,541308.50,805427.38,960557.63
541445,804992,961008,541295.88,805364.19,960557.38
541373,805194,961191,541284.38,805306.50,960560.25
541471,805165,960990,541273.00,805255.69,960566.75
541793,805360,961332,541263.75,805211.13,960576.50
541836,805682,961545,541258.94,805172.94,960590.31
541789,805532,961606,541258.75,805141.50,960608.88
541976,805725,961564,541262.94,805117.00,960632.13
542251,805740,961514,541272.00,805099.56,960659.50
541897,805926,961672,541285.06,805089.13,960690.25
542147,805943,961744,541300.38,805085.81,960724.50
542153,806051,961924,541318.75,805089.25,960762.38
541101,806455,962148,541341.00,805099.31,960803.50
542439,806387,962214,541366.88,805115.88,960848.00
542595,806399,962160,541397.25,805139.38,960896.25
542819,806612,962457,541432.94,805169.63,960948.25
542687,806845,962335,541473.94,805207.00,961003.81
542914,806788,962506,541519.63,805251.38,961062.75
543024,807148,962438,541570.00,805302.63,961124.88
542840,807445,962803,541624.50,805360.75,961190.19
543232,807262,962742,541682.38,805425.75,961258.81
543385,807281,962780,541744.25,805496.56,961330.44
543226,807437,963400,541810.38,805572.50,961404.50
543360,807541,963041,541879.56,805653.13,961481.13
542826,807699,963058,541950.25,805738.38,961560.19
543082,807622,962964,542020.63,805827.50,961640.69
543377,807973,963301,542089.00,805920.06,961722.25
543296,807827,963244,542155.31,806015.88,961805.00
543454,808030,963253,542221.19,806114.31,961888.75
543782,808523,963897,542288.75,806215.00,961973.00
543511,808144,963423,542358.13,806317.63,962057.50
543959,808187,963444,542429.13,806421.63,962142.00
543626,808236,963531,542501.50,806526.31,962226.38
543850,808363,963726,542574.00,806631.38,962310.56
543778,808476,963703,542645.50,806736.88,962394.88
543919,808457,963845,542716.56,806842.38,962479.13
543874,808929,963925,542787.69,806947.88,962563.50
543921,808677,963820,542858.38,807053.19,962647.50
544265,808807,964111,542929.00,807158.31,962731.00
544121,808774,964267,543000.25,807262.88,962814.25
543674,808976,964293,543070.81,807366.63,962897.50
544089,808875,964157,543139.13,807469.50,962980.69
544198,808985,964102,543205.75,807570.88,963062.88
543159,809099,964455,543271.50,807670.88,963143.75
544193,809183,964339,543336.13,807769.63,963223.88
544579,809190,964529,543400.00,807867.06,963303.31
544543,809312,964503,543464.19,807962.88,963381.75
544473,809288,964580,543528.69,808056.75,963459.06
544774,809267,964470,543593.25,808148.50,963534.88
544851,809300,964339,543658.38,808237.81,963608.63
544723,809011,964528,543724.25,808323.88,963679.63
544921,808791,964445,543790.13,808404.94,963748.13
544959,808490,964259,543856.25,808479.19,963813.38
544892,807905,964445,543922.50,808544.69,963874.44
544837,807427,963943,543988.13,808598.75,963930.13
544659,807169,963658,544052.00,808638.63,963979.19
544494,806840,963523,544112.88,808662.94,964020.44
543691,806570,963478,544167.38,808671.13,964053.38
543699,806380,963385,544211.50,808663.19,964078.13
543741,806444,963488,544245.81,808639.94,964095.25
541958,806653,963679,544270.31,808603.38,964106.13
543092,806421,963559,544282.75,808555.50,964111.94
543377,806300,963455,544284.63,808497.63,964113.13
543391,806344,963644,544279.19,808430.75,964109.50
543301,806377,963561,544267.69,808356.38,964101.88
543478,806401,963646,544251.00,808276.25,964091.13
543222,806378,963629,544229.75,808191.69,964078.19
543357,806840,964074,544202.13,808104.31,964064.31
543909,807124,964268,544167.75,808016.88,964051.75
544220,807271,964315,544132.69,807932.63,964041.88
544194,807612,964633,544101.81,807853.38,964035.25
544420,807770,964679,544075.75,807780.50,964032.25
544635,807868,964674,544055.19,807715.63,964033.69
544680,807856,964732,544040.94,807659.25,964039.75
544588,808021,964927,544032.88,807611.25,964050.50
544779,808101,964943,544030.31,807571.75,964066.00
545131,808023,965050,544033.94,807540.44,964086.31
545164,808410,965226,544044.25,807516.75,964111.00
545024,808440,965201,544060.88,807501.13,964139.75
545159,808569,965240,544082.69,807494.00,964172.63
545260,808603,965403,544109.81,807495.38,964209.63
545537,808850,965593,544142.50,807505.06,964251.19
545490,808890,965655,544181.00,807523.13,964297.44
545438,808948,965626,544224.50,807549.06,964348.00
545508,809513,966238,544269.94,807583.00,964402.75
545586,809388,965927,544314.88,807625.38,964461.75
545741,809448,966020,544361.88,807675.94,964524.88
545880,809450,966173,544413.50,807733.38,964591.38
545853,809713,966311,544469.50,807797.13,964661.25
546057,809694,966239,544529.44,807866.88,964734.50
546165,809701,966092,544593.38,807941.88,964809.94
545655,809782,966317,544660.25,808021.63,964886.63
545991,809829,966225,544728.13,808105.75,964964.25
546229,809933,966426,544797.13,808193.25,965042.44
546223,810187,966722,544868.13,808283.50,965121.38
546214,810271,966469,544940.69,808376.50,965200.88
546258,810334,966608,545014.19,808472.50,965280.75
546439,810473,966817,545088.44,808570.88,965361.00
546503,810409,966917,545162.81,808671.38,965442.31
546511,810558,966758,545236.50,808773.13,965524.38
546445,810772,966822,545309.94,808876.06,965606.25
546526,810941,967181,545383.75,808980.69,965687.63
546518,810756,967081,545458.00,809086.63,965768.75
546908,810916,967215,545532.50,809192.88,965850.00
546963,810993,967359,545607.63,809299.13,965931.50
546683,810977,967263,545683.38,809405.25,966012.63
546760,811004,967314,545758.13,809510.38,966093.38
547080,811057,967329,545832.00,809614.25,966173.63
546867,811283,967824,545905.38,809716.69,966253.69
547030,811318,967600,545978.06,809818.13,966334.56
547071,811274,967495,546049.75,809918.38,966415.38
547115,811444,968180,546120.56,810017.13,966495.00
546998,811561,967823,546190.06,810114.75,966573.50
547226,811570,967662,546258.00,810211.25,966651.19
547263,811512,967870,546324.75,810306.25,966727.88
547169,811657,967944,546389.25,810399.75,966803.63
547269,811732,967875,546450.31,810492.25,966878.56
547334,811673,967973,546509.13,810583.19,966952.31
547448,811924,968016,546567.25,810671.50,967024.63
547577,811758,967939,546624.94,810756.75,967095.00
547535,811490,967882,546682.50,810838.63,967163.13
547682,811106,967711,546739.88,810915.38,967228.31
547730,810419,967373,546795.50,810984.06,967289.13
547831,810044,967278,546848.19,811041.13,967343.75
547607,809828,967149,546899.63,811084.50,967391.50
545962,809228,967104,546949.75,811113.25,967431.88
546621,808975,966830,546995.69,811126.38,967464.63
546535,808906,966738,547034.38,811122.88,967489.13
546480,808656,966978,547065.00,811103.25,967505.56
546293,808529,966835,547087.44,811068.25,967514.75
545868,808428,966740,547101.00,811018.75,967517.63
545721,808501,966694,547104.50,810956.50,967514.63
545648,808579,966972,547097.75,810883.25,967506.50
545769,808533,966931,547081.81,810800.75,967494.81
545917,808517,967058,547058.38,810711.00,967480.75
545959,808528,967384,547029.25,810615.75,967464.94
546023,808803,967320,546995.63,810517.00,967448.50
546057,809014,967455,546958.88,810417.06,967432.75
546352,809159,967566,546920.25,810318.50,967418.94
546581,809672,967925,546879.75,810223.50,967408.25
546904,809797,967867,546837.63,810134.69,967401.88
546943,809909,968211,546798.25,810053.69,967400.44
547003,810453,968403,546764.56,809981.00,967404.13
547228,810323,968404,546736.88,809917.00,967412.88
547289,810410,968362,546715.69,809863.00,967427.13
547332,810350,968470,546701.13,809819.00,967446.88
547485,810492,968431,546692.50,809784.44,967471.50
547611,810447,968469,546689.50,809758.75,967500.38
547885,810690,968636,546693.19,809741.63,967533.19
547519,811222,968854,546704.75,809733.13,967570.13
547907,811066,968924,546723.63,809733.50,967611.38
548201,811206,968935,546749.50,809743.25,967657.13
548177,811219,969424,546782.31,809762.38,967706.88
547904,811504,969253,546821.06,809790.31,967760.44
548344,811581,969205,546864.50,809827.19,967818.00
548362,811561,969386,546912.88,809872.38,967879.38
548107,812040,969767,546966.38,809925.38,967944.94
548435,811984,969664,547024.19,809986.50,968015.25
548898,812032,969745,547086.38,810055.25,968089.75
548867,812296,969894,547153.63,810130.25,968167.31
548822,812253,969917,547225.56,810211.00,968247.50
548941,812324,969759,547301.00,810297.00,968329.75
548433,812389,969893,547378.44,810387.75,968413.38
549119,812565,970190,547456.00,810482.75,968498.25
549396,812662,970113,547534.25,810581.63,968584.94
549281,812584,970106,547615.50,810683.88,968672.75
549226,813053,970686,547699.56,810788.63,968761.06
549334,813046,970327,547785.19,810895.75,968849.88
549490,813037,970543,547872.25,811005.50,968939.44
549382,813113,970476,547960.38,811117.50,969029.63
549258,813237,970611,548046.63,811231.00,969120.25
549649,813333,970573,548128.75,811345.75,969210.81
549668,813414,970693,548209.75,811461.63,969301.00
549186,813704,971135,548290.00,811578.44,969390.69
549711,813452,970858,548367.19,811695.94,969479.75
549669,813552,970997,548443.13,811813.06,969568.50
549658,813443,971069,548519.13,811928.75,969657.06
549737,813747,970999,548594.69,812042.75,969745.06
549727,813779,971048,548669.63,812155.38,969832.06
549878,813854,971109,548743.75,812266.75,969917.75
548813,813929,971453,548816.00,812376.75,970002.63
549885,813935,971338,548884.88,812485.31,970087.38
550121,814036,971363,548952.19,812592.13,970171.56
550130,814277,971524,549019.69,812696.69,970254.50
550140,814142,971547,549087.38,812799.00,970336.00
550228,814192,971441,549155.00,812899.06,970416.13
550152,814234,971546,549222.25,812996.88,970494.81
550089,814339,971633,549288.44,813092.25,970571.94
550330,814433,971728,549353.38,813185.69,970647.81
550411,814437,971564,549417.63,813277.06,970722.25
549846,814615,971890,549481.25,813366.19,970794.38
550214,813998,971525,549543.38,813451.88,970863.75
550216,813612,971290,549603.25,813531.63,970929.50
550290,813208,971053,549660.75,813602.50,970990.13
550091,812678,970873,549714.38,813661.94,971044.25
549999,812201,970720,549762.31,813707.25,971090.88
549687,811947,970564,549804.75,813736.63,971129.31
548062,812048,970590,549839.63,813750.13,971159.81
548938,811512,970424,549863.63,813748.19,971182.88
548928,811402,970359,549877.25,813730.81,971198.25
548946,811295,970391,549882.38,813698.44,971205.63
548561,811263,970433,549879.38,813652.38,971205.88
548586,811217,970410,549867.75,813594.25,971200.25
548372,811199,970504,549847.69,813525.63,971189.63
548373,811242,970651,549818.38,813448.06,971175.38
548686,811240,970693,549780.00,813363.25,971158.75
548671,811319,970713,549736.31,813273.00,971140.56
548884,811762,971195,549690.38,813179.63,971121.88
548836,811944,971115,549643.50,813086.13,971104.25
549671,812238,971366,549597.75,812995.38,971089.00
549421,812467,971685,549556.00,812909.63,971077.63
549607,812782,971893,549518.75,812830.75,971071.88
549867,813032,972058,549486.25,812760.75,971072.75
550172,813000,972013,549460.13,812700.38,971080.25
550171,813257,972172,549441.63,812649.25,971094.06
550183,813190,972069,549430.25,812607.00,971113.44
550408,813241,972153,549426.06,812573.63,971137.75
550464,813446,972867,549429.19,812549.38,971166.88
550627,813632,972583,549439.69,812534.44,971201.75
550777,813651,972523,549457.63,812529.00,971242.25
551004,813758,972640,549483.25,812532.63,971287.75
550625,814147,973156,549515.13,812545.44,971338.13
551024,814107,973007,549551.06,812568.13,971394.25
551209,814151,972881,549592.38,812599.88,971455.31
551156,814329,973259,549640.25,812639.44,971520.06
551176,814538,973183,549693.75,812686.81,971588.25
551357,814476,973013,549752.00,812741.69,971659.44
551409,814593,973242,549815.06,812803.13,971732.88
550649,814840,973476,549882.13,812871.06,971808.81
551557,814805,973486,549952.69,812945.81,971887.63
551605,814870,973528,550026.38,813026.00,971968.88
551844,815417,973617,550103.38,813110.44,972051.94
551747,815213,973655,550183.44,813199.00,972136.13
551709,815284,973707,550265.63,813291.63,972221.38
552062,815321,973835,550349.50,813387.88,972307.63
551664,815437,973905,550433.13,813487.13,972394.75
552078,815446,973990,550514.50,813588.88,972482.81
552163,815598,973992,550595.63,813692.44,972571.38
551785,815769,974297,550678.13,813797.69,972660.00
552058,815853,974271,550760.94,813904.38,972748.69
552077,815828,974232,550843.38,814012.38,972837.56
552316,815914,974394,550925.63,814121.25,972926.25
552189,816020,974332,551007.63,814230.44,973014.25
552318,816137,974287,551089.13,814340.00,973101.25
552582,816209,974556,551170.38,814449.81,973187.38
552365,816362,974739,551251.38,814559.50,973273.19
552535,816363,974528,551331.31,814668.88,973358.88
552667,816335,974671,551410.38,814777.50,973443.88
552818,816365,974875,551489.50,814884.94,973527.63
552177,816691,974804,551567.50,814991.13,973610.44
552615,816575,974619,551642.88,815096.50,973691.81
552831,816561,974778,551716.00,815200.63,973771.00
552358,816738,975016,551785.94,815303.13,973848.50
552351,816760,974959,551849.50,815404.25,973924.88
553050,816888,975047,551909.06,815503.88,974000.13
552958,817163,975287,551968.50,815601.75,974074.00
552834,816967,975092,552028.13,815697.75,974146.25
552741,816941,975045,552086.75,815791.50,974216.81
553063,817031,975049,552144.13,815882.88,974285.25
553191,817065,975314,552200.63,815971.88,974351.63
553099,817085,975116,552256.50,816058.38,974416.50
553118,817080,975179,552311.88,816142.19,974479.31
552462,816652,975309,552366.63,816222.63,974539.44
553112,816158,974891,552420.81,816297.25,974595.94
553046,815649,974697,552473.63,816362.44,974647.81
553134,815370,974389,552524.81,816415.13,974693.88
552763,814815,974208,552573.63,816453.50,974732.88
552634,814669,974167,552618.44,816476.13,974763.88
552513,814425,973886,552658.19,816482.75,974786.44
552019,814399,974156,552691.88,816474.00,974800.75
551867,814029,974043,552717.88,816450.63,974808.00
551849,814019,973997,552735.25,816413.13,974808.88
551796,814461,974297,552744.00,816362.63,974803.63
551588,814090,973966,552744.50,816301.25,974792.63
551551,813890,973962,552736.88,816230.38,974776.75
551690,813926,974018,552721.75,816151.13,974756.88
551683,814194,974146,552700.25,816065.50,974734.00
551779,814263,974383,552673.19,815976.06,974709.81
551468,814479,974361,552641.63,815885.00,974685.56
551789,814976,974943,552606.38,815794.13,974662.25
552191,815132,974971,552569.44,815705.94,974641.25
552343,815111,974777,552533.63,815622.88,974624.00
552607,815171,974891,552500.81,815545.94,974610.50
552685,815548,975161,552472.13,815475.88,974600.88
552948,815489,975288,552448.44,815413.75,974596.25
553056,815536,975358,552430.75,815359.63,974597.06
552942,815935,975537,552419.13,815313.38,974603.13
553087,815837,975526,552413.00,815275.50,974614.13
553162,815907,975678,552412.25,815245.94,974630.44
553259,815905,975845,552417.00,815224.63,974652.13
552853,816153,975744,552426.50,815211.19,974678.88
553466,816310,975875,552439.88,815206.06,974710.31
553563,816370,975720,552458.25,815209.38,974746.13
552347,816765,976129,552482.00,815221.38,974785.81
553433,816753,976116,552509.81,815242.25,974829.94
553683,816759,976261,552541.50,815271.63,974878.50
553747,817028,976266,552577.44,815308.50,974931.50
554095,816928,976261,552618.25,815352.25,974988.25
554042,817003,976235,552664.38,815402.25,975047.75
554015,817077,976302,552715.13,815458.13,975109.13
554144,817246,976664,552769.25,815519.50,975172.63
554170,817341,976781,552825.94,815586.13,975239.06
554269,817557,976900,552885.50,815658.00,975309.00
554091,817972,977275,552947.63,815735.31,975382.38
554149,817932,977203,553011.25,815818.38,975458.88
554283,817902,977120,553075.94,815906.81,975538.63
554544,817971,977246,553142.13,815999.63,975620.94
554312,818294,977433,553207.63,816096.44,975705.63
554659,818338,977418,553270.38,816197.44,975792.69
554621,818325,977613,553333.13,816302.19,975881.81
553347,818840,977836,553396.50,816410.25,975973.06
554532,818717,977645,553458.63,816521.88,976066.13
554480,818528,977545,553519.94,816636.13,976159.88
554919,818881,977898,553582.00,816751.88,976253.38
554831,818991,977887,553645.63,816869.19,976346.94
554883,818962,977983,553710.63,816988.00,976440.88
554862,819006,978057,553776.56,817107.50,976535.00
554810,819180,978416,553841.00,817226.88,976629.75
555063,819087,978246,553902.38,817345.75,976725.44
555271,819263,978304,553963.38,817463.75,976821.50
555222,819284,978496,554026.38,817580.88,976917.00
555122,819303,978353,554090.63,817697.00,977011.81
555251,819290,978403,554155.25,817811.38,977105.38
555285,819420,978577,554220.25,817923.31,977197.69
555261,819516,978454,554285.50,818033.06,977288.75
555564,819488,978555,554351.31,818140.56,977378.13
555714,819467,978592,554418.25,818245.38,977465.44
555176,819844,978811,554486.25,818347.13,977550.88
555552,819695,978758,554554.50,818446.19,977634.75
555662,819585,978650,554622.31,818542.44,977716.63
555611,819365,978586,554689.44,818634.88,977795.75
555659,818871,978393,554755.63,818721.25,977871.25
555832,818493,978269,554820.94,818798.88,977941.75
555920,818177,978063,554885.75,818865.13,978006.25
554485,817972,978166,554947.63,818919.13,978064.31
555304,817499,977944,555002.75,818959.75,978116.00
555245,817323,977830,555051.75,818985.81,978160.63
554913,817184,978033,555096.00,818996.63,978197.75
554799,817130,977573,555134.00,818993.13,978227.06
554754,817035,977674,555165.25,818976.31,978248.69
554501,816949,977723,555189.50,818947.25,978263.50
554377,816972,977369,555205.94,818907.50,978271.88
554692,817029,977638,555215.19,818858.88,978273.81
554619,817068,977749,555218.75,818802.88,978270.50
554678,817212,978441,555217.75,818740.50,978264.13
554539,817324,978125,555212.56,818673.38,978256.25
554681,817580,978219,555203.56,818604.19,978248.31
554976,817693,978434,555192.06,818535.25,978241.31
555216,818159,978750,555179.50,818469.00,978236.75
555452,818238,978796,555167.06,818407.44,978235.94
555327,818240,978833,555156.75,818351.75,978239.25
555609,818532,978966,555149.75,818301.81,978246.75
555702,818580,979066,555146.75,818258.00,978258.25
555700,818585,979108,555148.13,818221.19,978274.19
555867,818621,979628,555153.63,818191.38,978294.38
556042,818795,979348,555163.81,818168.50,978318.69
556188,818796,979319,555179.13,818152.63,978347.25
556247,819069,979451,555199.94,818143.75,978379.88
556429,819343,980011,555225.88,818142.63,978417.00
556384,819295,979747,555256.63,818149.63,978459.38
556382,819181,979595,555291.75,818164.06,978506.13
556736,819468,980056,555331.44,818184.94,978556.00
556147,819564,979945,555375.00,818212.44,978608.88
556376,819609,979935,555420.56,818246.50,978664.94
556414,819634,980030,555467.38,818286.50,978723.88
555819,819959,980206,555515.38,818332.38,978785.69
556489,819967,980143,555564.00,818384.63,978850.13
556614,820031,980282,555613.56,818442.56,978916.94
556735,820692,980520,555664.63,818505.25,978985.56
556838,820487,980484,555717.44,818572.75,979055.88
557070,820440,980442,555772.50,818645.38,979127.88
556931,820569,980368,555829.94,818723.00,979201.00
556929,820559,980798,555886.88,818804.75,979275.13
557024,820826,980621,555940.75,818890.25,979350.50
556955,820780,980861,555993.94,818979.31,979427.13
556462,820965,981014,556048.25,819071.13,979504.38
557095,821034,980946,556103.50,819165.13,979581.88
557263,820975,981040,556159.81,819261.13,979660.00
556941,820955,981115,556216.75,819358.50,979738.69
557244,821198,981065,556273.38,819456.63,979817.38
557556,821235,981146,556330.50,819555.63,979896.00
557486,821277,981326,556389.25,819655.31,979974.69
557418,821554,981590,556449.00,819755.38,980054.13
557397,821487,981463,556508.69,819855.75,980134.88
557475,821476,981221,556568.00,819956.13,980215.56
557573,821546,981630,556627.00,820056.06,980295.06
557837,821648,981534,556686.31,820155.19,980373.44
557700,821616,981623,556746.38,820253.38,980451.13
557913,821720,981635,556806.94,820350.38,980528.25
557796,821792,981678,556866.00,820446.25,980604.38
557791,821938,981592,556921.25,820541.50,980679.25
557952,822005,981699,556974.75,820636.00,980752.38
557871,822279,982069,557028.63,820729.25,980823.56
558002,822116,981759,557082.75,820821.00,980892.88
558274,822033,981934,557137.50,820911.13,980960.56
558233,822184,981764,557193.63,820999.25,981026.75
558252,822255,982091,557250.38,821085.63,981091.50
558331,822242,982095,557307.13,821170.38,981155.38
558367,822244,982130,557364.25,821253.00,981218.75
557461,821867,981957,557422.00,821332.88,981281.13
558114,821574,981816,557479.94,821408.31,981341.38
558314,821014,981586,557536.75,821476.13,981398.06
558363,820635,981303,557592.25,821532.88,981449.63
557995,820161,981155,557646.13,821576.25,981494.88
558153,819719,981113,557697.13,821604.25,981532.75
557708,819507,980778,557744.50,821615.56,981562.63
557104,819466,980915,557786.00,821610.63,981584.13
557075,819242,980797,557819.50,821590.50,981597.69
557040,819161,980847,557843.88,821555.88,981604.13
557032,819125,981226,557859.63,821508.00,981604.13
556890,818927,980955,557867.13,821448.25,981598.50
556798,818953,980894,557866.81,821377.63,981588.50
556494,818809,980873,557858.25,821297.13,981574.56
556550,818912,980996,557841.38,821208.94,981557.38
556634,818984,981061,557817.19,821115.38,981538.06
556300,819140,981037,557786.44,821018.00,981517.38
556767,819674,981929,557749.88,820918.31,981496.13
556794,819743,981588,557709.63,820819.00,981476.06
557186,819935,981687,557668.13,820723.13,981458.88
557348,820182,981789,557627.50,820632.75,981445.38
557893,820535,982279,557589.19,820549.88,981436.63
557836,820496,982240,557554.31,820475.88,981434.19
558013,820535,982141,557524.88,820410.88,981437.81
558134,821062,982384,557501.75,820354.81,981446.81
558239,820809,982391,557484.50,820308.00,981461.25
558163,820870,982653,557473.75,820270.38,981481.31
558422,820986,982906,557469.88,820241.69,981507.00
558214,821206,982839,557472.63,820222.00,981538.13
558462,821230,982784,557481.31,820211.50,981574.63
558683,821371,982837,557496.06,820209.88,981615.88
557865,821653,983137,557517.06,820217.00,981661.69
558660,821663,983057,557543.50,820233.13,981712.25
559038,821776,983193,557575.38,820257.75,981767.06
559010,822319,983468,557613.44,820290.31,981825.81
559054,822106,983472,557657.50,820330.25,981888.50
559284,822255,983531,557706.88,820378.13,981955.19
559359,822248,983630,557761.75,820433.75,982025.63
559306,822457,983842,557821.38,820496.56,982099.75
559474,822559,983811,557884.63,820566.13,982177.50
559337,822560,983863,557951.25,820642.00,982258.25
559436,822814,984302,558020.63,820723.06,982341.00
559521,822834,984172,558092.25,820808.56,982425.25
559531,822942,984172,558165.75,820898.63,982511.69
559534,823045,984209,558240.63,820993.00,982600.25
559468,823237,984270,558314.25,821091.50,982690.19
559846,823278,984340,558384.94,821193.88,982781.19
559820,823378,984483,558455.44,821299.63,982873.06
559326,823950,984810,558526.25,821408.81,982965.75
559710,823536,984651,558595.19,821521.50,983059.00
559757,823499,984659,558663.13,821636.13,983152.75
559957,823494,984906,558731.31,821750.94,983246.75
559896,823755,984940,558800.00,821865.50,983341.00
560099,823832,985053,558869.25,821980.25,983435.81
560249,823842,984990,558939.25,822094.81,983531.00
559241,824002,985269,559008.50,822209.19,983626.38
560258,824087,985094,559075.25,822323.31,983721.69
560323,824236,985231,559141.13,822437.19,983816.50
560475,824425,985210,559208.13,822550.75,983910.13
560482,824366,985316,559276.31,822663.81,984002.19
560707,824247,985235,559345.75,822775.75,984092.63
560582,824405,985390,559416.31,822885.75,984181.25
560428,824628,985453,559487.13,822994.13,984268.19
560478,824617,985547,559557.06,823101.31,984353.69
560669,824557,985502,559625.88,823206.88,984437.63
560226,824648,985851,559693.75,823310.31,984519.63
560496,824651,985689,559760.13,823411.31,984599.75
560781,824630,985780,559824.88,823509.50,984678.25
560885,824799,985860,559888.63,823604.75,984755.69
560944,824937,985709,559950.75,823697.50,984831.63
560746,824724,985624,560009.38,823787.81,984905.25
560927,824328,985455,560065.88,823874.00,984975.38
559594,823986,985632,560119.50,823954.13,985041.31
560705,823328,985154,560168.00,824025.56,985102.50
560708,822796,984904,560213.06,824084.38,985157.19
560653,822558,985030,560256.31,824127.25,985203.94
560428,822287,984757,560297.13,824153.69,985242.50
560097,822039,984657,560333.88,824163.31,985272.88
560059,821859,984487,560365.13,824156.44,985295.13
559766,821595,984417,560389.00,824133.88,985309.06
559671,821534,984481,560404.25,824096.75,985315.06
559496,821439,984336,560411.25,824045.50,985313.88
559278,821367,984487,560410.63,823981.50,985306.25
558844,821249,984347,560401.38,823906.13,985293.13
559287,821391,984474,560383.50,823820.69,985275.19
559191,821317,984595,560358.63,823727.13,985253.50
559323,821793,984715,560328.31,823628.00,985229.50
559326,821841,984996,560293.38,823526.25,985204.88
559528,822135,985056,560255.44,823424.50,985181.13
559764,822710,985388,560216.44,823325.00,985159.50
560261,822824,985643,560178.69,823230.06,985141.25
560122,822898,985718,560144.50,823142.44,985128.13
560243,823021,986209,560114.63,823063.38,985120.94
560623,823249,985909,560089.75,822993.50,985119.63
560697,823250,985935,560071.06,822933.25,985124.00
561234,823224,986066,560060.00,822882.25,985134.13
560749,823601,986545,560056.38,822840.50,985149.88
560912,823431,986205,560058.13,822808.13,985171.31
561097,823701,986326,560065.44,822784.88,985198.13
561180,823627,986651,560079.25,822770.38,985229.75
561200,823937,986582,560099.38,822764.63,985266.13
561390,823984,986596,560125.50,822767.63,985307.50
561471,824135,986698,560157.63,822779.38,985353.50
560632,824346,986573,560195.19,822800.00,985403.50
561398,824497,986932,560237.13,822829.69,985457.13
561755,824434,986918,560283.25,822867.88,985514.56
561849,825169,987294,560334.25,822913.50,985575.75
562139,825085,987343,560390.69,822966.88,985640.88
562267,825036,987291,560453.00,823028.63,985710.25
562120,825118,987293,560520.75,823098.00,985783.06
562170,825339,987608,560590.13,823174.38,985859.00
562533,825421,987674,560658.75,823257.38,985938.38
562491,825513,987624,560729.75,823346.38,986020.88
562205,825850,987841,560806.00,823440.88,986105.38
562544,825649,987898,560886.75,823539.94,986191.38
562636,825685,987867,560970.81,823642.88,986279.00
562510,825737,988024,561056.81,823748.63,986368.25
562599,825999,987948,561143.75,823857.00,986458.50
562683,826095,988099,561231.13,823968.00,986549.44
562757,826077,988116,561318.81,824081.38,986640.75
562817,826525,988423,561406.63,824196.56,986732.75
562863,826327,988282,561494.25,824313.44,986825.44
562818,826356,988294,561581.31,824431.44,986918.25
562903,826429,988797,561667.50,824549.75,987010.38
562646,826702,988597,561752.00,824668.38,987102.13
562901,826777,988799,561834.00,824787.63,987194.00
563040,826884,988814,561914.00,824907.38,987286.50
562911,827071,988961,561990.44,825028.13,987379.63
563048,827094,988984,562061.13,825150.13,987473.13
563346,827102,988949,562129.00,825272.31,987566.63
563396,827338,989219,562197.38,825393.56,987659.44
563353,827150,988988,562266.31,825513.13,987750.94
563404,827344,989252,562335.31,825630.88,987841.25
563434,827332,989207,562404.00,825747.00,987930.69
563635,827433,989160,562472.13,825861.25,988019.00
563679,827467,989274,562539.63,825973.56,988105.50
563772,827506,989298,562607.38,826083.63,988190.38
562469,827624,989734,562674.44,826191.06,988273.63
563502,827502,989496,562739.38,826295.38,988355.69
563661,827592,989488,562802.13,826396.25,988436.44
563750,827720,989750,562863.63,826494.25,988515.63
563937,827508,989465,562924.56,826589.13,988593.06
563875,827439,989338,562985.38,826679.75,988667.88
563932,827135,989185,563045.75,826765.00,988738.75
563655,826468,988944,563105.13,826843.00,988804.44
563935,826181,988750,563163.00,826911.63,988863.56
563907,825819,988725,563219.38,826967.50,988915.25
563655,825274,988738,563273.75,827008.56,988958.88
563107,825036,988391,563324.00,827033.50,988993.88
563115,824910,988366,563367.75,827041.63,989020.38
563057,824705,988170,563404.38,827033.00,989038.63
562618,824667,988253,563433.38,827009.13,989048.88
562694,824477,988304,563453.50,826971.50,989052.06
562604,824392,988145,563465.31,826920.75,989049.00
562233,824708,988469,563468.88,826857.44,989040.13
561984,824404,988252,563463.25,826783.25,989026.25
562268,824261,988187,563448.44,826700.00,989008.13
562189,824202,988279,563426.00,826608.75,988986.50
562570,824847,988619,563397.25,826512.00,988962.63
562725,825145,988795,563364.00,826413.69,988938.69
562825,825198,988847,563329.00,826317.25,988916.38
563192,825860,989233,563294.13,826224.44,988896.44
563222,825893,989272,563260.00,826137.75,988880.19
563524,825878,989287,563229.13,826058.75,988868.38
563502,826026,989795,563203.50,825988.13,988861.25
563596,826168,989809,563183.25,825926.00,988859.38
563696,826173,989684,563168.38,825872.63,988863.63
563757,826243,989821,563159.13,825827.81,988873.94
562436,826473,990186,563155.00,825791.63,988890.38
563788,826599,990080,563155.75,825764.63,988913.44
563881,826553,989959,563160.94,825746.63,988942.38
563977,826995,990160,563170.81,825736.81,988975.38
564325,826978,990251,563185.88,825735.13,989012.00
564339,826980,990120,563206.94,825742.00,989052.38
564471,827104,990279,563234.00,825757.38,989096.38
564660,827423,990541,563266.13,825781.19,989144.06
564658,827541,990540,563302.50,825813.81,989195.88
564754,827668,990685,563343.75,825855.25,989251.75
564581,827879,991287,563390.00,825904.88,989311.31
564863,827930,990995,563440.38,825961.88,989374.63
564662,827911,990895,563494.38,826026.06,989441.69
564832,828017,990928,563551.31,826096.75,989511.75
564813,828277,991145,563608.63,826173.50,989584.38
565192,828330,991212,563665.00,826256.25,989659.63
565255,828267,991198,563723.38,826344.25,989737.25
563614,828751,991712,563783.63,826436.38,989816.31
564556,828599,991388,563841.75,826532.25,989896.25
564859,828537,991329,563897.81,826631.50,989977.13
565340,828604,991611,563954.63,826733.31,990058.75
565343,828881,991527,564014.06,826837.25,990140.75
565346,828848,991548,564076.25,826943.38,990223.06
565306,828859,991615,564140.38,827051.13,990305.50
565013,829153,991884,564203.06,827159.81,990388.31
565377,829311,991923,564261.50,827269.88,990471.88
565702,829294,991912,564319.25,827381.38,990556.19
565531,829446,992384,564379.38,827493.88,990640.44
565431,829588,992184,564441.06,827606.88,990724.38
565697,829545,992160,564503.38,827720.50,990808.56
565597,829563,992147,564566.50,827834.25,990892.75
565682,829651,992267,564630.25,827947.50,990976.50
565724,829824,992387,564694.31,828060.06,991059.88
566054,829822,992389,564759.00,828172.00,991143.00
565773,830097,992689,564825.00,828283.13,991226.06
565850,830144,992530,564891.63,828393.13,991309.25
565968,830042,992535,564958.00,828502.50,991391.88
566165,830096,992654,565024.13,828610.50,991473.38
566111,830270,992826,565090.44,828716.88,991554.13
566372,830312,992962,565157.00,828822.00,991634.56
566638,830349,992772,565224.63,828925.56,991714.75
565838,830505,993331,565291.38,829027.69,991794.50
566248,830443,992949,565353.88,829128.31,991874.25
566507,830369,992996,565414.00,829226.75,991953.25
566499,830370,993296,565474.63,829322.13,992030.25
566176,829982,992728,565535.00,829413.25,992104.25
566444,829712,992528,565594.06,829498.13,992174.00
566461,829305,992394,565652.00,829574.38,992238.38
566298,828825,992338,565708.81,829640.25,992296.38
566535,828532,992110,565764.31,829694.13,992347.63
566476,828303,991971,565818.50,829734.00,992391.25
566245,828061,992113,565870.94,829758.63,992426.75
566024,827884,991875,565919.88,829768.00,992454.13
565631,827742,991748,565963.63,829762.50,992473.75
565556,827624,991834,566000.25,829742.94,992486.13
565403,827673,991822,566028.38,829710.50,992492.13
565346,827526,991908,566046.81,829666.56,992492.75
565480,827608,991934,566057.38,829612.56,992488.88
565068,827725,992194,566062.38,829550.06,992481.81
565283,827757,992077,566062.31,829481.13,992472.75
565798,827915,992248,566058.00,829407.63,992462.31
565614,828038,992487,566051.00,829331.81,992451.19
565855,828440,992499,566042.44,829256.00,992440.25
565797,828499,992668,566032.88,829182.38,992430.88
566094,828786,992844,566023.44,829112.88,992424.25
566385,829080,993238,566015.25,829048.88,992421.94
566537,829174,993215,566010.00,828991.75,992425.13
566560,829178,993183,566008.75,828942.25,992433.63
566704,829142,993739,566011.88,828900.19,992446.63
566857,829332,993510,566019.75,828865.25,992464.19
566693,829366,993494,566032.25,828837.50,992486.69
566818,829483,993405,566048.69,828817.00,992513.75
566981,829767,993813,566067.06,828804.38,992545.13
566997,829864,993767,566086.06,828800.38,992581.25
567432,829994,993909,566108.38,828804.94,992622.13
567109,830621,994370,566136.44,828817.44,992667.50
567185,830438,994005,566169.00,828838.00,992716.88
567314,830338,994085,566205.38,828866.81,992770.00
567339,830440,994168,566245.31,828903.38,992826.44
567519,830649,994355,566288.88,828947.13,992886.25
567776,830768,994481,566336.25,828998.06,992949.69
567802,830869,994479,566388.06,829055.94,993016.63
566620,831030,995061,566443.44,829120.13,993086.75
567578,831024,994794,566500.44,829189.75,993159.88
568036,831246,994860,566559.19,829264.75,993236.13
568154,831219,995097,566621.25,829345.00,993315.13
568171,831478,995060,566687.00,829430.13,993396.25
568087,831428,994999,566755.75,829519.63,993479.31
568036,831455,995068,566826.25,829612.75,993564.00
567991,831805,995452,566897.50,829709.00,993650.38
568215,831708,995157,566969.31,829808.50,993738.50
568308,831687,995325,567041.69,829910.25,993827.50
568239,832212,995887,567114.50,830013.31,993916.88
568322,832015,995551,567187.31,830117.44,994006.50
568437,831882,995479,567259.88,830222.50,994096.50
568455,832026,995551,567332.44,830327.88,994186.25
568420,832180,995790,567404.50,830433.81,994275.88
568536,832129,995771,567475.50,830540.56,994365.50
568228,832281,995779,567545.19,830647.25,994455.00
568503,832569,996194,567612.75,830753.13,994543.63
568325,832579,995876,567678.00,830858.38,994630.88
568871,832477,995953,567741.63,830963.25,994717.00
568665,832407,996026,567804.75,831067.00,994802.00
568963,832598,995953,567867.13,831168.88,994885.75
569099,832662,996003,567928.75,831269.00,994967.63
568992,832600,996118,567990.81,831367.38,995047.63
568861,832902,996256,568052.38,831463.94,995126.00
568944,832746,996150,568112.13,831559.00,995202.75
569117,832777,996098,568170.75,831652.00,995277.38
569158,832824,996592,568229.00,831742.38,995349.63
568610,832945,996422,568286.25,831830.25,995420.00
569056,832849,996402,568340.88,831915.50,995489.00
569245,832877,996296,568394.00,831997.88,995556.50
567908,833060,996714,568446.19,832077.50,995622.38
568926,832661,996292,568496.56,832154.38,995687.00
569259,832298,996216,568544.88,832226.25,995749.13
569312,831809,995879,568592.19,832290.44,995807.13
569427,831439,995701,568639.31,832344.75,995859.75
569279,831189,995640,568686.19,832386.69,995905.56
569086,830889,995583,568731.88,832414.88,995944.00
569062,830512,995604,568774.75,832428.44,995975.50
568825,830273,995310,568813.69,832426.63,995999.94
568697,830180,995281,568848.00,832409.63,996017.00
568629,830210,995798,568877.31,832378.50,996026.88
568570,830184,995384,568901.38,832335.13,996030.88
568520,830029,995498,568920.25,832281.00,996029.94
568386,830040,995569,568933.75,832217.00,996025.13
568078,830215,995726,568939.13,832144.88,996017.69
568143,830119,995837,568933.69,832066.63,996008.88
568340,830161,995756,568921.00,831983.50,995999.50
567183,830992,996492,568903.63,831897.69,995989.94
568519,831001,996352,568881.06,831812.50,995981.56
568597,831257,996638,568856.69,831731.13,995976.69
569138,831363,996924,568834.13,831655.50,995976.88
569423,831703,996920,568816.00,831587.00,995982.88
569661,831759,996975,568804.31,831526.94,995994.75
569507,831796,997017,568799.56,831475.50,996012.38
569428,831901,997139,568799.13,831432.81,996035.38
569892,832095,997293,568801.25,831399.13,996063.88
570039,832105,997274,568808.88,831374.25,996097.63
570183,832422,997750,568824.75,831357.63,996136.38
570041,832453,997638,568848.13,831348.88,996180.25
570269,832509,997634,568878.19,831348.63,996229.13
570216,832796,997878,568914.38,831357.38,996283.00
570304,832867,998123,568956.06,831375.13,996342.25
570370,833003,998127,569002.63,831401.88,996407.13
570663,832965,998112,569054.13,831436.88,996477.00
570673,833336,998600,569110.69,831479.38,996550.69
570602,833326,998373,569171.63,831528.88,996627.75
570816,833364,998476,569236.31,831585.50,996708.31
571075,833601,998603,569305.00,831648.88,996792.38
570985,833695,998674,569378.00,831718.88,996879.75
571004,833728,998658,569454.38,831795.00,996969.88
571105,833711,998739,569533.31,831876.25,997061.94
570744,834073,999226,569612.00,831962.25,997155.88
571006,834115,998950,569687.63,832053.56,997251.88
571339,834173,999117,569762.56,832149.50,997349.44
571385,834242,999477,569839.75,832249.00,997448.19
571259,834456,999156,569918.88,832351.75,997547.63
571309,834375,999235,569998.88,832457.25,997647.13
571644,834509,999363,570079.63,832564.75,997746.75
571116,834754,999448,570161.50,832674.38,997846.44
571713,834708,999502,570244.38,832786.38,997946.06
571699,834709,999506,570327.88,832899.63,998045.25
571838,834944,999670,570411.88,833013.00,998143.56
571855,835026,999771,570496.25,833126.38,998240.81
571895,834869,999592,570580.75,833239.50,998337.06
571846,835026,999482,570664.75,833351.88,998431.38
571801,835103,999719,570745.81,833463.13,998522.88
572082,835085,999693,570822.25,833573.25,998611.88
572074,835043,999840,570896.63,833681.38,998698.69
571681,835309,1000150,570970.75,833787.00,998783.38
572134,835269,1000026,571043.88,833890.19,998866.13
572118,835332,1000048,571116.19,833991.13,998947.38
572193,835376,999952,571187.50,834090.06,999027.00
572210,835505,1000033,571257.69,834186.94,999104.75
572259,835382,1000155,571326.69,834281.63,999180.31
572302,835509,1000224,571394.44,834373.75,999254.13
572205,835828,1000495,571460.88,834463.31,999326.75
572477,835721,1000357,571526.00,834550.81,999398.63
572393,835711,1000406,571590.06,834636.44,999469.38
572432,835608,1000854,571652.75,834719.75,999538.50
572054,835940,1000521,571712.94,834800.50,999605.75
572306,835832,1000542,571769.75,834879.44,999671.44
572432,836014,1000571,571823.63,834956.56,999735.88
572373,835854,1000597,571873.63,835032.31,999798.75
572523,835375,1000383,571918.63,835105.63,999859.75
572699,835114,1000102,571961.13,835173.25,999917.38
572873,834476,1000084,572004.00,835232.00,999969.75
572695,833905,999695,572047.63,835278.94,1000015.88
572551,833699,999732,572090.94,835311.25,1000054.75
572512,833448,999623,572132.75,835327.94,1000086.50
571981,833097,999373,572171.94,835328.75,1000110.81
571843,832889,999246,572206.88,835313.38,1000127.13
571631,832808,999225,572235.31,835282.25,1000135.25
570068,832699,999540,572255.31,835236.56,1000136.00
570915,832434,999304,572265.00,835177.13,1000130.63
571292,832509,999245,572264.75,835105.13,1000119.88
571096,832416,999601,572256.25,835022.25,1000104.19
571027,832523,999491,572240.50,834930.38,1000084.88
571112,832518,999510,572218.13,834831.50,1000063.31
571099,832620,999593,572189.94,834727.44,1000040.25
571191,833224,1000113,572157.25,834621.00,1000017.50
571562,833293,1000209,572121.63,834515.50,999997.25
571789,833635,1000306,572085.75,834413.88,999981.00
571973,834030,1000949,572051.75,834318.06,999969.06
572488,834216,1000716,572021.88,834230.00,999962.25
572099,834308,1000743,571997.25,834151.50,999961.19
572198,834307,1000774,571977.19,834083.25,999966.00
572433,834499,1000980,571960.25,834025.25,999976.50
572590,834439,1000972,571946.31,833977.75,999992.63
572550,834590,1001082,571937.25,833939.88,1000014.25
572733,835059,1001427,571934.13,833911.00,1000041.00
572442,834866,1001246,571936.38,833891.19,1000072.38
572780,834872,1001288,571943.13,833880.38,1000108.50
572817,835118,1001549,571954.75,833878.50,1000149.44
573267,835428,1001666,571971.38,833886.00,1000195.50
573289,835520,1001737,571993.38,833903.56,1000246.88
573358,835421,1001785,572021.75,833930.50,1000303.13
573029,835968,1002046,572056.50,833965.88,1000363.69
573405,835946,1001967,572096.81,834010.00,1000428.25
573297,835829,1001919,572141.75,834062.50,1000496.25
573387,835935,1002445,572190.25,834122.13,1000567.38
573326,836182,1002365,572241.50,834188.25,1000642.19
573616,836212,1002371,572295.38,834260.88,1000720.75
573624,836449,1002601,572352.00,834339.63,1000802.50
573047,836708,1002602,572411.06,834424.50,1000887.50
573720,836665,1002589,572471.94,834515.13,1000974.94
573972,836696,1002517,572534.94,834610.88,1001063.88
573765,836584,1002833,572600.19,834710.69,1001153.50
573828,836893,1002773,572666.88,834813.88,1001243.88
573894,836944,1002883,572734.25,834920.00,1001335.00
573941,836968,1002865,572802.13,835028.38,1001426.44
574142,837242,1003144,572869.75,835138.81,1001518.25
574168,837262,1003056,572936.56,835251.19,1001610.50
574164,837360,1003008,573003.63,835365.25,1001702.56
573819,837512,1003336,573070.63,835480.31,1001793.38
574231,837407,1003074,573136.63,835595.75,1001882.25
574446,837559,1003265,573202.63,835711.06,1001969.56
574315,837605,1003332,573269.25,835826.19,1002055.88
574259,837694,1003351,573333.75,835940.88,1002141.25
574409,837628,1003497,573393.56,836054.75,1002225.75
574440,837634,1003406,573451.38,836166.88,1002309.19
573738,838336,1003903,573508.00,836277.31,1002391.13
574249,837881,1003645,573561.00,836386.81,1002471.50
574555,837858,1003557,573612.06,836494.69,1002550.50
574473,837873,1003743,573663.38,836600.00,1002627.69
574769,838056,1003685,573715.25,836702.50,1002702.63
574904,837969,1003725,573768.50,836802.44,1002775.75
575020,838195,1003818,573823.69,836899.75,1002847.38
574195,838222,1003997,573878.38,836994.75,1002917.81
574532,838317,1004031,573928.81,837087.63,1002987.63
574844,838263,1003916,573976.56,837178.31,1003056.63
575165,838468,1004164,574025.13,837266.38,1003124.00
574872,838452,1003997,574075.13,837351.75,1003189.44
575284,838352,1004050,574126.50,837434.63,1003253.00
575019,838324,1004113,574179.00,837514.69,1003315.00
574920,837664,1003736,574232.13,837590.13,1003374.75
575200,837431,1003730,574285.38,837657.94,1003430.88
575208,837033,1003303,574339.00,837715.88,1003481.75
575163,836518,1003244,574392.75,837762.00,1003526.00
574918,836040,1003065,574446.13,837793.88,1003562.38
574787,835819,1002866,574497.13,837809.88,1003590.63
574610,835680,1002860,574544.13,837809.50,1003610.63
574098,835511,1002732,574585.63,837793.56,1003622.63
573932,835441,1002686,574619.25,837763.00,1003626.75
573963,835245,1002611,574644.25,837718.75,1003623.50
572786,835523,1002927,574658.56,837662.50,1003613.88
573516,835203,1002729,574659.69,837596.19,1003599.13
573685,835163,1002769,574650.63,837520.63,1003580.00
573464,835074,1003117,574634.88,837436.63,1003557.38
573769,835341,1002941,574613.38,837345.88,1003532.25
573805,835561,1003079,574587.69,837250.88,1003505.94
573713,835680,1003216,574559.13,837154.63,1003479.56
574099,836134,1003494,574527.94,837059.38,1003454.56
574262,836390,1003671,574495.69,836968.25,1003432.63
574444,836555,1003833,574464.94,836883.38,1003415.00
574474,836822,1004187,574437.38,836806.00,1003402.44
574317,836853,1004095,574413.00,836737.00,1003395.38
574845,836899,1004137,574392.00,836676.88,1003394.13
574821,837073,1004141,574375.75,836625.56,1003398.25
575303,837286,1004326,574364.88,836583.63,1003407.75
575126,837417,1004501,574359.50,836551.63,1003422.88
574953,837317,1004482,574359.69,836529.31,1003443.63
575226,837661,1004498,574365.38,836515.75,1003469.75
575384,837621,1004543,574377.38,836510.50,1003500.69
575400,837888,1004751,574395.44,836514.13,1003536.00
575302,837949,1005104,574418.56,836527.00,1003575.88
575621,838082,1005043,574446.13,836548.88,1003620.69
575690,838209,1004994,574478.75,836579.38,1003670.25
575680,838244,1005073,574516.13,836618.13,1003723.88
575775,838597,1005296,574557.69,836664.94,1003781.63
576111,838626,1005549,574603.19,836720.00,1003844.25
575959,838549,1005408,574653.25,836782.50,1003911.56
576047,838593,1005736,574707.50,836850.75,1003981.81
575799,838923,1005550,574764.50,836924.38,1004053.75
575969,838955,1005548,574823.19,837003.38,1004127.63
576394,839044,1005508,574883.81,837087.50,1004203.13
575581,839185,1005634,574946.94,837176.38,1004279.63
576156,839125,1005619,575011.50,837269.25,1004356.81
576359,839230,1005733,575077.06,837365.13,1004434.38
576397,839626,1005928,575144.00,837463.13,1004512.44
576439,839551,1005849,575212.25,837562.88,1004590.81
576510,839534,1005940,575281.63,837664.69,1004669.38
576294,839634,1006014,575351.25,837768.44,1004747.88
576188,839741,1006139,575417.63,837873.69,1004826.63
576392,839796,1006138,575478.00,837980.19,1004905.44
576364,839759,1006200,575535.31,838087.38,1004984.19
575507,839960,1006501,575592.56,838194.25,1005062.38
576552,839963,1006284,575650.06,838300.63,1005139.56
576739,840018,1006415,575707.94,838406.38,1005216.06
576460,840031,1006460,575765.75,838511.50,1005292.00
576798,840208,1006467,575823.00,838615.63,1005367.13
576825,840103,1006480,575880.13,838718.75,1005441.25
576760,840159,1006401,575937.25,838820.13,1005514.13
576588,840299,1006881,575993.75,838919.63,1005586.00
576841,840338,1006717,576049.00,839017.50,1005657.75
577010,840312,1006694,576103.63,839113.44,1005729.13
576990,840368,1006934,576158.13,839207.06,1005799.19
577405,840489,1006709,576213.13,839298.31,1005867.63
577004,840629,1006873,576268.88,839387.63,1005934.38
577066,840699,1006881,576324.38,839475.38,1005999.94
576898,840933,1007071,576376.19,839562.63,1006064.56
577429,840888,1007063,576422.69,839650.19,1006128.63
577128,840851,1007150,576467.44,839737.00,1006192.25
577303,840739,1007346,576512.63,839821.75,1006254.81
577245,840175,1006836,576557.88,839902.50,1006315.44
577364,839962,1006588,576603.13,839976.38,1006372.50
577611,839543,1006472,576648.88,840041.13,1006424.75
577190,838969,1006299,576695.00,840094.38,1006471.06
577339,838675,1006285,576740.25,840133.63,1006511.00
577328,838519,1006096,576784.25,840157.88,1006544.25
576627,838521,1006376,576826.63,840167.38,1006570.75
576547,838305,1005906,576865.44,840163.13,1006590.31
576533,838029,1005826,576898.31,840145.63,1006602.81
576647,838059,1006300,576924.88,840115.13,1006608.63
576327,838105,1006126,576945.56,840073.25,1006609.13
576344,838004,1005995,576959.88,840021.63,1006605.50
576347,838049,1006041,576968.00,839961.63,1006598.13
576178,838376,1006548,576970.63,839895.06,1006588.38
576634,838372,1006416,576969.00,839824.56,1006578.38
576667,838527,1006494,576964.69,839752.00,1006568.63
576986,839069,1006877,576959.25,839679.19,1006559.75
577173,839212,1006910,576954.38,839608.88,1006552.81
577385,839302,1007097,576951.69,839543.25,1006549.25
577350,839431,1007080,576952.00,839483.75,1006549.69
577763,839651,1007384,576955.25,839430.88,1006554.63
577707,839621,1007294,576961.44,839385.50,1006564.25
577829,839692,1007424,576971.88,839347.25,1006578.50
577688,840092,1007875,576986.88,839316.13,1006597.31
577834,840050,1007698,577005.75,839292.38,1006621.00
577863,840067,1007683,577028.25,839276.63,1006649.63
577878,840043,1007764,577054.25,839268.38,1006682.63
577688,840374,1007725,577082.38,839267.38,1006719.38
577884,840348,1007784,577111.25,839274.00,1006759.38
578066,840513,1007989,577142.00,839287.94,1006802.50
577844,841190,1008372,577173.94,839309.56,1006848.81
577780,840999,1008266,577204.94,839339.50,1006898.44
578269,840964,1008366,577236.31,839377.75,1006951.88
578353,840960,1008453,577270.88,839423.13,1007009.38
578441,841217,1008641,577309.25,839474.94,1007070.63
578361,841304,1008557,577351.13,839533.00,1007135.69
578526,841510,1008750,577395.88,839597.50,1007204.00
577131,841492,1009084,577442.50,839668.00,1007275.88
578413,841528,1008900,577489.63,839743.69,1007351.63
578644,841739,1008842,577537.75,839823.88,1007430.13
578928,841945,1009153,577588.38,839908.25,1007509.88
578803,841890,1009166,577642.25,839996.25,1007591.00
578652,841958,1009103,577698.13,840087.50,1007673.44
578809,842045,1009056,577755.13,840181.88,1007756.75
578930,842146,1009343,577812.75,840278.69,1007840.38
578953,842214,1009260,577871.25,840377.81,1007924.50
578927,842164,1009388,577930.50,840478.56,1008009.00
578742,842327,1009727,577990.44,840580.13,1008093.56
578976,842324,1009490,578050.88,840682.13,1008178.19
579295,842446,1009456,578111.75,840784.25,1008262.38
579224,842423,1009557,578173.38,840886.31,1008345.75
578938,842663,1009745,578234.31,840988.13,1008428.31
579170,842729,1009718,578292.63,841090.00,1008510.50
579277,842720,1009700,578349.50,841191.81,1008591.88
577644,843307,1010158,578404.25,841293.44,1008672.38
578636,842973,1009835,578453.44,841395.13,1008752.19
579180,842923,1009855,578498.25,841496.38,1008830.81
579149,842781,1010049,578541.69,841596.00,1008907.75
579336,843098,1010023,578584.88,841693.50,1008983.13
579317,843098,1009958,578628.13,841789.19,1009057.00
578995,843066,1010032,578670.81,841883.25,1009129.00
579295,843151,1010139,578710.75,841975.13,1009199.25
579498,843230,1010244,578747.50,842065.00,1009268.13
579624,843200,1010145,578784.00,842152.75,1009335.63
579783,843234,1010462,578822.38,842238.00,1009401.38
579734,843287,1010240,578863.00,842320.75,1009465.31
579616,843286,1010334,578905.00,842400.75,1009527.50
579824,843322,1010239,578947.88,842478.00,1009587.88
579882,842627,1010148,578991.88,842550.94,1009646.00
579846,842451,1009909,579037.00,842616.88,1009700.75
579870,842061,1009796,579082.75,842673.44,1009750.75
579669,841455,1009839,579128.69,842718.88,1009795.13
579678,841149,1009489,579174.06,842751.00,1009833.06
579686,840908,1009387,579218.06,842768.13,1009864.13
579641,840782,1009590,579260.19,842769.81,1009888.00
579071,840653,1009360,579299.25,842756.75,1009904.88
579051,840428,1009193,579333.00,842729.69,1009915.25
578933,840417,1009230,579360.63,842689.38,1009919.50
578435,840339,1009867,579380.31,842637.50,1009918.69
578364,840186,1009425,579389.88,842575.81,1009914.38
578623,840015,1009154,579390.63,842504.38,1009906.69
578443,840163,1009642,579384.81,842423.69,1009895.19
578513,840249,1009555,579373.25,842335.88,1009880.88
578723,840450,1009624,579357.00,842243.19,1009865.63
578764,840540,1009642,579337.75,842148.13,1009850.31
578196,841079,1010018,579316.25,842053.06,1009835.88
579143,841293,1010158,579293.75,841961.13,1009824.13
579391,841534,1010186,579272.50,841875.00,1009815.94
579573,841950,1010458,579254.44,841796.38,1009811.63
579656,841899,1010626,579240.69,841726.50,1009811.88
579659,841885,1010563,579231.44,841665.75,1009817.38
579662,841955,1010722,579226.38,841613.88,1009828.13
579380,842020,1010722,579222.75,841570.63,1009843.88
579809,842132,1010721,579218.44,841535.75,1009864.25
580015,842234,1011010,579216.75,841509.25,1009889.00
579706,842561,1011222,579220.50,841491.25,1009918.25
580114,842448,1011329,579229.50,841481.31,1009952.13
580240,842620,1011253,579243.75,841479.75,1009991.13
580315,842776,1011527,579263.63,841486.63,1010035.00
580525,843019,1011629,579289.00,841502.25,1010083.63
580759,843068,1011638,579320.50,841526.88,1010137.31
580496,843077,1011480,579358.00,841559.75,1010195.38
580436,843543,1011962,579399.75,841600.38,1010257.19
580606,843521,1011776,579444.81,841648.94,1010323.00
580938,843566,1012055,579493.38,841705.25,1010392.63
580913,843647,1012209,579546.25,841768.63,1010465.50
580331,843988,1012179,579601.88,841838.88,1010541.25
580783,844011,1012260,579658.19,841915.94,1010619.69
581061,843985,1012363,579715.75,841999.25,1010701.00
580847,844227,1012471,579773.75,842087.88,1010785.00
580846,844276,1012472,579829.63,842181.56,1010871.25
581110,844257,1012513,579885.00,842279.50,1010959.25
581056,844623,1012673,579942.25,842380.63,1011048.00
581522,844499,1012648,580001.94,842484.38,1011137.25
581274,844657,1012617,580064.38,842590.69,1011226.75
581321,844656,1012766,580128.88,842699.38,1011316.13
581477,844685,1012769,580194.25,842809.63,1011405.44
581304,844713,1012740,580259.88,842920.75,1011494.19
581661,844794,1012813,580326.13,843031.94,1011581.81
580521,845096,1013141,580392.94,843143.00,1011668.00
581337,844849,1012983,580459.25,843253.56,1011752.50
581572,845028,1012991,580524.63,843363.13,1011835.81
581634,844984,1013452,580589.69,843471.69,1011917.88
581860,845246,1013124,580655.06,843579.13,1011998.75
581773,845287,1013155,580721.00,843685.81,1012078.38
581706,845160,1013188,580786.88,843791.38,1012156.50
581684,845612,1013519,580852.13,843895.44,1012233.50
582010,845472,1013382,580916.88,843998.63,1012310.13
581909,845559,1013512,580981.44,844100.75,1012386.13
581850,845424,1013745,581045.25,844201.19,1012460.75
581916,845578,1013635,581107.75,844299.38,1012533.63
582117,845681,1013668,581169.06,844395.31,1012605.38
582059,845592,1013745,581229.63,844489.13,1012676.56
582093,845696,1013880,581288.75,844580.63,1012747.38
582026,845714,1013866,581345.13,844670.25,1012817.88
582116,845836,1013672,581399.63,844757.56,1012887.50
582253,846157,1013927,581453.00,844842.25,1012955.13
581903,845706,1013775,581505.06,844924.00,1013020.63
582306,845351,1013582,581555.31,845001.38,1013083.56
582318,844992,1013440,581604.38,845072.31,1013142.81
582387,844384,1013212,581652.50,845133.88,1013197.13
582279,844000,1012986,581698.88,845183.13,1013245.13
582219,843676,1012822,581743.50,845218.13,1013285.81
581860,843567,1012761,581785.94,845237.94,1013318.50
581662,843084,1012622,581824.44,845242.38,1013343.00
581600,842973,1012759,581857.56,845231.00,1013359.88
581360,842685,1012840,581884.63,845204.19,1013369.88
580668,842614,1012623,581903.88,845162.44,1013373.50
580918,842461,1012500,581913.50,845106.81,1013371.00
580910,842533,1012532,581914.25,845038.75,1013362.75
579830,842537,1012849,581907.38,844960.25,1013349.88
580364,842503,1012708,581892.38,844873.25,1013334.00
580845,842501,1012808,581869.56,844779.13,1013315.88
580774,842853,1012820,581841.00,844679.69,1013296.00
581098,843099,1013081,581808.63,844577.56,1013275.50
581169,843167,1013246,581774.38,844475.88,1013255.75
581380,843399,1013388,581740.00,844376.88,1013238.25
581738,843873,1013781,581706.38,844282.75,1013224.31
581850,844064,1013905,581674.63,844196.13,1013215.63
581971,843996,1013781,581647.00,844118.25,1013212.56
581637,844380,1014443,581624.06,844049.13,1013214.50
582424,844273,1014188,581605.94,843989.13,1013221.56
582431,844484,1014244,581594.50,843938.44,1013234.50
582163,844495,1014209,581590.13,843897.38,1013253.19
581998,844836,1014430,581588.81,843866.06,1013277.13
582386,844808,1014706,581588.25,843844.88,1013306.75
582309,844758,1014538,581591.00,843833.13,1013342.38
581719,845248,1014993,581597.50,843830.69,1013383.00
582518,845112,1014832,581606.31,843838.00,1013428.13
582628,845213,1014833,581619.38,843854.25,1013477.88
582644,845288,1015389,581638.00,843878.50,1013532.00
582864,845496,1015103,581662.25,843910.50,1013590.75
582447,845580,1015096,581691.25,843950.13,1013653.56
583048,845710,1015165,581724.25,843997.13,1013719.69
582234,845967,1015701,581759.88,844051.38,1013789.50
582987,846134,1015730,581796.50,844113.38,1013864.25
583588,846241,1015621,581836.75,844182.88,1013943.50
583321,846611,1015993,581883.38,844259.25,1014026.06
583508,846510,1015969,581936.00,844342.06,1014111.25
583586,846498,1015972,581993.63,844430.69,1014199.38
583634,846675,1016092,582056.19,844524.38,1014290.44
583527,846893,1016099,582122.50,844622.88,1014383.75
583623,846870,1016157,582191.63,844726.00,1014478.75
583694,846906,1016226,582262.88,844832.88,1014574.94
583254,846973,1016527,582336.38,844942.25,1014671.88
583757,847042,1016317,582411.75,845053.44,1014768.88
584044,847092,1016284,582488.75,845166.00,1014865.75
583908,847106,1016401,582567.25,845279.38,1014961.88
583740,847386,1016550,582645.13,845393.25,1015057.31
583944,847376,1016499,582720.00,845507.88,1015152.13
584163,847519,1016577,582793.88,845623.00,1015245.88
582623,848031,1017022,582866.63,845739.00,1015339.13
584041,847774,1016811,582935.88,845856.44,1015432.63
584403,847754,1016737,583003.81,845974.38,1015525.50
584032,847713,1017366,583072.69,846091.50,1015616.56
584205,847839,1017048,583141.50,846207.13,1015705.88
584326,847764,1016891,583209.88,846320.69,1015793.81
584408,847882,1016803,583278.38,846431.88,1015879.56
583915,848000,1016896,583345.75,846540.88,1015962.38
584266,847977,1016899,583410.25,846648.13,1016042.13
584243,847997,1017088,583472.50,846752.81,1016119.13
584479,848115,1017126,583533.56,846854.63,1016193.44
584576,848132,1016976,583594.13,846953.56,1016264.75
584706,848164,1017118,583654.88,847049.63,1016333.06
584725,848290,1017313,583715.88,847142.69,1016399.13
584716,848330,1017240,583776.75,847233.13,1016463.75
584429,848284,1017332,583836.38,847320.81,1016526.63
584790,848291,1017219,583894.25,847405.38,1016587.63
584667,848435,1017125,583951.19,847486.50,1016646.69
584683,847900,1016836,584007.31,847563.38,1016702.88
584701,847521,1016880,584062.00,847633.75,1016754.50
584699,847163,1016903,584114.88,847695.06,1016800.81
584745,846501,1016596,584165.94,847744.75,1016841.38
584722,846233,1016282,584215.13,847780.19,1016875.25
584392,845907,1016209,584261.63,847800.06,1016901.13
583750,845808,1016430,584302.69,847804.88,1016919.44
583971,845503,1016134,584335.50,847795.56,1016930.88
583819,845332,1015928,584360.63,847771.50,1016935.25
583772,845278,1016244,584379.00,847732.63,1016932.00
583138,845137,1015786,584389.63,847680.13,1016921.50
583369,844988,1015825,584391.50,847615.25,1016904.25
583059,845228,1015884,584384.75,847539.38,1016881.13
582564,845099,1015927,584369.38,847455.06,1016853.44
583235,845074,1016129,584346.13,847364.00,1016822.50
583395,845137,1016081,584317.25,847267.19,1016789.63
583401,845951,1016323,584284.75,847166.38,1016755.63
583701,845936,1016557,584250.13,847064.63,1016721.88
583823,846140,1016716,584215.19,846965.75,1016690.50
584063,846206,1016854,584181.75,846872.25,1016662.94
583926,846619,1017021,584148.88,846785.38,1016640.06
584256,846598,1017014,584115.50,846706.75,1016622.38
584225,846516,1017054,584084.63,846636.38,1016609.69
584194,847042,1017017,584059.00,846573.88,1016601.63
584442,846882,1017116,584038.75,846519.38,1016597.88
584726,846935,1017274,584024.50,846473.56,1016598.50
584691,847001,1017489,584016.38,846436.56,1016603.88
584854,847197,1017421,584014.63,846408.25,1016614.13
584949,847257,1017567,584019.00,846388.88,1016629.25
584960,847439,1017714,584029.63,846378.25,1016649.50
584823,847655,1018080,584045.50,846376.75,1016675.63
585041,847580,1017873,584066.13,846384.44,1016707.94
585126,847751,1017944,584091.25,846400.50,1016745.50
585092,847983,1018332,584120.88,846424.63,1016787.63
585187,848087,1018161,584154.25,846457.13,1016834.44
585410,848187,1018097,584191.63,846497.75,1016885.25
585404,848182,1018208,584233.00,846545.81,1016939.38
585192,848466,1018358,584275.63,846601.00,1016996.44
585441,848558,1018342,584316.69,846663.31,1017056.50
585730,848714,1018208,584359.13,846732.50,1017118.75
585554,849001,1018731,584405.88,846807.75,1017182.38
585786,848759,1018751,584456.25,846888.00,1017248.00
585511,848885,1018597,584509.50,846972.63,1017316.19
585565,849047,1018623,584564.50,847061.25,1017386.06
585579,849099,1018868,584619.31,847153.88,1017457.19
585602,849242,1018743,584672.88,847250.06,1017529.56
585640,849171,1018815,584726.13,847349.19,1017602.69
584222,849272,1019068,584780.00,847450.25,1017676.13
585681,849502,1018841,584834.50,847552.75,1017749.38
586013,849430,1019041,584889.63,847656.88,1017822.50
586083,849497,1019236,584946.06,847762.00,1017895.50
586067,849655,1019178,585004.00,847867.75,1017968.31
585855,849641,1019076,585062.50,847973.81,1018040.88
586040,849608,1019035,585120.75,848079.63,1018112.56
585832,849987,1019334,585178.50,848184.75,1018183.25
586064,849849,1019247,585235.81,848289.38,1018253.31
586148,849912,1019266,585292.63,848393.25,1018322.63
586190,849976,1019911,585348.88,848496.06,1018390.88
586231,849971,1019580,585404.75,848597.50,1018458.63
585602,849991,1019437,585458.88,848697.06,1018526.06
586184,850011,1019413,585510.00,848794.44,1018592.44
586185,850381,1019632,585558.00,848890.19,1018657.50
586450,850211,1019631,585603.88,848985.13,1018721.63
586497,850184,1019698,585649.25,849078.38,1018785.00
586536,850686,1020233,585695.56,849169.38,1018847.63
586381,850506,1019732,585742.25,849258.75,1018909.56
586504,850456,1019854,585788.56,849346.50,1018970.50
586703,850550,1019872,585834.88,849432.38,1019030.63
586617,850436,1019837,585881.13,849516.00,1019089.69
586725,850137,1019615,585927.06,849596.25,1019147.00
586738,849846,1019481,585972.88,849671.00,1019201.13
586513,849519,1019294,586018.38,849738.38,1019251.13
586401,848793,1019027,586062.19,849795.50,1019296.00
586702,848485,1019008,586104.00,849839.50,1019334.38
586554,848310,1019009,586144.50,849868.63,1019365.75
585945,847970,1018737,586182.38,849882.63,1019389.94
586028,847997,1018853,586215.31,849881.75,1019407.13
585967,847777,1018667,586242.81,849866.63,1019417.69
584893,847839,1018861,586264.94,849838.63,1019422.25
585546,847700,1018653,586281.06,849798.88,1019421.38
585527,847557,1018660,586290.38,849748.50,1019415.50
585663,847756,1018697,586293.38,849688.38,1019404.75
585934,847696,1018744,586291.56,849620.38,1019390.06
585855,847854,1018922,586286.75,849546.50,1019372.56
585819,847912,1018967,586279.38,849468.69,1019353.63
586205,848524,1019356,586269.19,849389.63,1019334.69
586247,848675,1019352,586256.88,849312.75,1019317.44
586246,848757,1019565,586244.63,849240.00,1019302.88
586047,849081,1020136,586233.63,849172.13,1019291.75
586592,849167,1019883,586223.75,849110.06,1019285.13
586847,849133,1019855,586217.25,849054.94,1019283.25
586639,849222,1020002,586215.31,849007.06,1019286.00
586596,849461,1020184,586214.75,848966.63,1019293.88
586792,849429,1020206,586213.19,848934.00,1019307.00
586836,849479,1019987,586213.56,848909.13,1019324.69
586030,850072,1020375,586216.31,848891.88,1019345.44
587015,849782,1020413,586219.56,848882.75,1019369.06
587191,849857,1020403,586226.19,848881.63,1019396.63
587397,850010,1020827,586239.19,848887.88,1019428.63
587259,850199,1020614,586258.50,848901.63,1019464.94
587390,850298,1020773,586283.38,848923.13,1019505.50
587428,850344,1020750,586313.25,848952.06,1019550.31
586634,850630,1021110,586345.31,848987.88,1019599.38
587179,850745,1020960,586376.38,849030.63,1019652.75
587544,850789,1020983,586408.50,849080.38,1019709.75
587342,851026,1021416,586444.13,849136.63,1019769.25
587604,850942,1021221,586483.00,849198.44,1019830.75
587544,850995,1021207,586524.88,849265.50,1019894.63
587394,850930,1021161,586569.13,849337.13,1019960.50
587628,851208,1021364,586614.38,849412.56,1020027.88
587720,851312,1021363,586660.38,849492.00,1020096.81
587842,851364,1021537,586708.19,849575.31,1020167.19
587809,851654,1022085,586758.25,849661.88,1020239.00
587694,851538,1021628,586809.50,849750.88,1020312.13
587885,851525,1021720,586861.75,849842.13,1020386.13
587980,851636,1021677,586915.13,849935.25,1020461.00
587859,851838,1021839,586969.63,850030.00,1020536.38
588139,851884,1021815,587024.94,850126.63,1020612.00
588132,851781,1021827,587081.38,850224.50,1020687.63
587137,852286,1022420,587137.00,850323.38,1020763.50
587737,852091,1022063,587188.88,850423.75,1020840.25
588101,851967,1022174,587238.00,850524.75,1020917.38
587858,852026,1022125,587286.63,850624.81,1020994.25
588215,852226,1022232,587334.88,850723.63,1021070.38
587992,852223,1022132,587382.88,850821.44,1021145.50
587975,852210,1022144,587430.00,850918.00,1021219.25
588127,852281,1022207,587475.81,851013.00,1021291.19
588359,852330,1022395,587520.75,851106.31,1021361.63
588405,852437,1022399,587566.00,851197.81,1021431.00
588154,852466,1022738,587611.63,851287.50,1021499.25
588139,852505,1022516,587656.19,851375.13,1021566.13
588370,852653,1022569,587699.63,851460.94,1021631.75
588391,852513,1022513,587742.44,851544.88,1021696.38
588280,852683,1022440,587784.63,851626.63,1021759.38
588349,852572,1022440,587825.75,851706.00,1021820.13
588545,852590,1022405,587865.94,851782.63,1021878.19
588281,852249,1022310,587906.00,851855.88,1021933.50
588494,851822,1022226,587945.75,851923.88,1021985.63
588547,851343,1022060,587984.88,851983.38,1022033.50
588577,851090,1022092,588023.50,852031.63,1022076.00
588596,850421,1021707,588061.63,852066.56,1022112.31
588332,850320,1021542,588098.63,852086.44,1022141.50
588381,850194,1021425,588133.63,852091.00,1022163.00
587556,850071,1021899,588164.75,852081.69,1022177.44
587832,849820,1021512,588190.06,852059.50,1022186.13
587910,849759,1021398,588209.50,852024.50,1022189.13
587811,849659,1021580,588224.19,851976.88,1022186.13
587415,849526,1021380,588233.56,851917.75,1022177.63
587670,849616,1021470,588237.06,851848.56,1022164.38
587622,849613,1021520,588235.44,851771.00,1022147.50
586537,849815,1021485,588229.31,851687.38,1022127.88
587506,849838,1021683,588218.75,851600.13,1022106.31
587832,850059,1021720,588204.69,851510.88,1022083.88
587903,850696,1022084,588189.13,851421.44,1022061.75
588142,850679,1022120,588173.63,851334.25,1022041.25
588212,850831,1022345,588159.38,851251.88,1022023.75
588090,851031,1022447,588146.75,851176.13,1022010.50
588202,851173,1022627,588133.50,851108.19,1022002.13
588547,851158,1022599,588118.25,851048.38,1021998.81
588590,851182,1022646,588105.25,850996.50,1022000.50
588189,851551,1022921,588097.69,850952.25,1022006.50
588480,851466,1023044,588095.31,850915.81,1022017.25
588644,851578,1023114,588096.94,850887.63,1022033.63
588903,851685,1023273,588102.56,850867.81,1022055.88
588879,851871,1023188,588112.88,850856.44,1022083.63
588881,851890,1023219,588127.56,850853.50,1022116.19
588973,852091,1023251,588146.25,850858.88,1022153.00
589038,852440,1023657,588168.94,850872.44,1022194.13
589313,852362,1023709,588196.31,850894.00,1022240.56
589128,852499,1023613,588228.06,850923.63,1022292.00
589139,852611,1024057,588263.06,850961.31,1022347.38
589015,852818,1023879,588300.13,851006.75,1022406.13
589230,852752,1023841,588338.75,851059.75,1022468.44
589527,852910,1023926,588379.44,851119.25,1022533.63
589280,853199,1024148,588421.25,851185.38,1022601.63
589203,853227,1024177,588461.75,851258.81,1022672.69
589240,853312,1024162,588501.56,851338.50,1022746.31
589498,853904,1024507,588542.56,851422.88,1022821.75
589701,853445,1024323,588585.63,851511.19,1022898.75
589427,853453,1024419,588631.00,851602.94,1022977.00
589931,853583,1024314,588678.25,851697.69,1023056.38
589873,853685,1024572,588727.63,851795.00,1023136.25
589772,853642,1024557,588778.38,851894.63,1023216.75
589902,853757,1024445,588830.38,851995.50,1023297.50
588485,853875,1024748,588883.00,852097.50,1023377.38
589717,853872,1024744,588934.75,852200.25,1023456.38
589720,853933,1024586,588985.63,852303.31,1023534.75
590004,854012,1024773,589036.38,852406.25,1023612.00
589973,854288,1024842,589087.63,852509.19,1023688.00
590170,854175,1024749,589139.88,852612.38,1023762.88
590077,854257,1024859,589192.94,852715.25,1023836.63
590047,854476,1024978,589246.13,852817.38,1023909.25
590239,854271,1024979,589298.88,852918.44,1023981.00
590265,854371,1024923,589351.75,853017.94,1024051.50
590024,854505,1025637,589404.69,853115.38,1024120.56
590303,854520,1025218,589456.88,853210.75,1024188.81
589903,854573,1025152,589507.81,853304.19,1024256.38
590066,854529,1025302,589556.75,853395.81,1024322.88
590542,854708,1025362,589602.06,853485.88,1024388.63
590579,854572,1025251,589643.88,853574.81,1024453.56
590194,854624,1025314,589684.69,853661.50,1024517.00
590325,855178,1025859,589725.38,853745.25,1024578.63
590198,854940,1025558,589765.25,853826.75,1024638.69
590450,854893,1025488,589804.25,853906.56,1024697.81
590613,854838,1025707,589843.25,853984.25,1024756.38
590506,854474,1025186,589882.44,854058.44,1024813.63
590612,853982,1025019,589921.50,854126.75,1024867.50
590507,853498,1024666,589960.38,854186.00,1024915.88
590352,853276,1024628,589998.63,854233.88,1024957.13
590362,852706,1024280,590035.25,854268.38,1024990.25
590275,852235,1024120,590069.88,854287.63,1025014.50
590015,851932,1024214,590101.63,854289.88,1025029.50
589391,851711,1023886,590128.25,854274.81,1025035.38
589279,851431,1023964,590147.38,854242.63,1025032.63
589312,851502,1023812,590158.13,854194.25,1025022.00
588325,851324,1023994,590160.88,854131.63,1025004.31
588695,851070,1023809,590155.13,854056.13,1024980.69
588713,851037,1023797,590140.13,853968.38,1024951.56
588599,851106,1023940,590116.19,853869.13,1024917.69
588503,850969,1023829,590084.00,853760.13,1024880.06
588645,850950,1023921,590044.38,853643.25,1024839.50
588581,851158,1024019,589998.88,853520.88,1024796.88
588895,851591,1024596,589948.31,853395.88,1024754.50
589151,851789,1024601,589894.50,853271.94,1024714.81
589052,852017,1024654,589840.25,853151.75,1024679.06
589183,852504,1025377,589787.00,853037.50,1024647.50
589742,852666,1025158,589736.38,852931.63,1024621.25
589665,852454,1025150,589690.63,852835.13,1024601.25
589802,852718,1025222,589650.38,852748.13,1024587.81
589702,853011,1025337,589613.88,852671.13,1024580.63
590042,853084,1025391,589579.56,852605.25,1024579.75
590181,853126,1025336,589550.50,852550.50,1024584.75
589458,853479,1026061,589527.50,852506.75,1024594.94
590209,853376,1025804,589508.38,852473.75,1024610.75
590027,853493,1025778,589494.50,852451.31,1024632.88
590163,853488,1026032,589486.75,852438.88,1024660.88
590546,853851,1026013,589485.31,852436.31,1024694.31
590407,853966,1026254,589490.81,852443.94,1024733.63
590401,854008,1026175,589502.63,852461.69,1024778.75
590016,854306,1026532,589517.75,852489.00,1024829.75
590556,854333,1026541,589534.13,852525.63,1024886.50
590906,854482,1026462,589554.63,852571.25,1024948.56
590845,854799,1026790,589581.75,852625.13,1025014.63
590845,854833,1026721,589615.13,852686.75,1025084.00
590987,854866,1026686,589653.75,852756.25,1025156.75
591058,855019,1026701,589697.50,852833.25,1025232.25
591067,855147,1026925,589745.31,852917.13,1025310.06
591031,855259,1026887,589795.75,853007.50,1025390.13
591174,855202,1027043,589848.94,853103.38,1025472.00
591184,855241,1027363,589905.50,853203.75,1025555.63
591070,855396,1027267,589964.63,853307.63,1025641.00
591441,855527,1027202,590025.94,853414.75,1025727.75
591406,855578,1027168,590089.63,853524.50,1025815.25
591494,855820,1027477,590155.75,853636.81,1025902.94
591513,855742,1027488,590223.75,853751.38,1025991.38
591652,855797,1027388,590293.50,853867.19,1026080.13
590350,856450,1028039,590362.00,853983.88,1026168.88
591264,856115,1027719,590425.88,854101.50,1026258.06
591496,856023,1027643,590486.88,854219.81,1026347.38
591387,856020,1027862,590547.44,854337.56,1026435.63
591545,856207,1027754,590607.50,854454.19,1026522.13
