176044,491179,531805,172289.34,490303.63,532041.25
173215,488986,530792,172609.97,490501.25,532094.13
171602,487929,530236,172904.03,490666.69,532132.00
170082,486982,529939,173156.47,490792.88,532152.13
167146,485880,529317,173356.34,490877.03,532153.50
166331,485272,529029,173495.41,490917.50,532135.31
165634,485041,528976,173568.06,490913.56,532097.38
165143,484841,528935,173574.52,490867.13,532041.13
164505,484576,528879,173518.28,490781.97,531968.75
164112,484464,528788,173403.13,490661.69,531882.31
164015,484480,528798,173234.06,490510.38,531783.50
163453,484468,528837,173016.63,490332.75,531674.50
163725,484567,528843,172756.48,490133.41,531557.50
163676,484535,528825,172460.28,489916.53,531434.25
163701,484984,529071,172134.69,489686.00,531306.31
164049,485071,529022,171786.16,489446.25,531175.31
164298,485303,529160,171421.69,489202.31,531043.63
164427,485452,529177,171047.64,488958.25,530913.38
165189,485961,529457,170669.25,488717.88,530786.25
165654,486325,529537,170292.83,488485.22,530663.88
165978,486579,529705,169925.44,488263.81,530547.81
166739,487092,529904,169572.45,488055.88,530439.00
167114,487329,529975,169238.22,487863.38,530338.38
167413,487464,530127,168926.88,487688.69,530246.75
167618,487534,530145,168640.81,487532.69,530164.81
168040,487824,530312,168381.20,487395.44,530092.63
168217,487949,530248,168149.08,487277.06,530030.00
168418,488158,530398,167944.72,487177.63,529976.88
168746,488541,530670,167767.06,487097.22,529933.13
169192,488657,530732,167615.75,487036.06,529899.50
169541,488846,530715,167492.59,486993.91,529875.75
169724,488786,530884,167398.56,486969.81,529860.75
170373,489458,531021,167333.41,486963.13,529853.88
170745,489462,530968,167297.64,486974.28,529855.50
170992,489747,531097,167291.06,487002.81,529865.38
171395,490220,531292,167312.16,487048.31,529883.31
171802,490361,531425,167359.75,487110.88,529909.38
172310,490598,531424,167433.97,487189.91,529943.13
172546,490902,531555,167534.69,487284.44,529983.94
173100,491051,531532,167660.83,487393.38,530030.81
173346,491000,531544,167811.41,487515.63,530083.13
173600,491288,531584,167984.84,487649.63,530140.00
174152,491634,531853,168178.72,487794.66,530201.13
174477,491789,531952,168391.44,487950.44,530267.00
174704,492000,532039,168622.72,488116.13,530337.38
175154,492241,532132,168871.50,488290.69,530411.75
175489,492375,532260,169136.33,488473.16,530489.69
175806,492528,532209,169416.28,488662.69,530570.88
175975,492605,532310,169709.91,488858.06,530654.69
176400,492774,532322,170015.41,489058.19,530740.25
176539,492466,532164,170331.25,489261.13,530826.75
176279,492056,531954,170654.77,489463.56,530912.88
174570,490386,531384,170980.97,489660.75,530995.81
173410,489029,530603,171300.41,489844.38,531071.50
172017,488077,530219,171599.53,490003.06,531135.63
170324,487104,529578,171866.09,490129.00,531185.25
167329,485391,529066,172087.75,490216.69,531217.88
166171,484838,528807,172251.95,490260.94,531231.63
165356,484479,528572,172353.03,490260.63,531226.13
164039,483981,528415,172390.47,490218.44,531201.88
163727,483784,528261,172364.86,490137.28,531160.19
163434,483672,528292,172279.41,490019.91,531102.44
163211,484080,528520,172139.39,489870.06,531030.94
163113,483817,528307,171950.69,489692.69,530947.88
163205,483903,528338,171719.81,489493.06,530855.44
163138,484038,528431,171453.41,489276.03,530755.50
163162,484244,528426,171157.50,489046.25,530650.13
163335,484346,528599,170837.92,488808.13,530541.13
163518,484568,528604,170500.86,488565.50,530430.38
164070,485143,529026,170152.28,488322.09,530319.50
164463,485390,529018,169798.50,488082.19,530210.50
164881,485627,529127,169446.59,487850.13,530105.25
165295,486042,529501,169102.53,487629.28,530005.38
166028,486598,529586,168771.52,487423.00,529912.25
166638,486895,529665,168459.03,487234.44,529827.38
166877,487004,529719,168169.19,487065.13,529751.25
167354,487515,529915,167903.94,486915.78,529684.00
167631,487541,529883,167664.70,486786.97,529626.00
167986,487600,529945,167453.05,486678.63,529576.81
168179,488066,530212,167269.81,486590.13,529536.13
168679,488139,530186,167115.28,486521.25,529503.94
169086,488388,530333,166990.13,486472.25,529480.50
169264,488556,530305,166894.58,486442.84,529465.75
169801,488943,530600,166827.69,486432.75,529459.38
170151,489114,530576,166788.97,486441.78,529461.63
170421,489367,530730,166778.72,486469.44,529472.00
170590,489904,531095,166796.14,486515.09,529490.25
171450,489938,531042,166840.53,486578.25,529516.38
171749,490162,531043,166912.42,486658.38,529550.13
172042,490294,531128,167011.25,486754.59,529591.00
172675,490771,531360,167134.72,486866.06,529638.63
173018,490945,531330,167281.25,486992.44,529692.75
173229,491102,531386,167451.13,487132.94,529752.63
173429,491715,531638,167642.91,487286.25,529817.81
173914,491640,531640,167854.25,487451.75,529887.88
174184,491737,531699,168084.34,487628.31,529962.50
174563,491921,531855,168332.28,487814.38,530041.00
175189,492159,531883,168597.19,488008.81,530122.56
175300,492125,531672,168878.33,488210.25,530206.69
175582,492315,531722,169173.80,488417.16,530292.13
175924,492599,531852,169480.75,488628.31,530378.25
176464,492800,531968,169797.50,488843.25,530464.94
176709,492956,531967,170124.50,489061.69,530552.25
176955,493320,532239,170461.31,489283.09,530639.75
177245,493033,531962,170806.25,489506.38,530726.75
177212,492549,531870,171157.23,489728.59,530812.50
176662,491933,531542,171510.42,489945.19,530895.50
174347,489694,530425,171859.09,490147.94,530972.13
172908,488512,529951,172191.56,490325.53,531036.88
171257,487234,529314,172492.34,490468.88,531085.88
168173,485601,528804,172748.91,490572.41,531116.81
166948,484922,528455,172950.75,490631.78,531128.44
166046,484525,528256,173088.31,490644.25,531119.88
165101,484234,528131,173158.16,490610.69,531091.56
164062,483843,528000,173160.69,490534.25,531044.88
163782,483701,527919,173097.73,490418.31,530981.50
163460,483535,527851,172973.94,490266.75,530903.13
163145,483714,528183,172794.77,490084.28,530812.13
163188,483679,528013,172566.06,489876.09,530711.13
163258,483681,527914,172295.31,489647.00,530602.13
163115,483836,528269,171989.81,489401.38,530486.50
163278,484220,528187,171655.77,489144.25,530366.38
163602,484373,528301,171299.88,488880.84,530244.25
163869,484666,528405,170929.31,488615.59,530122.19
164342,485284,528661,170550.66,488352.69,530002.19
164907,485577,528846,170170.56,488096.72,529886.38
165347,485941,529000,169796.03,487852.00,529776.38
165797,486555,529113,169432.88,487621.69,529673.38
166537,486614,529267,169086.25,487407.97,529577.88
166940,486729,529271,168760.98,487212.81,529490.88
167247,486946,529389,168460.38,487037.19,529412.63
167633,487185,529585,168185.42,486881.50,529343.50
167868,487326,529546,167936.72,486746.13,529283.88
168099,487639,529691,167715.83,486631.19,529233.50
168270,488159,530089,167523.59,486536.69,529192.13
168769,488202,529941,167360.11,486462.72,529159.75
169208,488330,529912,167226.06,486409.50,529136.38
169290,488372,530071,167121.56,486376.44,529121.69
169997,488712,530060,167046.34,486362.38,529115.06
170234,488887,530172,167000.69,486366.84,529116.25
170683,489070,530289,166984.41,486389.25,529125.00
171229,489676,530561,166996.64,486428.75,529141.56
171540,489742,530558,167036.77,486485.13,529166.06
171766,489902,530712,167104.38,486558.19,529198.19
172272,490277,531073,167198.66,486647.56,529237.50
172820,490518,530981,167319.08,486752.75,529283.63
173078,490688,530992,167465.09,486873.06,529336.38
173292,490838,531028,167634.97,487007.13,529395.13
173743,491165,531166,167825.86,487153.94,529459.06
174143,491344,531241,168035.78,487312.94,529527.88
174322,491401,531321,168264.47,487482.63,529601.25
174586,492033,531653,168510.81,487661.69,529678.63
175209,492112,531534,168773.38,487849.75,529759.63
175482,492296,531590,169051.59,488046.63,529844.00
175663,492454,531574,169344.06,488251.50,529931.19
176286,492770,531757,169648.55,488463.38,530020.50
176426,492891,531838,169963.53,488681.56,530111.88
176671,492864,531788,170288.31,488904.69,530204.88
176959,493045,531762,170621.44,489130.88,530298.75
176815,492546,531584,170960.34,489357.66,530392.31
176328,491760,531254,171301.34,489580.50,530483.38
175465,490793,530402,171638.44,489792.81,530569.44
172690,488657,529861,171960.53,489985.44,530646.63
171195,487590,529353,172252.52,490147.69,530710.00
169678,486618,528955,172502.50,490272.31,530756.13
166595,485289,528472,172702.52,490356.19,530783.56
165960,484818,528248,172844.59,490397.13,530791.38
165268,484442,528057,172922.39,490393.78,530779.63
164777,484312,527906,172935.44,490347.69,530749.56
164093,484119,527821,172886.92,490262.63,530702.38
163937,484082,527985,172780.72,490142.88,530640.25
163925,484165,527965,172622.52,489993.00,530565.56
163642,484311,527915,172418.88,489818.16,530480.56
163741,484368,528097,172175.91,489623.38,530387.19
163729,484487,528108,171899.66,489413.06,530287.69
163835,484725,528479,171596.25,489191.19,530184.00
164296,484970,528340,171272.28,488961.72,530077.94
164509,485238,528425,170934.80,488729.56,529971.50
164946,485541,528459,170590.30,488499.09,529866.13
165737,486235,528843,170244.34,488274.75,529763.38
166062,486449,528914,169902.70,488060.91,529665.50
166556,486800,529080,169572.13,487860.59,529573.75
166940,487648,529602,169257.41,487676.31,529489.50
167491,487635,529403,168961.63,487510.63,529414.19
167848,487667,529387,168688.77,487364.75,529347.75
168083,487846,529614,168441.52,487238.50,529289.38
168656,488263,529645,168221.25,487131.88,529239.25
168886,488332,529648,168029.38,487045.38,529197.63
169082,488340,529655,167866.20,486978.38,529164.13
169606,488673,529842,167731.09,486929.81,529138.50
169819,488803,529837,167623.84,486899.41,529120.63
170208,488957,529954,167545.00,486886.59,529110.38
170406,489559,530275,167494.53,486890.53,529107.38
170918,489785,530268,167471.86,486911.38,529111.69
171276,490036,530297,167476.77,486950.13,529123.63
171556,490132,530446,167508.75,487006.63,529142.94
172212,490560,530541,167566.86,487080.00,529169.50
172470,490684,530517,167650.56,487169.69,529202.75
172937,491000,530667,167759.69,487274.88,529242.00
173587,491372,530935,167893.72,487394.56,529286.94
173866,491520,530943,168051.97,487527.78,529337.50
174211,491674,531016,168233.78,487674.03,529393.56
174574,491840,531441,168438.06,487832.38,529454.88
175089,492306,531421,168663.56,488002.06,529521.06
175270,492335,531269,168909.00,488182.53,529592.38
175530,492600,531306,169172.34,488372.66,529667.88
175898,492799,531494,169451.09,488571.31,529746.88
176307,492839,531230,169743.47,488777.38,529828.63
176436,492916,531153,170048.63,488989.09,529911.25
176653,493050,531498,170364.88,489204.81,529993.38
177205,493299,531380,170690.67,489423.63,530074.63
177599,493559,531388,171025.64,489645.09,530155.38
177907,493552,531419,171369.28,489868.75,530235.75
177760,493268,531331,171719.44,490093.63,530315.13
177386,492612,530974,172072.03,490316.56,530392.13
176767,491739,530718,172421.56,490530.78,530464.56
175641,489673,529689,172760.95,490728.44,530529.88
172542,488460,529240,173078.03,490900.56,530584.25
170983,487482,528785,173356.81,491037.00,530623.25
169521,486589,528481,173585.72,491131.63,530644.50
167178,485569,528031,173758.16,491181.63,530647.13
166428,485230,527833,173868.58,491186.00,530630.75
165790,485049,527646,173913.53,491146.56,530595.94
164708,485021,527838,173894.00,491067.41,530544.13
164796,484839,527697,173813.72,490953.00,530477.75
164796,485007,527813,173677.72,490807.88,530399.13
164792,484952,527858,173492.70,490636.94,530310.38
164831,485139,527774,173265.78,490444.88,530213.50
164780,485261,527794,173003.61,490236.41,530110.13
164813,485309,527806,172712.16,490015.84,530001.88
165188,485796,528011,172397.23,489787.06,529890.63
165497,486048,528119,172065.41,489554.56,529778.50
165838,486292,528198,171724.00,489323.25,529667.25
166206,486978,528567,171379.59,489096.88,529558.50
167089,487241,528623,171038.69,488879.16,529453.81
167470,487444,528752,170707.91,488674.09,529355.06
167823,487704,528829,170392.19,488484.19,529263.38
168426,488060,529016,170094.59,488311.00,529179.44
168660,488192,529033,169817.91,488155.88,529103.88
168997,488379,528985,169564.81,488019.31,529036.50
169172,488808,529370,169336.97,487901.28,528976.75
169569,488653,529173,169135.02,487801.50,528924.50
169836,488742,529203,168959.69,487719.56,528879.88
170025,488905,529140,168811.16,487654.81,528842.75
170628,489355,529390,168689.00,487607.31,528812.69
170877,489460,529486,168593.28,487577.56,528790.13
171073,489618,529461,168524.69,487565.13,528775.06
171555,490271,529745,168482.44,487569.63,528767.00
171918,490243,529751,168465.72,487591.13,528765.75
172273,490381,529769,168475.34,487629.34,528771.63
172693,490587,530040,168511.75,487683.34,528784.25
173216,491026,530023,168574.66,487752.69,528803.56
173518,491179,530142,168663.75,487837.31,528829.50
173816,491355,530256,168777.91,487936.50,528862.00
174001,491694,530581,168915.27,488049.13,528901.31
174725,491921,530464,169074.63,488174.53,528947.50
174948,492054,530480,169255.69,488312.25,528999.56
175173,492317,530493,169457.16,488461.28,529056.25
175567,492347,530370,169677.13,488620.34,529116.50
175963,492587,530432,169914.41,488788.25,529179.13
176068,492741,530558,170167.59,488964.09,529243.75
176579,493145,530658,170434.48,489147.44,529310.25
176906,493314,530575,170713.69,489338.06,529378.56
177236,493479,530835,171004.95,489535.44,529448.19
177715,493704,531080,171307.38,489738.28,529519.19
177868,493799,530992,171619.56,489945.44,529591.50
178096,493742,531011,171940.45,490155.91,529665.25
178028,493554,530873,172268.22,490367.69,529739.88
177262,492251,530177,172598.41,490575.91,529813.00
176272,491246,529637,172923.59,490772.50,529880.63
174894,490089,529193,173234.44,490949.25,529938.63
171456,488021,528436,173520.06,491099.44,529984.75
170108,487077,527848,173766.64,491215.91,530016.19
168735,486319,527550,173960.34,491290.94,530029.50
167559,485684,527358,174093.47,491321.00,530023.13
165969,485027,527130,174162.42,491306.25,529997.63
165359,484863,526979,174165.13,491248.22,529954.13
165098,484696,526916,174103.75,491150.25,529894.06
164412,484633,526941,173983.44,491017.06,529819.44
164369,484558,526930,173809.53,490853.38,529732.44
164273,484565,526963,173587.41,490663.25,529635.25
164213,484738,527058,173323.23,490451.00,529529.94
164086,484683,527033,173023.28,490221.22,529418.63
164261,484807,527139,172693.67,489978.06,529303.06
164281,485024,527150,172340.73,489725.69,529185.06
164670,485343,527402,171970.36,489468.75,529066.44
165028,485704,527442,171588.88,489211.81,528949.19
165398,486019,527576,171203.64,488959.25,528834.81
166189,486656,527853,170821.13,488714.69,528724.50
166763,486822,527851,170447.72,488481.56,528619.50
167110,487160,528058,170090.00,488263.25,528521.19
167479,487360,528299,169752.45,488062.22,528430.88
168061,487732,528323,169438.23,487879.94,528349.38
168373,487833,528359,169150.28,487717.44,528277.00
168580,487883,528351,168890.19,487574.75,528213.63
168795,488051,528684,168658.09,487451.25,528159.38
169114,488283,528586,168453.88,487346.78,528114.50
169353,488385,528577,168278.03,487261.19,528078.50
169516,488477,528893,168130.52,487193.81,528050.38
170033,488875,528730,168011.09,487144.25,528029.88
170371,489087,528918,167920.16,487112.84,528017.00
170716,489267,529023,167857.81,487099.50,528012.13
171266,489787,529139,167822.73,487103.97,528015.25
171549,489900,529258,167813.84,487126.25,528026.19
171897,490127,529287,167832.13,487166.19,528044.75
172165,490607,529368,167877.86,487223.00,528070.38
172742,490662,529356,167950.16,487296.03,528102.50
173056,490842,529486,168048.56,487384.78,528140.38
173266,490963,529537,168171.84,487488.31,528183.50
173966,491345,529642,168318.19,487605.59,528231.63
174242,491477,529787,168486.55,487736.06,528284.44
174513,491719,529875,168676.59,487878.78,528342.00
174990,492208,530057,168887.41,488032.88,528404.00
175475,492306,530150,169118.03,488197.88,528470.38
175752,492394,530215,169367.72,488373.16,528541.00
175911,492432,530379,169634.63,488557.19,528615.38
176333,492881,530323,169916.63,488748.75,528692.50
176581,492846,530345,170212.19,488947.19,528772.25
176947,492961,530365,170519.92,489151.13,528854.00
177115,493014,530341,170838.30,489359.13,528937.25
177059,492594,530152,171164.98,489568.88,529020.63
176709,491846,529785,171496.03,489775.75,529102.25
175738,489995,529001,171825.25,489973.13,529179.06
172947,488718,528410,172141.16,490152.00,529246.94
171341,487616,527891,172428.09,490301.34,529301.38
169633,486714,527587,172673.25,490413.94,529339.50
167256,485236,526921,172867.88,490485.19,529359.69
166147,484730,526783,173004.28,490511.47,529360.63
165350,484446,526630,173076.78,490492.75,529342.63
164801,483930,526491,173084.70,490432.00,529306.63
164039,483854,526338,173030.70,490332.25,529253.75
163866,483776,526375,172918.33,490197.19,529185.88
163659,483822,526292,172752.83,490031.22,529105.13
163407,483950,526397,172539.86,489839.44,529013.63
163541,483999,526383,172285.20,489626.88,528913.44
163524,484127,526366,171995.89,489398.22,528806.50
163438,484533,526708,171677.78,489158.06,528694.63
163835,484501,526642,171336.39,488910.88,528580.13
164142,484670,526682,170979.38,488660.56,528464.88
164465,485026,526897,170614.23,488410.72,528350.25
165276,485680,527091,170247.81,488165.94,528238.00
165666,485980,527266,169887.20,487931.06,528130.25
166157,486290,527320,169538.19,487709.44,528028.69
166751,486756,527547,169204.78,487503.50,527934.13
167376,487117,527792,168891.06,487315.69,527847.88
167735,487266,527782,168601.81,487147.81,527770.88
167874,487596,527962,168339.72,487000.38,527703.13
168348,487668,527971,168105.56,486873.31,527644.50
168649,487692,528116,167900.31,486766.44,527595.25
168915,487823,528030,167724.53,486679.06,527555.13
169303,488202,528194,167578.22,486610.75,527523.63
169646,488422,528281,167461.44,486561.78,527500.50
169899,488681,528331,167374.06,486532.25,527485.88
170520,489115,528573,167315.50,486521.63,527479.13
170773,489236,528641,167285.47,486529.44,527480.38
171149,489527,528543,167284.13,486555.88,527489.38
171476,489662,528740,167311.14,486600.66,527505.56
172184,490031,528808,167366.16,486663.00,527528.63
172482,490188,528895,167449.19,486742.28,527558.44
172816,490454,529018,167559.38,486837.69,527594.63
173398,491001,529502,167694.38,486948.63,527637.25
173696,491007,529350,167852.38,487074.69,527686.63
174012,491107,529218,168033.47,487214.69,527742.00
174388,491379,529583,168237.16,487367.06,527802.25
174693,491751,529491,168461.84,487531.09,527866.94
175104,491737,529492,168705.97,487706.06,527935.75
175397,492043,529552,168968.06,487890.59,528008.00
175460,492080,529395,169246.34,488083.81,528082.69
176043,492177,529373,169539.03,488284.66,528158.50
176417,492402,529579,169844.89,488491.09,528234.75
176758,492859,529770,170162.92,488701.81,528311.63
177238,492825,529785,170492.16,488916.25,528389.63
177571,493016,529868,170831.88,489133.97,528468.50
177659,493170,529831,171180.63,489354.50,528548.19
177777,492972,529887,171535.42,489576.44,528628.06
177493,492339,529578,171892.56,489796.44,528707.13
176639,491531,529116,172247.28,490008.91,528783.00
173936,489122,528142,172592.31,490206.78,528852.25
172601,487854,527623,172915.59,490379.81,528910.81
170922,486810,527056,173201.22,490516.63,528953.75
169267,485888,526470,173436.72,490610.50,528978.13
166845,484830,526243,173612.70,490658.56,528982.50
165779,484408,526079,173721.03,490659.53,528966.81
165218,484093,525898,173759.48,490614.88,528931.75
164194,483972,526091,173730.91,490528.19,528879.38
164067,483864,525954,173639.19,490403.94,528812.13
163953,483779,525906,173489.05,490246.56,528732.00
163839,483815,526158,173286.75,490060.56,528640.63
163671,483710,525870,173038.94,489850.44,528539.63
163691,483871,525980,172752.00,489620.50,528431.25
163734,483968,525947,172432.47,489375.38,528317.38
163806,484311,526140,172085.95,489119.81,528199.88
164188,484654,526398,171718.34,488859.00,528081.25
164376,484845,526423,171337.55,488597.75,527963.75
164761,485713,526811,170950.83,488340.00,527848.88
165594,485895,526812,170565.00,488090.25,527738.06
166135,486191,526978,170187.50,487853.00,527633.25
166593,486438,527048,169824.47,487631.34,527535.63
167322,486913,527108,169480.11,487427.38,527446.00
167670,487024,527306,169158.11,487242.88,527364.56
167999,487193,527413,168862.19,487078.50,527292.13
168355,487668,527499,168594.41,486934.28,527228.88
168599,487619,527522,168355.47,486810.25,527174.88
168950,487872,527743,168146.19,486706.69,527129.94
169174,487863,527838,167967.13,486623.31,527094.31
169599,488369,527905,167818.23,486559.69,527067.69
169934,488488,527882,167699.67,486516.06,527049.88
170243,488615,527868,167611.31,486492.00,527040.31
170668,489059,528204,167552.48,486486.56,527038.50
171095,489229,528239,167522.78,486499.56,527044.94
171513,489427,528220,167522.41,486530.75,527059.25
171651,490073,528453,167550.75,486579.50,527080.63
172407,490152,528627,167606.88,486645.50,527109.00
172742,490259,528587,167690.78,486728.69,527144.50
173055,490555,528742,167801.77,486828.31,527186.75
173640,490859,528855,167938.06,486943.50,527235.38
173914,491003,528860,168098.30,487073.56,527290.00
174305,491161,528871,168281.91,487217.13,527349.63
174328,491339,528933,168487.38,487372.50,527413.13
175113,491414,528770,168712.88,487537.94,527479.38
175430,491674,528790,168957.91,487712.44,527547.38
175733,491821,528927,169221.53,487895.25,527616.63
176270,492305,529136,169501.25,488085.94,527687.50
176655,492412,529146,169795.28,488284.47,527760.38
176889,492520,529128,170103.70,488489.91,527834.69
177049,493075,529606,170425.27,488701.38,527910.25
177737,493028,529493,170758.16,488918.63,527987.50
177906,493081,529474,171101.91,489140.50,528066.50
178082,493142,529497,171455.16,489365.16,528146.38
178014,492594,529156,171815.02,489590.00,528225.63
177588,491835,528752,172177.38,489810.13,528302.19
176451,490655,528293,172535.52,490018.44,528372.88
173689,488450,527437,172879.34,490207.31,528434.00
172047,487405,526890,173194.81,490367.81,528481.19
170517,486428,526492,173467.09,490490.16,528511.50
168940,485056,526075,173685.78,490568.72,528523.63
166707,484621,525852,173842.92,490601.44,528517.13
166018,484440,525748,173932.25,490588.03,528492.38
165355,484108,525618,173953.25,490530.94,528450.38
164567,484012,525536,173909.13,490434.00,528392.63
164374,483951,525610,173803.88,490301.53,528321.13
164263,483956,525688,173642.56,490138.25,528238.13
164209,484304,525693,173431.67,489949.03,528146.00
164134,484313,525790,173177.98,489739.19,528046.81
164251,484421,525813,172888.23,489513.94,527942.56
164419,484589,525937,172569.36,489277.94,527835.13
164817,484943,526076,172228.66,489035.69,527726.44
165092,485243,526200,171873.45,488791.78,527618.38
165483,485555,526353,171510.50,488550.53,527512.63
166215,486231,526896,171145.53,488315.94,527411.13
166692,486479,526797,170784.61,488092.00,527315.50
167102,486865,526821,170434.84,487882.38,527227.13
167605,487142,527343,170101.89,487689.69,527146.38
168170,487627,527201,169789.81,487516.00,527074.00
168510,487681,527250,169502.08,487362.63,527010.81
168833,487893,527344,169240.78,487229.88,526956.81
168971,488197,527420,169006.88,487117.56,526911.94
169387,488355,527465,168800.70,487025.63,526876.00
169734,488501,527543,168622.92,486953.94,526848.63
169930,489040,527667,168473.84,486901.94,526829.38
170391,489047,527570,168353.38,486869.03,526817.50
170707,489237,527778,168261.67,486855.44,526812.88
171086,489379,527925,168198.73,486860.81,526815.63
171569,489840,528022,168163.38,486884.50,526826.13
171990,490025,528152,168154.72,486926.56,526844.13
172157,490349,528164,168173.55,486986.63,526869.44
172761,490780,528457,168219.75,487063.88,526901.38
173295,490977,528504,168292.92,487157.75,526939.63
173560,491144,528593,168393.25,487267.94,526984.56
173862,491377,528877,168519.69,487393.69,527035.75
174505,491722,528773,168671.00,487534.06,527092.50
174767,491905,528870,168846.55,487688.28,527154.63
175049,492207,528909,169044.88,487855.50,527221.88
175576,492761,529187,169263.91,488035.00,527294.13
175934,492868,529265,169502.31,488226.38,527371.31
176134,493130,529251,169759.09,488429.16,527453.19
176461,493405,529623,170032.67,488642.56,527538.81
177084,493757,529478,170321.73,488865.91,527627.75
177288,494000,529535,170625.61,489098.63,527719.75
177484,493949,529492,170942.59,489339.41,527814.06
177949,494329,529685,171269.63,489586.44,527910.00
178395,494512,529735,171604.88,489838.81,528007.44
178625,494533,529718,171948.98,490095.50,528105.94
178793,494441,529849,172301.47,490354.50,528204.75
178360,493711,529375,172659.03,490612.25,528302.69
177660,492790,528975,173015.91,490862.25,528397.00
176443,491724,528401,173363.94,491096.81,528484.13
173476,489409,527450,173693.50,491306.13,528559.69
171734,488217,527019,173991.09,491479.09,528619.31
170240,487417,526654,174240.75,491608.63,528660.38
167555,486411,526192,174431.91,491692.50,528681.88
166769,485776,525793,174558.30,491729.75,528683.25
166291,485605,525868,174615.69,491720.47,528664.25
165738,485596,525837,174605.31,491667.88,528626.88
165094,485534,525782,174531.09,491576.94,528573.38
165097,485587,525866,174397.72,491452.63,528506.00
165000,485678,525752,174211.78,491300.06,528426.88
164671,485712,525919,173980.38,491124.19,528337.94
164915,485661,525721,173710.17,490929.28,528241.13
165019,485865,525699,173407.63,490719.19,528137.50
165119,486411,525951,173079.17,490498.16,528028.50
165595,486586,526010,172731.67,490271.06,527916.06
166016,486924,526162,172372.61,490043.25,527802.81
166507,487312,526470,172009.27,489819.38,527691.13
167236,487856,526678,171648.11,489603.72,527583.38
167766,488133,526720,171295.47,489400.06,527481.38
168031,488359,526725,170957.28,489210.94,527385.63
168431,488832,527193,170637.59,489037.75,527296.69
169035,488954,527090,170339.63,488881.84,527215.38
169365,488997,527132,170066.53,488744.19,527142.50
169615,489218,527271,169820.20,488624.84,527078.25
169960,489538,527390,169600.42,488524.00,527022.94
170250,489688,527350,169406.91,488442.13,526976.50
170537,489927,527432,169241.22,488379.09,526938.50
170585,490548,527732,169103.59,488335.00,526908.63
171254,490624,527709,168993.22,488310.25,526887.13
171464,490678,527709,168911.08,488304.81,526874.00
171892,490896,527892,168857.66,488317.66,526868.69
172548,491227,527831,168833.09,488348.06,526870.94
172909,491485,527826,168838.03,488395.84,526880.00
173267,491675,527823,168872.20,488460.50,526894.88
173879,492074,528065,168933.86,488541.06,526915.25
174318,492334,528176,169021.94,488637.00,526941.44
174778,492630,528269,169137.34,488748.41,526973.56
175073,493073,528442,169280.19,488874.94,527011.31
175787,493340,528579,169449.44,489016.06,527054.75
176165,493432,528531,169644.59,489171.50,527103.69
176311,493517,528429,169864.13,489339.88,527157.25
177103,493874,528580,170105.53,489519.56,527214.31
177326,493942,528645,170367.28,489709.53,527274.50
177569,494042,528764,170648.53,489908.25,527337.81
178222,494573,528937,170947.77,490114.06,527403.75
178501,494708,528969,171263.56,490326.31,527472.25
178722,494677,529006,171594.75,490544.81,527543.25
179105,494952,529435,171939.53,490768.47,527616.88
179577,495188,529202,172296.48,490996.44,527693.00
179762,495263,529302,172664.31,491228.00,527771.44
179909,495171,529217,173040.91,491461.66,527851.50
179283,494136,528814,173422.84,491695.00,527932.38
178435,493115,528319,173803.81,491922.19,528011.69
177190,491924,527719,174173.94,492132.81,528084.50
175726,490645,526770,174522.33,492317.06,528146.13
172174,488487,526161,174834.86,492465.88,528192.38
170701,487472,525829,175095.08,492570.19,528219.44
169325,486801,525566,175292.81,492625.63,528226.00
167062,485982,525305,175423.91,492632.41,528212.31
166622,485731,525092,175485.47,492592.13,528179.06
166236,485656,525118,175476.89,492507.44,528127.63
165831,485445,524937,175401.69,492382.25,528059.88
165287,485369,524956,175265.02,492221.19,527977.88
165145,485412,524969,175072.09,492029.00,527883.56
165120,485270,524996,174829.41,491810.63,527779.00
164947,485421,525054,174543.38,491570.56,527666.50
164978,485436,525116,174220.03,491313.34,527548.00
165052,485527,525236,173866.59,491043.44,527425.63
164980,485974,525425,173490.19,490765.13,527301.50
165634,486214,525494,173097.66,490483.31,527177.25
166003,486618,525635,172696.38,490203.28,527055.13
166441,486855,525844,172293.31,489929.50,526937.00
167269,487448,526012,171895.38,489666.03,526824.50
167780,487626,526108,171509.69,489416.44,526719.13
168100,487880,526148,171141.56,489183.16,526621.50
168676,488449,526221,170794.48,488967.88,526531.94
168983,488363,526334,170471.41,488772.09,526450.69
169256,488407,526406,170174.92,488596.13,526378.00
169461,488786,526744,169906.34,488439.59,526314.06
169823,488859,526517,169666.30,488302.69,526258.75
170019,489100,526647,169455.22,488185.81,526211.94
170391,489227,526646,169273.34,488089.13,526173.50
170942,489656,527029,169120.56,488012.44,526143.88
171235,489753,527098,168997.13,487955.75,526123.50
171555,489968,527086,168903.84,487918.91,526112.50
171771,490517,527412,168840.72,487901.19,526110.06
172368,490643,527326,168807.11,487902.47,526115.69
172833,490768,527412,168803.25,487922.88,526129.31
173135,491041,527517,168829.03,487962.00,526150.81
173650,491440,527649,168883.16,488019.28,526179.88
174127,491597,527739,168964.67,488094.44,526216.13
174556,491771,527885,169073.78,488186.44,526259.44
175023,492300,527983,169209.42,488293.88,526309.25
175374,492322,527949,169369.78,488415.75,526364.88
175627,492497,528071,169554.28,488551.56,526425.63
175863,492579,528432,169761.52,488700.16,526491.25
176420,492974,528369,169989.67,488860.28,526561.38
176696,493142,528297,170237.63,489031.28,526635.88
177045,493311,528294,170503.86,489212.31,526713.88
177220,493638,528742,170786.47,489402.25,526795.19
177853,493636,528566,171083.98,489600.00,526880.06
178101,493884,528651,171395.48,489804.38,526967.81
178343,494048,528747,171719.52,490014.19,527057.50
178751,493926,528707,172054.31,490227.75,527148.56
178755,493551,528539,172398.09,490442.59,527240.00
178213,492869,528137,172747.09,490654.41,527329.81
176095,490864,527219,173094.19,490855.19,527414.06
174687,489525,526588,173427.63,491033.63,527487.56
173032,488494,526209,173732.63,491180.72,527546.31
169653,486590,525591,173996.70,491290.81,527588.25
168310,485770,525086,174208.05,491358.63,527611.31
167230,485202,524897,174355.06,491379.56,527614.00
166237,484749,524786,174432.91,491353.13,527596.69
165106,484670,524751,174442.03,491282.13,527561.00
164790,484412,524649,174384.59,491170.72,527508.81
164519,484338,524570,174264.41,491023.31,527441.88
163694,484621,524904,174086.50,490844.88,527362.13
164078,484567,524689,173856.66,490641.06,527272.13
163968,484491,524666,173581.81,490416.56,527173.75
164028,484637,524817,173269.17,490175.47,527068.81
164319,484964,524793,172926.00,489922.44,526959.25
164482,485103,524911,172559.88,489662.44,526846.75
164633,485199,524968,172177.56,489399.50,526733.25
165270,485822,525201,171785.22,489137.44,526620.38
165777,486052,525368,171389.94,488880.75,526510.38
166371,486503,525556,170999.56,488633.63,526404.88
166770,487091,525895,170620.75,488399.63,526305.25
167395,487230,525837,170258.58,488181.50,526212.44
167957,487556,525988,169917.81,487981.81,526127.56
168331,487699,526002,169602.33,487802.06,526051.38
168793,488055,526202,169313.91,487643.00,525984.13
168980,488216,526293,169053.41,487505.25,525926.13
169210,488386,526359,168822.23,487388.88,525877.56
169689,488736,526415,168621.11,487293.25,525838.00
170046,488874,526548,168450.45,487218.00,525807.13
170309,489016,526561,168310.95,487163.19,525784.81
170647,489110,526879,168202.56,487128.28,525771.00
171285,489529,526772,168125.31,487112.56,525765.25
171521,489701,526828,168079.52,487115.94,525767.38
171764,489911,527012,168064.25,487137.88,525777.25
172379,490337,527308,168078.11,487177.75,525795.25
172763,490447,527178,168120.50,487235.13,525821.38
173126,490623,527304,168191.42,487309.19,525854.88
173442,490881,527650,168290.03,487398.94,525894.81
173969,491303,527533,168415.16,487504.00,525940.81
174372,491555,527617,168566.02,487624.22,525992.81
174725,491677,527686,168741.56,487758.88,526050.63
175175,492055,527904,168939.56,487906.88,526113.88
175497,492202,527882,169157.91,488067.53,526182.38
175861,492385,527816,169396.19,488239.69,526255.13
176145,492878,528198,169653.66,488422.00,526331.13
176707,492862,528169,169928.94,488613.44,526410.25
177065,492958,528210,170221.17,488813.19,526492.63
177333,493247,528194,170529.03,489020.19,526577.81
177762,493350,528345,170850.53,489233.50,526665.13
177959,493545,528490,171183.72,489452.13,526754.50
178200,493598,528432,171527.16,489674.75,526845.75
178456,493914,528564,171879.03,489900.13,526938.00
178781,493827,528592,172237.63,490126.94,527031.00
178740,493294,528270,172601.25,490353.00,527123.63
178279,492662,527680,172966.38,490573.88,527213.81
176108,490630,527156,173324.42,490781.63,527298.00
174708,489371,526532,173662.27,490965.25,527371.63
172926,488206,526050,173967.45,491115.88,527430.75
169579,486429,525241,174229.30,491228.44,527472.13
168407,485727,524959,174436.23,491298.63,527493.38
167350,485276,524793,174577.91,491322.25,527493.75
166333,484675,524566,174650.19,491298.94,527474.38
165138,484426,524403,174652.81,491231.16,527436.56
164882,484330,524498,174587.25,491122.13,527381.63
164576,484276,524494,174458.25,490976.28,527311.88
164463,484308,524467,174272.52,490798.69,527229.63
164320,484307,524344,174036.84,490594.31,527136.69
164360,484287,524404,173758.11,490367.91,527034.50
164274,484723,524708,173443.06,490123.88,526925.25
164435,484660,524715,173098.33,489866.91,526811.50
164528,484822,524675,172730.50,489601.88,526695.25
164862,485007,524758,172346.23,489332.97,526578.13
165521,485817,525195,171951.56,489065.09,526462.13
165988,486111,525265,171553.16,488803.94,526349.69
166451,486488,525424,171159.47,488553.81,526242.63
166959,487208,525791,170776.72,488317.88,526141.94
167651,487362,525818,170409.61,488099.16,526048.63
167929,487422,525783,170063.78,487899.84,525963.88
168230,487595,526044,169742.91,487720.63,525887.88
168808,487897,525945,169449.13,487561.72,525820.38
169099,488076,526043,169184.56,487423.69,525761.56
169220,488160,525989,168950.08,487306.44,525711.50
169664,488636,526504,168744.78,487209.56,525670.38
170041,488672,526437,168568.41,487133.00,525639.06
170424,488933,526514,168422.63,487076.75,525617.63
170711,489339,526746,168308.39,487040.69,525605.06
171258,489613,526692,168225.59,487024.81,525601.00
171492,489716,526765,168174.14,487029.13,525605.25
171897,489991,526843,168153.30,487052.88,525617.50
172332,490486,527026,168161.98,487095.78,525637.44
172822,490768,527160,168199.53,487158.03,525665.13
173141,490850,527142,168265.84,487239.03,525700.13
173933,491546,527611,168360.31,487337.31,525742.25
174208,491497,527562,168482.41,487452.03,525791.44
174671,491673,527495,168631.84,487582.56,525847.38
174870,491905,527699,168807.47,487727.81,525909.38
175389,492144,527783,169007.44,487886.56,525977.00
175672,492268,527765,169230.19,488057.69,526049.69
175917,492450,527846,169473.91,488239.63,526126.63
176385,492911,528156,169735.39,488431.44,526207.13
176727,493031,528061,170012.20,488632.63,526291.00
177112,493205,528218,170304.56,488842.31,526378.06
177386,493319,528378,170612.22,489059.25,526468.13
177656,493577,528228,170933.38,489282.19,526560.50
178138,493677,528371,171266.44,489510.13,526654.50
178264,493869,528274,171610.06,489741.97,526749.50
178589,493903,528495,171962.41,489976.97,526845.25
178842,493808,528432,172321.75,490213.72,526941.25
178946,493479,528262,172686.34,490449.00,527036.69
178451,492059,527437,173052.89,490678.25,527129.63
176301,490700,526848,173412.94,490893.50,527216.25
174721,489430,526353,173752.92,491083.59,527291.06
173075,488333,525919,174060.00,491239.63,527350.38
169783,486426,525184,174323.08,491354.63,527391.75
168563,485719,524897,174530.28,491422.25,527412.88
167128,485170,524707,174671.34,491440.50,527413.38
165486,484682,524615,174741.89,491411.13,527393.94
165183,484373,524322,174742.09,491336.81,527355.75
164833,484391,524367,174673.83,491221.06,527300.25
164545,484383,524347,174541.70,491068.94,527229.75
164510,484413,524447,174352.39,490885.81,527146.88
164403,484427,524443,174113.16,490676.75,527053.75
164262,484504,524499,173830.84,490446.59,526952.50
164282,484709,524673,173511.89,490199.81,526845.50
164441,484876,524628,173162.94,489941.06,526734.75
164732,485004,524755,172791.30,489675.19,526621.88
164939,485195,525200,172404.11,489406.38,526508.38
165569,485856,525062,172008.50,489139.19,526395.88
166029,486243,525092,171611.84,488878.75,526286.38
166476,486528,525258,171220.83,488629.38,526181.13
167305,487170,525620,170839.94,488394.19,526081.88
167848,487369,525705,170473.91,488176.06,525990.44
168097,487546,525681,170129.36,487977.19,525907.38
168370,487958,526010,169810.38,487798.50,525832.63
168738,487941,525883,169518.44,487640.31,525766.31
169027,488041,525934,169254.88,487502.66,525708.50
169287,488216,525997,169020.50,487385.19,525659.13
169829,488536,526108,168815.55,487287.84,525618.13
170048,488715,526180,168640.41,487210.75,525585.44
170357,488885,526236,168495.75,487153.72,525560.88
170804,489424,526503,168381.50,487116.00,525544.19
171112,489481,526487,168297.28,487097.25,525535.25
171577,489697,526670,168243.41,487097.75,525534.25
171815,490009,526896,168219.80,487117.41,525541.44
172245,490403,526996,168225.63,487156.06,525556.81
172727,490575,527009,168260.28,487213.50,525580.44
173049,490662,526969,168323.25,487288.66,525611.63
173528,491301,527408,168413.50,487380.22,525650.00
173990,491376,527358,168530.14,487487.81,525695.81
174219,491479,527236,168672.42,487610.81,525748.31
174625,491970,527574,168838.92,487747.78,525806.25
175245,492025,527461,169028.63,487897.53,525869.44
175473,492164,527607,169240.84,488059.47,525937.19
175784,492295,527682,169473.92,488232.41,526009.06
176197,492597,527858,169725.55,488415.13,526085.00
176512,492794,527857,169993.88,488606.78,526164.56
176785,492994,527974,170277.88,488806.63,526247.38
176987,493291,528212,170576.06,489013.63,526333.00
177495,493367,528096,170886.75,489226.69,526420.88
177718,493423,528162,171208.83,489444.75,526510.75
177949,493510,528132,171540.78,489666.44,526601.88
178265,493879,528326,171879.88,489890.75,526694.00
178521,493841,528321,172223.84,490117.22,526786.88
178501,493614,528150,172572.08,490344.00,526879.81
177079,492432,527664,172921.89,490567.63,526970.94
176424,491203,527138,173265.69,490781.09,527057.06
175078,490007,526555,173592.61,490973.88,527134.00
173374,488761,525452,173891.41,491136.91,527197.69
170151,486692,525076,174148.63,491261.94,527244.63
168670,485928,524762,174349.63,491341.25,527271.31
167544,485423,524608,174486.16,491372.13,527276.81
165807,484827,524475,174555.72,491356.16,527262.19
165447,484697,524392,174557.59,491296.00,527229.00
165114,484536,524277,174493.59,491195.00,527178.88
164773,484572,524392,174368.47,491057.44,527113.56
164439,484631,524322,174187.81,490888.50,527035.25
164502,484630,524334,173957.73,490693.44,526946.13
164522,484765,524370,173685.38,490477.13,526848.38
164661,484873,524339,173377.75,490244.31,526743.81
164761,485122,524547,173041.55,489999.75,526634.38
164956,485344,524673,172683.97,489748.13,526522.31
165538,485897,524997,172311.88,489493.84,526409.88
165891,486236,525132,171932.27,489241.56,526299.31
166291,486540,525192,171552.44,488996.25,526192.69
166746,486853,525723,171178.77,488761.75,526091.19
167596,487394,525587,170817.19,488541.19,525996.00
167974,487668,525625,170473.58,488337.63,525908.44
168282,487790,525735,170151.84,488152.75,525829.13
168844,488234,526165,169853.78,487987.38,525758.69
169165,488300,525980,169581.19,487842.31,525697.50
169366,488482,526021,169336.50,487717.69,525645.56
169653,488502,526302,169120.88,487613.00,525602.31
169831,488891,526226,168934.22,487527.75,525567.38
170321,488905,526219,168776.56,487461.81,525541.00
170514,489043,526260,168648.16,487414.34,525522.63
170695,489429,526356,168548.47,487384.81,525512.00
171193,489557,526448,168476.84,487373.13,525508.75
171521,489796,526565,168433.22,487378.94,525512.81
171872,490303,526715,168417.34,487401.59,525524.00
172498,490399,526760,168429.09,487440.69,525542.13
172744,490731,526883,168468.56,487496.59,525567.06
173208,490919,527024,168535.08,487569.31,525598.69
173570,491281,527199,168626.67,487658.38,525637.13
173925,491472,527192,168741.45,487763.16,525682.13
174320,491691,527295,168879.66,487882.81,525733.13
174427,491970,527460,169041.28,488016.22,525789.50
174993,492014,527497,169224.95,488162.06,525850.88
175396,492093,527497,169429.34,488318.81,525916.94
175620,492335,527566,169653.09,488485.06,525986.81
176174,492701,527632,169894.88,488660.25,526059.69
176363,492816,527758,170153.58,488843.97,526135.50
176599,493065,527787,170427.45,489035.50,526214.13
177041,493396,528055,170714.16,489233.75,526295.50
177308,493408,528045,171012.06,489437.88,526379.63
177533,493522,528035,171320.42,489646.88,526466.13
177685,493748,528368,171637.94,489859.75,526554.00
178293,493923,528194,171963.31,490075.66,526642.63
178206,493922,528223,172295.56,490293.84,526732.00
178274,493604,527976,172632.38,490512.44,526821.25
177609,492587,527531,172970.25,490728.50,526908.19
176552,491537,526995,173302.91,490936.25,526989.25
175221,490178,526451,173620.44,491125.25,527060.88
173670,488173,525782,173912.03,491285.63,527119.88
170249,486997,525141,174164.25,491409.31,527163.13
168844,486200,524755,174361.95,491488.53,527187.44
167663,485738,524570,174496.52,491520.44,527191.50
165800,484985,524245,174565.55,491505.75,527175.63
165310,484848,524190,174567.86,491446.19,527140.75
164880,484729,524200,174503.78,491345.38,527088.38
164443,484953,524268,174376.88,491208.50,527021.19
164304,484771,524243,174192.89,491040.97,526941.50
164155,484742,524128,173958.19,490847.34,526851.31
164135,484842,524266,173679.53,490632.00,526752.00
164135,484988,524322,173363.75,490399.63,526645.75
164272,485039,524404,173017.72,490154.75,526534.81
164444,485175,524495,172648.34,489901.31,526421.31
164650,485742,524815,172262.13,489643.25,526307.50
165258,486034,524765,171865.78,489385.31,526195.38
165690,486302,524854,171467.06,489132.50,526086.19
166086,487006,525034,171072.75,488888.81,525981.00
166915,487188,525223,170688.97,488657.69,525881.25
167343,487497,525325,170321.84,488442.53,525788.25
167618,487560,525470,169975.70,488245.25,525702.75
168146,487882,525655,169652.52,488066.56,525625.75
168483,488147,525672,169354.17,487907.38,525557.69
168751,488187,525659,169083.47,487768.22,525498.38
169116,488507,526015,168841.81,487648.56,525447.31
169401,488660,525920,168629.47,487548.19,525404.25
169599,488832,525912,168447.06,487467.38,525369.63
169883,489051,525996,168294.63,487406.09,525343.13
170323,489447,526225,168170.97,487364.38,525324.81
170735,489497,526299,168075.55,487342.13,525314.88
170979,489667,526340,168009.47,487338.44,525313.31
171074,490369,526699,167972.06,487352.63,525319.63
171822,490337,526494,167961.88,487384.59,525333.69
172169,490454,526635,167979.84,487434.06,525354.88
172471,490593,526842,168026.27,487499.88,525382.81
173027,491038,526799,168100.23,487581.19,525417.00
173369,491206,526925,168201.19,487677.69,525457.38
173625,491383,526986,168327.94,487788.75,525503.63
174218,491644,527138,168478.48,487913.00,525555.44
174458,491821,527143,168651.31,488049.38,525612.50
174831,491905,527212,168845.88,488197.00,525674.19
175045,492376,527530,169061.11,488354.56,525739.81
175472,492370,527443,169295.28,488521.09,525809.00
175761,492531,527437,169546.94,488696.06,525881.69
176056,492688,527428,169814.56,488878.50,525957.25
176507,493038,527662,170096.05,489067.84,526035.06
176709,493099,527723,170389.55,489263.50,526115.38
177026,493291,527803,170694.36,489464.47,526198.13
177246,493533,527885,171009.47,489669.63,526282.69
177513,493574,527852,171333.13,489877.84,526368.63
177685,493436,527868,171663.75,490088.00,526455.31
177641,493094,527376,171999.28,490297.66,526541.69
176241,491407,526798,172334.28,490500.72,526624.88
174996,490250,526280,172658.84,490687.59,526700.19
173452,488971,525815,172961.92,490849.13,526763.69
170111,486852,524922,173232.66,490978.50,526812.00
168566,485905,524510,173457.88,491068.75,526841.75
167235,485343,524164,173624.19,491113.44,526851.00
166263,484880,524099,173724.94,491110.81,526840.00
164673,484363,523911,173758.13,491062.84,526809.94
164280,484235,523925,173723.16,490972.16,526762.56
164032,484131,523773,173623.47,490842.88,526699.69
163627,484034,523847,173464.63,490679.84,526623.19
163316,484013,523743,173251.84,490487.81,526535.00
163339,484149,523692,172991.56,490271.38,526436.88
163376,484392,524017,172691.19,490035.31,526330.50
163397,484390,524002,172357.88,489784.22,526218.13
163550,484498,524029,171998.31,489522.84,526102.38
163757,484643,524029,171619.22,489255.44,525985.06
164409,485322,524405,171226.97,488986.63,525867.88
164799,485628,524538,170828.59,488721.81,525753.25
165193,486039,524663,170431.97,488465.63,525643.13
165873,486756,525013,170043.81,488221.44,525538.88
166452,486920,525044,169670.05,487992.47,525441.63
166961,487068,525043,169316.22,487781.63,525352.38
167209,487299,525373,168986.16,487590.47,525271.69
167939,487640,525410,168682.69,487419.75,525200.13
168186,487689,525335,168408.47,487270.19,525138.13
168431,487894,525410,168164.78,487141.47,525085.00
168795,488296,525493,167951.38,487033.25,525040.63
169063,488314,525603,167768.08,486945.34,525004.75
169294,488403,525615,167615.22,486877.44,524977.25
169669,488896,525974,167492.84,486829.06,524958.00
170148,489056,525895,167400.92,486800.19,524946.94
170473,489099,525924,167339.59,486790.69,524943.94
170718,489303,526080,167308.23,486799.44,524948.69
171297,489775,526239,167305.67,486826.00,524961.13
171587,489940,526371,167331.22,486870.47,524981.44
171916,490123,526324,167384.56,486932.22,525009.19
172269,490766,526673,167464.83,487010.28,525043.63
172820,490769,526603,167571.19,487104.25,525084.38
173201,490996,526674,167703.19,487213.81,525131.25
173526,491227,526818,167859.81,487338.22,525184.06
174108,491546,526920,168038.88,487476.63,525242.50
174413,491750,526952,168238.53,487628.41,525306.38
174800,491958,527134,168458.98,487792.50,525374.94
175127,492569,527407,168699.13,487968.19,525448.13
175489,492370,527192,168956.72,488154.56,525525.38
175679,492445,527177,169230.84,488350.03,525605.75
176036,492653,527280,169520.31,488552.75,525688.13
176693,492990,527282,169824.05,488761.97,525771.88
176832,493199,527368,170141.47,488977.34,525856.75
177212,493271,527433,170471.06,489198.09,525942.63
177400,493557,527542,170810.11,489422.97,526029.50
177894,493507,527454,171156.44,489650.75,526116.81
178137,493367,527369,171510.13,489879.75,526203.69
177874,492144,526867,171869.88,490106.88,526288.63
176150,491020,526276,172228.72,490325.44,526368.63
174917,489842,525768,172575.08,490524.88,526439.19
173218,488500,525276,172897.11,490695.59,526496.56
169976,486559,524303,173183.81,490829.13,526537.44
168463,485639,523902,173422.39,490917.66,526558.25
167159,485041,523573,173600.00,490957.75,526557.25
165172,484078,523111,173710.09,490949.88,526534.75
164584,483828,522923,173750.67,490895.28,526491.13
164068,483623,522699,173721.25,490796.13,526426.81
163770,483492,522682,173625.03,490656.25,526343.13
163349,483387,522740,173467.78,490480.38,526242.63
163244,483537,522749,173255.53,490273.75,526128.19
163322,483595,522795,172995.23,490041.88,526002.50
163171,483960,523054,172693.72,489790.13,525868.25
163227,483906,522982,172357.19,489523.50,525728.25
163400,484121,523027,171992.97,489247.06,525584.50
163463,484299,523382,171608.38,488965.47,525439.00
164196,484785,523320,171210.53,488683.31,525293.88
164665,485226,523545,170807.53,488405.63,525151.38
165073,485559,523649,170406.72,488137.06,525013.56
166023,486234,523872,170014.09,487881.38,524882.13
166543,486448,524098,169636.00,487642.13,524758.75
166916,486682,524112,169278.59,487421.81,524644.56
167367,487113,524306,168945.94,487221.75,524539.88
167946,487324,524402,168640.97,487042.81,524445.00
168242,487496,524536,168366.16,486886.28,524360.75
168566,487787,524586,168122.72,486752.75,524287.44
169057,488015,524693,167910.34,486642.38,524225.03
169413,488246,524751,167729.03,486554.94,524173.25
169565,488291,524830,167579.91,486489.81,524131.81
170066,488768,525043,167463.06,486445.75,524100.38
170407,488804,525054,167377.97,486421.94,524078.56
170701,489093,525085,167324.59,486418.25,524066.22
171107,489285,525230,167302.38,486434.38,524062.94
171580,489628,525244,167310.72,486469.75,524068.19
171856,489731,525309,167348.97,486523.66,524081.44
172234,489960,525458,167415.89,486594.94,524102.25
172820,490563,525725,167509.88,486682.38,524130.78
173288,490692,525763,167630.02,486785.56,524167.19
173604,490912,525979,167776.47,486904.66,524211.31
173911,491081,526285,167948.38,487039.00,524262.88
174450,491462,526162,168144.19,487187.53,524321.38
174746,491573,526153,168362.72,487349.44,524386.25
175103,491649,526159,168602.44,487523.19,524456.50
175618,491954,526129,168860.86,487707.16,524530.88
175796,492079,526142,169135.72,487900.22,524608.25
176268,492310,526158,169426.58,488101.38,524687.88
176608,492887,526542,169733.14,488309.75,524769.13
177151,492847,526435,170054.44,488524.75,524852.13
177615,492962,526423,170389.81,488745.81,524936.75
177851,493198,526583,170738.31,488972.03,525022.75
178487,493449,526712,171098.02,489202.69,525109.94
178800,493689,526737,171467.59,489437.31,525198.50
178855,493532,526751,171846.31,489674.81,525287.88
178314,492844,526303,172231.58,489912.41,525377.00
177513,491502,525815,172617.25,490143.72,525463.19
176309,490338,525278,172993.55,490358.84,525542.19
174703,489004,524304,173349.25,490548.25,525609.75
171298,486819,523770,173669.84,490702.63,525661.75
169827,485934,523453,173939.05,490812.88,525694.75
168428,485247,523119,174146.73,490874.88,525707.44
166124,484537,522915,174288.53,490889.13,525699.94
165514,484184,522703,174360.97,490857.44,525672.88
165114,483954,522612,174362.53,490781.59,525627.56
164700,484015,522565,174296.22,490664.94,525565.56
164336,483990,522516,174167.59,490512.63,525488.94
164119,483968,522565,173982.38,490330.19,525399.75
164092,483897,522514,173747.06,490122.47,525300.06
163892,483948,522460,173468.41,489893.78,525191.69
164073,484103,522646,173153.09,489648.63,525076.44
164177,484237,522644,172808.19,489391.56,524956.63
164227,484772,523064,172440.50,489126.94,524834.06
164956,484953,522875,172057.06,488859.34,524710.63
165452,485265,523140,171666.20,488594.03,524588.38
165771,485635,523253,171275.41,488335.56,524469.63
166548,486155,523450,170889.53,488087.94,524356.06
166997,486421,523523,170513.66,487854.75,524248.94
167527,486686,523743,170154.84,487638.44,524149.34
167763,487348,524067,169817.81,487440.44,524058.06
168431,487405,523922,169505.09,487262.38,523975.50
168622,487419,523909,169219.80,487105.38,523901.94
169078,487566,524114,168964.06,486969.34,523837.25
169519,487964,524148,168739.11,486854.06,523781.63
169694,488023,524272,168545.75,486759.81,523735.19
169991,488031,524197,168383.67,486685.72,523697.78
170321,488427,524549,168251.50,486630.53,523669.19
170937,488757,524501,168148.66,486594.13,523649.66
171207,488930,524541,168076.72,486577.19,523638.81
171480,489442,524879,168036.13,486579.50,523636.13
171986,489555,524946,168025.91,486600.44,523641.81
172455,489750,524956,168045.78,486640.13,523656.03
172783,489984,525051,168095.34,486697.94,523678.25
173400,490445,525282,168173.50,486773.44,523708.13
173744,490489,525226,168279.44,486866.22,523745.50
173999,490707,525112,168412.34,486974.94,523789.22
174760,491271,525588,168570.94,487098.38,523838.44
175019,491408,525663,168754.22,487236.16,523893.69
175330,491494,525662,168961.38,487387.75,523955.13
175607,491583,525854,169190.81,487551.66,524022.09
176073,491942,525878,169440.61,487726.31,524094.06
176257,492069,525879,169709.13,487910.91,524170.47
176553,492233,525965,169994.28,488104.34,524250.56
177095,492671,526448,170293.53,488305.63,524334.00
177394,492752,526279,170605.22,488514.31,524421.00
177565,492886,526123,170928.91,488729.41,524510.81
177814,493023,526456,171263.33,488949.75,524602.50
178162,493285,526234,171606.64,489174.25,524695.38
178542,493289,526280,171957.72,489402.03,524788.88
178709,493404,526280,172315.41,489631.75,524882.19
178314,492997,526085,172677.53,489862.09,524974.44
178101,492271,525880,173039.95,490089.63,525064.00
177264,491451,525496,173396.38,490307.22,525148.69
175906,489090,524408,173738.38,490506.81,525225.63
172553,487728,523843,174052.47,490678.41,525290.38
170923,486683,523424,174321.91,490810.88,525338.00
169316,485796,523069,174534.94,490897.91,525366.19
166719,484551,522477,174684.38,490936.75,525373.81
165878,484167,522399,174763.91,490925.94,525360.25
165167,483989,522288,174770.70,490867.31,525326.63
163841,483704,522136,174706.88,490765.44,525274.88
163964,483870,522288,174576.78,490625.38,525207.50
163808,483796,522208,174385.36,490452.25,525126.44
163755,483890,522219,174139.19,490251.00,525033.63
163680,483981,522324,173845.84,490026.84,524931.19
163755,484020,522229,173512.81,489784.63,524821.25
163774,484172,522317,173147.34,489528.84,524705.50
164050,484623,522645,172756.34,489263.75,524586.38
164402,484909,522692,172347.13,488994.25,524466.38
164716,485153,522872,171927.44,488725.69,524347.81
165177,485880,523363,171504.47,488462.81,524232.13
165968,486113,523239,171085.41,488209.63,524121.03
166319,486480,523398,170677.25,487970.44,524016.31
166625,486650,523349,170284.97,487748.03,523918.94
167452,487168,523712,169911.80,487544.25,523829.56
167832,487340,523733,169561.41,487360.94,523749.25
167980,487349,523730,169237.94,487198.63,523678.13
168321,487904,524094,168943.56,487056.75,523615.91
168597,487926,524018,168679.00,486935.38,523562.59
168888,487994,523953,168444.91,486834.84,523518.34
169045,488168,523992,168241.25,486754.78,523482.63
169538,488488,524131,168067.47,486694.69,523455.00
169858,488536,524196,167923.56,486654.31,523435.47
170290,488825,524267,167810.38,486632.88,523423.81
170842,489500,524492,167728.02,486629.88,523419.75
171102,489543,524504,167675.88,486645.44,523423.25
171551,489777,524716,167654.41,486679.94,523434.44
171807,490021,525008,167663.63,486733.06,523453.44
172416,490586,525093,167702.72,486804.59,523480.38
172848,490737,525160,167771.38,486894.63,523515.56
173209,490807,525238,167869.00,487002.06,523558.69
173463,491229,525458,167994.16,487125.38,523609.28
174134,491481,525381,168145.66,487263.81,523666.94
174488,491548,525386,168322.72,487416.50,523730.53
174887,492117,525667,168524.22,487581.81,523799.00
175181,492153,525657,168748.44,487758.69,523872.03
175605,492279,525782,168993.67,487946.47,523949.50
175783,492488,525823,169258.08,488144.13,524031.19
176212,492757,525844,169539.06,488350.50,524116.31
176490,492852,525851,169834.41,488564.56,524204.06
176830,493004,525883,170143.31,488785.00,524293.63
177054,493281,526339,170464.72,489010.41,524384.50
177485,493328,526210,170797.03,489239.69,524476.63
177676,493558,526236,171138.86,489472.00,524570.38
177718,493645,526258,171488.16,489706.75,524665.25
177889,493419,526127,171841.75,489942.19,524760.38
177510,492659,525746,172195.97,490174.50,524853.88
176787,491800,525311,172546.33,490397.59,524942.88
173463,489711,524479,172885.02,490604.69,525024.13
172268,488415,523880,173198.38,490786.75,525093.75
170625,487395,523393,173470.52,490932.81,525147.25
169084,486368,522488,173690.11,491035.88,525181.88
166401,485073,522387,173848.17,491092.19,525196.19
165315,484717,522220,173936.13,491099.56,525189.13
164456,484320,522158,173951.13,491059.31,525161.31
163634,484272,522088,173895.11,490975.25,525114.81
163419,484143,521991,173771.97,490852.09,525051.63
163233,484244,522135,173587.73,490694.88,524973.75
163194,484253,522355,173349.63,490508.63,524884.06
162983,484237,522116,173064.78,490298.25,524784.63
163049,484278,522235,172740.11,490068.19,524677.50
163091,484440,522208,172382.56,489822.97,524564.81
163415,484804,522387,171999.14,489567.50,524448.50
163659,485142,522558,171597.09,489307.06,524330.63
163855,485228,522507,171183.69,489046.25,524213.31
164609,485999,522866,170765.64,488788.81,524097.69
165193,486309,523024,170350.22,488539.25,523985.78
165445,486606,523129,169944.63,488302.06,523879.63
165913,486859,523650,169554.05,488080.19,523780.75
166565,487096,523451,169182.98,487875.38,523690.28
166868,487224,523438,168835.63,487688.69,523608.59
167044,487346,523432,168514.38,487520.44,523535.25
167541,487826,523935,168220.13,487370.91,523470.06
167684,487876,523757,167953.84,487240.69,523413.50
167914,488060,523816,167716.47,487130.31,523365.88
168152,488203,524046,167508.41,487039.53,523327.28
168504,488562,523960,167329.64,486968.31,523297.50
168819,488664,524071,167180.38,486916.66,523276.25
169012,488835,524075,167060.38,486883.94,523263.13
169322,489096,524224,166968.55,486869.53,523257.69
169803,489274,524225,166904.27,486873.03,523259.75
170157,489587,524398,166868.13,486894.00,523268.88
170270,490173,524679,166859.84,486931.88,523284.81
170927,490368,524789,166878.47,486986.84,523307.53
171167,490438,524762,166923.75,487059.13,523337.53
171448,490728,524772,166994.86,487148.06,523374.50
171963,491173,525089,167089.56,487253.00,523417.94
172256,491329,525107,167206.22,487373.81,523467.94
172585,491502,525155,167345.16,487509.44,523524.13
172797,491982,525507,167505.97,487658.44,523585.75
173389,491986,525396,167687.41,487819.94,523652.38
173651,492223,525477,167888.72,487992.97,523723.88
173980,492318,525645,168108.72,488176.41,523799.75
174466,492739,525687,168346.17,488369.22,523879.66
174776,492842,525783,168600.23,488570.81,523963.34
175021,492945,525803,168869.56,488780.03,524050.41
175376,493450,525987,169152.13,488995.44,524140.38
175717,493478,525959,169446.23,489216.31,524232.91
175973,493556,526057,169751.19,489442.09,524327.50
176162,493572,526273,170065.78,489671.44,524423.50
176044,493092,525834,170387.53,489901.75,524519.88
175343,492294,525602,170711.88,490127.91,524614.63
174478,491205,524907,171031.77,490342.84,524704.69
171727,488933,523948,171338.27,490539.13,524785.19
170038,487699,523568,171618.31,490707.44,524851.13
168408,486726,522974,171856.44,490836.94,524899.63
166895,485616,522577,172041.63,490921.53,524928.88
164601,484979,522273,172166.03,490959.56,524938.19
163854,484550,522117,172223.33,490950.41,524927.44
163365,484344,521925,172213.16,490895.91,524897.25
162539,484230,521917,172139.22,490800.03,524849.25
162358,484204,521839,172005.75,490667.50,524785.25
162253,484182,521946,171817.92,490503.22,524707.63
162049,484381,522057,171582.03,490312.31,524618.88
162106,484358,522030,171304.72,490099.94,524521.50
162123,484396,522034,170992.63,489870.50,524417.38
162145,484525,522207,170652.27,489628.13,524308.19
162370,484734,522124,170289.94,489376.94,524195.59
162700,485107,522259,169912.33,489121.50,524081.25
163126,485380,522626,169526.42,488866.50,523967.41
163570,486150,523006,169138.78,488616.19,523857.13
164385,486600,523024,168756.13,488375.38,523752.91
164950,486791,523129,168385.69,488148.75,523655.75
165365,487302,523327,168033.30,487938.91,523565.94
166082,487432,523360,167703.25,487747.44,523484.03
166254,487603,523303,167399.03,487575.75,523410.34
166683,487814,523387,167122.58,487424.47,523344.75
167227,488200,523667,166874.69,487294.09,523287.56
167565,488330,523643,166656.36,487185.16,523239.25
167804,488523,523730,166469.23,487097.50,523199.75
168315,488955,524085,166314.02,487030.50,523168.81
168742,488978,524038,166190.86,486983.81,523146.50
168942,489189,524103,166100.09,486957.06,523133.06
169392,489347,524219,166041.22,486949.66,523128.38
170027,489940,524384,166013.09,486961.47,523132.31
170379,490133,524467,166015.09,486992.94,523144.81
170815,490366,524491,166047.92,487043.78,523165.44
171066,490976,524929,166110.91,487113.25,523193.94
171787,490978,524890,166202.56,487200.97,523230.59
172139,491101,524999,166323.13,487305.88,523275.19
172515,491475,525261,166472.13,487426.69,523327.09
173121,491807,525286,166648.28,487562.88,523385.94
173424,491983,525286,166850.59,487713.84,523451.38
173820,492226,525383,167077.44,487878.47,523522.78
174406,492738,525650,167326.81,488055.75,523599.72
174806,492944,525753,167597.33,488245.31,523682.31
175190,493163,525853,167888.31,488446.72,523770.41
175535,493780,526124,168198.50,488659.06,523863.19
176214,493784,526191,168526.63,488881.50,523960.16
176616,493939,526277,168872.00,489113.38,524061.56
176810,493989,526317,169233.16,489353.16,524167.25
177251,494121,526245,169607.44,489598.88,524276.03
177417,494396,526331,169992.38,489849.16,524386.75
177615,494395,526296,170386.13,490102.84,524498.50
177953,494520,526375,170786.63,490358.31,524610.50
178020,494224,526209,171191.56,490613.38,524722.00
177695,493534,525838,171598.00,490864.16,524830.94
176982,492518,525090,172000.69,491104.47,524934.38
174197,490109,524372,172388.84,491324.41,525028.13
172467,488881,523756,172746.63,491511.81,525106.81
170520,487560,523071,173060.00,491657.84,525166.25
166987,485805,522460,173318.22,491757.69,525203.50
165671,485278,521986,173510.00,491807.91,525216.63
164629,484834,521812,173625.50,491806.31,525205.13
163805,484673,521840,173662.03,491754.47,525170.31
162784,484385,521635,173621.81,491656.63,525114.50
162547,484264,521595,173508.44,491517.41,525040.00
162257,484109,521562,173328.08,491341.38,524949.00
162051,484276,521670,173087.81,491133.44,524844.25
161962,484184,521665,172794.81,490898.81,524728.25
161979,484296,521540,172456.88,490642.75,524603.25
161910,484533,521762,172081.75,490370.09,524470.88
162113,484538,521730,171676.69,490085.50,524333.13
162144,484807,521781,171248.84,489793.75,524192.44
162421,485070,521881,170805.00,489499.75,524050.69
163239,485839,522176,170351.58,489208.69,523910.00
163746,486180,522354,169896.16,488926.38,523772.94
164078,486518,522396,169447.53,488657.06,523641.31
164407,486927,522822,169012.19,488403.28,523516.22
165307,487202,522881,168595.09,488167.31,523399.13
165536,487316,522821,168201.56,487951.19,523291.25
165809,487468,523000,167834.75,487755.81,523192.75
166488,487909,523012,167496.86,487581.75,523103.56
166740,487936,523031,167190.42,487429.75,523023.94
167077,488195,523154,166916.78,487299.72,522953.88
167499,488633,523394,166676.03,487191.31,522893.75
167647,488727,523446,166468.00,487104.59,522843.97
168000,488937,523386,166292.86,487039.63,522804.22
168248,489184,523693,166150.55,486996.00,522773.53
168758,489410,523633,166040.75,486973.00,522751.44
169095,489617,523702,165963.38,486970.25,522738.06
169468,489907,523837,165918.06,486987.34,522733.44
169989,490280,523953,165903.81,487023.88,522737.38
170443,490527,524033,165920.02,487079.69,522749.69
170681,490723,524173,165966.50,487154.00,522770.06
170998,491475,524411,166042.19,487245.69,522798.19
171564,491526,524369,166145.72,487354.25,522833.69
171916,491634,524405,166276.36,487479.66,522876.06
172251,491833,524452,166432.91,487620.94,522924.69
172813,492329,524668,166613.66,487777.00,522979.13
173226,492367,524780,166817.44,487947.25,523039.31
173517,492538,524794,167043.55,488130.13,523105.03
173885,493003,524940,167290.00,488323.94,523175.41
174118,493081,525011,167554.25,488527.72,523249.88
174417,493135,525014,167835.00,488740.47,523328.13
174928,493380,525279,168131.38,488960.78,523409.66
175108,493556,525227,168442.13,489187.47,523493.94
175485,493789,525204,168765.56,489419.63,523580.72
175871,493983,525337,169100.25,489656.47,523669.50
175823,494213,525488,169444.70,489897.25,523760.06
176192,494048,525376,169796.78,490140.63,523852.19
176233,493625,525174,170154.03,490383.56,523944.50
175681,492057,524388,170512.78,490621.25,524034.69
173495,490676,523857,170864.30,490845.19,524118.88
172059,489417,523281,171195.22,491043.44,524192.03
170356,488292,522721,171493.16,491206.81,524249.94
167125,486390,521878,171747.45,491328.28,524289.38
165833,485712,521577,171946.50,491401.63,524307.63
164569,485234,521319,172079.95,491425.06,524303.75
163097,484611,521387,172143.75,491400.53,524278.75
162666,484407,521160,172138.41,491330.56,524234.25
162254,484317,521032,172065.75,491218.63,524172.19
162098,484378,521030,171930.28,491069.59,524094.69
161590,484293,520999,171738.03,490888.81,524003.81
161557,484259,520977,171494.72,490681.06,523901.66
161595,484374,520912,171207.28,490451.00,523790.00
161298,484909,521315,170882.72,490203.66,523670.94
161806,484788,521160,170527.77,489944.31,523547.00
162054,485011,521315,170150.25,489677.72,523420.41
162163,485177,521564,169757.50,489408.16,523293.00
162990,485896,521683,169356.56,489140.25,523166.81
163553,486272,521902,168955.56,488879.41,523044.31
163941,486605,521972,168561.75,488630.00,522927.56
164726,487108,522216,168180.13,488394.94,522817.81
165172,487302,522288,167815.63,488176.69,522716.19
165510,487560,522331,167473.42,487977.41,522623.31
165827,487955,522607,167156.94,487798.34,522539.06
166260,488080,522512,166868.06,487640.31,522463.44
166620,488237,522599,166608.44,487503.72,522396.81
166878,488403,522580,166379.19,487388.56,522339.28
167439,488675,522806,166180.25,487294.50,522290.72
167631,488925,522773,166011.72,487221.50,522251.13
167858,489059,522895,165874.11,487169.38,522220.31
168524,489548,523095,165767.39,487137.25,522197.88
168777,489700,523153,165691.48,487124.78,522183.88
169009,489927,523259,165646.47,487132.22,522178.38
169432,490096,523588,165631.66,487159.13,522181.19
170032,490451,523504,165646.72,487204.69,522191.72
170380,490496,523515,165691.64,487268.13,522210.09
170673,490764,523543,165765.47,487348.13,522235.88
171332,491300,524103,165866.81,487444.13,522268.50
171611,491472,523926,165994.73,487556.28,522307.94
171892,491636,523897,166148.33,487683.81,522354.22
172276,491943,524070,166326.13,487825.59,522406.63
172612,492283,524060,166526.53,487980.94,522464.63
172969,492427,524163,166747.98,488149.13,522527.63
173361,492541,524208,166989.06,488328.88,522595.09
173717,492907,524347,167247.80,488518.81,522666.63
174201,493051,524403,167522.53,488718.25,522741.94
174350,493050,524388,167812.69,488925.69,522820.41
174536,493666,524595,168116.72,489139.53,522901.31
175056,493663,524564,168432.69,489359.09,522984.22
175308,493715,524589,168759.58,489583.88,523068.81
175573,493867,524663,169096.06,489812.75,523154.69
175967,494166,524793,169440.03,490044.69,523241.63
176060,494202,524732,169789.50,490279.09,523329.38
176378,494217,524749,170143.58,490514.69,523417.25
175700,493628,524558,170501.25,490749.38,523504.56
175374,492707,524013,170858.25,490978.38,523589.38
174271,491481,523529,171206.34,491193.31,523667.84
173052,490363,522554,171535.81,491385.34,523736.19
169705,487947,521883,171833.86,491545.00,523790.44
168066,486975,521564,172084.52,491662.31,523826.03
166608,486276,521204,172276.72,491732.00,523840.81
164299,485465,520778,172405.22,491754.16,523834.50
163559,485084,520615,172465.98,491729.91,523807.00
162870,484863,520441,172456.44,491660.88,523759.38
162498,484491,520620,172378.45,491550.25,523693.38
161959,484446,520384,172237.03,491402.19,523611.25
161941,484496,520395,172037.94,491221.03,523515.25
161920,484713,520466,171788.31,491012.25,523407.84
161793,484798,520472,171495.34,490781.94,523291.38
161962,484977,520608,171165.81,490535.56,523168.13
162011,485091,520563,170807.13,490277.63,523040.28
162170,485650,521003,170426.34,490012.19,522909.75
162591,486004,520956,170030.28,489744.31,522778.69
163077,486317,521052,169626.38,489479.81,522649.47
163511,486625,521349,169221.78,489223.19,522524.06
164351,487185,521513,168822.72,488978.06,522404.56
164831,487449,521619,168435.34,488748.06,522292.38
165213,487731,521696,168065.94,488535.53,522188.38
165862,488458,521852,167718.69,488342.22,522093.06
166189,488399,521895,167396.34,488169.69,522006.88
166499,488519,521991,167102.16,488018.72,521930.00
166755,488523,522246,166837.94,487888.91,521862.31
167114,488943,522125,166604.28,487779.69,521803.63
167404,489147,522188,166401.63,487691.44,521753.97
167704,489304,522274,166230.09,487624.06,521713.34
167742,489729,522662,166089.09,487577.13,521682.13
168441,489808,522598,165978.19,487550.44,521660.94
168847,490043,522673,165897.86,487543.47,521649.31
169171,490461,522814,165848.38,487555.56,521646.41
169847,490715,522912,165829.66,487586.47,521651.78
170107,490925,522971,165841.75,487636.19,521665.44
170382,491069,523058,165883.67,487704.00,521687.06
171044,491516,523253,165953.58,487789.06,521716.38
171296,491685,523265,166050.34,487890.88,521753.19
171702,491879,523370,166173.73,488008.59,521796.88
172153,492223,523657,166322.64,488140.88,521847.00
172519,492351,523588,166495.52,488286.63,521903.31
172805,492650,523585,166691.50,488445.13,521965.25
172965,492618,523492,166909.02,488615.25,522031.56
173444,492936,523384,167145.03,488795.31,522100.75
173718,493044,523338,167397.30,488984.19,522171.38
174050,493118,523385,167665.45,489180.53,522242.38
174134,493762,523773,167948.06,489383.13,522313.81
174870,493768,523704,168243.28,489591.69,522386.25
175063,493881,523765,168551.03,489805.94,522459.84
175321,494058,523922,168870.44,490025.00,522534.34
175987,494460,524015,169200.34,490248.31,522609.69
176352,494582,524071,169540.66,490475.75,522686.25
176562,494645,524009,169890.63,490706.44,522763.75
176490,494169,523822,170247.75,490938.63,522841.06
176071,493475,523536,170607.89,491168.31,522916.28
175357,492596,523133,170965.14,491388.38,522987.00
174140,490282,522144,171311.72,491590.91,523050.41
170918,489101,521665,171634.67,491766.38,523102.59
169479,488175,521184,171917.78,491904.34,523139.13
167877,487295,520717,172149.56,491998.94,523157.06
165569,486147,520201,172323.44,492047.50,523154.94
164365,485815,520088,172433.09,492048.75,523132.22
163968,485534,519949,172474.16,492004.28,523089.84
163119,485521,519986,172448.08,491918.00,523029.66
162917,485305,519924,172359.50,491794.25,522953.81
162591,485265,519678,172212.73,491637.63,522864.25
162750,485346,519970,172013.67,491453.00,522762.75
162583,485424,519888,171769.59,491245.31,522651.78
162639,485574,519847,171487.31,491019.53,522533.53
162673,485658,519932,171173.38,490780.25,522409.75
163005,486146,520312,170834.08,490532.00,522282.88
163466,486393,520288,170476.48,490279.56,522155.72
163624,486591,520320,170108.44,490027.88,522029.94
164138,486971,520759,169736.77,489780.94,521906.59
164761,487835,520699,169367.91,489543.22,521787.44
165369,487949,520838,169008.56,489319.50,521674.19
165770,488010,520902,168664.34,489111.88,521567.94
166257,488517,520992,168338.78,488921.06,521469.34
166611,488627,520967,168034.53,488748.31,521378.59
166866,488750,521101,167754.69,488594.69,521295.75
167198,489122,521267,167501.27,488460.19,521221.09
167669,489254,521321,167275.61,488344.94,521154.97
167924,489418,521388,167078.89,488249.47,521097.66
168212,489593,521471,166911.47,488173.75,521049.19
168617,489906,521711,166772.47,488117.56,521009.81
168844,490132,521694,166661.09,488080.88,520979.69
169262,490413,521898,166578.16,488063.59,520958.75
169425,490931,522075,166524.36,488065.44,520946.63
170225,491154,522073,166499.78,488086.38,520942.94
170651,491272,522056,166504.91,488126.56,520947.44
170963,491553,522504,166539.55,488185.31,520960.03
171721,492099,522513,166603.31,488262.31,520980.88
172124,492164,522553,166696.41,488357.47,521010.19
172351,492331,522542,166817.97,488469.53,521047.25
172969,492858,522806,166965.95,488596.94,521091.38
173331,492912,522895,167138.97,488738.94,521142.56
173485,493008,522768,167336.09,488894.50,521200.19
173824,493485,523034,167555.42,489061.88,521262.94
174408,493379,522925,167795.34,489239.50,521330.00
174686,493501,522866,168054.95,489426.34,521400.63
174907,493691,522934,168332.53,489621.19,521473.97
175377,493936,523080,168625.88,489823.06,521549.53
175748,494171,523040,168933.56,490031.34,521627.06
175978,494317,523179,169254.53,490245.31,521706.22
176299,494739,523404,169587.20,490464.13,521786.69
176813,494618,523412,169930.34,490686.69,521868.63
177054,494670,523373,170283.11,490911.81,521951.84
177239,494659,523394,170643.94,491137.94,522035.81
176977,493926,522959,171010.14,491362.00,522119.00
176270,492987,522529,171376.72,491578.19,522198.63
175063,491831,521891,171735.44,491778.94,522270.94
171864,489614,520860,172075.34,491956.47,522332.31
170200,488392,520423,172381.69,492101.69,522378.88
168740,487417,519989,172639.08,492205.06,522406.69
167284,486652,519431,172837.77,492261.69,522413.75
165226,485863,519252,172971.41,492270.63,522399.56
164560,485482,519128,173035.28,492232.34,522364.50
163848,485305,518992,173029.56,492149.56,522309.81
162784,485156,519113,172957.69,492026.72,522237.75
162931,485050,518919,172824.03,491868.69,522150.69
162817,485132,518941,172634.17,491679.91,522050.63
162801,485245,519002,172394.94,491465.06,521939.38
162547,485186,518829,172113.13,491228.88,521818.94
162687,485114,518853,171795.09,490975.78,521690.94
162718,485302,519008,171447.53,490709.94,521557.44
163017,485787,519234,171076.94,490436.28,521421.06
163365,486051,519429,170690.09,490160.25,521284.59
163806,486316,519486,170294.80,489886.56,521150.31
164529,487127,519982,169898.13,489618.91,521019.69
164995,487345,519919,169506.70,489361.47,520894.41
165401,487500,519914,169127.28,489118.44,520776.13
165891,487842,520031,168765.23,488892.38,520665.59
166582,488262,520236,168423.97,488685.31,520563.53
166923,488391,520278,168106.63,488498.84,520470.75
167174,488604,520374,167816.64,488333.59,520387.50
167286,489218,520720,167555.41,488189.81,520314.19
167897,489052,520597,167323.16,488067.75,520251.06
168326,489208,520708,167121.72,487967.09,520198.13
168522,489326,520810,166952.28,487887.28,520154.94
169077,489785,520864,166814.84,487827.97,520121.25
169340,489966,520874,166709.53,487789.38,520096.75
169687,490105,520874,166635.97,487771.19,520080.75
170318,490586,521120,166593.05,487772.56,520072.91
170613,490683,521282,166580.13,487793.09,520073.50
170994,490980,521448,166597.53,487832.44,520082.81
171404,491477,521621,166645.13,487890.00,520100.72
171983,491692,521666,166722.25,487965.56,520126.72
172317,491840,521630,166828.38,488058.94,520160.44
172682,491943,521740,166962.28,488168.88,520201.25
173376,492515,522015,167122.19,488294.44,520248.81
173572,492687,522010,167306.72,488435.38,520303.22
173903,492754,522129,167514.97,488590.75,520363.94
174509,493223,522161,167745.59,488758.66,520430.38
174851,493376,522309,167997.27,488938.19,520502.06
175218,493513,522342,168269.17,489128.75,520578.44
175513,493657,522648,168559.91,489329.00,520658.84
175929,493872,522510,168867.64,489537.59,520742.66
176260,494086,522668,169190.81,489753.44,520829.66
176451,494202,522688,169527.53,489975.50,520919.66
176830,494564,523060,169875.47,490202.63,521012.25
177202,494636,522820,170232.84,490434.03,521106.91
177291,494592,522830,170598.50,490668.56,521203.03
177248,494458,522618,170969.97,490904.13,521299.47
176323,492953,522042,171342.22,491135.56,521393.81
175408,492016,521585,171707.28,491354.19,521482.13
173981,490743,520910,172055.69,491551.44,521560.41
170657,488473,519966,172376.75,491719.97,521624.31
169125,487528,519533,172656.69,491851.75,521669.50
167786,486698,519156,172881.19,491938.81,521693.88
166455,485815,518657,173042.13,491977.75,521697.13
164518,485368,518455,173134.91,491968.81,521679.38
164049,485138,518546,173156.44,491913.56,521641.19
163630,485032,518454,173108.91,491815.50,521584.50
163024,484807,518455,172997.25,491679.06,521511.75
162932,484849,518280,172826.63,491508.81,521424.81
162789,484751,518320,172603.50,491309.56,521325.50
162272,484718,518355,172334.77,491085.88,521215.56
162572,484852,518364,172026.80,490842.31,521097.06
162765,485060,518509,171686.28,490583.69,520972.50
162893,485270,518708,171320.30,490314.94,520844.22
163332,485774,518673,170936.14,490041.38,520714.13
163754,486079,518825,170541.38,489768.28,520584.31
164018,486471,518958,170142.94,489500.38,520456.81
164960,487306,519328,169746.92,489241.69,520333.75
165460,487328,519458,169360.06,488995.97,520217.28
165902,487664,519531,168989.19,488766.56,520108.84
166172,488040,519946,168638.89,488555.81,520008.97
166787,488299,519724,168312.25,488365.25,519918.06
166915,488371,519800,168011.86,488195.91,519836.41
167322,488571,519909,167739.19,488047.94,519764.13
167851,488903,520019,167494.88,487921.38,519701.38
168079,489009,520073,167279.72,487816.25,519648.19
168357,489177,520135,167094.97,487732.19,519604.38
168656,489782,520373,166941.14,487668.63,519569.59
169137,489719,520320,166818.22,487625.25,519543.69
169571,489911,520383,166726.59,487601.97,519526.50
169874,490134,520588,166666.27,487598.38,519517.78
170519,490608,520709,166636.36,487614.22,519517.75
170795,490744,520810,166636.22,487649.50,519526.44
171174,490942,520932,166665.97,487703.41,519543.50
171802,491549,521094,166724.80,487775.13,519568.31
172081,491756,521199,166811.53,487864.69,519600.25
172429,491827,521213,166925.94,487971.66,519639.44
172775,492078,521496,167067.19,488094.63,519685.75
173306,492516,521470,167233.97,488232.63,519738.63
173737,492597,521558,167425.41,488385.16,519797.81
173958,492724,521578,167640.22,488550.69,519862.84
174146,493050,521888,167876.16,488727.38,519933.34
174758,493154,521727,168131.34,488914.00,520009.00
175140,493354,521595,168404.84,489109.63,520088.41
175322,493805,521752,168695.19,489313.25,520169.88
175891,493850,521682,169000.67,489524.00,520252.50
176317,493988,521858,169320.48,489741.31,520336.16
176545,494097,521846,169653.63,489964.13,520420.75
177080,494463,522079,169998.14,490191.56,520506.34
177389,494565,522099,170352.56,490423.09,520593.00
177593,494655,522239,170716.19,490657.75,520680.72
177660,494184,522012,171087.23,490893.69,520769.25
177170,493491,521641,171461.84,491126.69,520856.94
176291,492476,521081,171833.58,491349.66,520940.13
175024,491337,520639,172193.63,491554.47,521014.78
171732,488972,519521,172530.92,491731.44,521076.72
170160,487847,519078,172830.86,491869.75,521121.22
168579,486853,518567,173078.53,491962.63,521145.44
165537,485872,518189,173263.89,492008.19,521148.50
165007,485309,517866,173380.23,492006.03,521130.25
164162,485047,517800,173423.41,491956.56,521091.00
163777,484891,517522,173394.63,491862.56,521032.44
163063,484609,517503,173298.25,491728.31,520956.50
162863,484517,517428,173139.22,491558.13,520864.59
162745,484542,517311,172923.81,491356.53,520758.25
162506,484639,517454,172658.56,491128.81,520639.63
162457,484551,517410,172349.59,490879.75,520511.28
162725,484719,517539,172004.63,490614.03,520375.63
162802,485151,517834,171631.88,490336.44,520235.06
163168,485448,517857,171238.77,490052.44,520092.31
163528,485791,517928,170832.69,489767.81,519949.69
163882,486025,518062,170420.78,489487.25,519809.09
164717,486859,518452,170009.38,489215.34,519672.69
165246,487115,518554,169605.30,488957.03,519542.81
165677,487323,518652,169215.70,488715.44,519420.88
166379,487826,518717,168845.81,488492.06,519307.56
166681,487932,518861,168499.33,488288.25,519203.25
167045,488057,519025,168179.69,488105.25,519108.69
167285,488245,519317,167888.97,487943.44,519024.31
167871,488570,519299,167628.58,487803.09,518950.44
168209,488727,519329,167400.03,487684.50,518887.28
168434,488931,519390,167203.97,487587.50,518834.81
168755,489329,519727,167039.30,487511.75,518792.63
169164,489380,519560,166905.08,487456.94,518760.28
169472,489563,519447,166802.16,487422.50,518737.22
169776,489805,519928,166730.84,487407.94,518722.53
170430,490215,519815,166690.81,487412.94,518716.06
170703,490462,519836,166682.13,487437.53,518718.00
171173,490704,520017,166704.25,487481.38,518728.22
171623,491121,520369,166756.17,487543.81,518746.94
172123,491263,520292,166837.25,487624.44,518774.56
172473,491506,520416,166946.97,487722.31,518810.44
172802,492107,520578,167084.22,487836.38,518853.66
173316,492067,520637,167247.53,487965.88,518903.81
173610,492148,520574,167435.72,488109.75,518960.34
174072,492348,520810,167647.30,488266.50,519022.56
174547,492703,520776,167879.75,488435.06,519090.09
174844,492730,520807,168130.66,488614.50,519162.13
175062,492984,521000,168399.78,488803.38,519238.06
175556,493444,521289,168686.30,489000.69,519317.56
175956,493473,521144,168988.78,489205.75,519400.22
176244,493666,521239,169306.28,489417.81,519485.81
176414,493703,521401,169637.09,489635.84,519574.13
177013,493978,521362,169979.50,489858.50,519664.84
177199,494153,521312,170332.47,490084.94,519757.19
177324,494256,521269,170694.16,490314.50,519850.06
177562,494269,521299,171062.06,490545.81,519942.56
177471,493818,521017,171433.56,490776.44,520033.63
176864,492874,520669,171804.59,491001.38,520121.03
175892,491829,519706,172168.50,491213.44,520201.81
173001,489425,519042,172513.44,491402.69,520271.47
171319,488369,518535,172823.72,491557.69,520324.94
169737,487431,518157,173086.80,491671.44,520359.31
166974,485941,517637,173294.09,491741.38,520373.25
165934,485453,517276,173437.50,491765.69,520365.81
165023,484920,517155,173511.17,491742.50,520337.13
164391,484856,517165,173514.61,491673.00,520288.63
163506,484628,517001,173450.44,491561.53,520222.44
163294,484649,517092,173322.28,491412.88,520140.88
163161,484713,516995,173135.91,491232.28,520046.19
163067,484769,517156,172898.44,491025.13,519940.81
163023,484848,517015,172616.84,490796.53,519826.81
163015,484910,517034,172298.09,490551.22,519705.94
163163,485310,517211,171948.95,490293.56,519579.81
163420,485466,517306,171576.38,490028.38,519450.69
163726,485784,517416,171187.78,489760.75,519320.84
164045,486071,517861,170790.16,489495.38,519192.19
164990,486671,517877,170390.97,489236.59,519066.66
165507,487050,518129,169998.28,488989.00,518946.84
165833,487301,518217,169618.44,488756.00,518834.78
166474,487958,518506,169255.47,488539.88,518731.72
166918,488053,518399,168913.28,488342.69,518638.38
167158,488132,518427,168595.73,488165.91,518554.44
167510,488525,518782,168305.09,488009.75,518479.28
167922,488434,518598,168042.81,487874.00,518412.63
168288,488801,518708,167810.33,487758.63,518354.97
168451,488898,518790,167608.22,487663.91,518306.56
169038,489309,518990,167436.22,487589.91,518267.63
169315,489519,518947,167294.47,487536.78,518238.06
169608,489685,519032,167183.59,487504.31,518217.38
169803,490031,519314,167103.30,487491.66,518205.13
170451,490260,519190,167052.97,487498.25,518201.00
170783,490495,519380,167032.84,487524.00,518204.81
171150,490706,519590,167042.58,487568.44,518216.84
171567,491152,519748,167080.53,487631.00,518237.41
172095,491334,519843,167145.55,487711.56,518266.50
172444,491612,519930,167238.05,487809.31,518303.69
172864,492283,520206,167357.19,487923.69,518348.50
173318,492206,520131,167501.25,488054.25,518400.44
173636,492460,520201,167669.97,488200.00,518458.97
173963,492549,520307,167862.59,488359.50,518523.22
174516,492861,520299,168077.66,488531.38,518592.31
174746,493115,520386,168314.02,488714.69,518665.75
174983,493256,520432,168569.72,488908.44,518743.06
175224,493661,520638,168841.81,489111.63,518824.00
175773,493861,520705,169128.13,489323.47,518908.44
176183,494096,520683,169428.69,489543.56,518995.94
176418,494422,520761,169743.09,489771.03,519085.72
176997,494532,520833,170070.09,490004.88,519177.16
177338,494613,520769,170409.00,490244.03,519269.72
177539,494729,520911,170758.61,490487.19,519362.75
178016,494894,520975,171116.88,490732.97,519456.09
178042,494594,520803,171481.84,490979.50,519549.19
177626,493951,520535,171850.73,491222.94,519640.31
175883,492056,519719,172218.34,491457.63,519727.13
174375,490748,518986,172574.36,491674.44,519805.50
172846,489698,518610,172903.91,491861.66,519870.16
171133,488496,518098,173194.06,492010.81,519917.75
168066,486788,517352,173432.63,492115.81,519946.00
166918,486269,517028,173607.47,492171.69,519952.75
165941,485756,516866,173713.19,492177.88,519937.63
164227,485481,516812,173749.34,492137.13,519902.19
164007,485200,516529,173716.41,492053.19,519848.31
163836,485095,516492,173617.41,491929.56,519777.19
163604,485138,516523,173458.38,491770.75,519690.38
163396,485210,516492,173245.91,491582.06,519590.25
163416,485229,516540,172986.72,491368.81,519479.25
163418,485292,516527,172687.88,491135.69,519359.69
163654,485696,516742,172356.20,490887.63,519233.81
163815,485861,516796,171998.69,490629.75,519104.19
164130,486219,517018,171623.05,490367.44,518973.19
164473,486791,517283,171236.67,490105.06,518842.91
165280,487125,517424,170846.97,489847.06,518715.44
165794,487468,517557,170461.69,489598.63,518593.00
166074,487674,517610,170087.02,489363.50,518477.22
166781,488173,517875,169726.86,489144.06,518369.03
167142,488253,517783,169385.06,488942.50,518269.28
167396,488333,517822,169065.89,488759.53,518177.91
167869,488745,518048,168771.95,488595.09,518094.97
168189,488892,518034,168504.84,488449.81,518021.00
168328,489000,518166,168266.03,488324.31,517956.00
168607,489113,518467,168055.94,488218.50,517900.00
169115,489456,518381,167874.94,488132.09,517852.94
169336,489679,518459,167723.69,488065.25,517815.03
169658,489730,518516,167602.16,488017.78,517786.25
170155,490157,518751,167509.69,487988.81,517766.50
170356,490360,518696,167445.70,487978.19,517755.72
170850,490578,518734,167410.47,487986.06,517753.25
171278,490737,519138,167404.44,488011.81,517758.50
171816,491190,519102,167427.63,488055.06,517771.47
172149,491415,519217,167479.84,488115.75,517792.44
172373,491556,519274,167559.89,488193.28,517821.31
173003,491954,519452,167665.72,488287.06,517857.63
173343,492155,519459,167796.06,488396.84,517901.06
173673,492342,519537,167950.88,488521.44,517950.94
173855,492740,519642,168129.14,488659.13,518006.47
174423,492686,519690,168329.11,488808.41,518067.06
174674,492771,519601,168549.64,488968.13,518132.00
174843,492862,519651,168788.97,489136.97,518200.34
175293,493121,519644,169044.41,489313.56,518271.19
175662,493246,519691,169314.23,489497.06,518343.88
175928,493418,519810,169598.05,489686.56,518418.00
175883,493724,519989,169894.59,489881.19,518493.44
176559,493771,520057,170202.06,490080.22,518570.22
176820,493957,520070,170519.50,490283.03,518648.50
177192,494092,520103,170846.00,490488.81,518728.13
177478,493895,520071,171180.50,490696.25,518808.50
177242,493451,519851,171520.91,490902.34,518888.41
176642,492716,519409,171862.58,491102.34,518965.59
174496,490802,518503,172198.63,491290.44,519036.13
172916,489240,517853,172517.72,491457.19,519094.97
171345,488118,517387,172804.63,491590.81,519138.19
169669,486390,516745,173047.03,491683.69,519163.38
166890,485628,516296,173234.30,491731.38,519168.69
165733,485184,515999,173356.16,491730.81,519152.81
164867,484840,515856,173408.48,491682.59,519116.00
163749,484470,515724,173392.45,491589.94,519059.69
163362,484277,515646,173310.56,491456.31,518985.69
163001,484202,515563,173166.25,491286.06,518895.94
162906,484475,515698,172965.00,491084.19,518792.53
162611,484282,515604,172713.38,490855.88,518677.91
162678,484373,515579,172418.00,490606.38,518554.19
162645,484312,515676,172085.84,490340.19,518423.44
162836,484713,515748,171723.41,490062.00,518287.88
163085,484889,515856,171337.53,489776.88,518149.69
163290,485242,515997,170935.91,489489.75,518010.97
163954,485894,516726,170525.28,489205.19,517873.75
164337,486093,516524,170112.25,488927.81,517740.25
164775,486419,516662,169704.53,488661.91,517613.03
165304,486724,516908,169308.70,488410.69,517493.31
165987,487215,516971,168930.27,488176.97,517381.75
166418,487329,516921,168574.19,487962.91,517279.44
166772,487493,516976,168243.97,487769.38,517186.69
166899,487993,517269,167941.27,487596.88,517103.69
167533,488159,517263,167667.34,487446.25,517031.06
167846,488364,517300,167423.95,487318.31,516968.75
168148,488773,517425,167212.16,487212.88,516916.19
168741,488929,517561,167032.59,487129.81,516873.13
169011,489108,517667,166885.97,487069.19,516839.94
169251,489236,517604,166772.03,487030.50,516816.38
169883,489654,517844,166689.78,487013.00,516801.91
170298,489811,517963,166639.09,487016.44,516796.56
170569,489960,517966,166620.34,487039.84,516800.16
171184,490469,518166,166632.88,487082.13,516811.94
171589,490607,518264,166676.03,487142.63,516831.56
171838,490805,518321,166749.34,487221.00,516859.06
172344,491101,518361,166851.78,487316.63,516893.97
172934,491555,518665,166981.47,487429.00,516936.00
173281,491730,518608,167136.94,487557.91,516985.13
173630,491895,518800,167318.09,487702.19,517040.78
173744,492432,518969,167523.25,487860.63,517102.69
174293,492402,518946,167749.66,488032.38,517170.56
174614,492395,518871,167996.47,488215.69,517243.31
174948,492584,519129,168262.78,488408.44,517319.56
175551,493068,519120,168547.28,488609.69,517398.59
175846,493144,519128,168849.09,488819.25,517480.50
176193,493277,519316,169166.78,489035.94,517565.22
176666,493535,519302,169498.31,489258.41,517652.44
176952,493703,519431,169841.94,489485.75,517741.78
177293,493863,519542,170196.84,489717.22,517832.94
177378,493949,519690,170561.59,489951.63,517925.75
177575,493755,519441,170933.66,490187.03,518019.28
177389,493199,519274,171309.97,490420.19,518112.13
176697,492263,518749,171685.69,490645.59,518201.97
174162,489937,517725,172052.98,490853.88,518284.34
172392,488691,517102,172398.66,491033.03,518353.69
170702,487581,516581,172706.22,491174.25,518405.94
167606,485933,515791,172963.31,491272.84,518439.00
166464,485253,515555,173160.38,491324.94,518451.28
165441,484816,515342,173288.42,491328.13,518441.75
164592,484513,515267,173344.36,491283.50,518410.69
163584,484128,514946,173329.41,491194.47,518359.44
163178,484041,514849,173246.03,491064.69,518289.44
162964,484016,514929,173099.11,490898.88,518202.81
162762,484008,515225,172895.31,490702.13,518102.25
162739,484124,515052,172641.66,490479.63,517990.56
162781,484105,515042,172345.44,490236.44,517870.19
162818,484259,515240,172013.97,489977.25,517743.38
162942,484513,515174,171654.25,489706.78,517612.00
163303,484875,515434,171273.41,489430.22,517478.50
163506,485106,515438,170878.59,489152.50,517345.19
164127,485833,515734,170476.23,488878.25,517214.09
164736,486120,515956,170073.22,488612.25,517087.41
165190,486390,515937,169677.44,488358.75,516966.88
165642,487101,516157,169295.23,488120.50,516853.25
166363,487282,516153,168931.61,487899.97,516747.16
166744,487370,516290,168591.22,487699.72,516649.28
167188,487553,516466,168277.31,487520.69,516560.31
167545,487959,516557,167991.50,487363.31,516480.94
167921,488094,516667,167734.80,487228.25,516411.44
168156,488266,516708,167508.70,487115.44,516351.84
168434,488855,517051,167313.81,487024.22,516301.81
168881,488864,517030,167150.08,486954.44,516261.41
169297,488930,517038,167018.03,486906.06,516230.88
169584,489154,517300,166917.91,486878.50,516210.06
170174,489578,517200,166849.59,486871.19,516198.53
170434,489645,517251,166813.00,486883.88,516195.75
170773,489864,517448,166807.33,486915.53,516201.28
171433,490505,517765,166831.41,486965.47,516215.50
171905,490636,517769,166884.92,487033.78,516238.81
172189,490867,517830,166968.02,487120.25,516270.66
172638,491278,518249,167079.86,487223.81,516310.38
173356,491477,518175,167219.75,487343.44,516357.69
173469,491682,518199,167387.03,487478.72,516412.41
173822,491662,518200,167579.63,487628.50,516473.75
174462,492233,518395,167795.06,487791.19,516540.88
174761,492316,518420,168031.88,487966.13,516613.44
175021,492450,518386,168289.28,488152.31,516690.56
175237,492996,518838,168565.69,488348.13,516771.38
175767,492856,518705,168859.08,488552.19,516855.69
175992,493187,518745,169168.03,488764.00,516943.44
176411,493283,518780,169491.06,488982.84,517034.06
176896,493505,518967,169826.45,489207.75,517127.13
177136,493532,518985,170172.78,489437.31,517222.38
177442,493720,519022,170529.09,489670.25,517319.44
177770,494083,519041,170893.70,489905.69,517417.56
177838,493842,518915,171264.38,490142.75,517516.00
177831,493610,518821,171639.03,490378.97,517613.25
177456,492816,518110,172014.38,490610.06,517707.56
175293,490772,517540,172382.25,490827.94,517795.47
173867,489548,517027,172729.66,491021.38,517872.00
172253,488342,516384,173044.28,491181.38,517933.19
168556,486295,515573,173315.88,491302.00,517975.56
167503,485503,515271,173532.56,491377.41,517996.28
166345,484973,514997,173683.02,491403.09,517994.69
165271,484353,514607,173762.28,491378.75,517971.47
163999,483985,514457,173769.78,491306.59,517927.41
163573,483916,514424,173706.47,491190.06,517863.66
163291,483876,514367,173576.70,491034.06,517782.16
162919,483794,514397,173386.91,490843.88,517685.38
162881,483868,514460,173143.78,490624.69,517575.94
162961,483881,514464,172854.47,490381.69,517456.41
162836,484135,514690,172526.31,490119.72,517328.94
163085,484363,514608,172166.44,489844.09,517195.63
163234,484594,514658,171782.14,489560.44,517058.75
163469,484873,514839,171380.53,489273.75,516920.56
164184,485571,515251,170967.59,488989.31,516783.81
164683,485888,515366,170550.25,488712.47,516651.31
165051,486222,515352,170137.30,488447.47,516524.69
165412,486992,515910,169735.16,488197.38,516404.94
166205,487108,515748,169348.59,487965.31,516293.34
166671,487215,515876,168983.38,487753.44,516190.91
166898,487417,516093,168643.63,487562.69,516098.06
167670,487682,515984,168331.91,487393.31,516014.94
167932,487898,516019,168051.00,487245.84,515941.25
168046,487984,516117,167801.88,487120.19,515876.94
168547,488407,516318,167583.61,487015.81,515822.13
168816,488517,516302,167395.92,486932.63,515776.94
169189,488673,516355,167239.97,486870.50,515741.00
169535,489045,516639,167116.53,486829.13,515714.19
170044,489289,516758,167025.56,486808.19,515696.81
170326,489499,516801,166966.94,486807.66,515689.06
170729,489707,516807,166939.97,486826.88,515690.28
171424,490156,517000,166943.69,486865.31,515699.84
171706,490301,517011,166977.53,486922.75,515717.47
172054,490526,517034,167041.38,486998.38,515742.50
172665,491084,517343,167134.50,487091.13,515774.47
173089,491288,517595,167256.06,487200.78,515813.88
173382,491342,517544,167405.41,487326.81,515861.03
173761,491684,517848,167581.13,487468.00,515915.22
174291,491818,517657,167781.72,487623.13,515975.44
174636,492050,517602,168006.08,487790.88,516040.69
174862,492180,517627,168252.42,487970.00,516109.88
175463,492594,518014,168518.30,488159.47,516182.28
175861,492785,518011,168802.20,488358.94,516257.94
176197,492998,518019,169103.72,488567.50,516337.13
176449,493095,518302,169421.63,488783.84,516419.34
176807,493593,518302,169753.88,489007.06,516504.16
177236,493785,518411,170098.91,489237.13,516591.88
177547,493908,518410,170455.47,489473.38,516682.44
177903,494158,518619,170821.97,489714.69,516775.41
178255,494338,518595,171196.86,489960.38,516870.56
178436,494221,518538,171578.89,490208.81,516967.09
178346,493540,518094,171965.80,490457.00,517063.47
177259,492414,517667,172352.19,490698.94,517156.88
176046,491322,517164,172728.94,490925.69,517243.28
174561,490000,516598,173085.28,491128.31,517318.88
171174,487768,515642,173409.39,491297.28,517379.63
169536,486897,515230,173686.81,491423.09,517421.53
168215,486107,514749,173904.16,491501.19,517442.38
165708,485238,514435,174054.78,491531.31,517441.63
165173,484788,514116,174135.38,491514.13,517419.34
164825,484743,514281,174143.84,491451.22,517376.63
164453,484576,513964,174083.09,491346.38,517315.69
163976,484542,514206,173958.81,491204.56,517239.16
163759,484594,514078,173776.56,491030.75,517149.06
163776,484660,514122,173542.81,490830.25,517047.38
163640,484967,514309,173264.72,490608.09,516936.50
163734,484974,514323,172949.11,490369.13,516819.06
163922,485114,514325,172603.22,490118.41,516697.13
164149,485630,514641,172234.44,489860.63,516572.25
164799,485862,514719,171850.50,489600.38,516446.50
165199,486281,514871,171459.53,489343.03,516322.50
165604,486535,514909,171068.63,489093.19,516202.19
166497,487285,515228,170683.38,488854.75,516087.06
167055,487522,515304,170309.81,488631.81,515978.75
167379,487723,515462,169954.72,488426.75,515878.31
167751,488192,515649,169622.48,488240.53,515786.19
168207,488271,515632,169315.66,488073.94,515702.69
168485,488349,515624,169036.38,487927.72,515628.00
168804,488561,515749,168785.88,487802.00,515562.34
169250,488786,515909,168564.50,487696.59,515505.78
169524,488980,515930,168372.61,487611.50,515458.56
169802,489209,516046,168211.03,487546.44,515420.50
170328,489813,516155,168079.94,487501.13,515391.50
170633,489755,516206,167979.13,487475.38,515371.56
170855,489864,516316,167908.86,487468.94,515360.22
171177,490037,516618,167868.55,487480.88,515357.16
171668,490544,516621,167857.47,487510.75,515362.34
172175,490826,516691,167875.63,487558.88,515375.88
172626,490987,516721,167922.97,487625.06,515397.31
172835,491510,517033,167998.66,487708.16,515426.47
173561,491688,517045,168101.59,487807.50,515463.38
173879,491885,517161,168231.58,487923.00,515507.75
174112,492256,517279,168387.47,488053.75,515558.94
174638,492237,517425,168567.50,488198.19,515616.53
175018,492412,517331,168770.59,488355.09,515680.09
175337,492521,517490,168995.44,488523.16,515748.75
175796,492808,517465,169240.11,488701.06,515821.75
176062,492977,517431,169502.72,488887.94,515898.19
176259,493123,517550,169781.94,489082.81,515977.16
176504,493576,517901,170075.88,489284.47,516058.22
177097,493677,517728,170383.00,489492.38,516141.13
177339,493802,517778,170702.63,489706.13,516225.75
177637,493949,517876,171033.41,489924.81,516311.91
178086,494278,517978,171372.66,490147.66,516399.38
178357,494396,517983,171718.28,490374.19,516488.00
178522,494340,517878,172070.41,490603.25,516576.94
177941,493875,517956,172427.78,490832.78,516665.25
177684,492886,517408,172785.52,491058.16,516751.50
176880,491878,516846,173136.81,491271.13,516832.44
175391,490719,515874,173473.06,491463.34,516904.13
172090,488398,515307,173780.59,491625.44,516962.44
170499,487405,514788,174042.83,491747.34,517002.75
168931,486643,514446,174248.44,491823.63,517022.50
166487,485543,513979,174391.25,491853.38,517020.84
165827,485203,513754,174466.38,491836.88,516997.56
165253,484821,513574,174471.44,491774.63,516953.38
164823,484714,513540,174408.75,491669.31,516889.81
164249,484694,513501,174283.03,491525.75,516809.06
164093,484691,513491,174099.39,491349.06,516713.50
164011,484708,513463,173864.22,491144.41,516605.56
163917,484818,513541,173584.47,490916.81,516487.53
164006,484938,513626,173267.03,490671.31,516361.75
164052,485043,513601,172918.94,490412.66,516230.50
164427,485733,513910,172546.92,490145.16,516095.69
164735,485828,513991,172158.05,489873.75,515959.50
165121,486156,514091,171760.13,489604.06,515824.56
165478,486437,514653,171360.22,489340.69,515692.75
166404,487158,514595,170965.22,489087.75,515565.94
166997,487409,514565,170582.56,488849.50,515446.06
167345,487703,514804,170218.09,488628.69,515334.31
167849,488097,515186,169875.06,488427.13,515231.63
168288,488250,515051,169556.28,488246.25,515138.94
168462,488334,515075,169264.56,488086.38,515056.38
168774,488408,515265,169001.44,487947.00,514983.69
168991,488620,515123,168767.34,487827.66,514920.44
169442,488829,515248,168562.75,487728.06,514866.31
169701,488958,515370,168388.22,487648.06,514821.31
170049,489438,515503,168243.66,487587.31,514785.63
170510,489524,515533,168128.97,487545.88,514759.22
170812,489685,515689,168044.59,487523.56,514741.78
171053,490383,515806,167990.25,487519.75,514733.25
171694,490364,515894,167965.41,487534.06,514733.44
172051,490541,516043,167970.25,487566.78,514742.19
172386,490739,516181,168004.33,487617.47,514759.41
172861,491111,516296,168065.47,487685.38,514785.00
173255,491290,516315,168151.88,487770.00,514818.44
173674,491385,516326,168264.28,487870.31,514858.88
173830,491877,516611,168402.78,487984.91,514905.50
174424,491981,516666,168565.94,488112.94,514958.03
174638,492051,516590,168752.30,488253.81,515016.31
175039,492205,516868,168960.22,488406.06,515079.56
175673,492555,516773,169188.66,488568.63,515147.06
175844,492592,516820,169436.91,488740.69,515218.44
176098,492808,516869,169703.08,488921.13,515293.16
176535,493210,517171,169984.75,489108.75,515371.13
176852,493267,517187,170280.25,489303.00,515452.56
177140,493492,517233,170588.72,489503.38,515537.19
177339,493451,517382,170908.81,489709.00,515624.19
177792,493764,517377,171238.86,489918.53,515712.81
177882,493720,517294,171577.50,490131.00,515802.69
178101,493647,517331,171922.78,490344.75,515893.19
177391,492722,516908,172271.38,490557.56,515982.75
176522,491682,516410,172616.86,490764.13,516068.44
175156,490554,515771,172949.78,490954.50,516146.31
173664,488288,514953,173259.59,491119.47,516212.50
170201,487224,514267,173532.44,491250.31,516263.00
168893,486251,513859,173752.84,491338.38,516294.00
167415,485536,513587,173911.53,491379.38,516303.81
165480,484774,513178,174004.78,491372.72,516292.31
164793,484461,513113,174029.97,491319.41,516260.00
164233,484272,512873,173986.38,491222.38,516208.13
163408,484173,512740,173876.80,491085.97,516138.28
163456,484084,512782,173706.59,490914.88,516052.31
163400,484194,512854,173481.91,490714.19,515952.69
163394,484319,512976,173209.88,490489.41,515842.06
163346,484415,513149,172897.88,490245.75,515723.31
163298,484550,513077,172552.56,489988.13,515599.13
163693,484843,513272,172180.84,489721.16,515471.50
163735,485226,513488,171790.05,489449.75,515342.81
164360,485517,513589,171387.33,489178.59,515215.41
164719,485837,513651,170980.00,488912.28,515090.97
165233,486558,513829,170574.92,488654.75,514970.69
166104,486786,513998,170178.91,488409.78,514855.91
166483,487004,514156,169798.63,488181.00,514748.19
166918,487144,514157,169438.75,487970.25,514648.47
167524,487681,514417,169102.31,487778.91,514557.31
167821,487803,514488,168791.92,487608.50,514475.44
168224,488097,514620,168510.38,487459.84,514403.44
168467,488459,514866,168259.45,487332.94,514341.25
168941,488791,514890,168039.89,487228.16,514289.13
169176,488928,514975,167852.22,487146.25,514247.28
169559,489055,515007,167696.52,487087.00,514215.56
170072,489397,515172,167571.72,487049.47,514193.59
170441,489588,515153,167477.16,487033.25,514181.00
170710,489656,515080,167413.97,487037.38,514176.94
170856,490214,515159,167381.78,487060.50,514180.19
171497,489939,515008,167379.03,487101.31,514189.88
171711,489708,514810,167405.66,487157.63,514204.31
171936,489731,514707,167460.66,487226.44,514221.75
172363,489807,514539,167542.34,487305.59,514240.69
172498,489775,514408,167649.16,487393.56,514259.75
172709,489792,514388,167779.08,487488.75,514277.88
173163,490061,514707,167929.09,487589.88,514295.31
173451,490281,514781,168097.16,487696.72,514313.28
173629,490420,514873,168283.30,487809.59,514332.56
173774,490867,515067,168486.67,487928.25,514353.38
173838,491051,515035,168704.73,488052.84,514375.63
174203,491274,515141,168935.34,488184.25,514399.94
174367,491777,515402,169177.06,488323.38,514427.09
174961,492373,515600,169428.84,488471.59,514458.09
175373,492730,515814,169690.48,488630.56,514493.84
175840,493136,516031,169962.75,488801.00,514535.06
176615,494253,516640,170245.86,488983.19,514582.38
177001,494597,516641,170540.13,489178.63,514636.53
177505,494729,516828,170846.63,489389.19,514698.56
177846,494873,516850,171165.58,489614.13,514768.63
177430,493712,516277,171494.63,489848.81,514844.59
176530,492543,515655,171827.64,490084.25,514922.06
175223,491141,515007,172155.27,490309.63,514995.75
171575,488468,513843,172465.25,490514.69,515060.97
169903,487281,513053,172741.22,490688.19,515112.34
168304,486265,512807,172966.81,490819.06,515144.66
166791,485590,512246,173132.00,490901.94,515155.63
164568,484521,511898,173230.16,490935.50,515144.75
163931,484238,511759,173256.31,490919.63,515111.97
163369,484119,511606,173211.31,490857.03,515058.44
162424,483932,511624,173099.42,490752.63,514986.25
162307,483707,511507,172925.11,490611.00,514897.69
162173,483609,511424,172694.05,490435.97,514794.75
162107,483654,511410,172413.23,490231.50,514679.19
161980,483446,511321,172089.83,490001.81,514552.81
162010,483385,511237,171730.69,489751.03,514417.53
162111,483478,511320,171342.66,489483.38,514275.13
162437,483752,511318,170932.19,489203.53,514127.69
162794,483972,511479,170506.13,488916.50,513977.25
163079,484304,511599,170072.66,488627.13,513826.09
163754,484895,511906,169639.06,488339.88,513676.22
164332,485204,511931,169212.13,488059.25,513529.44
164716,485355,511963,168798.69,487789.72,513387.69
165105,485599,512108,168403.86,487534.13,513252.28
165597,485747,512160,168031.38,487294.19,513124.13
165916,485910,512255,167684.44,487071.06,513003.97
166166,485967,512341,167365.13,486865.44,512892.44
166440,486304,512447,167074.13,486677.47,512789.94
166721,486305,512406,166811.81,486507.38,512696.69
166922,486477,512476,166579.06,486355.69,512612.47
167303,486676,512716,166376.44,486222.69,512537.00
167699,487137,512840,166204.39,486109.13,512470.69
168231,487326,512816,166063.69,486015.88,512414.13
168448,487385,512747,165954.78,485942.88,512367.06
169031,487550,512700,165876.55,485889.38,512328.31
169400,487674,512780,165828.19,485854.63,512297.06
169883,487885,512850,165810.86,485837.63,512273.06
170140,488446,513152,165824.94,485837.56,512256.13
170689,488287,513104,165869.47,485853.91,512246.38
170936,488571,513183,165943.47,485886.28,512243.94
171249,488653,513326,166045.44,485934.13,512248.78
171900,489039,513397,166173.66,485996.81,512260.78
172213,489123,513497,166327.09,486073.84,512279.75
172488,489223,513517,166505.03,486164.19,512305.28
172679,489547,513769,166705.59,486266.19,512336.69
173117,489565,513737,166926.52,486378.63,512373.63
173428,489747,513692,167166.44,486500.97,512415.78
173665,489874,513905,167423.92,486632.63,512462.56
174168,490092,513838,167697.36,486772.72,512513.38
174390,490167,513950,167985.56,486920.41,512568.06
174588,490423,514093,168286.75,487074.88,512626.47
174934,490731,514213,168598.75,487235.75,512688.75
175228,490629,514198,168919.84,487402.31,512754.63
175287,490387,514022,169248.75,487572.63,512823.00
175139,489130,513491,169582.88,487743.06,512892.25
173267,488070,512884,169915.31,487906.94,512959.09
171909,486927,512378,170234.25,488054.06,513018.47
170148,485647,511751,170527.30,488175.44,513066.00
167068,483741,510902,170783.44,488262.94,513097.94
165579,482795,510572,170990.59,488308.84,513111.00
164502,482385,510311,171137.25,488310.00,513104.09
163616,481959,510187,171218.53,488267.38,513077.63
162366,481645,509950,171234.00,488183.31,513032.56
162100,481411,509824,171184.56,488061.19,512970.25
161774,481423,509904,171074.34,487905.13,512892.63
161568,481407,509862,170909.38,487719.94,512802.03
161613,481513,509953,170696.14,487510.50,512700.81
161504,481439,509874,170441.31,487281.38,512591.03
161453,481731,510011,170150.72,487036.88,512474.88
161620,481672,510151,169830.28,486781.13,512354.72
161696,481765,510083,169486.81,486518.06,512232.38
161958,481960,510347,169126.95,486251.25,512108.94
162410,482672,510536,168757.19,485985.25,511986.28
162961,483049,510686,168384.53,485725.59,511867.00
163480,483349,510862,168015.81,485476.63,511753.13
163900,483992,511303,167656.75,485241.59,511646.56
164732,484169,511176,167312.59,485023.38,511548.94
165257,484497,511300,166989.13,484824.38,511460.44
165609,485064,511497,166690.58,484646.13,511381.09
166201,485079,511584,166419.56,484489.47,511311.22
166447,485244,511599,166178.09,484355.13,511251.19
166761,485409,511616,165967.03,484243.00,511200.75
167310,485701,511912,165786.41,484152.75,511159.75
167557,485811,511795,165636.41,484084.13,511128.31
167827,486064,511971,165517.56,484036.38,511106.00
168443,486555,512329,165429.63,484009.25,511092.41
168819,486718,512353,165372.56,484002.75,511087.78
169285,486968,512404,165347.00,484016.75,511092.44
169485,487166,512429,165352.80,484050.56,511106.13
170271,487725,512762,165388.06,484103.88,511128.41
170731,487911,512646,165452.08,484176.75,511159.25
171215,488238,512859,165546.09,484268.63,511197.94
171478,489000,513326,165669.94,484378.75,511244.50
172299,489108,513206,165822.28,484506.94,511299.25
172865,489360,513353,166003.42,484653.25,511361.78
173220,489613,513693,166213.16,484816.78,511431.53
174185,490163,513746,166450.66,484996.81,511508.34
174452,490314,513707,166715.66,485192.81,511592.00
174868,490524,513923,167006.44,485403.38,511681.78
175512,490851,513999,167320.59,485626.94,511777.19
175941,491050,514029,167656.50,485862.25,511877.56
176361,491209,514156,168013.13,486107.84,511982.06
176666,491641,514291,168388.81,486362.19,512090.00
177313,491790,514339,168781.63,486624.31,512200.63
177796,492007,514367,169190.50,486893.38,512313.66
178157,492184,514439,169614.16,487168.19,512428.50
178876,492435,514579,170050.61,487447.63,512544.75
179252,492671,514637,170498.42,487730.81,512662.06
179490,492639,514594,170956.81,488016.41,512779.91
179567,492295,514319,171423.78,488302.31,512897.13
179038,491542,513872,171894.78,488584.25,513011.34
178160,490434,513557,172362.34,488854.63,513119.06
176706,489139,512438,172816.45,489104.50,513216.75
173357,486648,511798,173242.31,489323.13,513299.97
171788,485705,511272,173622.33,489499.41,513363.50
169999,484541,510768,173943.97,489626.84,513404.34
167361,483536,510615,174199.75,489703.44,513421.75
166481,483112,510267,174383.22,489729.00,513416.25
165804,482767,510165,174490.03,489704.28,513388.78
165273,482653,510175,174521.03,489632.13,513341.00
164522,482630,510122,174480.34,489517.56,513275.25
164371,482576,510126,174372.66,489366.00,513194.03
164296,482523,510038,174204.56,489182.50,513099.75
164126,482876,510144,173983.50,488972.56,512994.44
164353,482959,510223,173716.95,488742.13,512880.63
164469,483040,510216,173412.94,488496.38,512760.53
164645,483921,510655,173079.25,488240.00,512636.19
165170,484211,510722,172723.61,487978.94,512510.19
165570,484390,510888,172354.19,487719.69,512385.50
165891,484828,510940,171978.28,487466.94,512264.25
167019,485482,511380,171601.91,487224.94,512148.28
167504,485692,511299,171231.97,486997.75,512039.31
167942,485714,511271,170876.53,486787.31,511937.81
168223,485847,511220,170541.03,486593.88,511843.25
168818,485808,511112,170228.50,486417.38,511755.16
169090,485934,511138,169941.72,486257.44,511672.91
169215,485820,511033,169682.05,486113.44,511596.09
169536,485894,511007,169449.77,485984.56,511524.19
169853,485960,511067,169245.34,485870.09,511457.06
169996,485806,510936,169069.00,485769.31,511394.56
170186,485877,511048,168920.08,485681.06,511336.44
170450,485860,510970,168797.70,485604.63,511282.72
170668,485890,510948,168701.53,485539.13,511233.06
170850,485959,511162,168630.97,485483.88,511187.41
171229,485866,510962,168585.25,485438.06,511145.75
171224,485948,510899,168563.53,485401.00,511107.69
171586,485957,510922,168564.50,485372.13,511072.75
172225,486359,511090,168586.88,485351.53,511041.06
172553,486432,511192,168630.47,485339.88,511013.34
172567,486474,511163,168695.97,485337.41,510989.94
172753,486914,511380,168782.44,485343.69,510970.59
173169,486773,511295,168888.20,485358.59,510955.19
173385,486810,511285,169012.53,485381.88,510943.75
173748,486856,511209,169154.53,485412.88,510936.06
173943,487015,511402,169312.88,485451.03,510931.75
174124,487144,511306,169485.88,485496.13,510930.88
174225,487172,511350,169672.06,485547.75,510933.06
174448,487673,511554,169869.72,485605.94,510938.13
174551,487685,511336,170077.03,485671.09,510945.81
174808,487856,511407,170292.81,485743.44,510955.78
174796,488117,511764,170515.84,485822.91,510968.06
174951,488605,511753,170744.34,485910.25,510983.28
175193,488809,511789,170976.98,486006.56,511002.06
175283,488917,511862,171212.91,486111.94,511024.50
175177,488751,511830,171451.20,486225.34,511050.22
175130,488060,511353,171690.14,486343.75,511077.81
174374,487310,510999,171925.53,486461.06,511104.44
173365,484975,509868,172150.78,486570.09,511127.00
170280,483551,509101,172354.70,486660.63,511140.97
168657,482224,508451,172522.20,486720.16,511139.91
167117,481199,507986,172641.94,486740.38,511119.63
164627,479575,507234,172707.52,486716.56,511078.28
163670,479070,506836,172713.17,486645.34,511014.28
162972,478742,506734,172654.53,486527.38,510927.78
162386,478372,506524,172532.13,486366.25,510820.59
161687,478270,506368,172349.63,486166.13,510694.78
161618,478433,506403,172111.69,485932.25,510552.47
161619,478715,506540,171824.97,485671.13,510396.69
161860,479016,506762,171496.86,485389.81,510231.13
162113,479186,506730,171135.09,485094.56,510059.13
162289,479359,506747,170748.77,484790.75,509883.00
162323,479868,507022,170345.30,484483.09,509704.81
163051,479763,506900,169931.11,484175.94,509526.63
163555,480088,507020,169514.44,483873.00,509350.38
164095,480409,507187,169103.08,483577.88,509177.75
165012,480872,507263,168704.00,483294.41,509010.63
165352,481101,507492,168323.66,483026.06,508850.53
165665,481289,507547,167966.11,482775.00,508698.97
166352,481398,507223,167633.31,482542.41,508556.06
166704,481328,506984,167327.44,482328.50,508420.28
167155,481248,506850,167052.03,482132.38,508290.13
167521,481419,506859,166809.50,481952.69,508164.56
167939,481679,506898,166600.69,481789.28,508043.44
168441,481962,507018,166426.34,481643.69,507927.94
168694,482129,506928,166286.72,481517.31,507818.91
169434,482490,507183,166181.38,481410.56,507716.78
169586,482676,507259,166109.97,481323.94,507622.38
170064,482868,507315,166072.38,481257.31,507536.38
170540,483201,507534,166068.00,481210.19,507458.91
170967,483128,507549,166095.95,481181.59,507390.31
171111,483205,507542,166155.36,481170.50,507330.69
171434,483351,507944,166244.38,481175.69,507279.75
172011,483545,507809,166361.41,481196.31,507237.50
172284,483605,507865,166505.47,481231.44,507204.19
172473,483643,507851,166674.78,481279.81,507179.50
172941,484011,508248,166866.59,481340.34,507162.75
173211,484069,508070,167078.78,481412.69,507153.69
173367,484239,508144,167310.14,481496.13,507152.25
173658,484387,508425,167558.94,481589.81,507158.19
174034,484892,508390,167823.33,481693.69,507171.31
174354,484848,508328,168102.06,481807.75,507191.38
174690,485106,508287,168393.88,481931.22,507217.41
174878,485449,508288,168696.94,482063.31,507248.31
175383,485549,508417,169009.59,482203.56,507283.44
175783,485714,508429,169331.70,482351.69,507322.50
176077,486319,508588,169663.05,482506.94,507365.25
176701,486397,508663,170003.06,482669.16,507411.63
177065,486479,508880,170351.75,482838.75,507461.88
177283,486649,508810,170708.38,483015.25,507516.06
177453,486415,508806,171070.48,483196.91,507573.47
177365,486033,508605,171434.88,483380.53,507632.81
176736,485252,508250,171798.19,483561.31,507692.00
173786,483151,507183,172154.08,483732.72,507748.00
172546,481797,506631,172489.91,483884.91,507796.22
171012,480808,506220,172789.53,484006.50,507831.47
169464,479939,505442,173040.97,484090.69,507850.63
166937,478542,504984,173235.00,484133.63,507851.50
165988,478159,504917,173363.06,484132.50,507832.50
165234,477747,504833,173422.53,484087.78,507794.41
164400,477613,504873,173415.59,484002.38,507739.31
164014,477419,504757,173345.59,483880.03,507669.44
163872,477465,504846,173216.59,483725.19,507586.81
163770,477543,505063,173034.42,483542.75,507493.69
163595,477592,504887,172805.72,483337.75,507392.25
163567,477746,504883,172536.70,483114.94,507284.31
163671,477942,504889,172233.84,482879.03,507171.50
163984,478444,505175,171903.41,482635.13,507055.69
164424,478739,505372,171552.31,482388.47,506939.56
164796,479117,505478,171189.25,482144.06,506825.38
165296,479908,505797,170822.25,481906.13,506714.78
166044,479962,505711,170458.30,481678.50,506609.00
166502,480310,505818,170104.19,481464.75,506509.06
166879,480505,506086,169765.09,481267.31,506416.06
167417,480739,506156,169444.28,481087.53,506331.19
167641,480982,506190,169144.28,480926.28,506254.88
167804,481116,506250,168867.69,480784.16,506187.13
168175,481521,506444,168615.84,480661.06,506127.69
168489,481501,506496,168389.66,480556.81,506076.56
168745,481494,506457,168190.31,480471.19,506034.00
168882,481631,506764,168018.22,480403.31,505999.84
169275,481862,506665,167873.06,480352.56,505973.84
169638,482027,506769,167755.13,480318.69,505956.00
169829,482121,506763,167664.47,480301.16,505945.97
170053,482552,507012,167600.41,480299.31,505943.56
170655,482805,507234,167562.63,480313.28,505949.25
170929,483032,507199,167551.38,480343.50,505963.16
171143,483317,507285,167566.03,480389.63,505984.66
171771,483356,507159,167605.91,480450.59,506012.63
171928,483554,507245,167670.72,480525.63,506046.06
172223,483619,507266,167759.34,480613.78,506084.19
172659,484001,507373,167869.91,480714.19,506126.66
172911,484230,507531,168001.06,480826.56,506173.38
173160,484359,507530,168152.19,480950.47,506224.25
173267,485040,507913,168322.00,481085.19,506278.88
173714,485063,507904,168508.69,481230.56,506337.25
173853,485282,507981,168711.00,481386.69,506399.88
174007,485481,508085,168927.25,481553.00,506466.81
174504,485812,508207,169154.83,481728.75,506537.75
174781,485882,508309,169392.28,481913.31,506612.56
174840,486146,508387,169639.84,482105.63,506690.94
174722,486797,508694,169896.09,482305.00,506772.66
175232,486618,508489,170158.72,482511.19,506857.25
175158,486335,508259,170426.59,482722.44,506943.50
174897,485707,507756,170697.31,482934.69,507029.19
172903,483655,507031,170963.88,483139.69,507110.66
171449,482379,506390,171214.34,483325.88,507182.59
169756,481128,505781,171436.73,483483.38,507240.38
166444,479087,504951,171620.11,483605.47,507280.28
165100,478208,504486,171752.34,483685.97,507299.16
163958,477673,504176,171823.08,483719.38,507295.50
162964,476835,503882,171828.25,483704.59,507269.69
161593,476577,503787,171767.28,483643.25,507222.91
161182,476180,503495,171640.77,483537.69,507156.28
160905,476137,503578,171452.81,483391.25,507071.38
160649,475888,503440,171209.78,483208.56,506970.44
160396,475933,503362,170917.97,482994.28,506855.63
160340,475903,503490,170583.75,482753.31,506729.13
160139,476098,503487,170213.69,482490.56,506593.63
160174,475973,503569,169814.16,482210.69,506451.69
160239,476036,503389,169391.20,481918.03,506304.94
160359,476115,503904,168950.98,481616.69,506154.56
160867,476592,503722,168500.23,481311.13,506002.44
161219,476714,503750,168046.22,481006.25,505851.06
161628,476852,503912,167595.58,480705.72,505702.31
162085,477479,504438,167153.42,480413.00,505558.19
162424,477506,504357,166724.25,480131.81,505420.88
162726,477591,504218,166313.06,479864.38,505291.38
162907,477626,504463,165923.64,479611.56,505169.50
162983,477648,504222,165557.63,479373.88,505054.88
163159,477495,504220,165215.84,479151.06,504947.59
163441,477660,504220,164899.31,478942.88,504847.56
163370,477908,504276,164608.89,478749.88,504754.78
163834,478005,504361,164345.13,478573.19,504669.44
164116,478103,504387,164108.53,478413.06,504591.75
164395,478469,504486,163899.73,478269.38,504521.81
164882,478564,504645,163719.42,478142.28,504459.94
165209,478788,504697,163568.47,478032.81,504406.50
165399,478965,504780,163446.97,477941.63,504361.53
166112,479466,505002,163353.53,477869.25,504325.13
166456,479670,505080,163287.75,477816.50,504297.69
166879,479906,505182,163251.61,477783.56,504279.19
167196,480346,505462,163245.98,477769.88,504269.56
167856,480382,505443,163270.41,477774.88,504268.63
168244,480586,505450,163324.97,477798.13,504276.25
168485,480799,505735,163408.84,477839.06,504291.63
169070,480992,505573,163520.64,477896.84,504314.19
169393,481062,505708,163659.44,477970.25,504343.50
169703,481065,505684,163823.91,478057.56,504379.03
170158,481320,505845,164011.80,478157.22,504420.28
170377,481630,505777,164221.09,478268.63,504466.69
170668,481706,505694,164450.48,478391.25,504517.19
171013,481870,505954,164698.56,478523.88,504570.72
171446,482111,505871,164963.89,478665.59,504626.88
171502,482179,505790,165244.84,478815.56,504685.19
171829,482329,505792,165539.13,478972.72,504744.97
171343,481638,505434,165843.47,479135.59,504804.72
170813,480781,505050,166152.36,479299.63,504862.00
169613,479664,504461,166457.94,479455.88,504913.59
