346758,768859,866850,353737.69,771578.63,868246.81
345983,768887,866801,353652.94,771550.50,868229.63
345735,768713,866795,353523.94,771505.63,868204.13
345476,768487,866813,353353.50,771445.38,868171.25
345087,768534,867084,353145.19,771370.94,868132.13
345041,768513,866752,352902.97,771284.00,868087.25
345117,768537,866627,352631.88,771186.88,868037.50
345279,768657,866758,352337.72,771082.00,867983.75
345828,769087,866923,352025.81,770972.13,867927.31
346357,769089,866868,351702.44,770860.44,867869.75
346626,769169,867034,351376.09,770749.00,867812.13
347148,769777,867510,351053.72,770639.50,867755.25
347311,769758,867130,350739.94,770534.69,867700.25
347569,769673,867141,350438.00,770435.88,867647.50
347824,769724,867164,350150.50,770343.31,867597.25
348150,769852,867249,349879.38,770257.25,867549.88
348225,769931,867181,349626.00,770178.19,867505.50
348482,770026,867252,349392.00,770106.63,867464.25
348869,770515,867455,349178.75,770043.00,867426.56
349206,770481,867380,348987.72,769988.00,867392.94
349481,770463,867461,348820.31,769942.50,867363.50
349760,770604,867910,348677.38,769906.50,867338.25
350216,770915,867752,348559.50,769880.06,867317.88
350572,770901,867647,348467.31,769863.75,867302.63
350881,771110,867809,348401.25,769857.38,867292.13
351374,771707,868223,348361.25,769861.06,867287.13
351800,771595,868091,348347.50,769875.50,867288.56
352021,771654,868119,348360.06,769900.63,867296.00
352286,772014,868506,348398.03,769935.69,867308.56
352772,771972,868321,348460.38,769980.13,867326.13
352915,772003,868213,348546.34,770033.63,867348.44
353247,772205,868365,348654.50,770095.63,867374.94
353811,772547,868595,348783.34,770166.13,867405.75
354095,772557,868562,348931.94,770245.63,867441.13
354190,772595,868581,349099.81,770332.94,867480.63
354526,773071,868895,349285.69,770426.88,867523.50
354868,773030,868807,349488.13,770527.00,867569.44
355173,773150,868833,349706.13,770633.50,867618.63
355450,773018,868824,349938.50,770745.38,867670.81
355658,773330,868816,350183.50,770861.63,867725.38
355516,773149,868811,350438.56,770981.44,867781.50
355595,773084,868806,350700.97,771103.25,867838.63
354194,772819,868659,350967.50,771225.13,867895.88
353545,772177,868282,351231.31,771344.25,867951.56
352692,771805,868213,351482.56,771456.31,868003.75
351569,771217,867901,351712.69,771557.38,868050.81
349576,770619,867496,351913.19,771644.06,868091.00
348780,770214,867400,352075.28,771713.38,868122.75
348028,769916,867194,352194.31,771763.81,868145.25
346369,769444,867146,352268.88,771795.13,868158.50
345942,769308,866765,352296.97,771807.56,868162.19
345306,768961,866698,352276.50,771800.50,868155.75
344905,768796,866828,352207.84,771773.75,868139.44
344375,768751,866589,352093.56,771728.25,868114.06
344117,768531,866437,351936.72,771666.00,868080.38
343790,768544,866562,351740.94,771588.50,868039.13
343689,768537,866529,351509.97,771497.75,867991.50
343480,768578,866343,351247.94,771396.13,867938.56
343361,768668,866434,350959.56,771285.81,867880.63
343839,769318,866813,350650.53,771169.38,867818.75
344506,769229,866776,350328.25,771049.75,867754.75
344947,769427,866726,350000.72,770930.38,867690.38
345290,769514,866843,349674.44,770813.75,867626.81
345830,769834,866969,349354.28,770701.75,867565.00
346107,769882,866896,349044.50,770596.00,867505.69
346356,769799,867034,348749.06,770497.13,867449.25
346480,770292,867052,348470.31,770405.31,867396.19
346707,770156,867221,348209.44,770321.06,867347.00
347065,770130,867080,347968.19,770245.13,867302.00
347206,770381,867148,347748.19,770177.63,867261.13
347396,770554,867258,347550.13,770119.50,867224.50
347867,770628,867210,347374.69,770071.19,867192.25
348147,770741,867333,347223.09,770032.69,867164.25
348434,771089,867581,347095.75,770003.88,867141.00
348965,771073,867597,346993.13,769985.00,867123.25
349232,771169,867623,346916.19,769976.06,867111.13
349366,771533,867956,346865.00,769977.00,867104.00
350100,771626,867830,346839.16,769987.81,867101.88
350393,771741,867938,346839.41,770009.00,867105.13
350632,771825,867924,346865.53,770040.25,867113.88
351318,772120,868096,346916.25,770081.38,867127.81
351650,772209,868042,346991.09,770132.13,867146.81
351874,772154,868032,347090.34,770191.88,867170.25
352062,772917,868766,347212.88,770259.38,867197.50
352470,772794,868547,347356.94,770334.56,867229.00
352762,772818,868504,347521.25,770418.06,867265.56
353068,773047,868526,347704.69,770509.69,867307.13
353624,773221,868507,347905.63,770609.00,867352.63
353779,773162,868518,348122.63,770715.38,867401.25
354005,773210,868500,348355.00,770827.38,867452.31
354310,773745,868778,348601.00,770944.25,867505.38
354556,773658,868805,348858.72,771066.06,867560.75
354684,773349,868694,349127.09,771191.88,867618.38
354653,773511,868745,349404.38,771319.63,867677.25
354040,773264,868598,349686.44,771447.63,867736.44
353724,772874,868376,349967.88,771573.63,867794.88
353099,772521,868195,350243.19,771694.50,867850.75
350478,771731,868049,350506.31,771807.44,867902.63
349794,771157,867601,350747.50,771909.00,867949.00
348741,770846,867306,350955.63,771994.69,867987.75
347816,770148,867190,351123.38,772061.69,868017.25
346256,769875,866973,351246.13,772108.63,868037.19
345348,769471,866836,351319.19,772133.88,868047.13
344748,769289,866749,351340.56,772137.13,868047.19
343570,768924,866542,351311.09,772118.81,868037.50
343176,768931,866514,351231.78,772080.00,868018.31
342827,768548,866343,351103.88,772021.88,867990.13
342299,768642,866406,350930.06,771945.50,867953.44
341770,768356,866109,350713.50,771852.13,867908.75
341643,768403,866146,350457.66,771744.06,867856.50
341596,768312,866184,350167.44,771624.00,867797.88
341507,768489,866235,349848.03,771494.31,867734.31
341870,768555,866260,349504.91,771357.63,867667.25
342157,768806,866369,349145.56,771216.81,867597.88
342685,769645,866643,348776.44,771075.69,867527.63
343065,769504,866480,348403.31,770938.38,867457.75
343538,769542,866645,348033.88,770806.69,867389.25
344033,769712,867020,347674.88,770681.38,867322.94
344282,769932,866875,347330.88,770563.81,867259.88
344580,769974,866824,347005.00,770455.06,867200.81
344814,770140,867054,346699.47,770355.75,867146.44
344652,770388,867150,346415.75,770266.63,867097.50
345322,770472,867086,346154.94,770188.38,867054.44
345824,770556,867042,345918.78,770121.25,867016.63
345997,770896,867202,345709.03,770065.13,866983.63
346603,770855,867135,345526.78,770020.00,866955.25
346865,770978,867181,345373.13,769986.00,866931.50
347204,771058,867307,345248.56,769963.19,866912.50
347716,771466,867492,345152.47,769951.63,866898.75
347931,771407,867634,345084.25,769951.63,866890.88
348172,771605,867630,345044.09,769962.81,866889.00
348410,771902,867853,345031.50,769984.69,866893.00
349126,772033,867834,345046.00,770017.38,866902.50
349386,772052,867693,345087.81,770060.56,866917.25
349692,772180,867757,345156.19,770113.50,866936.25
350076,772524,868100,345248.59,770175.75,866959.56
350417,772637,868120,345362.81,770247.50,866987.88
350698,772713,868112,345499.19,770328.13,867021.13
351023,773350,868415,345656.53,770417.56,867058.75
351138,773140,868256,345832.06,770515.63,867100.56
351628,773193,868231,346025.38,770621.63,867146.00
351925,773246,868536,346236.66,770733.94,867194.19
352334,773474,868369,346465.00,770851.75,867245.06
352630,773579,868534,346709.28,770974.75,867298.44
352781,773579,868452,346968.00,771102.25,867354.13
352239,773864,868886,347238.75,771233.38,867412.38
352990,773704,868608,347518.97,771367.75,867473.13
353298,773730,868605,347806.63,771503.81,867535.63
353028,773438,868344,348099.69,771639.75,867598.50
352022,772867,867992,348393.13,771772.56,867660.13
351182,772429,867882,348679.00,771898.13,867717.63
349990,771938,867566,348949.00,772012.75,867769.38
347898,771016,867421,349194.88,772112.63,867813.75
346962,770669,867240,349407.66,772193.81,867850.06
346120,770380,866956,349579.28,772254.38,867877.44
345146,769782,867034,349705.25,772293.88,867895.06
343793,769666,866644,349782.38,772311.75,867902.50
343239,769309,866438,349808.13,772308.00,867899.75
342837,769130,866422,349783.06,772283.00,867886.94
341841,768989,866391,349708.81,772238.00,867864.94
341690,768838,866226,349586.84,772174.50,867834.50
341500,768739,866121,349421.13,772094.00,867796.00
340453,768957,866366,349215.75,771999.25,867750.25
341088,768799,866113,348974.38,771892.81,867698.38
341055,768810,866207,348702.88,771776.63,867641.44
341221,768821,866425,348407.63,771652.38,867580.31
341791,769149,866229,348095.13,771522.56,867515.88
341946,769319,866260,347772.41,771390.25,867449.38
342715,769572,866363,347446.00,771258.56,867382.06
342713,769968,866690,347121.19,771130.06,867315.63
343491,769955,866579,346802.19,771007.25,867251.63
343702,770020,866454,346494.63,770891.19,867190.19
343819,770287,866559,346202.56,770782.19,867130.75
344089,770167,866540,345927.56,770680.56,867073.13
344419,770310,866679,345671.44,770587.00,867018.44
344536,770246,866695,345435.84,770502.00,866967.44
344879,770543,866909,345220.81,770425.75,866920.75
345196,770572,866885,345026.75,770358.88,866879.13
345400,770704,866868,344855.66,770301.56,866842.38
345671,771080,867380,344708.69,770253.88,866810.19
346291,771023,867180,344586.66,770216.25,866782.75
346545,771108,867054,344490.75,770188.75,866760.63
346769,771250,867196,344421.03,770171.38,866743.69
347131,771707,867379,344375.19,770164.44,866732.13
347531,771776,867334,344351.50,770168.88,866726.25
347884,771901,867412,344352.06,770184.69,866725.75
347400,772360,867805,344377.28,770211.63,866730.25
348375,772220,867708,344425.25,770249.75,866740.06
348784,772306,867640,344495.91,770298.00,866755.25
349056,772410,867720,344589.38,770355.31,866775.19
349630,772710,867694,344705.19,770421.38,866799.19
349937,772689,867896,344842.91,770495.75,866827.13
350184,772890,867880,345001.69,770577.88,866859.25
350089,772980,868016,345178.41,770667.06,866895.31
350782,773055,868024,345370.41,770762.63,866935.13
351254,773267,868145,345578.38,770863.88,866978.50
351410,773668,868312,345802.91,770970.63,867025.19
351717,773583,868287,346042.41,771082.31,867075.06
351919,773667,868195,346295.13,771198.88,867127.63
352078,773636,868243,346559.31,771319.69,867182.13
352072,773491,868382,346832.44,771443.00,867238.19
351876,773323,868148,347111.25,771566.88,867295.38
351460,772920,868068,347391.69,771688.63,867352.31
349540,772027,868018,347668.13,771804.75,867407.13
348689,771556,867344,347931.63,771910.94,867457.44
347577,771073,867075,348171.13,772002.63,867501.00
346686,770683,866822,348378.66,772076.94,867536.38
344556,769967,866547,348547.56,772131.75,867562.25
344012,769767,866352,348671.19,772165.19,867577.88
343453,769553,866229,348746.56,772177.13,867582.81
341560,769423,866462,348773.31,772168.88,867577.50
341834,769026,866101,348750.91,772141.25,867562.81
341417,768884,865968,348680.63,772094.69,867539.13
341269,768707,865876,348565.94,772030.06,867507.00
340726,768535,865821,348410.56,771948.75,867467.25
340586,768501,865727,348217.97,771852.13,867420.38
340438,768458,865698,347992.06,771742.38,867366.63
340384,768602,865988,347736.41,771622.00,867307.63
340985,768883,865986,347455.75,771494.25,867245.38
341243,769070,865916,347158.81,771362.31,867181.13
341645,769475,866309,346853.72,771229.19,867115.50
342211,769546,866256,346546.56,771097.63,867049.75
342556,769733,866217,346243.31,770970.13,866985.50
342797,769846,866270,345948.44,770848.31,866923.25
343277,770001,866368,345665.00,770733.50,866863.63
343325,769992,866427,345395.50,770626.50,866807.31
343481,769959,866334,345142.16,770527.38,866754.50
343843,770316,866751,344906.44,770436.25,866705.25
344090,770435,866616,344689.78,770354.00,866659.94
344336,770557,866640,344493.84,770281.81,866619.38
344485,770562,866549,344319.56,770219.88,866583.50
344908,770715,866735,344166.19,770168.00,866552.13
345197,770907,866727,344033.56,770126.25,866525.38
345495,770996,866655,343923.75,770094.88,866503.13
345096,771657,867206,343837.31,770074.25,866485.31
346207,771473,866984,343773.44,770064.88,866472.56
346684,771535,867034,343733.94,770066.75,866465.13
346925,771608,867160,343720.25,770079.19,866462.88
347513,771869,867186,343732.22,770101.69,866465.50
347809,771850,867324,343769.91,770134.00,866473.31
347974,771976,867284,343832.50,770175.31,866486.06
348311,772341,867509,343917.13,770225.19,866503.63
348696,772328,867350,344021.63,770283.63,866525.75
348974,772450,867358,344146.66,770350.13,866551.63
349158,772808,867727,344292.19,770424.13,866580.50
349710,772788,867617,344456.91,770505.13,866612.38
349973,772907,867544,344640.22,770593.00,866647.25
350262,773004,867708,344841.09,770687.50,866685.13
350464,773294,867816,345057.81,770788.25,866725.94
350727,773398,867921,345288.63,770895.19,866769.88
351169,773418,867894,345532.44,771007.75,866816.88
351447,773579,868239,345788.53,771124.63,866866.50
351597,773586,868115,346055.56,771244.88,866918.75
351611,773379,867948,346331.50,771367.31,866973.25
351599,773252,867882,346613.69,771490.25,867028.63
350559,772797,867700,346897.31,771611.13,867083.56
349652,772266,867445,347174.78,771726.38,867136.44
348518,771799,867121,347437.38,771832.19,867185.25
345557,771217,867076,347675.81,771925.75,867228.50
345063,770392,866495,347879.31,772003.81,867264.75
344193,769962,866232,348039.72,772062.31,867291.81
343366,769612,865885,348153.25,772098.69,867308.06
341786,768972,865800,348217.06,772112.13,867313.06
341235,768724,865581,348228.25,772101.69,867306.50
340363,768515,865413,348186.38,772067.88,867288.13
339396,768219,865535,348092.13,772012.13,867258.75
339240,767976,865218,347947.09,771935.75,867219.38
338947,767972,865168,347755.25,771840.00,867170.50
338732,767827,865220,347521.59,771727.00,867112.69
338165,767741,865047,347250.41,771598.94,867047.13
338304,767734,864995,346945.81,771457.88,866974.69
338329,767843,865105,346613.50,771306.38,866896.50
338688,768378,865246,346259.50,771148.06,866814.50
339002,768445,865295,345890.13,770987.19,866730.38
339377,768472,865359,345513.13,770826.50,866645.75
340202,769122,865717,345135.72,770668.00,866561.69
340465,769051,865701,344764.38,770514.25,866480.00
340798,769234,865825,344404.72,770367.63,866402.00
341050,769352,865775,344060.69,770229.88,866328.75
341597,769677,865902,343735.50,770102.13,866260.25
341828,769707,866047,343432.22,769985.75,866197.19
341886,769763,865969,343152.44,769881.00,866140.00
341984,770187,866172,342895.13,769788.38,866089.00
342529,770170,866122,342659.75,769708.44,866044.50
342804,770078,866106,342449.31,769641.13,866006.00
343075,770238,866484,342266.19,769585.25,865972.88
343704,770529,866272,342111.06,769541.00,865945.25
344000,770617,866430,341985.19,769508.88,865923.38
344227,770783,866390,341888.63,769488.63,865907.38
344714,771084,866604,341820.66,769480.50,865897.25
345179,771233,866736,341781.06,769484.69,865893.38
345625,771386,866725,341770.56,769501.13,865895.75
345900,771721,867025,341789.22,769529.25,865903.88
346098,771741,866909,341835.63,769568.38,865917.38
346576,771822,866826,341908.25,769618.44,865935.94
346918,771956,867049,342006.31,769678.88,865959.44
347409,772308,867171,342128.38,769749.19,865987.94
347535,772368,867232,342272.88,769829.50,866021.63
347977,772485,867130,342438.84,769919.00,866059.94
348492,772881,867429,342625.50,770016.75,866101.81
348884,772834,867449,342831.97,770122.19,866146.94
349013,773007,867423,343057.50,770235.00,866195.75
349254,773142,867504,343300.38,770354.69,866248.00
349750,773292,867684,343558.81,770480.81,866303.50
350022,773420,867724,343831.84,770612.63,866362.38
350293,773466,867703,344118.16,770749.38,866424.25
350102,773635,868063,344414.34,770890.38,866488.75
350082,773138,867658,344715.94,771033.88,866555.88
349673,772760,867452,345019.88,771176.25,866623.38
349058,772387,867233,345321.81,771313.50,866688.81
347052,771617,866884,345613.19,771441.88,866749.81
346064,771035,866446,345882.75,771556.75,866804.25
345084,770572,866305,346122.03,771654.50,866850.13
342748,769727,866003,346325.31,771733.50,866886.44
342291,769471,865775,346486.25,771792.38,866912.13
341570,768960,865657,346599.25,771828.31,866926.75
340866,768638,865620,346662.22,771839.63,866930.25
339743,768376,865228,346674.63,771826.88,866922.63
339434,768228,865177,346636.38,771790.81,866903.88
339126,768079,865165,346549.91,771732.88,866874.63
338446,767827,864990,346418.88,771654.88,866836.13
337874,767632,864962,346245.63,771558.00,866788.88
337979,767738,864902,346032.97,771444.38,866733.75
337947,767972,864796,345786.13,771316.75,866671.81
338030,767971,864861,345511.25,771178.50,866604.31
338375,768036,864950,345214.38,771032.63,866532.25
338559,768142,865433,344902.03,770882.06,866457.00
339370,768541,865396,344581.06,770729.63,866380.50
339715,768705,865227,344258.69,770578.63,866304.56
340038,768819,865415,343940.91,770431.56,866230.31
340249,769101,865796,343630.88,770290.56,866159.13
340322,768880,865371,343330.75,770157.19,866091.88
340579,769158,865480,343043.41,770031.25,866028.13
340710,769189,865911,342771.50,769913.38,865967.69
341021,769349,865621,342516.75,769804.13,865911.13
341328,769498,865584,342280.88,769704.38,865858.75
341747,769598,865624,342065.94,769614.75,865810.63
341684,769787,865745,341873.22,769535.88,865767.00
342275,769844,865873,341703.44,769468.25,865728.38
342674,770024,865969,341557.63,769411.75,865695.25
342809,770505,866242,341436.59,769366.38,865667.75
343628,770546,866031,341341.06,769332.75,865645.63
343882,770549,866155,341272.41,769311.38,865628.94
344156,770869,866220,341230.94,769302.13,865618.00
344762,771139,866438,341215.38,769305.38,865613.00
345099,771288,866484,341225.16,769321.44,865614.31
345250,771322,866486,341260.81,769349.75,865621.75
345741,771569,866639,341321.88,769389.19,865634.88
346133,771481,866632,341407.63,769438.50,865653.31
346452,771744,866765,341517.50,769497.25,865677.00
346711,771878,867208,341650.53,769565.25,865705.38
347229,772200,866966,341805.44,769642.63,865738.19
347351,772288,866967,341981.16,769729.13,865775.50
347702,772334,866956,342175.97,769824.19,865817.13
348036,772695,867221,342387.88,769926.88,865862.75
348416,772669,867249,342615.50,770036.75,865912.38
348586,772704,867243,342858.00,770153.00,865966.00
348863,772765,867540,343114.22,770274.31,866022.81
348865,772997,867480,343381.94,770399.94,866082.94
349244,772882,867147,343659.09,770529.25,866145.38
348934,772651,867085,343943.38,770660.38,866208.38
347194,771979,866693,344230.38,770791.13,866269.75
346783,771461,866490,344512.19,770917.81,866327.38
345822,770942,866341,344778.78,771034.81,866379.63
344933,770040,865851,345021.88,771137.38,866425.13
342788,769413,865586,345233.50,771221.69,866462.50
341813,769140,865429,345404.56,771284.13,866489.63
341109,768805,865345,345529.81,771323.50,866506.00
339630,768411,864975,345606.69,771339.75,866511.50
339204,768153,864916,345632.97,771332.94,866505.63
338649,767898,864890,345609.00,771303.63,866488.81
338174,767992,864983,345537.34,771253.00,866462.06
337994,767767,864738,345421.31,771183.06,866425.88
337823,767616,864677,345264.88,771096.00,866381.50
337638,767466,864751,345072.28,770993.69,866329.94
337517,767602,864693,344848.00,770878.06,866272.38
337676,767727,864672,344596.88,770752.00,866210.00
338145,767894,864774,344325.16,770618.69,866143.81
338735,768310,865317,344039.28,770481.13,866076.19
339155,768404,865049,343745.84,770342.38,866009.44
339655,768555,865021,343452.38,770205.38,865943.88
339853,768738,865446,343165.00,770072.50,865879.75
340152,769029,865330,342887.28,769945.56,865818.13
340588,768969,865388,342622.38,769826.19,865760.00
340612,768969,865312,342372.84,769714.63,865705.75
340525,769236,865490,342139.84,769611.13,865655.50
341154,769337,865405,341924.34,769516.56,865609.38
341392,769414,865380,341728.09,769431.63,865567.38
341730,769959,865592,341552.56,769356.75,865529.13
342120,769808,865627,341399.06,769292.38,865495.25
342301,769881,865650,341268.41,769239.00,865466.25
342769,770022,865601,341161.19,769196.69,865441.81
343134,770185,865790,341076.72,769165.38,865421.88
343648,770327,865919,341014.81,769145.25,865406.75
343811,770572,865997,340977.38,769136.25,865397.13
344198,770949,866223,340965.25,769138.50,865392.94
344710,770798,866105,340977.88,769151.75,865394.00
345069,770940,866275,341015.81,769175.50,865400.25
345222,771101,866508,341078.63,769209.38,865412.06
345621,771330,866318,341164.81,769253.25,865429.25
346054,771519,866444,341273.53,769307.00,865451.38
346159,771597,866438,341403.88,769370.50,865477.88
346770,772059,867061,341554.19,769443.19,865509.38
347044,772063,866850,341723.44,769524.94,865547.13
347314,772193,866788,341911.25,769615.56,865590.19
347542,772149,867215,342116.50,769714.13,865637.19
347915,772613,866952,342337.63,769819.88,865687.50
348243,772599,866799,342573.56,769932.75,865740.75
348613,772760,867070,342823.38,770052.25,865796.25
348587,772940,867042,343085.47,770177.88,865854.00
349000,772763,867067,343357.81,770308.81,865913.75
349133,772937,867131,343638.94,770443.25,865975.00
348986,772596,866822,343926.81,770579.38,866037.38
348065,772069,866692,344216.53,770714.00,866099.63
347200,771521,866473,344500.56,770842.94,866159.38
346323,770971,866135,344770.97,770961.63,866214.13
343968,769919,865769,345019.06,771065.56,866261.94
343018,769411,865437,345234.41,771149.88,866300.50
341972,769036,865191,345408.81,771211.88,866328.38
339967,768377,865059,345537.69,771250.50,866344.69
339678,768185,864774,345617.38,771264.94,866348.88
339095,767834,864633,345645.56,771255.25,866341.13
338370,767636,864639,345622.22,771221.88,866321.63
337745,767461,864384,345548.75,771166.25,866290.75
337381,767251,864488,345427.28,771090.00,866249.75
337100,767107,864298,345261.38,770994.69,866200.13
336774,767136,864464,345055.00,770882.44,866143.13
336680,767041,864253,344812.50,770755.63,866079.88
336706,767150,864198,344539.03,770616.88,866010.88
337063,767196,864706,344240.94,770468.88,865937.00
337596,767569,864457,343925.59,770315.00,865859.88
338044,767720,864481,343600.78,770158.63,865781.19
338430,767981,864478,343273.28,770002.88,865702.19
338950,768352,864751,342947.69,769851.25,865624.00
339382,768423,864800,342628.19,769706.50,865548.25
339837,768667,864908,342321.13,769570.00,865476.00
340040,769011,864796,342031.44,769442.50,865407.88
340311,768983,864986,341761.28,769324.63,865344.25
340450,768745,864898,341511.94,769217.00,865285.25
340665,769061,864988,341284.19,769119.63,865230.63
340829,769077,865037,341077.06,769032.69,865180.56
341223,769289,865129,340889.88,768956.63,865135.38
341561,769378,865242,340725.44,768891.63,865095.44
341345,769727,865605,340586.25,768837.88,865061.25
342182,769695,865406,340472.47,768795.63,865033.00
342504,769916,865501,340384.41,768764.88,865010.94
342761,770122,865740,340322.06,768746.19,864995.13
343549,770468,865911,340285.81,768740.00,864986.25
343890,770469,865896,340276.88,768746.63,864984.63
344114,770593,865943,340295.19,768765.31,864990.00
344659,770964,866236,340339.38,768795.19,865002.13
344945,770996,865992,340408.53,768836.00,865020.88
345219,771071,866101,340502.25,768887.38,865045.13
345353,771179,866459,340619.22,768948.88,865074.38
345715,771583,866385,340757.50,769020.00,865108.69
346158,771556,866309,340916.00,769100.75,865148.00
346301,771679,866508,341093.69,769190.31,865191.63
346818,771941,866617,341288.13,769288.00,865239.63
347123,771978,866457,341497.38,769393.63,865291.63
347438,772062,866563,341722.06,769506.19,865346.56
347657,772564,866831,341962.03,769624.38,865403.75
347930,772380,866708,342215.63,769747.81,865463.06
348181,772493,866690,342481.31,769876.00,865524.19
348251,772578,866792,342757.19,770008.19,865586.94
347991,772188,866618,343039.72,770142.88,865650.63
347824,771920,866325,343324.41,770276.88,865713.75
347168,771484,866172,343607.19,770406.88,865774.19
344368,770356,865940,343882.00,770529.38,865830.31
343730,769785,865405,344138.28,770639.38,865880.13
342775,769240,865124,344364.06,770731.31,865921.13
341611,768820,864789,344551.31,770801.81,865951.63
339592,767967,864573,344693.56,770848.75,865970.75
338744,767683,864266,344783.94,770870.13,865977.50
338070,767392,864175,344819.84,770865.75,865971.38
336919,767078,864213,344802.16,770836.38,865952.88
336456,766660,863722,344731.91,770783.13,865922.94
336112,766544,863787,344610.44,770706.50,865881.38
335761,766345,863961,344441.03,770608.31,865829.06
335054,766140,863669,344227.34,770490.44,865767.13
334781,766123,863391,343972.38,770354.88,865696.63
334824,766218,863559,343680.69,770204.50,865618.38
334834,766404,863787,343357.25,770043.00,865534.25
335153,766484,863741,343007.94,769874.44,865446.75
335625,766779,863731,342641.38,769701.56,865357.13
335965,767491,864167,342266.19,769527.38,865266.19
336563,767328,864019,341889.38,769355.25,865175.50
337021,767499,864200,341517.53,769188.13,865086.88
337257,767566,864132,341155.97,769028.13,865001.75
337559,767724,864172,340807.88,768876.25,864920.50
337693,767753,864131,340475.44,768733.63,864843.00
337796,767873,864307,340161.00,768600.69,864769.88
337394,768026,864410,339866.22,768477.88,864701.63
338214,767983,864511,339592.13,768365.50,864638.88
338466,768148,864441,339340.06,768263.63,864582.13
338917,768242,864442,339111.53,768172.69,864531.00
339179,768432,864563,338908.03,768093.13,864485.06
339407,768499,864465,338730.34,768025.13,864444.50
339638,768775,864594,338578.44,767969.00,864409.31
340110,769502,864995,338451.88,767925.13,864380.06
340488,769077,864902,338350.84,767893.75,864357.88
340715,769177,864841,338276.38,767874.69,864342.25
340949,769239,865232,338228.50,767867.25,864332.13
341307,769502,864966,338206.31,767871.13,864327.06
341648,769558,865006,338209.44,767886.06,864327.06
341790,769576,865071,338236.94,767911.44,864332.06
341964,769810,865131,338285.75,767946.50,864341.88
342281,769854,865191,338352.94,767991.13,864356.38
342640,769920,865128,338439.53,768044.25,864375.00
342946,770492,865598,338546.59,768105.00,864397.38
343302,770489,865466,338673.38,768173.50,864423.50
343565,770390,865475,338818.97,768249.88,864453.88
343697,770463,865441,338982.00,768333.31,864488.13
344222,770714,865586,339160.84,768422.88,864525.63
344501,770748,865639,339354.75,768518.38,864566.25
344435,770679,865463,339562.69,768618.75,864609.63
343166,770390,865580,339781.31,768722.38,864654.50
343340,770070,865352,340004.94,768826.56,864699.88
342604,769493,865044,340226.75,768927.50,864744.50
341393,768925,864496,340439.06,769020.75,864785.88
339140,767863,864099,340631.53,769101.50,864821.13
337890,767239,863743,340792.38,769164.50,864847.44
336667,766829,863573,340913.19,769206.50,864862.88
334234,766176,863398,340988.94,769226.25,864867.06
333381,765788,863136,341014.06,769222.88,864859.88
332562,765392,862837,340982.88,769195.38,864840.81
331902,764978,862771,340894.00,769143.25,864809.75
330563,764647,862453,340748.53,769067.00,864767.00
329853,764560,862420,340546.75,768967.75,864712.75
329465,764449,862277,340291.00,768847.88,864648.00
328649,764290,862407,339984.56,768710.38,864574.00
328408,764182,862172,339630.88,768557.88,864492.13
328318,764380,862113,339236.19,768392.44,864403.19
328420,764813,862454,338808.25,768216.75,864308.31
328795,764877,862527,338354.94,768034.88,864209.81
329310,765122,862467,337885.13,767850.81,864110.00
329716,765358,862509,337407.44,767668.38,864010.00
330265,765675,862550,336929.03,767490.50,863910.75
330495,765742,862751,336456.00,767319.75,863813.44
330771,765853,862872,335994.19,767157.56,863719.63
330354,766109,863036,335547.97,767004.75,863630.19
331095,766109,862933,335120.09,766862.00,863545.44
331357,766110,862707,334713.00,766730.13,863465.44
331571,766203,862994,334328.94,766609.44,863390.13
331931,766455,863012,333970.06,766500.13,863320.06
332264,766640,863061,333638.25,766403.25,863255.88
332476,766584,863130,333335.06,766318.94,863197.88
332972,767084,863307,333061.25,766247.38,863146.38
333301,767066,863210,332817.81,766189.00,863101.56
333631,767170,863280,332606.06,766143.94,863063.13
334071,767397,863697,332426.84,766111.94,863031.00
334712,767786,863739,332281.03,766093.38,863006.25
334902,767753,863660,332169.28,766088.56,862989.25
335293,767924,863726,332090.97,766096.88,862979.38
335751,768454,863953,332043.78,766118.13,862976.38
336298,768536,864035,332026.16,766153.00,862980.69
336494,768656,864038,332039.56,766201.13,862992.00
336804,769043,864322,332084.19,766261.38,863010.00
337169,768974,864292,332158.25,766332.63,863034.38
337654,769020,864314,332260.50,766414.25,863065.00
337988,769237,864349,332389.94,766505.75,863101.13
338488,769440,864456,332544.88,766606.38,863142.38
338834,769537,864502,332723.63,766715.81,863188.31
339049,769554,864594,332925.31,766832.88,863238.50
339141,769947,864663,333148.16,766956.50,863292.63
339659,769834,864728,333389.94,767085.75,863350.13
339938,769896,864721,333649.03,767220.00,863410.75
339953,770038,864745,333923.25,767358.25,863473.81
339957,769770,864625,334209.41,767499.06,863538.13
339516,769545,864377,334503.25,767640.06,863602.38
338845,769002,864156,334798.88,767777.88,863664.88
336583,767995,863852,335088.88,767908.75,863723.44
335122,767109,863415,335361.84,768027.38,863775.88
333659,766607,863067,335603.34,768127.13,863819.63
332283,765498,862943,335802.47,768203.88,863852.81
329761,764964,862378,335950.41,768254.75,863873.75
328278,764543,862021,336037.59,768276.75,863881.25
327303,764159,861836,336058.72,768268.81,863874.63
325319,763607,861588,336012.66,768232.56,863853.75
324575,763295,861420,335898.41,768169.38,863818.94
323714,763132,861292,335715.69,768079.25,863770.69
323006,763081,861369,335466.88,767963.19,863709.81
321889,762747,861078,335155.28,767823.38,863637.25
321345,762569,860950,334784.25,767662.63,863554.31
320975,762533,860913,334358.72,767483.63,863462.19
320499,762508,860820,333885.19,767289.50,863362.13
320698,762813,860898,333371.06,767083.69,863255.44
320879,762809,860898,332824.66,766870.25,863143.94
321315,763495,861116,332255.06,766652.38,863029.13
321936,763479,861133,331671.84,766433.81,862912.88
322339,763569,861358,331085.00,766218.50,862797.25
322714,763867,861519,330502.94,766009.38,862684.50
323112,764242,861592,329932.19,765809.38,862575.88
323437,764254,861480,329378.34,765620.63,862472.38
323697,764443,861503,328845.84,765444.25,862373.94
323827,764752,861765,328337.75,765281.25,862281.13
324291,764712,861858,327856.56,765132.13,862195.13
324547,764748,861766,327405.16,764997.19,862116.38
324656,765107,862135,326985.50,764876.50,862044.63
325241,765063,862078,326598.94,764770.13,861980.19
325369,765232,862022,326246.88,764678.31,861923.56
325793,765352,861990,325930.25,764601.25,861874.38
326433,765703,862190,325648.72,764539.13,861832.13
326867,765783,862234,325402.81,764492.25,861797.25
327288,765992,862272,325195.00,764460.63,861769.63
327515,766495,862780,325026.50,764443.63,861749.00
328113,766427,862636,324896.69,764441.00,861735.25
328685,766450,862668,324805.53,764452.69,861729.13
328991,766615,862741,324753.00,764477.88,861730.69
329594,767068,862773,324737.88,764516.25,861739.38
330044,767033,862927,324759.19,764567.88,861754.75
330317,767152,862897,324816.06,764631.88,861776.63
330939,767639,863362,324906.56,764706.75,861804.38
331272,767558,863231,325028.94,764792.06,861837.88
331538,767610,863322,325181.94,764887.19,861877.38
331795,767834,863563,325363.50,764991.38,861922.75
332348,768036,863487,325571.34,765104.13,861973.50
332660,768121,863529,325803.97,765224.88,862029.38
333015,768104,863449,326059.53,765352.50,862089.38
333345,768502,863647,326335.88,765485.88,862152.88
333413,768362,863568,326630.44,765624.50,862219.38
333345,768204,863555,326939.72,765766.75,862288.00
332942,767429,863451,327259.00,765909.69,862357.44
330973,766777,862745,327579.56,766048.75,862425.06
329630,766007,862479,327888.50,766177.38,862487.63
328057,765474,862095,328173.56,766290.13,862542.63
325154,764463,861615,328423.75,766384.13,862587.69
323699,763667,861265,328627.00,766456.19,862620.63
322271,763253,861018,328772.25,766501.50,862639.94
321121,762768,861002,328853.44,766517.63,862645.25
318689,762155,860591,328866.19,766504.38,862636.56
317769,761808,860266,328805.75,766461.50,862613.75
316727,761435,860078,328671.44,766389.56,862576.63
315275,761275,859886,328465.88,766290.19,862525.63
314623,761036,859753,328191.63,766165.63,862461.38
313970,760919,859821,327851.41,766018.38,862385.25
312910,760954,859847,327449.78,765851.00,862298.75
312689,760810,859537,326992.44,765666.50,862203.00
312428,760794,859759,326485.00,765468.00,862099.50
312395,760814,859904,325934.66,765258.63,861990.25
313048,761329,859794,325351.06,765042.13,861877.00
313570,761554,859961,324745.63,764823.38,861761.75
313788,761739,860081,324128.84,764606.25,861646.75
314166,762342,860230,323508.78,764393.81,861533.81
314433,762234,860234,322892.34,764188.81,861424.25
314544,762303,860357,322285.75,763993.38,861319.06
314789,762391,860722,321693.88,763808.44,861219.00
314897,762369,860398,321120.63,763634.50,861124.69
315253,762468,860376,320569.53,763471.94,861036.13
315240,762483,860508,320043.47,763320.88,860953.31
315677,762664,860655,319544.19,763182.13,860877.00
315917,762921,860603,319073.66,763056.69,860807.75
316248,763005,860626,318634.81,762945.00,860745.13
316640,763611,861199,318230.06,762846.88,860689.19
317042,763487,860895,317861.19,762762.69,860640.13
317422,763445,860875,317529.50,762692.88,860598.25
317746,763572,860916,317235.84,762637.00,860563.56
318528,763933,861021,316980.63,762595.00,860535.63
319027,764016,861273,316765.06,762567.25,860514.75
319359,764142,861237,316590.44,762553.38,860501.38
319930,764878,861530,316456.69,762553.25,860495.75
320488,764700,861523,316363.38,762567.25,860498.06
320715,764790,861527,316310.25,762595.13,860507.69
321174,764818,861899,316295.97,762635.69,860523.88
321657,764998,861834,316319.13,762687.69,860546.38
322112,765164,861752,316378.56,762750.50,860575.19
322201,765154,861653,316472.31,762823.31,860609.13
322909,765718,862091,316597.56,762905.38,860647.75
323256,765697,862079,316752.63,762996.88,860691.63
323689,765681,862048,316936.69,763097.13,860740.44
323934,766119,862350,317148.25,763204.63,860793.19
324610,765999,862319,317385.44,763318.50,860849.44
324748,766092,862341,317646.66,763438.38,860909.38
324660,766195,862215,317928.81,763563.63,860972.50
324349,765587,862068,318227.31,763692.13,861037.25
323620,765095,861744,318536.06,763819.63,861101.63
322319,764534,861545,318845.44,763941.38,861163.31
321192,763636,861148,319144.22,764053.00,861220.38
318063,762558,860527,319419.34,764148.63,861270.25
316623,762127,860304,319655.38,764223.00,861309.63
315135,761479,859918,319841.44,764272.88,861336.75
312137,760527,859416,319971.00,764295.88,861350.19
310989,760221,859326,320036.31,764289.88,861348.63
309859,759936,859174,320030.25,764254.81,861332.25
307893,759968,859006,319950.63,764192.38,861301.88
307281,759445,858798,319797.97,764104.44,861257.88
306477,759236,858719,319573.00,763992.81,861201.06
305906,759040,858685,319279.00,763859.50,861132.50
304675,758799,858404,318920.41,763706.50,861053.00
304498,758749,858427,318501.56,763535.88,860963.75
304245,758787,858371,318029.25,763350.38,860866.19
304093,759218,858630,317511.38,763153.50,860762.38
304490,759322,858477,316956.50,762949.38,860654.38
305069,759636,858653,316375.50,762742.44,860543.75
305517,760281,859060,315779.69,762536.88,860432.13
306349,760357,859060,315179.31,762336.19,860321.75
306959,760561,859201,314584.34,762144.00,860214.88
307354,760813,859256,314002.94,761962.75,860112.94
308143,761077,859475,313441.06,761794.50,860017.00
308532,761178,859551,312903.97,761640.44,859928.06
308733,761234,859583,312396.75,761500.88,859846.75
308984,761849,859958,311922.31,761376.13,859773.06
309543,761713,859734,311482.56,761266.63,859707.13
310189,761750,859859,311080.38,761172.81,859649.13
310486,761915,859899,310718.16,761094.50,859599.38
311125,762365,860046,310396.75,761031.88,859557.88
311673,762482,860071,310116.97,760985.75,859524.50
312196,762546,860279,309880.75,760955.88,859499.44
312850,763321,860596,309688.63,760941.63,859483.00
313363,763250,860612,309540.31,760943.38,859475.81
313990,763410,860702,309436.81,760961.44,859477.75
314466,763603,861012,309378.50,760995.38,859488.44
315096,763711,860949,309364.50,761044.31,859507.50
315819,764080,861146,309394.25,761107.50,859535.00
316174,764243,861210,309466.81,761184.56,859570.69
316634,764563,861427,309579.94,761275.13,859614.50
317211,764525,861345,309731.19,761378.25,859665.94
317644,764665,861415,309918.97,761492.38,859723.88
318152,765039,861741,310141.38,761616.38,859787.50
318941,765176,861671,310396.84,761749.63,859856.56
319180,765107,861642,310683.88,761891.50,859930.56
319644,765263,861966,310999.81,762040.75,860009.13
320406,765726,862070,311341.69,762196.50,860092.38
320755,765730,862040,311707.47,762359.13,860180.06
321184,765839,862062,312095.88,762527.38,860271.25
321305,766233,862304,312504.69,762700.00,860364.81
321675,765986,862212,312930.38,762875.63,860460.25
321671,765698,862050,313369.47,763052.56,860556.75
321347,765461,861999,313817.22,763228.25,860653.13
319575,764516,861502,314266.75,763398.31,860747.25
318495,763890,861230,314707.22,763557.25,860836.25
317116,763228,860855,315125.00,763699.88,860917.50
314003,762323,860261,315507.84,763822.63,860988.88
312661,761552,859995,315843.25,763921.81,861048.19
311362,761041,859737,316118.75,763993.25,861093.38
310198,760624,859540,316327.41,764035.00,861123.75
307781,759950,859310,316464.44,764046.38,861139.44
307043,759753,859137,316524.97,764027.31,861140.25
306430,759481,858915,316509.25,763979.13,861126.25
304725,759259,858785,316421.25,763904.38,861097.88
304556,759148,858672,316264.06,763805.63,861055.94
304022,758968,858626,316040.63,763684.88,861001.63
303673,759169,858700,315755.81,763544.06,860936.00
303259,759050,858526,315415.84,763386.38,860860.38
303364,759267,858665,315027.75,763215.75,860776.63
303654,759480,858719,314600.19,763036.25,860687.13
304520,760034,859098,314142.56,762852.38,860594.38
305179,760141,859068,313665.56,762668.63,860500.69
305728,760411,859178,313181.13,762488.25,860407.75
306268,761160,859649,312698.88,762313.88,860316.75
307122,761201,859586,312226.75,762148.75,860229.13
307572,761214,859669,311771.88,761995.13,860146.69
307814,761360,859760,311339.25,761854.13,860070.38
308450,761565,859911,310931.41,761726.13,860000.88
308800,761643,859814,310551.06,761611.69,859938.38
309175,761905,859953,310201.69,761511.25,859882.75
309788,762376,860147,309885.47,761425.38,859833.88
310335,762331,860263,309604.00,761354.88,859792.38
310824,762475,860129,309359.97,761299.63,859758.38
311244,762503,860479,309155.16,761259.25,859731.75
311803,762954,860551,308989.88,761233.50,859712.88
312478,763030,860601,308864.81,761222.63,859702.00
313091,763148,860681,308780.69,761226.38,859699.13
313016,763761,860936,308737.41,761244.31,859704.06
314024,763661,860946,308733.75,761276.63,859717.00
314717,763914,861008,308769.34,761323.00,859737.50
315111,764058,861172,308843.72,761382.38,859764.75
316102,764359,861340,308956.31,761454.00,859798.50
316268,764306,861252,309106.44,761537.50,859838.88
316614,764541,861473,309291.75,761632.00,859885.44
317472,764735,861568,309508.88,761736.63,859937.88
317850,765000,861743,309756.06,761851.00,859996.25
318331,765096,861598,310032.72,761974.75,860059.94
318513,765305,862036,310337.13,762106.81,860127.88
319210,765305,861891,310666.53,762246.00,860199.38
319531,765478,861925,311019.16,762391.25,860274.56
319848,765718,862076,311392.69,762542.25,860353.25
320307,765862,862112,311783.34,762698.63,860435.06
320784,765936,862171,312188.19,762859.75,860519.63
321058,765957,862187,312606.88,763024.25,860606.25
320742,766101,862084,313037.00,763191.38,860694.25
320403,765592,862079,313472.69,763359.19,860782.94
319813,764919,861645,313907.31,763523.50,860870.13
318800,764362,861221,314333.41,763679.00,860953.13
316166,763030,860741,314739.25,763819.75,861028.75
314724,762345,860457,315110.16,763939.50,861094.13
313303,761875,860121,315434.75,764033.88,861147.13
309911,760904,859770,315705.44,764101.63,861186.31
309228,760573,859484,315913.69,764141.50,861210.63
308249,760221,859200,316051.41,764151.63,861219.50
307287,759905,859102,316115.94,764131.81,861212.88
305897,759439,858835,316107.53,764083.13,861191.25
305271,759315,858707,316026.81,764006.75,861155.13
304657,759307,858613,315876.88,763905.19,861105.38
303739,759022,858602,315662.63,763781.44,861043.38
303433,758989,858530,315388.94,763637.75,860970.75
303210,759035,858448,315060.78,763477.13,860888.69
303069,759445,858821,314684.56,763303.06,860798.75
303465,759547,858858,314268.47,763119.88,860703.50
303989,759819,858864,313822.34,762932.00,860605.38
304488,760163,859086,313356.56,762743.50,860506.44
305388,760653,859280,312879.19,762558.50,860408.69
305986,760927,859491,312398.38,762380.81,860314.13
306519,760974,859430,311924.81,762213.00,860224.19
306787,761596,859726,311465.91,762056.56,860139.44
307363,761490,859701,311025.38,761913.38,860060.63
307683,761492,859834,310608.38,761783.88,859988.63
308155,761579,860012,310219.13,761667.50,859923.56
308656,761865,859927,309860.50,761564.50,859865.50
309115,761925,860082,309535.00,761475.38,859814.75
309441,762155,860149,309244.41,761400.25,859771.81
309537,762462,860548,308989.25,761339.81,859737.25
310615,762721,860476,308770.56,761294.88,859711.88
311288,762766,860670,308590.63,761265.38,859695.50
311859,763314,860676,308451.34,761250.81,859687.81
312645,763357,860808,308353.69,761251.00,859688.63
313110,763447,860838,308298.31,761266.13,859697.31
313699,763670,861038,308284.88,761295.63,859713.69
314574,764038,861192,308311.97,761339.44,859737.75
314895,764122,861351,308378.38,761397.25,859769.63
315294,764238,861367,308483.69,761468.38,859809.13
315602,764680,861770,308626.31,761551.63,859855.63
316357,764570,861588,308804.03,761646.25,859908.50
316774,764799,861708,309015.56,761751.44,859967.56
317188,764830,861726,309259.06,761866.25,860032.25
317678,765054,861841,309530.50,761989.63,860102.00
318091,765213,861909,309826.22,762120.81,860176.13
318439,765316,862048,310145.94,762259.13,860254.38
318660,765838,862325,310487.81,762404.25,860336.38
319436,765753,862275,310848.78,762556.13,860421.50
319752,765841,862248,311228.63,762713.63,860509.63
320220,765928,862512,311626.50,762875.63,860600.25
320585,766045,862384,312040.44,763041.00,860692.38
320502,765760,862327,312467.56,763208.25,860785.69
320343,765620,862107,312903.19,763374.75,860879.00
318069,764716,861843,313340.75,763537.63,860970.38
317660,764209,861463,313769.75,763692.25,861057.13
316486,763470,861147,314177.94,763833.00,861136.75
315275,762414,860610,314555.13,763954.81,861207.06
312677,761868,860362,314890.81,764053.69,861265.88
311301,761323,859974,315173.19,764125.75,861311.19
310288,761038,860004,315394.75,764169.38,861342.25
308350,760562,859745,315552.66,764184.63,861359.25
307571,760251,859579,315644.19,764171.88,861362.75
306964,760134,859380,315667.56,764132.25,861352.63
306491,759957,859572,315624.81,764068.13,861329.63
305689,759847,859307,315519.63,763981.88,861295.00
305250,759771,859274,315355.53,763875.63,861249.88
305045,759577,859205,315137.16,763751.63,861195.50
304705,759839,859258,314869.31,763612.44,861133.25
304866,759940,859221,314557.44,763461.69,861064.38
305075,760230,859372,314210.38,763303.19,860990.38
305817,760951,859742,313836.63,763141.06,860913.44
306574,761058,859764,313445.06,762979.75,860835.75
307219,761363,859901,313047.44,762823.25,860759.31
307665,761339,860132,312653.47,762673.75,860685.38
308564,761738,860122,312270.00,762532.75,860614.81
309018,762021,860141,311903.56,762402.25,860548.63
309575,762194,860387,311559.19,762284.06,860487.69
309253,762355,860606,311239.81,762178.94,860433.13
310298,762456,860448,310947.50,762087.19,860385.50
310704,762421,860496,310684.38,762008.56,860344.25
311120,762950,860660,310452.25,761942.56,860309.38
311857,763097,860692,310252.81,761889.63,860281.19
312264,763183,860931,310087.88,761851.00,860259.88
312579,763247,860874,309958.00,761826.56,860245.38
313612,763694,861257,309862.75,761816.13,860238.00
314038,763709,861263,309802.81,761819.75,860238.13
314394,763879,861305,309779.59,761837.13,860245.88
314927,764422,861847,309793.19,761867.63,860260.69
315606,764483,861656,309843.03,761911.13,860282.75
315973,764667,861643,309928.63,761968.00,860311.94
316530,764902,861756,310048.78,762038.06,860347.75
317060,765011,861938,310200.56,762120.63,860389.75
317568,765113,861907,310381.44,762214.63,860437.75
317879,765424,862020,310591.66,762319.19,860491.13
318426,766025,862602,310829.94,762434.50,860549.50
319076,765747,862367,311094.03,762560.25,860612.63
319421,765854,862383,311383.94,762695.00,860680.75
319833,766106,862618,311698.81,762837.38,860753.63
320547,766247,862604,312036.81,762986.75,860831.13
320730,766402,862662,312396.44,763142.50,860912.50
321172,766477,862759,312775.38,763303.69,860997.25
321215,766761,863213,313170.69,763469.50,861085.56
321981,766859,863099,313579.94,763639.50,861178.13
322329,766833,863039,314002.00,763812.75,861273.88
322204,766642,862807,314434.63,763987.75,861371.00
321519,766061,862705,314872.38,764161.25,861467.31
320888,765544,862434,315307.50,764328.75,861561.00
319683,765036,862148,315731.41,764485.44,861650.13
317090,763838,861527,316134.06,764626.50,861731.75
315873,763343,861283,316503.38,764746.63,861803.00
314609,762730,861153,316826.78,764842.19,861862.31
313339,762091,860970,317096.06,764911.63,861909.25
311140,761825,860540,317304.56,764954.00,861943.19
310228,761500,860435,317445.88,764969.00,861963.25
309400,761203,860092,317517.97,764956.88,861969.44
308162,761027,860114,317521.19,764919.00,861961.75
307537,760724,859887,317456.09,764856.88,861941.13
307045,760511,859843,317326.00,764771.88,861908.13
305681,760976,860019,317134.91,764666.56,861863.75
305986,760642,859833,316886.56,764544.31,861809.38
305907,760597,859817,316587.38,764408.00,861746.69
305851,760568,860055,316245.19,764259.75,861677.13
306330,760958,859954,315868.06,764102.63,861601.94
306558,761214,860008,315464.88,763940.75,861523.25
307183,761534,860283,315044.56,763777.94,861443.06
307744,762026,860542,314614.81,763617.88,861363.75
308745,762292,860590,314183.75,763463.88,861287.38
309386,762509,860696,313761.75,763319.13,861215.00
309861,762909,861012,313356.88,763185.25,861147.00
310569,762938,860928,312974.31,763063.50,861083.94
310752,763066,861004,312618.06,762954.88,861026.75
311169,763096,861030,312290.34,762859.50,860976.00
311683,763320,861213,311992.50,762777.50,860931.94
312210,763458,861102,311726.25,762709.00,860894.50
312597,763558,861224,311494.00,762653.88,860863.44
313039,763979,861707,311297.13,762612.19,860838.75
313785,764089,861664,311136.66,762584.50,860821.31
314274,764264,861685,311013.88,762571.00,860811.63
314671,764498,861831,310929.22,762571.63,860809.69
315385,764915,862083,310880.34,762586.50,860815.63
315828,764971,862014,310865.53,762616.13,860829.63
316379,765204,862149,310886.88,762659.81,860851.00
316361,765773,862630,310944.75,762717.13,860879.44
317407,765743,862495,311037.31,762788.06,860915.00
317981,765829,862555,311164.69,762872.06,860957.81
318278,765947,862709,311326.47,762967.88,861007.19
319294,766415,862927,311521.44,763074.88,861062.88
319638,766409,862940,311749.19,763193.00,861125.00
319811,766499,862907,312007.63,763320.88,861193.13
320424,766869,863303,312292.19,763457.50,861266.50
320970,767027,863144,312599.81,763602.50,861345.25
321303,767088,863175,312930.75,763755.38,861428.25
321654,767491,863598,313284.19,763914.88,861514.75
322288,767378,863432,313657.94,764080.25,861604.75
322564,767506,863367,314050.31,764250.38,861697.50
322825,767651,863466,314459.00,764424.38,861791.94
323136,767733,863575,314880.78,764601.50,861887.50
323313,767580,863557,315312.75,764780.25,861984.06
323203,767269,863365,315751.81,764958.38,862080.44
321697,766584,863248,316193.06,765132.44,862174.75
320818,766086,862853,316627.38,765298.38,862264.81
319645,765468,862442,317042.56,765451.00,862348.25
318407,764701,862161,317428.00,765585.50,862422.88
315951,763987,861811,317774.50,765697.94,862486.69
314933,763502,861553,318072.19,765785.06,862538.25
313941,763183,861362,318313.38,765845.63,862576.63
311599,763098,861551,318493.59,765880.25,862602.13
311479,762650,861217,318609.94,765890.56,862615.63
310622,762342,860998,318660.94,765876.50,862617.38
310283,762070,860924,318648.09,765838.25,862607.13
309504,761997,860545,318574.75,765777.38,862584.88
309228,761802,860544,318444.53,765695.63,862550.75
308927,761758,860645,318262.13,765595.38,862506.25
308345,761798,860714,318031.38,765478.88,862453.25
308555,761823,860651,317756.34,765348.81,862393.50
308724,761978,860612,317445.25,765208.38,862328.00
309132,762764,861153,317107.25,765061.00,862258.00
309974,762773,861113,316751.31,764911.00,862185.75
310774,763113,861261,316387.50,764762.63,862113.75
311193,763447,861340,316024.56,764619.56,862043.88
312277,763888,861664,315669.03,764485.00,861977.38
312741,763982,861640,315327.19,764361.13,861915.81
312990,764049,861561,315005.13,764249.00,861859.25
313558,764426,862154,314706.19,764148.69,861807.75
313928,764403,862023,314432.56,764060.63,861761.88
314097,764540,861927,314186.47,763985.25,861722.75
314473,764613,862002,313969.00,763922.63,861689.88
315241,764931,862165,313780.00,763872.88,861663.38
315539,765036,862166,313620.22,763836.38,861643.38
316079,765108,862245,313492.25,763812.75,861629.63
315924,765926,862741,313396.78,763802.44,861622.63
317040,765767,862668,313332.97,763806.38,861623.13
317674,765837,862645,313302.69,763824.38,861631.00
318049,765857,863031,313307.47,763854.88,861645.50
318889,766288,863008,313347.25,763897.13,861666.38
319257,766564,862916,313422.03,763951.75,861693.94
319698,766637,862990,313530.88,764018.69,861727.44
320165,766833,863256,313670.63,764097.13,861766.63
320704,767139,863464,313838.72,764186.31,861812.00
321082,767195,863358,314035.56,764286.13,861863.56
321460,767494,863661,314260.88,764395.63,861920.31
322128,767561,863404,314512.94,764514.13,861981.13
322333,767635,863581,314790.34,764640.75,862045.56
322733,767723,863673,315090.72,764774.38,862113.50
323298,768113,863827,315411.50,764914.56,862185.00
323622,768042,863900,315750.78,765060.88,862259.94
323967,768227,863837,316107.28,765212.25,862337.81
324523,768542,864210,316479.56,765367.75,862418.00
324860,768448,864088,316866.06,765526.50,862500.38
325119,768611,864150,317265.28,765688.00,862584.75
325522,768680,864332,317675.38,765851.75,862670.88
325649,768541,864243,318094.31,766016.63,862758.63
325374,768263,863899,318518.69,766180.25,862846.38
324919,767818,863722,318943.09,766339.75,862931.94
322388,767408,863545,319359.50,766492.25,863013.63
321747,766386,863102,319756.31,766634.25,863089.88
320643,765821,862809,320122.13,766759.44,863158.00
319266,765212,862226,320448.38,766863.00,863215.44
317185,764376,862076,320726.44,766941.94,863260.63
316207,764048,861864,320948.00,766993.75,863292.25
315171,763773,861685,321108.81,767018.00,863309.75
313714,763361,861476,321206.81,767015.75,863313.25
313219,763208,861335,321240.88,766988.00,863303.06
312836,763031,861371,321212.81,766936.00,863280.00
312335,762799,861334,321126.50,766861.56,863245.44
311476,762757,861231,320985.31,766766.63,863200.75
311342,762687,861121,320792.47,766653.50,863146.75
311143,762651,861107,320552.97,766524.69,863084.50
311203,762794,861205,320272.88,766383.00,863015.25
311333,762844,861163,319958.81,766231.50,862940.63
311664,763203,861276,319618.50,766073.50,862862.06
312505,763891,861589,319260.31,765912.75,862781.31
312898,763912,861369,318892.69,765753.00,862700.06
313633,764183,861686,318524.38,765598.13,862619.44
313947,764281,861709,318162.69,765450.69,862540.88
314592,764534,861986,317813.22,765312.25,862465.88
314734,764456,861999,317480.25,765183.81,862395.63
315066,764628,862006,317166.56,765065.56,862330.75
315234,765167,862370,316872.81,764958.38,862271.63
315811,764907,862058,316599.94,764863.38,862218.88
316204,764977,862174,316351.75,764780.19,862171.75
316426,765164,862587,316131.31,764708.38,862130.13
317064,765461,862268,315939.63,764648.56,862094.25
317482,765619,862505,315778.25,764601.44,862064.25
317906,765696,862516,315648.25,764567.13,862040.63
318448,765991,862698,315549.63,764545.50,862023.56
318885,766042,862569,315482.25,764536.50,862012.88
319305,766285,862726,315446.97,764539.88,862008.00
319634,766507,863041,315443.94,764555.25,862009.00
320086,766799,862960,315472.09,764582.50,862016.13
320703,766830,863079,315531.03,764621.88,862029.38
321005,766848,863034,315620.31,764672.75,862048.50
321716,767014,863143,315738.31,764733.94,862072.81
321914,767221,863254,315883.31,764804.63,862102.13
322355,767427,863432,316054.94,764884.75,862136.50
322849,767859,863763,316252.22,764973.88,862176.25
323168,767799,863607,316473.56,765071.56,862221.13
323602,767841,863643,316717.75,765177.38,862270.75
323888,767971,863662,316983.41,765290.38,862324.50
324531,767998,863802,317269.06,765409.50,862382.06
324803,768363,863847,317573.72,765534.38,862443.00
325060,768436,863978,317895.50,765664.63,862507.31
325185,768821,864298,318230.50,765800.38,862575.00
325273,768412,863929,318574.66,765940.38,862645.69
325166,768057,863759,318925.91,766082.00,862717.63
324639,767761,863614,319280.84,766221.56,862788.75
323054,766971,863087,319631.44,766355.13,862856.75
321733,766178,862789,319966.44,766477.56,862918.81
320496,765618,862503,320275.25,766583.88,862972.63
317999,764760,861992,320548.97,766671.00,863016.25
316920,764302,861772,320778.19,766736.63,863047.75
316000,763978,861677,320954.44,766778.00,863066.50
315062,763587,861695,321073.75,766794.00,863073.13
313345,763248,861422,321133.69,766785.13,863068.19
312963,763115,861214,321132.00,766751.88,863051.88
312257,762971,861133,321070.19,766695.94,863024.38
311472,762871,861136,320951.53,766619.38,862986.25
310954,762703,860877,320778.94,766524.25,862938.63
310712,762548,860874,320555.75,766412.25,862882.00
310515,763027,861151,320286.91,766285.56,862817.38
310514,762998,860988,319978.69,766147.38,862746.38
310811,763027,861062,319638.06,766001.75,862670.88
311210,763251,861093,319272.94,765851.75,862592.31
312116,763711,861415,318892.59,765700.69,862512.50
312607,763886,861379,318506.50,765552.31,862433.50
312943,764089,861583,318122.19,765409.19,862356.38
313622,764780,862470,317744.25,765273.75,862282.94
313985,764527,861885,317376.97,765148.25,862215.00
314447,764616,861717,317026.66,765033.25,862152.38
314417,764713,861960,316697.63,764928.69,862094.38
315026,764938,862003,316391.69,764835.00,862041.25
315400,764948,861988,316111.19,764752.75,861993.69
315687,765128,862061,315858.19,764681.75,861951.81
316198,765358,861967,315633.38,764622.63,861915.38
316663,765553,862119,315437.66,764575.88,861884.00
317031,765648,862301,315273.00,764541.63,861858.06
317385,765814,862675,315140.53,764519.38,861838.25
318114,765950,862587,315040.69,764508.69,861825.06
318459,766106,862615,314974.31,764509.63,861818.63
318852,766308,862614,314941.31,764522.25,861818.75
319582,766505,862836,314940.75,764546.38,861825.13
319991,766752,862872,314972.41,764582.13,861837.75
320489,766868,862985,315036.59,764629.25,861856.63
321146,767359,863212,315132.94,764687.31,861881.25
321282,767332,863164,315260.03,764755.88,861911.38
321830,767341,863270,315416.53,764834.75,861946.88
322219,767605,863273,315601.28,764923.06,861987.75
322793,767897,863622,315813.13,765020.75,862033.81
323065,767935,863690,316050.63,765127.63,862085.63
323515,767973,863707,316311.94,765242.50,862143.00
323969,768396,863983,316593.88,765364.63,862205.44
324384,768378,863823,316893.75,765493.75,862272.50
324694,768536,863837,317211.56,765629.13,862343.38
324571,768445,863968,317546.13,765769.50,862416.81
325121,768576,863871,317894.03,765913.38,862492.25
325117,768300,863758,318253.00,766059.19,862568.75
324662,768015,863547,318619.31,766204.25,862644.75
323045,767113,863049,318986.59,766345.63,862718.00
321819,766492,862790,319344.97,766479.13,862785.50
320513,765904,862631,319681.16,766598.44,862845.25
318995,764750,862212,319983.63,766698.75,862896.25
316262,764428,861807,320241.16,766776.69,862937.00
315196,764024,861636,320442.44,766829.25,862965.50
314152,763667,861573,320581.75,766855.25,862981.13
312350,763135,861293,320657.69,766854.44,862984.19
311352,762929,861140,320668.09,766827.19,862974.81
310824,762671,861001,320611.31,766774.50,862953.13
309601,762683,860787,320489.47,766698.25,862919.75
308964,762381,860875,320305.69,766600.63,862875.63
308789,762234,860781,320062.53,766483.63,862821.75
308381,762250,860720,319765.00,766349.50,862759.38
308182,762358,860827,319419.44,766201.31,862689.75
308353,762461,860828,319032.84,766042.38,862614.44
308571,762632,860912,318613.56,765876.00,862535.06
309070,763452,861539,318169.06,765706.00,862453.50
309753,763450,861323,317707.59,765537.00,862372.13
310231,763481,861304,317240.22,765372.13,862292.38
310465,763825,861585,316775.91,765213.38,862214.88
311544,764120,861602,316321.44,765062.88,862140.56
311954,764274,861503,315884.06,764922.94,862070.38
312347,764273,861639,315469.19,764794.31,862004.75
312690,764461,861581,315079.63,764677.50,861943.69
313108,764651,861761,314717.63,764573.19,861887.63
313430,764630,861762,314385.72,764481.50,861836.88
313730,764985,862093,314085.69,764402.00,861791.63
314296,765035,862071,313818.75,764334.88,861752.50
314861,765236,862108,313586.56,764280.63,861719.94
315303,765373,862190,313390.75,764239.63,861694.13
316216,765755,862319,313231.47,764212.13,861675.00
316524,765936,862472,313109.16,764198.81,861663.00
317063,766140,862574,313025.38,764199.88,861658.13
317778,766177,862692,312980.56,764214.63,861660.56
318046,766451,862819,312974.00,764242.50,861670.25
318545,766622,862822,313005.06,764283.13,861687.00
319064,766803,862927,313073.03,764336.13,861710.31
319723,767066,863123,313177.16,764401.13,861739.94
319991,767220,863126,313316.25,764477.75,861775.88
320440,767325,863186,313488.19,764565.25,861817.50
320999,767759,863775,313689.38,764663.13,861864.88
321419,767813,863430,313916.88,764771.13,861917.94
321794,767716,863427,314170.81,764888.13,861976.06
321863,767900,863828,314450.19,765012.69,862038.06
322819,768196,863635,314752.66,765143.88,862103.50
323037,768141,863726,315077.34,765281.44,862172.38
323380,768326,863694,315422.38,765424.19,862244.38
323960,768666,863952,315785.13,765571.81,862319.00
324401,768739,863989,316163.91,765724.50,862396.50
324731,768764,864036,316557.81,765881.44,862476.50
324717,768602,864151,316964.72,766040.88,862558.38
324443,768312,863879,317380.13,766200.50,862640.88
324094,767996,863602,317798.38,766357.00,862722.38
323107,767601,863416,318212.44,766506.94,862801.00
320464,766239,862837,318613.38,766645.63,862874.19
319147,765645,862466,318988.47,766766.44,862938.88
317572,765035,862329,319322.88,766864.88,862993.00
314757,764220,861891,319605.41,766938.38,863035.38
313476,763805,861541,319827.00,766985.06,863064.75
312348,763356,861380,319978.81,767003.38,863079.88
311266,763076,861195,320057.09,766993.13,863080.75
309547,762537,860936,320060.72,766955.00,863067.63
308873,762289,860919,319988.94,766889.50,863040.88
308139,762043,860571,319844.13,766798.00,863001.06
306864,762200,860897,319629.94,766683.38,862949.25
306617,761910,860567,319349.88,766548.88,862887.06
306336,761814,860528,319009.75,766396.75,862815.63
306000,761812,860607,318616.63,766229.13,862735.63
306149,762081,860429,318178.22,766049.38,862648.38
306389,762028,860611,317703.38,765861.00,862555.31
306822,762331,860621,317201.78,765667.38,862458.63
307520,763012,860773,316682.63,765472.25,862360.19
308222,763132,861054,316155.56,765280.00,862261.88
308848,763417,861124,315631.22,765094.38,862165.88
309244,763714,861472,315118.31,764918.13,862073.50
309858,763886,861379,314622.94,764753.25,861985.75
310389,764017,861509,314150.69,764601.13,861903.69
310594,763961,861415,313705.63,764462.25,861827.94
311251,764372,861595,313290.44,764336.88,861758.56
311626,764413,861539,312907.72,764225.75,861695.69
311882,764532,861707,312559.91,764129.19,861639.38
312467,764888,861927,312247.94,764046.63,861589.63
312928,764858,861879,311972.75,763977.63,861546.38
313376,765161,862049,311736.19,763923.13,861510.38
313691,765199,862118,311539.09,763883.56,861482.25
314518,765451,862185,311381.81,763858.63,861462.13
315059,765791,862364,311265.38,763848.50,861449.88
315464,765824,862325,311190.13,763853.13,861445.25
316059,766420,862749,311153.69,763872.50,861448.25
316739,766183,862570,311154.38,763906.13,861458.75
317317,766445,862623,311194.00,763953.13,861476.31
317317,766555,863042,311272.75,764012.63,861500.31
318229,766968,862978,311388.16,764084.25,861530.88
318548,766857,863067,311539.00,764167.63,861568.13
318966,767104,863091,311723.59,764261.56,861611.88
319489,767439,863128,311939.00,764365.31,861661.38
320148,767511,863294,312183.19,764478.63,861716.00
320373,767635,863394,312455.50,764600.75,861775.69
320741,767864,863588,312754.09,764730.50,861839.94
321159,767891,863574,313076.22,764866.88,861908.19
321533,767998,863414,313419.63,765009.06,861979.88
321957,768139,863504,313782.19,765156.50,862054.13
322721,768395,863803,314161.84,765308.69,862130.56
322965,768467,863698,314556.91,765465.25,862209.63
323014,768426,863764,314965.94,765625.25,862290.50
322735,768249,863677,315385.81,765786.88,862372.38
321816,767534,863322,315809.97,765947.00,862453.50
321226,766960,863060,316229.41,766100.50,862531.50
320114,766535,862784,316635.31,766242.50,862604.25
317450,765237,862148,317016.19,766368.38,862669.13
316026,764734,861845,317357.88,766472.63,862723.19
314604,764281,861538,317649.75,766552.13,862764.50
312201,763761,861720,317884.50,766606.25,862792.88
311276,763179,861285,318055.06,766634.38,862809.00
310591,762833,860970,318157.63,766635.13,862812.38
309318,762691,860986,318191.69,766608.25,862802.13
308287,762297,860743,318157.31,766555.44,862778.63
307802,762050,860572,318055.75,766477.94,862742.81
307326,762056,860344,317891.06,766377.56,862695.25
306447,761938,859798,317668.47,766257.75,862635.44
306531,761953,860301,317393.13,766121.75,862563.81
306395,762040,860276,317071.00,765971.88,862483.13
306365,762278,860634,316708.69,765810.63,862396.00
306753,762374,860577,316313.94,765641.13,862304.50
307457,762598,860638,315896.13,765467.38,862210.88
308046,762930,860776,315465.38,765293.19,862116.88
308794,763382,860790,315030.28,765122.38,862023.88
309064,763397,860917,314598.06,764958.00,861932.88
309612,763592,860948,314175.69,764801.88,861844.94
310183,763990,861183,313769.13,764654.94,861760.88
310219,763930,861247,313382.31,764518.31,861681.75
310694,763872,861234,313018.19,764392.88,861608.25
311097,764026,861264,312679.59,764278.63,861540.75
311699,764270,861463,312369.50,764176.13,861479.50
311892,764294,861376,312090.13,764085.88,861424.75
312250,764277,861355,311842.34,764007.75,861376.13
312879,764936,861947,311625.19,763941.69,861334.00
313467,765021,861848,311438.75,763889.25,861299.63
313923,765088,861799,311286.81,763851.00,861273.00
314052,765246,862278,311171.41,763826.38,861253.75
315077,765524,862122,311092.22,763815.31,861241.75
315595,765681,862097,311050.56,763817.88,861237.19
315999,765850,862274,311046.81,763833.75,861239.81
316653,766178,862427,311079.50,763862.75,861249.69
317213,766359,862392,311147.63,763905.13,861266.69
317614,766505,862510,311251.19,763960.38,861290.19
317900,766703,862686,311388.94,764027.69,861319.75
318540,766693,862817,311558.81,764105.81,861355.25
318851,766996,862913,311759.28,764194.06,861397.06
319383,767050,862885,311988.50,764292.00,861444.75
319978,767285,862936,312244.25,764399.00,861497.63
320257,767351,863024,312524.38,764514.19,861554.88
320630,767327,862968,312827.53,764636.44,861615.94
321330,767958,863134,313152.25,764764.63,861680.25
321116,767870,863223,313495.88,764898.50,861747.88
321710,767974,863126,313855.88,765038.00,861818.19
322105,767903,863186,314230.72,765182.38,861890.13
322532,768139,863479,314619.31,765330.38,861963.56
322471,767967,863227,315019.31,765480.75,862038.44
322226,767680,863213,315426.63,765631.50,862113.69
320391,767029,863102,315833.66,765779.63,862188.00
319497,766283,862571,316229.38,765920.94,862259.75
318142,765548,862060,316602.44,766049.13,862325.50
316468,764797,861844,316942.44,766158.63,862382.13
313962,764001,861458,317237.56,766245.25,862427.88
312810,763491,861037,317476.59,766305.81,862461.13
311763,763127,860957,317653.63,766339.00,862480.75
309811,762416,860846,317766.94,766345.00,862486.75
309076,762174,860513,317814.56,766324.38,862479.75
308360,761886,860261,317794.44,766276.75,862459.25
307832,761772,860260,317708.03,766202.88,862425.38
306603,761573,860071,317558.25,766105.31,862378.88
306371,761596,860038,317347.66,765986.50,862320.88
306218,761552,859979,317081.63,765849.44,862253.00
305994,761502,859927,316767.19,765696.94,862176.50
306020,761613,859890,316411.28,765531.94,862092.44
306132,761715,859852,316021.25,765357.63,862002.13
306951,762481,860270,315605.47,765177.63,861907.13
307485,762528,860251,315173.69,764996.31,861809.75
308004,762728,860384,314735.75,764817.88,861712.19
308329,762893,860462,314299.59,764644.94,861616.25
309091,763218,860740,313871.69,764479.75,861523.50
309438,763218,860735,313458.19,764324.13,861435.38
309519,763441,860822,313063.31,764179.06,861352.63
309942,763736,861069,312687.88,764045.75,861276.13
310353,763616,860868,312333.25,763925.00,861206.75
310737,763734,860980,312004.13,763816.50,861143.69
310930,763824,861119,311704.00,763720.13,861086.75
311644,764250,861311,311434.31,763636.38,861036.38
312110,764109,861165,311197.38,763565.94,860993.13
312429,764320,861273,310994.56,763508.31,860956.75
313202,764638,861421,310826.03,763463.69,860927.00
313732,764933,861664,310692.47,763433.00,860904.50
314260,764992,861752,310595.94,763416.63,860889.94
314643,765484,861905,310537.25,763413.88,860883.25
315162,765477,862029,310515.69,763424.63,860884.13
315643,765585,861987,310530.63,763448.81,860892.75
316174,765737,862113,310581.25,763485.88,860908.63
316984,766010,862226,310666.44,763535.31,860931.50
317209,766115,862292,310784.81,763596.75,860961.06
317744,766299,862323,310935.91,763669.50,860996.81
318296,766653,862586,311118.69,763752.88,861038.38
318441,766654,862495,311330.97,763846.38,861085.38
318953,766794,862540,311570.63,763949.38,861137.31
319414,766939,862651,311836.06,764061.13,861193.50
319931,767107,862848,312125.97,764180.88,861254.00
320282,767360,862990,312438.69,764308.13,861318.88
320638,767411,862946,312772.09,764442.38,861388.13
320940,767914,863249,313122.38,764583.25,861461.25
321504,767716,863268,313486.13,764730.13,861538.25
321821,767810,863177,313863.97,764881.88,861618.75
321735,767712,863231,314254.97,765036.94,861701.25
321193,767152,862886,314654.00,765192.50,861784.06
320383,766810,862706,315053.63,765344.63,861865.38
319496,766116,862344,315445.19,765489.00,861942.88
316717,764957,861778,315819.81,765621.63,862013.88
315452,764307,861469,316165.47,765737.88,862075.31
314093,763857,861266,316467.97,765831.75,862125.31
312739,762970,861043,316717.66,765900.25,862163.13
310317,762616,860747,316907.00,765942.13,862188.25
309422,762188,860541,317028.69,765955.56,862200.00
308563,761943,860349,317080.56,765940.25,862198.25
307094,761373,859855,317064.03,765896.75,862182.63
306406,761167,859888,316980.19,765826.06,862152.75
306062,761154,859748,316830.53,765729.88,862109.50
305181,761128,859787,316619.44,765611.56,862054.13
304767,760993,859566,316351.84,765474.13,861987.50
304794,760919,859557,316032.44,765320.13,861911.00
304717,760956,859583,315668.09,765152.13,861826.38
305067,761235,859800,315267.13,764973.63,861735.50
305307,761467,859713,314838.34,764788.56,861640.63
305846,761658,859792,314390.66,764600.88,861543.06
306652,762444,860338,313931.56,764414.31,861445.00
307275,762345,860370,313468.97,764232.88,861349.38
307569,762530,860195,313012.81,764059.06,861257.38
307742,762615,860416,312570.13,763894.25,861168.75
308731,762927,860509,312145.47,763739.81,861084.06
309065,762974,860434,311744.44,763597.06,861004.44
309329,763086,860474,311370.63,763466.63,860930.13
309709,763284,860731,311025.72,763348.88,860861.63
310255,763411,860635,310711.38,763244.50,860799.63
310592,763418,860761,310429.88,763153.50,860744.00
310768,763820,860981,310182.31,763075.38,860694.88
311647,764128,861128,309969.31,763010.50,860652.69
312178,764261,861047,309792.94,762960.63,860618.19
312612,764333,861253,309654.56,762926.00,860591.38
313339,764573,861330,309553.97,762906.13,860572.31
313757,764790,861428,309491.19,762900.63,860561.13
314151,764883,861336,309466.31,762909.38,860557.25
314975,765324,861580,309478.75,762931.63,860560.00
315239,765336,861663,309527.47,762966.69,860569.50
315668,765468,861797,309611.88,763014.56,860585.88
316323,765626,862099,309731.06,763074.88,860609.56
316875,765932,862241,309884.38,763147.00,860641.00
317272,766202,862332,310070.53,763231.00,860680.38
317512,766209,862277,310287.25,763326.38,860726.88
318056,766757,862663,310530.34,763432.69,860780.00
318585,766772,862654,310796.66,763549.75,860839.75
319015,766772,862652,311086.88,763676.63,860905.63
319332,766875,862940,311400.91,763811.50,860976.63
320037,767272,862830,311736.84,763953.44,861052.00
320365,767364,862717,312093.41,764102.50,861131.06
320754,767460,862958,312468.81,764257.94,861213.13
321131,767648,863111,312860.19,764418.81,861298.13
321224,767498,862903,313264.50,764584.00,861385.81
321106,767196,862820,313678.66,764750.88,861474.50
320715,766519,862615,314098.13,764916.00,861562.50
318661,765842,862106,314513.75,765074.81,861647.31
317389,765185,861891,314912.44,765221.25,861726.13
316146,764509,861431,315282.53,765350.25,861796.44
313193,763287,860811,315615.28,765457.00,861855.56
311881,762865,860592,315900.00,765536.75,861900.88
310896,762314,860315,316125.34,765587.44,861931.25
308553,761826,860036,316285.94,765608.81,861946.63
307586,761375,859819,316378.47,765601.00,861947.25
307042,761189,859815,316399.00,765564.19,861933.13
306311,760999,859726,316348.31,765499.69,861905.00
305312,760616,859473,316229.69,765409.44,861863.88
304755,760580,859408,316045.88,765295.38,861810.50
304463,760466,859414,315801.50,765160.00,861745.88
303613,760614,859684,315501.31,765006.63,861672.00
303708,760451,859358,315150.13,764838.50,861590.50
303755,760520,859165,314755.88,764658.25,861502.13
303663,760687,859557,314327.13,764469.13,861407.63
304848,761007,859601,313872.97,764274.81,861308.94
305355,761352,859549,313404.81,764079.38,861208.63
306017,761587,859686,312932.94,763886.75,861108.38
306795,762011,859953,312465.25,763699.81,861009.63
307291,762174,860164,312008.81,763521.25,860914.75
307661,762307,860040,311570.38,763353.38,860824.81
308039,762472,860313,311154.81,763197.38,860740.00
308491,762615,860440,310765.25,763054.25,860660.88
308988,762694,860455,310404.88,762924.38,860588.75
309227,762915,860332,310075.88,762808.38,860523.88
309962,763044,860575,309779.44,762706.50,860465.88
310272,763354,860593,309516.81,762619.50,860415.06
310787,763503,860877,309290.22,762547.63,860372.00
311586,764081,860987,309100.81,762491.13,860337.25
311859,764076,860958,308949.19,762450.00,860310.63
312304,764120,861185,308836.13,762424.75,860292.25
313084,764524,861280,308762.31,762415.63,860282.31
313885,764686,861422,308728.81,762422.44,860280.94
314382,764931,861652,308736.44,762445.25,860288.25
314740,765058,861582,308784.19,762483.25,860304.13
315269,765651,862219,308868.69,762536.38,860328.50
315865,765582,861957,308987.19,762604.50,860361.56
316392,765722,862140,309140.47,762686.63,860403.00
316772,765928,862426,309328.53,762781.38,860451.94
317375,766214,862164,309549.41,762888.19,860507.75
317853,766268,862291,309801.41,763006.38,860569.25
318229,766432,862499,310082.56,763134.88,860636.38
318886,766782,862588,310390.06,763272.56,860709.06
319303,766858,862658,310721.63,763419.13,860786.88
319541,766969,862702,311076.00,763573.75,860869.25
319969,767325,862982,311451.13,763735.00,860955.25
320420,767213,862839,311844.59,763901.88,861044.19
320949,767318,862965,312254.81,764073.25,861135.75
321101,767461,862991,312679.88,764248.38,861229.75
321316,767523,862901,313116.66,764426.38,861325.38
321088,767116,862805,313561.19,764605.25,861421.31
320777,766738,862668,314008.31,764781.56,861516.06
318745,765779,862170,314451.25,764951.13,861607.69
317449,764934,861756,314878.69,765108.25,861693.31
316322,764446,861562,315276.94,765247.00,861770.00
314797,763654,861147,315635.44,765363.06,861835.88
312264,762769,860694,315943.91,765452.88,861888.75
311075,762253,860377,316191.75,765513.19,861927.00
310183,762100,860235,316373.59,765543.25,861949.75
308094,761781,860476,316487.44,765544.88,861957.94
307803,761340,860048,316531.44,765519.56,861953.00
307371,761115,859814,316507.00,765467.56,861934.88
306704,760997,859598,316418.13,765390.00,861903.50
306068,760749,859517,316268.66,765289.13,861859.25
305866,760667,859339,316062.91,765167.25,861802.88
305661,760552,859301,315806.69,765026.63,861735.25
305368,760733,859426,315505.44,764870.25,861658.13
305733,760934,859389,315165.19,764701.75,861573.38
306193,761125,859519,314795.31,764525.38,861482.88
306620,761679,859782,314405.88,764344.63,861388.38
307391,761818,859947,314005.75,764163.44,861292.00
307828,761962,859866,313603.53,763985.63,861196.06
308235,762186,860169,313206.16,763813.94,861102.38
308882,762507,860089,312819.00,763650.75,861012.13
309221,762482,860193,312446.88,763497.63,860926.06
309648,762707,860296,312094.50,763355.50,860844.75
310319,763169,860671,311765.38,763225.13,860768.88
310501,763094,860640,311462.00,763107.50,860699.31
310817,763280,860660,311186.81,763003.44,860637.06
311266,763510,860812,310941.44,762913.63,860582.50
311849,763689,861021,310727.44,762838.75,860536.19
312274,763815,861012,310546.44,762778.63,860498.44
312665,763902,861166,310399.25,762733.13,860469.13
312818,764609,861581,310284.59,762702.00,860448.31
313805,764471,861369,310201.69,762685.63,860435.94
314300,764541,861452,310153.09,762683.94,860431.88
314602,764703,861583,310140.16,762696.19,860435.56
315408,765144,861765,310162.31,762722.19,860446.88
315813,765141,861670,310219.50,762762.06,860465.75
316039,765140,861769,310310.63,762814.63,860491.50
316758,765686,862172,310432.63,762878.88,860524.19
317107,765686,862109,310583.63,762954.63,860564.25
317644,765842,862240,310763.81,763041.56,860611.25
317913,766129,862408,310972.72,763138.50,860664.31
318480,766194,862411,311208.47,763244.56,860722.63
318890,766230,862578,311469.47,763359.13,860786.19
319125,766402,862688,311753.88,763481.56,860855.31
319440,766710,862757,312058.94,763611.25,860929.75
320143,766681,862740,312382.94,763747.75,861008.63
320428,766836,862752,312724.94,763890.13,861090.94
320703,767050,863141,313083.34,764037.06,861176.06
321062,767070,862990,313455.94,764187.88,861263.75
321419,766986,863068,313840.69,764341.56,861353.81
321533,766921,863008,314235.31,764496.63,861445.63
320889,766527,862812,314635.63,764650.63,861537.75
320231,765995,862513,315034.75,764800.13,861628.31
319140,765432,862157,315424.31,764940.63,861714.56
315713,764602,861729,315794.00,765068.81,861794.38
315091,763735,861175,316130.69,765180.38,861865.13
314088,763099,860877,316422.50,765269.63,861923.63
312767,762630,860578,316662.44,765332.88,861967.75
310978,761864,860311,316844.88,765368.38,861996.88
310199,761674,860124,316964.84,765375.13,862010.50
309670,761411,860112,317021.69,765353.88,862008.94
308379,761044,860149,317016.56,765306.38,861993.81
308081,761051,859920,316950.38,765234.50,861966.50
307694,760982,859775,316826.75,765140.63,861927.50
307568,760917,859777,316651.25,765027.50,861877.63
307184,760874,859860,316429.44,764897.75,861818.50
307297,761005,859779,316166.88,764754.25,861751.63
307466,761081,859823,315870.31,764600.00,861678.50
307936,761414,860025,315547.06,764438.63,861600.69
308408,761642,859952,315204.94,764273.94,861519.94
308971,761887,860162,314852.75,764109.25,861437.75
309746,762191,860551,314498.31,763947.44,861355.63
310209,762452,860355,314148.19,763791.00,861275.38
310556,762356,860254,313809.16,763642.13,861197.44
310915,762672,860456,313486.06,763502.00,861122.31
311066,762799,860650,313180.91,763371.88,861051.13
311380,762839,860652,312894.78,763252.75,860984.94
311610,762801,860696,312630.19,763144.38,860924.19
311312,763544,861141,312388.31,763047.13,860869.25
312114,763230,860841,312169.25,762962.00,860820.56
312474,763325,861002,311974.81,762889.19,860778.25
313033,763467,861193,311807.16,762828.13,860742.00
313822,763837,861066,311668.56,762779.38,860711.75
314242,763941,861261,311561.31,762743.50,860687.75
314663,764164,861444,311486.25,762720.88,860670.69
315374,764736,861818,311441.53,762711.38,860661.63
316092,764896,861892,311426.44,762715.75,860661.56
316426,764961,861942,311444.31,762734.75,860670.44
316722,765470,862328,311496.47,762768.13,860687.56
317524,765662,862266,311581.66,762815.50,860712.63
317920,765689,862495,311699.56,762877.31,860746.00
318554,766038,862317,311849.63,762953.06,860787.56
319188,766244,862526,312030.50,763042.25,860836.13
319578,766157,862305,312240.94,763143.88,860890.50
320014,766295,862641,312479.81,763256.00,860949.88
320329,766709,863177,312745.44,763377.19,861014.13
320789,766823,862946,313035.38,763507.13,861083.25
321232,766741,862867,313347.88,763645.13,861157.25
321651,767011,863106,313681.38,763790.38,861235.69
322180,767575,863367,314033.16,763942.56,861318.63
322545,767428,863313,314400.72,764102.25,861406.25
322654,767507,863347,314783.13,764267.94,861497.75
321708,767466,863470,315177.50,764438.06,861592.25
321949,766829,863064,315577.78,764610.13,861688.44
321056,766188,862755,315976.81,764778.63,861783.63
320385,765694,862280,316366.63,764938.00,861874.88
317914,764492,861819,316736.84,765082.88,861959.50
316837,763863,861561,317074.81,765207.50,862033.94
315797,763449,861347,317371.50,765308.13,862096.31
313436,762540,861044,317620.22,765383.00,862145.75
312899,762305,860809,317814.00,765430.88,862181.38
312315,762068,860692,317949.81,765451.00,862203.00
311635,761791,860531,318028.25,765443.63,862210.88
310723,761500,860368,318050.38,765410.00,862205.13
310253,761215,860251,318017.06,765351.63,862186.56
310031,761115,860065,317931.31,765270.06,862155.88
309552,761257,860046,317798.19,765168.13,862113.81
309469,761201,860008,317622.81,765049.13,862061.50
309707,761219,860063,317409.81,764916.13,862000.50
309841,761692,860498,317165.19,764772.00,861932.38
310373,761689,860367,316896.25,764620.38,861859.06
311040,762114,860455,316611.31,764465.50,861783.06
311588,762254,860698,316318.81,764311.13,861706.56
312489,762955,860799,316025.06,764160.75,861631.38
313025,763082,860944,315736.00,764018.13,861559.00
313484,763257,860988,315459.25,763885.56,861490.38
313293,763944,861332,315199.16,763764.25,861426.69
314302,763705,861166,314957.50,763655.50,861368.81
314594,763722,861227,314737.94,763559.75,861316.63
314804,763668,861468,314542.88,763476.38,861269.88
315617,763935,861620,314373.72,763404.69,861229.06
315867,764087,861695,314232.44,763345.13,861195.38
316093,764202,861649,314119.69,763297.88,861169.13
316552,764472,862062,314033.50,763263.00,861150.25
317061,764702,862056,313973.06,763240.75,861139.50
317523,764828,862129,313940.69,763231.50,861136.88
317945,765338,862409,313938.28,763235.19,861141.63
318829,765412,862553,313966.31,763251.88,861153.75
319307,765725,862545,314025.88,763282.25,861173.88
319729,765767,862553,314116.97,763326.50,861201.75
320390,766106,862799,314238.25,763383.88,861236.63
320836,766352,863089,314388.59,763454.25,861278.88
321249,766392,862992,314567.75,763537.25,861328.75
321849,766921,863411,314774.66,763631.63,861385.38
322341,766955,863322,315007.94,763736.75,861448.13
322815,767107,863353,315267.03,763852.63,861517.00
323107,767237,863348,315550.63,763978.63,861591.13
323607,767544,863724,315855.13,764114.06,861670.13
323969,767546,863733,316177.31,764258.13,861754.25
324469,767696,863663,316517.50,764409.69,861842.75
324344,768464,864246,316874.44,764568.00,861934.50
325322,768247,864079,317245.56,764733.25,862029.38
325624,768281,864015,317630.75,764904.75,862127.44
326111,768405,864332,318029.53,765080.88,862228.25
326379,768589,864188,318440.31,765260.88,862331.13
326748,768541,864284,318861.19,765443.69,862435.69
326386,768185,864055,319289.13,765627.13,862540.94
325004,767358,863721,319717.56,765808.00,862644.75
324249,766807,863413,320136.94,765981.75,862744.25
323315,766231,863017,320537.56,766142.13,862836.88
322034,765125,862451,320910.91,766284.13,862920.13
319701,764408,862270,321246.75,766403.31,862991.69
318727,763997,861926,321534.44,766495.25,863049.75
317859,763525,861793,321768.00,766558.00,863093.13
316221,763026,861593,321945.69,766591.13,863121.88
315682,762815,861411,322065.66,766594.75,863136.06
315169,762591,861294,322126.38,766570.38,863136.06
314872,762286,861515,322129.50,766519.75,863122.69
314232,762161,861053,322078.56,766445.00,863096.75
314042,762201,861046,321976.94,766348.13,863059.25
313876,762065,861081,321829.25,766232.00,863011.44
313489,762123,861153,321639.34,766099.38,862955.13
313817,762032,861108,321411.41,765952.88,862892.13
314045,762259,861172,321153.47,765795.50,862823.56
314023,763133,861680,320872.94,765631.25,862751.19
315082,763073,861558,320576.31,765465.13,862677.00
315690,763354,861766,320273.09,765301.00,862603.38
316441,763717,861900,319972.13,765142.06,862531.88
317349,764011,862128,319680.94,764991.25,862464.00
317860,764170,862099,319406.06,764850.63,862401.06
318092,764267,862189,319151.63,764721.50,862343.50
318118,764565,862349,318918.19,764604.25,862291.63
318935,764566,862358,318706.38,764499.38,862246.06
319182,764763,862339,318519.34,764407.38,862206.63
319365,764823,862573,318358.94,764328.50,862172.63
319785,764967,862432,318225.19,764262.50,862143.94
320215,765055,862601,318118.50,764209.13,862120.75
320599,765176,862666,318039.63,764168.38,862103.63
321082,765419,862857,317987.84,764139.94,862092.75
321438,765496,862774,317962.56,764123.88,862088.31
321774,765571,862778,317964.59,764119.88,862089.50
322062,765894,863176,317994.19,764126.94,862095.75
322756,766067,863004,318050.84,764145.19,862106.75
323138,766232,863111,318134.69,764175.00,862122.94
323404,766248,863166,318245.13,764216.13,862144.38
323878,766598,863318,318378.94,764267.88,862170.88
324294,766681,863282,318533.81,764330.13,862202.38
324722,766872,863433,318710.94,764402.38,862238.38
324646,767493,863905,318910.13,764484.69,862279.00
325314,767304,863693,319128.81,764577.00,862324.44
325845,767422,863755,319366.63,764678.63,862374.50
326210,767535,863952,319623.69,764788.31,862428.44
326765,767764,864011,319899.06,764905.44,862485.63
326775,767849,863978,320191.44,765029.50,862546.44
327123,768104,863987,320498.31,765159.88,862610.69
327269,768242,864378,320816.56,765296.25,862678.13
327885,768252,864215,321144.13,765437.69,862749.13
327996,768219,864172,321481.00,765583.00,862822.75
327930,767859,863974,321825.69,765730.13,862897.31
326867,767319,863708,322172.81,765875.63,862971.06
326123,766812,863539,322514.13,766014.88,863041.75
325035,766243,863135,322841.22,766143.56,863107.38
322405,764955,862706,323144.94,766256.50,863165.50
321419,764544,862464,323414.16,766348.38,863213.75
320410,764053,862171,323638.94,766416.06,863250.81
319601,763637,862230,323814.06,766458.88,863275.75
318035,763213,861745,323936.44,766476.50,863288.25
317555,763050,861534,324003.31,766468.88,863288.00
316990,762830,861468,324015.00,766437.06,863275.19
316164,762520,861346,323973.00,766382.38,863250.63
315828,762272,861256,323878.72,766306.00,863215.00
315588,762338,861218,323736.31,766209.63,863169.38
314811,762715,861430,323550.13,766096.56,863115.19
315327,762359,861232,323324.31,765970.38,863054.06
315514,762490,861251,323066.00,765833.38,862987.13
315632,762578,861448,322782.56,765687.88,862915.19
316366,763064,861599,322481.16,765537.38,862840.00
316587,763248,861609,322169.44,765385.88,862763.94
317345,763502,861614,321854.38,765236.63,862688.31
317707,764012,862216,321541.94,765092.19,862614.75
318651,764216,862072,321237.84,764955.44,862545.63
319018,764327,862182,320948.78,764828.75,862481.50
319304,764618,862159,320679.34,764713.00,862422.63
319738,764673,862282,320431.69,764608.56,862369.13
320030,764596,862265,320207.75,764516.13,862321.13
320283,764792,862339,320008.69,764435.63,862278.50
320755,765067,862612,319834.31,764367.25,862241.63
321156,765154,862670,319684.78,764311.69,862211.38
321664,765293,862746,319562.69,764268.88,862188.13
321862,765613,863061,319469.66,764238.63,862171.25
322459,765701,862840,319405.81,764221.00,862160.06
322845,765937,862874,319371.38,764216.25,862154.75
323166,766084,863051,319366.28,764224.50,862155.63
323769,766488,863363,319388.53,764245.75,862163.13
324233,766358,863334,319436.81,764280.00,862178.00
324569,766629,863319,319512.69,764326.13,862199.50
324812,767171,863827,319615.50,764384.13,862227.00
325409,767048,863635,319742.88,764454.31,862260.38
325754,767099,863454,319895.31,764535.44,862299.19
326020,767187,863798,320072.56,764625.88,862342.81
326738,767512,863870,320273.38,764724.81,862391.38
327075,767668,863919,320497.25,764832.25,862444.88
327397,767672,863968,320742.94,764947.63,862502.88
327109,767927,864306,321007.69,765069.69,862565.38
327947,768057,864171,321288.75,765198.00,862632.38
328225,768197,864164,321584.88,765332.19,862703.00
328593,768646,864497,321895.03,765471.50,862776.06
329028,768553,864431,322217.94,765615.50,862851.38
329304,768498,864439,322552.50,765763.63,862929.00
329089,768333,864252,322896.34,765914.06,863008.19
327815,767395,863829,323244.13,766063.19,863086.75
326830,766823,863467,323586.88,766205.25,863161.75
325724,766348,863216,323913.84,766335.31,863230.31
324396,765187,863038,324215.31,766450.13,863290.75
321984,764588,862513,324480.81,766545.56,863341.25
320761,764026,862142,324699.06,766616.75,863379.94
319774,763590,861929,324863.38,766660.81,863405.31
317942,763224,861606,324970.09,766677.44,863416.63
317343,762990,861602,325016.03,766667.06,863414.00
316742,762740,861457,325000.91,766631.00,863398.13
315163,762703,861597,324925.94,766571.31,863370.00
315139,762313,861297,324792.47,766490.25,863330.38
314886,762196,861166,324604.19,766388.81,863280.38
314524,762083,861103,324366.72,766268.63,863220.63
314087,762039,861009,324084.94,766132.00,863151.63
314098,762082,861061,323763.88,765981.69,863075.06
314255,762252,861037,323410.00,765820.63,862992.63
313921,762732,861568,323030.38,765652.75,862906.50
314994,762894,861464,322632.38,765482.13,862819.50
315713,763142,861485,322225.16,765312.50,862733.00
316271,763543,861734,321817.72,765146.75,862647.63
317215,763851,861768,321418.19,764988.00,862564.44
317426,763846,861893,321033.41,764838.56,862485.00
317971,764097,861889,320667.94,764699.88,862410.25
318381,764248,862049,320324.63,764572.88,862340.88
318789,764325,862061,320005.81,764458.19,862277.13
319106,764482,862102,319714.56,764356.13,862219.25
319182,764956,862543,319452.53,764267.13,862167.50
319839,764852,862361,319220.31,764191.38,862121.88
320141,765101,862521,319019.22,764129.50,862083.38
320536,765161,862487,318850.06,764081.63,862052.19
321006,765463,862795,318711.59,764047.75,862028.50
321616,765664,862861,318603.13,764027.94,862012.75
321943,765848,862899,318527.25,764022.44,862004.88
322278,766461,863222,318484.19,764031.13,862004.63
322989,766437,863217,318472.38,764054.38,862011.75
323347,766518,863342,318493.25,764091.94,862026.50
323651,766454,863401,318547.13,764142.63,862048.50
324277,766884,863425,318632.56,764205.13,862076.50
324608,766900,863525,318748.75,764279.13,862110.50
325050,767216,863623,318894.38,764364.25,862151.00
324945,767472,863956,319067.00,764459.88,862197.88
325900,767638,863893,319264.38,764565.75,862251.44
326351,767664,863827,319486.25,764681.13,862310.75
326685,768044,863931,319732.13,764805.13,862374.50
327119,768042,863999,320000.22,764937.00,862442.25
327649,768088,864022,320289.16,765075.88,862513.50
327952,768307,864105,320597.66,765220.88,862587.50
328285,768525,864253,320923.44,765371.38,862664.06
328283,768446,864311,321263.50,765526.75,862743.13
328147,768154,864117,321614.38,765684.88,862823.88
327643,767454,863965,321971.25,765842.38,862904.94
325894,766693,863476,322325.53,765994.00,862983.81
324674,766153,863162,322665.31,766133.88,863057.50
323267,765550,862743,322979.63,766257.44,863123.00
320431,764555,862293,323258.06,766360.56,863178.13
319436,763969,862146,323489.41,766439.13,863220.88
318336,763403,861744,323665.25,766490.50,863250.25
315956,763291,861576,323780.44,766514.50,863265.75
315077,762718,861285,323830.16,766512.25,863267.06
314527,762353,861192,323811.88,766483.25,863254.25
313918,762149,861125,323727.75,766427.75,863227.69
312666,761693,860929,323580.50,766347.00,863188.00
312295,761594,860746,323372.31,766242.25,863136.13
311932,761503,860650,323107.47,766115.88,863073.06
310611,761492,860875,322791.78,765970.88,863000.25
311091,761416,860731,322430.50,765810.56,862919.63
311086,761384,860487,322029.31,765637.19,862832.38
311242,761841,860675,321595.44,765453.31,862738.75
311851,762030,860841,321137.50,765262.75,862640.50
312390,762253,860942,320665.16,765070.38,862540.25
312965,762491,861215,320187.72,764880.00,862440.31
313839,762974,861360,319712.97,764694.88,862342.94
314292,763124,861425,319248.13,764518.25,862249.63
314822,763280,861475,318800.63,764352.19,862161.13
314698,763790,861998,318375.34,764197.75,862078.06
315734,763694,861743,317975.13,764056.06,862001.00
315941,763934,861792,317603.94,763928.38,861930.75
316366,763902,861770,317264.53,763815.13,861867.63
316728,764287,861869,316956.81,763716.50,861811.38
317188,764250,861921,316680.97,763632.88,861762.13
317576,764463,861961,316439.63,763564.06,861719.75
317955,765119,862206,316233.84,763510.25,861684.38
318300,764951,862336,316062.56,763472.13,861656.38
318943,765018,862312,315927.25,763449.25,861636.25
319428,765312,862890,315829.53,763441.00,861623.88
319927,765628,862686,315769.63,763447.38,861619.38
320492,765878,862749,315747.28,763468.88,861623.06
321013,765913,862910,315762.19,763505.00,861634.75
321071,766246,863270,315813.25,763555.00,861654.75
321793,766357,863169,315898.56,763618.25,861683.38
322348,766527,863244,316017.00,763694.13,861719.88
322668,767017,863358,316167.41,763781.75,861763.19
323438,767012,863464,316348.56,763880.38,861812.75
323744,767171,863517,316559.56,763989.88,861868.38
324052,767235,863648,316798.31,764109.75,861929.63
324736,767571,863858,317061.91,764238.88,861996.44
325053,767579,863790,317348.13,764376.63,862068.50
325387,767761,863773,317656.25,764522.00,862144.88
325314,768019,864446,317984.06,764673.88,862224.44
326205,768225,864158,318328.88,764831.81,862307.25
326378,768126,864243,318689.50,764995.31,862393.50
326721,768308,864256,319064.44,765163.00,862483.13
326597,768058,864147,319449.88,765333.25,862574.94
326091,767577,863815,319840.44,765503.13,862667.06
325459,767130,863713,320230.03,765668.25,862757.25
322970,766426,863171,320610.31,765825.25,862843.38
321501,765515,862793,320968.16,765969.88,862922.88
320311,764748,862244,321289.97,766095.44,862992.06
319070,764218,862069,321566.78,766196.88,863048.63
316498,763246,861697,321790.44,766271.13,863091.50
315526,763012,861609,321952.06,766315.88,863119.88
314599,762568,861276,322047.81,766330.88,863133.38
312062,761963,861111,322077.66,766316.88,863132.00
311894,761633,860920,322040.53,766274.50,863116.00
311390,761565,860905,321935.69,766204.25,863086.13
310778,761322,860675,321765.75,766107.75,863043.44
309686,761126,860431,321534.53,765987.25,862988.38
309388,760944,860356,321245.19,765845.06,862921.38
309050,760942,860335,320902.91,765684.06,862843.63
308914,760940,860472,320514.25,765507.25,862756.94
309049,761099,860388,320086.53,765318.00,862663.25
309327,761251,860474,319628.31,765120.06,862564.25
309630,761964,861044,319148.50,764917.63,862461.88
310715,762235,860928,318656.75,764715.56,862358.63
311429,762425,861125,318163.88,764518.38,862256.94
311910,762713,861325,317679.06,764329.25,862158.88
312689,763172,861509,317207.91,764150.75,862066.13
313214,763183,861285,316755.44,763985.13,861979.50
313608,763365,861531,316328.38,763833.38,861898.81
314209,764100,861846,315930.53,763696.63,861824.63
314465,763874,861741,315563.50,763576.06,861757.75
315051,763864,861729,315230.78,763471.75,861698.38
315334,764013,862332,314935.19,763382.88,861646.50
315885,764280,862130,314677.66,763309.13,861602.75
316255,764388,862154,314458.84,763250.88,861567.50
316654,764539,862145,314278.88,763207.88,861540.75
316793,764941,862640,314137.38,763180.00,861522.50
317727,765118,862615,314034.31,763167.56,861513.63
318298,765261,862658,313970.13,763170.63,861513.88
318698,765743,862643,313944.81,763188.63,861522.50
319358,765807,862740,313957.75,763221.13,861538.63
319918,765992,863000,314008.47,763268.25,861562.06
320182,766056,862958,314095.94,763329.50,861592.75
320985,766288,863048,314217.81,763403.88,861630.00
321313,766438,863103,314372.25,763490.38,861673.25
321734,766650,863228,314558.66,763588.50,861721.94
321949,767108,863709,314775.31,763697.50,861775.88
322583,767119,863569,315019.81,763817.00,861834.88
323069,767221,863627,315290.72,763946.31,861899.25
323313,767452,863629,315586.31,764084.63,861968.63
323813,767584,863792,315902.94,764231.25,862042.31
324361,767669,863764,316237.78,764385.13,862119.75
324597,767850,863985,316590.88,764545.13,862200.75
324974,768390,864153,316960.44,764711.00,862284.75
325452,768245,864157,317343.59,764882.50,862371.63
325741,768231,864108,317739.88,765058.63,862460.88
325806,768095,864166,318147.78,765237.00,862551.75
324857,767503,863866,318562.03,765414.63,862642.69
324329,766940,863545,318974.56,765586.75,862731.63
323389,766432,863283,319377.13,765748.63,862816.25
320358,765401,862826,319761.44,765896.50,862894.06
319726,764766,862413,320116.25,766026.06,862962.25
318584,764234,862139,320429.13,766132.38,863018.75
317432,763369,861652,320691.75,766212.63,863062.25
315287,763091,861645,320897.94,766265.63,863092.38
314367,762667,861430,321041.13,766289.88,863108.56
313528,762498,861287,321118.84,766285.25,863110.75
311981,761965,860915,321131.81,766252.88,863098.88
311647,761842,860898,321080.97,766193.63,863073.00
311156,761597,860811,320967.97,766109.25,863034.19
310754,761575,860846,320796.63,766002.13,862983.69
310207,761522,860730,320571.63,765875.00,862922.75
310051,761440,860638,320297.88,765731.00,862852.81
309900,761333,860622,319981.25,765572.38,862775.00
310288,761741,860714,319628.00,765402.25,862690.69
310694,761761,860794,319245.75,765224.63,862601.81
311045,762004,860907,318844.63,765042.94,862510.25
311852,762895,861409,318432.94,764860.63,862417.75
312489,762789,861410,318018.34,764681.75,862326.75
313327,763049,861364,317610.88,764509.88,862239.00
313623,763237,861649,317218.88,764347.25,862155.38
313984,763417,861570,316846.66,764195.63,862076.38
314399,763508,861675,316497.22,764055.88,862002.94
314543,763557,861750,316172.91,763928.44,861935.63
314388,763752,861917,315875.03,763813.63,861875.00
315391,763933,861848,315605.06,763711.88,861821.38
315923,764077,861910,315365.19,763623.75,861774.50
316245,764415,862141,315157.09,763549.25,861733.88
316853,764415,861904,314981.91,763488.38,861699.25
317062,764592,862166,314840.19,763441.38,861670.63
317485,764736,862276,314731.72,763408.25,861648.75
318366,764992,862453,314656.00,763388.88,861634.13
318864,765112,862500,314613.75,763383.31,861627.00
319097,765317,862573,314606.09,763391.25,861627.13
319465,765683,862886,314632.44,763412.13,861634.31
320157,765793,862902,314691.66,763445.69,861648.56
320587,765970,862953,314783.44,763492.19,861670.00
321001,766159,863055,314906.88,763551.38,861698.50
321532,766460,863218,315059.44,763622.88,861733.63
321904,766469,863172,315238.72,763706.13,861775.13
322231,766532,863349,315444.47,763800.00,861822.38
322649,767024,863582,315674.63,763903.19,861875.00
323068,766986,863589,315926.28,764015.38,861932.75
323479,767031,863528,316199.38,764135.94,861995.25
323613,767172,863972,316493.25,764263.69,862061.75
324275,767491,863849,316805.69,764398.13,862131.50
324802,767697,863931,317135.88,764539.13,862205.13
325017,767748,863914,317482.88,764686.50,862282.56
324826,767989,864285,317844.13,764839.31,862363.63
325486,767914,864216,318216.69,764996.88,862448.38
325510,767735,863983,318598.13,765157.25,862535.81
325442,767257,863663,318985.25,765317.50,862624.00
323965,766647,863466,319371.63,765473.75,862710.69
322648,765895,863021,319746.59,765620.25,862792.88
321535,765373,862846,320099.22,765752.13,862867.63
318832,764133,862311,320420.34,765864.38,862932.75
317790,763731,862110,320699.69,765952.25,862986.31
316680,763303,861861,320927.13,766013.63,863027.13
315536,762905,861787,321096.75,766047.69,863054.38
313642,762353,861418,321204.44,766053.88,863067.63
312909,762060,861176,321246.31,766032.50,863067.06
312206,761853,861042,321222.31,765984.63,863052.88
311292,761603,860923,321135.13,765912.13,863025.63
310935,761320,860779,320987.84,765816.50,862986.19
310660,761248,860662,320784.81,765699.63,862935.25
310002,761412,860175,320530.69,765564.00,862873.63
309921,761182,860589,320230.31,765412.63,862802.38
310138,761241,860551,319890.16,765248.25,862723.00
310405,761436,860741,319518.66,765074.13,862637.38
310874,761829,860876,319124.41,764894.06,862547.25
311578,762200,861008,318716.44,764712.69,862455.38
312274,762330,861181,318304.06,764533.75,862363.75
312628,762979,861558,317895.31,764360.38,862274.50
313529,762990,861473,317497.00,764195.50,862189.69
313845,763022,861496,317115.31,764041.00,862109.75
314258,763367,861736,316754.66,763897.50,862034.75
314878,763386,861834,316418.41,763766.00,861965.56
315080,763567,861687,316109.53,763647.25,861902.75
315148,763663,861697,315829.13,763541.63,861846.00
315932,763778,861883,315577.50,763449.38,861795.13
316380,764079,862002,315356.63,763370.69,861750.75
316720,764110,862123,315168.50,763305.94,861713.38
317016,764762,862690,315013.72,763254.88,861683.25
317956,764702,862435,314892.91,763217.69,861660.38
318166,764726,862402,314807.34,763195.00,861645.31
318612,764931,862595,314756.81,763186.44,861638.00
319271,765466,862890,314739.81,763192.38,861638.63
319778,765436,862786,314755.69,763213.13,861647.69
320130,765516,862875,314805.22,763248.00,861664.38
320781,766247,863041,314887.50,763295.88,861687.75
321219,766051,863092,315000.94,763356.50,861717.63
321646,766164,863012,315145.59,763429.63,861753.38
322045,766374,863483,315320.78,763514.44,861794.88
322286,766642,863440,315524.38,763610.25,861842.19
322752,766676,863393,315753.94,763716.63,861895.25
323135,766752,863489,316007.66,763832.25,861953.25
323244,767178,863882,316283.66,763956.25,862016.31
324008,767404,863916,316580.22,764088.63,862084.94
324463,767454,863768,316896.19,764229.38,862158.63
324762,767691,864161,317230.16,764377.00,862235.94
325277,767655,863953,317580.50,764530.25,862316.44
325736,767870,864065,317945.97,764688.44,862399.63
325639,767834,864031,318324.56,764850.88,862485.06
326206,767917,864119,318713.19,765016.31,862572.00
326081,767502,863966,319109.19,765182.69,862659.56
325702,767260,863917,319508.97,765346.88,862746.63
324844,766501,863512,319906.31,765505.63,862831.50
322941,765831,863019,320291.28,765655.00,862911.50
321656,765168,862667,320651.63,765789.00,862983.25
320211,764402,862309,320976.81,765902.50,863044.25
317699,763446,861978,321258.25,765991.44,863092.75
316660,763040,861729,321487.22,766052.31,863127.50
315493,762519,861434,321655.75,766083.81,863147.94
313685,762372,861230,321759.38,766086.13,863153.63
312938,761948,860991,321795.81,766060.38,863144.50
312405,761472,860783,321764.69,766007.31,863120.81
311855,761374,860780,321668.63,765928.00,863083.13
310487,761006,860539,321510.56,765824.13,863032.63
310580,760879,860667,321293.06,765697.75,862970.50
310151,760853,860408,321021.75,765551.00,862898.06
309619,760989,860717,320702.94,765387.25,862816.94
309977,760926,860608,320343.00,765209.75,862729.19
310275,761000,860568,319949.75,765021.81,862636.31
310658,761558,860823,319532.00,764826.88,862539.50
311664,761794,861037,319099.44,764629.25,862440.88
312287,762092,861162,318662.50,764433.63,862343.13
312480,762241,861070,318229.38,764243.63,862247.75
313530,762791,861469,317805.69,764061.94,862155.88
313859,762780,861545,317397.34,763891.25,862069.25
314366,763007,861624,317010.50,763732.81,861988.88
314519,763487,861906,316649.00,763587.50,861914.75
315278,763458,861790,316315.44,763456.38,861846.75
315625,763514,861794,316012.63,763340.25,861785.69
315981,763660,861847,315742.50,763239.13,861731.94
316617,763883,861926,315505.47,763153.06,861685.38
317019,764051,862048,315302.31,763082.38,861646.13
317261,764167,862140,315134.38,763026.88,861614.38
318007,764844,862419,315001.78,762986.75,861590.38
318423,764773,862381,314904.44,762962.25,861574.25
318807,764849,862513,314843.31,762953.63,861566.13
319292,764966,862975,314818.50,762959.88,861565.50
319842,765271,862894,314829.50,762980.38,861572.63
320282,765443,862750,314875.63,763015.06,861587.56
320817,765720,862950,314956.09,763063.56,861609.88
321250,766039,863366,315069.69,763125.69,861639.75
321931,766097,863280,315215.47,763201.00,861677.81
322272,766279,863321,315392.56,763288.75,861723.31
322710,766642,863496,315599.38,763387.94,861775.25
323274,766749,863584,315834.16,763497.88,861833.00
323570,766801,863582,316095.38,763618.13,861896.50
323804,766945,863729,316380.56,763747.69,861965.13
324603,767145,863900,316686.56,763885.56,862038.63
324843,767251,863915,317011.44,764030.94,862116.88
325202,767377,863913,317354.69,764182.88,862199.00
325445,767928,864441,317714.88,764340.31,862284.25
326023,767768,864219,318090.00,764502.50,862372.19
326379,767928,864223,318478.75,764669.31,862462.94
326522,767910,864184,318879.31,764840.00,862555.81
326819,767871,864229,319288.63,765013.13,862649.88
326697,767656,864150,319703.25,765186.50,862744.25
326087,767107,863876,320119.06,765357.00,862837.50
324243,766351,863281,320529.13,765520.81,862927.63
323109,765469,862920,320922.88,765673.00,863011.94
321765,764806,862826,321287.66,765807.13,863087.06
320493,764103,862422,321613.31,765918.13,863151.00
317816,763195,861918,321890.00,766002.50,863202.19
316855,762764,861582,322107.59,766057.25,863238.38
315810,762221,861376,322261.09,766081.25,863258.50
313647,761750,861504,322349.38,766075.25,863263.00
313131,761435,861112,322370.63,766040.31,863253.25
312668,761163,860824,322323.91,765976.75,863229.13
312156,761031,860829,322211.94,765885.56,863190.50
311151,760715,860605,322038.63,765769.00,863138.38
310896,760642,860475,321807.34,765629.38,863073.75
310515,760444,860334,321523.16,765469.50,862997.63
310562,760489,860536,321192.41,765292.00,862911.56
310573,760615,860519,320822.38,765100.31,862817.88
310785,760937,860647,320420.97,764898.63,862718.63
311051,761655,861083,319996.25,764691.06,862615.56
312019,761670,861003,319557.13,764481.75,862510.94
312790,761925,861079,319114.00,764275.50,862407.06
313336,762045,861073,318676.19,764076.00,862305.50
314268,762473,861417,318250.31,763885.63,862207.44
314719,762550,861498,317842.44,763706.50,862114.63
315037,762732,861566,317458.31,763540.13,862028.19
315514,763229,861666,317100.94,763387.38,861948.13
315800,763047,861804,316771.81,763249.00,861874.56
316116,763159,861602,316473.44,763125.31,861808.06
316451,763293,861956,316207.44,763016.38,861748.56
316950,763602,861997,315974.75,762922.63,861696.25
317390,763738,861890,315776.31,762844.44,861651.75
317824,763903,862198,315612.97,762782.13,861614.88
318423,764426,862447,315484.78,762735.75,861586.56
319004,764426,862363,315392.13,762706.13,861567.25
319438,764574,862366,315336.03,762692.75,861556.13
319934,765231,862770,315316.63,762694.94,861552.75
320605,765090,862722,315333.56,762712.69,861557.44
321024,765292,862868,315386.63,762745.75,861570.25
321343,765318,863074,315474.53,762793.25,861591.13
322263,765782,863082,315595.19,762854.38,861620.13
322422,765755,863057,315747.19,762928.88,861656.31
322914,765948,863260,315929.81,763015.75,861698.88
323146,766670,863661,316141.69,763114.06,861747.69
323678,766539,863512,316380.47,763223.75,861802.38
324113,766533,863620,316644.50,763344.38,861863.06
324478,766710,863652,316932.06,763474.50,861929.31
325103,767001,863858,317240.75,763613.38,862000.75
325478,767097,863755,317568.59,763760.25,862076.81
325628,767175,863841,317914.63,763914.38,862156.63
325860,767581,863943,318276.63,764074.25,862239.13
326493,767523,864023,318652.47,764239.00,862323.81
326806,767567,864107,319041.00,764408.06,862410.75
327207,767644,864280,319441.00,764580.50,862499.75
327286,767666,864235,319850.31,764755.00,862590.50
327709,767772,864065,320266.69,764930.56,862682.19
327682,767808,864227,320687.88,765106.13,862773.88
326706,767219,863985,321110.13,765280.50,862864.63
326017,766431,863558,321526.38,765449.75,862952.63
324970,765796,863295,321927.06,765607.25,863035.06
323822,764612,862806,322302.88,765747.63,863109.50
321288,763999,862359,322643.19,765866.25,863173.50
320214,763473,862033,322936.34,765958.38,863224.44
319053,763015,861724,323175.06,766021.63,863260.75
317342,762182,861453,323356.25,766056.19,863281.63
316728,761911,861420,323477.38,766062.25,863287.06
316000,761735,861284,323536.34,766038.81,863278.00
315405,761744,861178,323533.50,765986.63,863255.38
314399,761260,860923,323470.75,765907.94,863219.75
314040,760998,860828,323350.19,765804.50,863171.56
313834,760917,860734,323175.94,765678.38,863111.88
313627,760990,860594,322953.50,765532.50,863041.75
313611,760838,860638,322688.69,765370.00,862962.25
313701,760922,860680,322388.44,765193.94,862875.13
313899,761541,860871,322059.66,765007.50,862782.06
314542,761488,860985,321709.81,764814.75,862685.13
315011,761662,860932,321347.88,764620.00,862586.50
315512,761992,861468,320982.06,764426.75,862488.00
316564,762431,861511,320620.16,764238.50,862391.75
316912,762584,861563,320269.69,764058.63,862300.00
317281,762533,861534,319935.81,763888.63,862213.50
317631,763138,861849,319621.34,763729.88,862132.75
317919,763154,861762,319328.59,763584.25,862058.69
318234,763111,861741,319059.66,763452.50,861991.25
318463,763366,862215,318816.06,763334.00,861930.00
318868,763284,861986,318598.75,763228.38,861875.19
319296,763428,861931,318408.91,763135.75,861827.13
319555,763634,862136,318247.50,763056.13,861786.00
320233,763992,862261,318114.06,762990.50,861752.06
320656,764076,862282,318008.69,762939.44,861725.69
320940,764227,862472,317933.47,762902.88,861706.75
321298,764805,862728,317889.19,762880.44,861695.31
321903,764760,862702,317875.50,762872.38,861691.13
322445,764949,862809,317892.78,762878.88,861694.63
322822,765077,862787,317941.00,762899.69,861705.63
323576,765407,863070,318019.34,762934.38,861723.75
323839,765519,863055,318126.91,762982.63,861749.13
324041,765621,862933,318262.88,763043.75,861780.81
324541,765767,863280,318425.53,763116.38,861817.69
325033,766023,863249,318613.44,763199.50,861859.44
325348,766080,863302,318825.75,763292.88,861906.25
325741,766290,863579,319061.00,763396.00,861958.00
326105,766452,863530,319317.50,763508.00,862014.50
326529,766568,863573,319593.72,763628.38,862075.56
326835,766754,863694,319888.06,763756.25,862140.56
327303,767139,863901,320198.25,763891.25,862209.44
327566,767010,863761,320522.34,764032.88,862282.00
327774,767150,863838,320859.13,764179.88,862357.25
328064,767499,864296,321207.19,764331.75,862434.50
328680,767535,864241,321565.16,764488.25,862513.88
328597,767595,864155,321931.94,764648.69,862595.88
328915,767484,864124,322305.19,764811.50,862679.75
328445,767096,863841,322681.50,764975.38,862763.88
327910,766547,863720,323055.44,765137.38,862846.31
326925,766091,863337,323420.16,765291.88,862925.00
325967,765000,862855,323767.75,765433.44,862997.38
323526,764233,862397,324088.00,765556.88,863060.38
322484,763662,862072,324369.13,765657.00,863111.38
321533,763057,861983,324603.69,765730.69,863149.31
319654,762378,861432,324788.09,765776.06,863173.38
318938,762001,861243,324918.50,765791.75,863182.56
318298,761674,861078,324991.53,765778.00,863176.50
316852,761650,861039,325007.19,765736.31,863156.13
316844,761245,860935,324967.25,765668.75,863122.63
316685,761045,860968,324873.94,765577.13,863077.38
316328,760973,860806,324731.31,765463.25,863021.88
316026,760842,860713,324544.00,765329.88,862957.06
315932,760880,860714,324316.69,765179.56,862883.75
315895,760903,860772,324054.81,765015.44,862803.25
316433,761519,861015,323764.75,764841.25,862717.75
316943,761456,860990,323454.47,764661.19,862629.25
317454,761838,861093,323132.69,764479.25,862539.44
317815,762379,861761,322806.84,764298.88,862449.63
318840,762557,861607,322483.88,764123.19,862361.75
319119,762747,861568,322170.75,763955.88,862277.88
319576,762827,861548,321872.34,763799.13,862198.63
320087,763074,861731,321590.53,763654.25,862124.38
320300,763127,861893,321326.88,763522.38,862055.88
320556,763241,861863,321085.00,763403.38,861993.81
320846,763578,862240,320867.66,763297.06,861938.38
321174,763584,862006,320675.75,763203.56,861889.75
321647,763635,862147,320510.25,763123.38,861847.75
321974,763762,862224,320372.19,763056.38,861812.88
322738,764005,862311,320262.03,763002.69,861785.00
322993,764165,862322,320180.44,762962.50,861764.19
323191,764357,862556,320128.06,762935.88,861750.25
323615,764797,862897,320104.75,762922.50,861743.38
324373,764918,862812,320110.59,762922.50,861743.69
324831,765196,862845,320146.47,762936.63,861751.38
325087,765257,862999,320212.00,762965.25,861766.06
325933,765750,863154,320306.63,763008.13,861787.63
326263,765804,863261,320430.38,763065.13,861816.31
326640,765928,863297,320582.38,763135.63,861852.00
327067,766380,863547,320760.63,763218.38,861894.50
327379,766266,863473,320963.19,763312.50,861943.50
327705,766384,863552,321188.63,763417.00,861998.25
328015,766461,864003,321435.25,763530.88,862057.94
328712,766846,863791,321701.84,763653.50,862122.38
328818,766577,863756,321987.34,763783.88,862191.13
329133,766999,863863,322289.75,763920.63,862263.63
329602,767327,864086,322605.25,764064.00,862339.50
329969,767473,864049,322931.25,764214.44,862418.75
330230,767479,864132,323268.59,764371.00,862500.94
330527,767921,864480,323617.34,764532.25,862585.38
330878,767880,864394,323975.88,764697.25,862671.94
331040,767912,864359,324342.50,764865.75,862760.50
331243,767821,864234,324715.19,765036.56,862850.25
331001,767561,864126,325091.38,765207.38,862939.56
330583,766936,863898,325466.88,765374.75,863026.88
329701,766454,863760,325835.19,765534.13,863110.50
326807,765336,863246,326188.19,765681.31,863188.75
326289,764579,862710,326515.19,765811.25,863259.00
325135,763912,862365,326804.31,765918.00,863317.63
324156,763361,862037,327047.63,765997.75,863362.88
322381,762632,861805,327239.81,766048.50,863394.25
321480,762210,861494,327375.50,766068.94,863410.69
320896,761795,861397,327452.75,766058.75,863411.56
319558,761589,861327,327472.41,766019.00,863397.63
319131,761314,861079,327435.19,765951.50,863369.88
318789,761184,861048,327342.56,765858.44,863329.00
318446,760851,861246,327198.25,765741.63,863276.25
317945,760656,860994,327006.50,765603.00,863213.06
317789,760818,860918,326771.56,765445.06,863140.88
317706,760771,860632,326498.63,765271.38,863060.50
317740,761073,860844,326192.19,765085.75,862972.63
317832,760992,860829,325857.13,764891.94,862879.13
318575,761383,861166,325502.44,764693.19,862782.25
319086,762162,861641,325138.25,764493.31,862684.00
320035,762219,861681,324773.25,764296.63,862586.75
320551,762389,861602,324415.63,764107.00,862493.00
321020,762534,861651,324071.56,763927.00,862404.00
321638,762987,861822,323745.00,763758.56,862320.06
321936,762939,861771,323439.25,763603.25,862241.94
322166,763013,861826,323157.44,763461.63,862169.69
321757,763185,862016,322900.81,763333.38,862103.38
322517,763240,861940,322669.25,763219.00,862043.25
323008,763441,862023,322463.81,763118.31,861989.50
323397,763531,862318,322286.31,763031.56,861942.19
323899,763872,862171,322137.91,762959.13,861901.56
324234,763890,862219,322019.50,762901.25,861867.63
324421,763990,862326,321930.91,762857.50,861840.38
325301,764684,862840,321871.25,762827.63,861820.63
325593,764699,862793,321840.75,762812.13,861809.50
325895,764782,862809,321840.38,762811.63,861807.13
326241,764990,863306,321869.75,762825.81,861812.38
327036,765329,863143,321928.53,762854.38,861825.31
327400,765503,863209,322017.00,762897.44,861846.00
327705,765594,863419,322134.31,762954.38,861874.56
328198,766041,863540,322277.53,763024.63,861910.94
328662,766068,863555,322444.22,763108.25,861954.75
328886,766140,863391,322634.94,763203.94,862004.88
329225,766691,863835,322849.22,763310.00,862059.75
329589,766629,863729,323085.06,763425.75,862119.19
329822,766740,863807,323340.59,763550.88,862183.25
330046,766795,863701,323613.56,763684.50,862251.25
330694,767218,864007,323901.75,763825.94,862322.69
331082,767304,864020,324204.22,763975.00,862397.50
331423,767338,864264,324520.88,764130.88,862475.88
331223,768061,864468,324850.56,764292.25,862557.69
331972,767813,864410,325191.38,764458.50,862642.75
332355,767971,864448,325541.84,764629.63,862730.56
332669,768007,864617,325900.94,764804.81,862820.63
332872,767872,864426,326267.25,764982.63,862911.94
332705,767584,864174,326638.22,765160.38,863003.25
332065,767229,864025,327009.22,765334.94,863092.63
330455,766058,863689,327373.75,765502.50,863178.00
329396,765467,863246,327722.75,765657.63,863257.00
328275,764821,862881,328044.75,765794.25,863326.69
327125,764188,862545,328330.66,765907.75,863385.00
325062,763143,862208,328572.56,765994.63,863430.25
324103,762915,861900,328762.44,766051.94,863461.25
323495,762490,861664,328896.63,766079.25,863477.25
322095,762008,861543,328974.19,766077.94,863478.38
321696,761700,861342,328994.34,766049.25,863465.00
321521,761522,861234,328959.25,765993.25,863437.88
321071,761508,861350,328873.38,765911.25,863397.75
320578,761175,861025,328740.41,765805.50,863346.00
320369,760954,860960,328563.81,765678.13,863283.38
320329,761070,860936,328348.31,765531.88,863211.25
320286,761274,861020,328098.63,765370.25,863131.13
320593,761422,861027,327820.13,765197.50,863044.75
320984,761533,861139,327520.81,765017.38,862954.00
321310,762104,861619,327208.91,764833.31,862860.63
322205,762364,861626,326891.88,764649.50,862767.00
322903,762531,861605,326577.63,764470.00,862675.38
323184,762676,862027,326272.56,764297.25,862587.13
324164,763137,862079,325981.94,764133.63,862503.81
324388,763042,861934,325710.69,763980.75,862426.50
324632,763277,861933,325461.56,763839.63,862354.88
324882,763428,862215,325235.44,763710.50,862289.13
325293,763542,862328,325033.03,763593.75,862230.25
325410,763592,862197,324855.50,763490.00,862178.50
325685,763779,862658,324703.16,763399.38,862133.38
325822,764138,862520,324575.59,763322.50,862094.94
326337,764144,862563,324472.81,763259.88,862063.75
326869,764378,862727,324395.69,763211.56,862040.13
327391,764793,862848,324343.97,763177.50,862024.25
327867,764799,862808,324316.94,763157.88,862015.94
328120,764988,862998,324316.91,763152.63,862014.88
328609,765587,863131,324345.13,763161.50,862020.94
329214,765665,863304,324401.44,763184.75,862034.44
329641,765789,863400,324486.00,763222.81,862055.50
329888,765822,863375,324598.06,763275.06,862083.63
330312,766084,863512,324734.50,763340.25,862118.25
330796,766370,863817,324892.91,763417.88,862159.38
331077,766443,863898,325074.03,763507.63,862207.31
330976,766951,864128,325277.91,763608.25,862261.94
331851,766832,864072,325502.84,763718.88,862322.50
332142,766934,864056,325747.50,763838.88,862388.38
332436,767085,864298,326010.31,763967.56,862458.94
332851,767347,864292,326289.50,764104.13,862533.38
333154,767210,864286,326583.81,764247.69,862611.63
333198,767393,864198,326891.19,764396.63,862692.75
333671,767945,864569,327209.19,764550.31,862776.25
333914,767870,864406,327536.25,764708.75,862862.13
334252,767950,864566,327871.59,764871.50,862949.75
334456,768089,864842,328214.00,765037.81,863038.75
334640,768198,864720,328561.94,765207.00,863129.00
334945,768174,864643,328913.75,765377.88,863219.88
334853,767910,864578,329267.69,765548.88,863310.50
334002,767291,864212,329619.63,765717.56,863399.25
333169,766542,863811,329962.47,765880.13,863483.50
332290,765899,863589,330288.50,766029.94,863560.63
331167,765032,863252,330590.50,766161.44,863628.75
328750,764134,862500,330858.94,766270.38,863685.25
327830,763564,862197,331083.19,766352.13,863727.19
326987,763012,861956,331257.50,766404.00,863753.19
325300,762503,861754,331379.00,766425.00,863763.00
324832,762318,861622,331444.78,766415.44,863757.13
324483,762122,861490,331455.06,766377.00,863736.31
322995,761883,861756,331413.06,766311.75,863701.50
323302,761539,861381,331321.56,766221.38,863654.06
323286,761390,861180,331183.50,766107.63,863595.19
323039,761372,861206,331003.44,765973.00,863525.88
322929,761503,861236,330786.50,765820.75,863447.63
323066,761374,861121,330537.91,765654.25,863362.00
323115,761489,861215,330263.63,765476.44,863270.44
323780,762019,861590,329969.50,765290.75,863175.06
324226,762243,861542,329662.31,765101.63,863078.50
324874,762518,861618,329350.91,764913.63,862982.25
325149,762672,862448,329042.56,764729.88,862887.63
326008,762966,862149,328742.97,764552.81,862796.63
326495,763196,862123,328457.81,764384.88,862711.00
326686,763264,862125,328191.19,764227.50,862631.19
326897,763714,862432,327943.97,764082.31,862557.56
327232,763538,862293,327716.63,763950.13,862490.88
327514,763566,862202,327511.41,763830.75,862430.63
327729,764067,862389,327330.19,763723.63,862376.00
328166,764051,862480,327173.50,763629.31,862327.00
328461,764191,862650,327042.25,763548.81,862284.81
328753,764328,862685,326936.69,763482.44,862249.94
329353,764676,862899,326855.69,763430.44,862222.69
329699,764699,863047,326798.50,763393.00,862203.38
330046,764875,863043,326767.47,763369.88,862192.31
330222,765516,863354,326764.06,763360.75,862189.00
331067,765665,863520,326788.06,763366.63,862193.63
331408,765780,863375,326839.91,763388.00,862206.56
331763,765779,863755,326919.09,763424.13,862227.25
332378,766427,863765,327024.94,763474.50,862255.50
332804,766562,863874,327157.13,763539.63,862291.38
333200,766633,864000,327315.13,763619.06,862334.75
333520,766916,864233,327497.06,763711.13,862385.38
333801,766942,864001,327700.88,763814.38,862442.75
334199,767187,864167,327925.25,763928.38,862505.44
334361,767106,864651,328168.75,764052.25,862573.13
334866,767469,864496,328429.69,764184.75,862645.88
335129,767579,864449,328706.63,764325.25,862723.38
335535,767686,864618,328998.34,764473.13,862804.81
335966,767966,864788,329302.78,764627.38,862890.00
336296,768218,864701,329618.13,764788.00,862978.63
336546,768094,864883,329944.31,764954.13,863070.00
336758,768635,864966,330280.44,765124.56,863163.63
337130,768488,864919,330624.81,765298.38,863259.13
336984,768321,864968,330975.50,765474.75,863355.63
336868,768018,864787,331329.06,765650.88,863452.25
335528,767134,864211,331679.56,765822.69,863546.63
334793,766428,863917,332018.50,765984.25,863635.25
333585,765841,863530,332337.25,766130.25,863715.38
331296,764664,863227,332628.22,766256.88,863784.88
330563,764155,862765,332883.06,766359.75,863841.75
329609,763622,862640,333093.06,766435.19,863884.63
328966,763377,862283,333253.50,766481.75,863913.31
327838,762883,862190,333362.94,766499.75,863927.94
327431,762759,862119,333420.38,766489.75,863928.56
327110,762391,862016,333427.44,766453.25,863915.75
326463,762354,862279,333387.16,766391.88,863891.31
326218,762036,861819,333302.16,766307.63,863856.63
326122,762019,861732,333175.88,766202.44,863811.75
326179,762003,861948,333013.00,766079.06,863757.06
326161,762253,861852,332819.16,765940.75,863694.25
326520,762187,861989,332600.00,765791.19,863625.38
