158034,805307,662649,157821.44,807480.88,663730.25
157566,803844,661988,157920.58,807650.44,663796
157132,802523,661661,158005.56,807773.38,663841.25
156464,801995,661276,158073.75,807846.5,663864.63
156176,801753,661143,158122.88,807869.75,663866.5
156016,801621,661129,158152.23,807845.63,663848.5
155712,801826,661211,158161.73,807779.38,663812.88
155737,801901,661192,158151.78,807677.19,663762.19
155750,802234,661424,158124.78,807545.19,663699.06
155613,802946,661806,158083.22,807389.88,663626.38
155966,803082,661804,158029.16,807218,663546.88
156170,803264,662001,157965.97,807035.38,663463.63
156314,803729,662324,157896.95,806847.13,663379.5
156586,804661,662539,157824.69,806659,663296.81
156759,805191,662720,157751.66,806477.56,663218
157071,805818,662895,157680.19,806308.13,663144.69
157038,806831,663540,157612.09,806155.19,663079.06
157517,807212,663633,157548.94,806022.88,663023.5
157789,807583,663616,157492.66,805914.13,662978.75
157845,808091,663929,157444.77,805829.81,662944.13
158051,807863,663823,157405.69,805769,662919.5
158115,807909,663837,157375.64,805730.38,662904.25
158073,807927,663829,157354.34,805712.19,662897.63
158023,807866,663855,157340.84,805712.19,662898.63
158123,807770,663794,157334.31,805727.88,662906.38
158208,807910,663826,157334.34,805757,662919.88
158137,808012,664077,157340.48,805798.19,662938.25
158419,808176,663984,157352.38,805850.25,662961
158303,808177,663838,157369.97,805912.75,662987.94
158482,808307,663865,157392.84,805984.63,663018.25
158707,809146,664272,157420.41,806066.38,663051.88
158845,809258,664257,157452.66,806159.81,663089.63
158881,809552,664349,157490.41,806265.25,663131.75
159043,810543,664598,157533.69,806382.75,663177.75
159109,810295,664672,157581.78,806513,663227.81
159337,810721,664780,157635.25,806656.06,663282.25
159602,811020,665218,157694.94,806811.88,663341.5
159711,811558,665204,157761.31,806980.56,663405.75
159921,811794,665205,157834.38,807162.5,663475.19
160089,811982,665240,157914.03,807356.81,663549.25
160183,812739,665917,158000.22,807562.75,663628.13
160579,813207,665852,158093.03,807780.94,663713.25
160736,813390,666018,158192.78,808012.19,663804.38
160831,813998,666280,158299.34,808255.75,663900.63
160929,814130,666088,158411.94,808510.75,664001.13
161087,813936,666097,158529.86,808775.75,664104.88
160718,813187,665647,158651.69,809046.31,664210.25
159727,809168,664162,158774.75,809309.5,664311.88
158922,806657,663062,158893.75,809543.63,664401.13
158186,804929,662230,159000.69,809730.5,664470.63
157691,803462,661827,159089.55,809861.69,664516.31
156993,802759,661303,159157.39,809933.63,664536.5
156900,802713,661336,159202.56,809946.63,664531.69
156698,802626,661251,159225.39,809905.13,664503.81
156524,802621,661360,159226.91,809815.31,664455.75
156526,802825,661516,159208.41,809683.75,664390.81
156600,803152,661613,159172.39,809517.75,664312.31
156712,804155,661888,159121.67,809324.63,664223.31
156954,804208,662022,159059.17,809112.38,664126.75
157012,804493,662013,158988.09,808888.44,664025.56
157117,804967,662580,158910.97,808659,663922
157389,806114,662866,158830.09,808430.63,663819.38
157786,806747,663065,158748.38,808211.13,663721.06
157934,807254,663352,158668.75,808006.38,663629.69
158252,808465,663844,158593.3,807820.5,663547.38
158468,808688,663844,158523.86,807657.31,663476
158550,809013,664019,158461.81,807520,663415.94
158807,809320,664274,158408,807409.5,663367.19
158910,809269,664185,158363.16,807324.88,663329.5
158877,809151,664124,158327.3,807264.13,663302.19
158855,809095,664206,158299.69,807224.44,663284.31
158935,808905,664051,158279.59,807202.88,663274.88
158858,808883,664019,158266.41,807196.63,663272.44
158871,808878,664038,158259.3,807203.38,663275.88
158946,809344,664144,158257.59,807221.88,663284.5
158993,809169,664143,158261.08,807251,663298
159076,809236,664129,158269.59,807290.38,663315.88
159171,809498,664184,158283.02,807339.81,663337.75
159498,809858,664365,158301.38,807399.38,663363.5
159627,810170,664403,158325.13,807469.88,663393.25
159623,810337,664471,158354.97,807551.56,663427
159792,811365,664731,158390.89,807644.63,663464.38
160075,811223,664842,158433.06,807749.63,663505.69
160229,811410,664814,158482.09,807867.38,663551.38
160333,811663,665352,158538.05,807997.25,663601.38
160497,812200,665287,158600.69,808139.25,663656.25
160635,812376,665298,158669.81,808293.69,663716.13
160729,812645,665478,158745.13,808460,663780.88
160877,813335,665606,158826.19,808637.63,663850.38
161036,813468,665720,158912.72,808826.63,663924.5
161335,813659,665877,159004.84,809026.88,664003.13
161321,814232,666283,159102.66,809237.44,664085.75
161607,814419,666139,159205.78,809457.75,664172
161549,814555,666154,159313.75,809687.63,664261.81
161561,814162,665959,159425.53,809925.19,664354.63
160774,811296,664686,159539.25,810165.5,664446.38
159868,808582,663520,159650.2,810394.38,664529.25
159180,806417,662734,159751,810588.25,664595.75
158754,804348,661952,159836.3,810730.38,664641.13
157787,803565,661458,159902.69,810814.13,664662.5
157598,803268,661349,159947.22,810837.13,664658.94
157362,803066,661200,159969.27,810802.25,664631.5
157271,803272,661413,159969.78,810715.5,664582.75
156992,803249,661386,159949.86,810584.13,664516.13
157174,803598,661570,159911.33,810415.25,664434.88
157033,804262,661971,159857.09,810216.13,664341.94
157372,804558,661978,159790.22,809994.88,664240.75
157587,805014,662050,159713.64,809759.38,664134.38
157702,805317,662360,159630.31,809516.5,664025.5
158027,806385,662617,159543.02,809272.81,663916.63
158289,806894,662989,159454.75,809035.5,663811.13
158538,807506,663207,159368.31,808810.56,663711.63
158922,808839,663807,159285.69,808602.5,663620.88
159146,809057,663949,159208.91,808415.81,663541.25
159273,809328,663987,159140.03,808254.56,663473.75
159296,809488,664302,159080.02,808119.88,663417.88
159397,809548,664001,159028.75,808010.81,663373
159228,809499,663996,158985.72,807925.56,663337.88
159365,809394,663910,158950.05,807861.75,663311.63
159365,809296,664017,158920.88,807817.13,663293.25
159324,809149,663929,158897.31,807789.75,663281.94
159401,809180,663937,158879.38,807776.38,663276.88
159371,809490,664017,158867.16,807774.75,663277.19
159514,809486,664046,158860.41,807783.88,663282.44
159549,809489,664023,158859,807803.75,663292.44
159606,809628,664103,158862.84,807833.88,663306.75
159749,810046,664223,158871.48,807874.19,663325.38
159930,810323,664349,158884.88,807925.38,663348.25
159949,810438,664379,158903.7,807987.88,663375.63
159900,810972,664763,158928.16,808061.25,663407.13
160294,811230,664682,158958.31,808146.13,663442.75
160511,811570,664762,158994.69,808243.31,663482.88
160637,811843,665074,159037.72,808353.38,663527.81
160860,812392,665038,159087.59,808476.5,663577.81
161046,812544,665230,159144.52,808613.13,663632.88
161190,812808,665394,159208.59,808762.63,663693.13
161260,813461,665610,159279.45,808924.31,663758.75
161496,813663,665637,159356.67,809098.13,663830
161674,813828,665754,159440.33,809284.25,663906.25
161748,814005,666191,159530.31,809481.88,663986.88
161807,814506,666233,159625.97,809689.88,664072.25
162022,814773,666234,159726.63,809908.38,664162.56
162091,814619,666031,159832,810136,664257.06
161436,811892,664868,159940.66,810368.88,664351.75
160532,809454,663743,160047.86,810593.75,664439.13
159761,807213,662938,160146.69,810788.13,664511.69
159152,805051,661780,160231.41,810934.69,664564.13
158354,804237,661623,160297.95,811025.63,664592.88
158139,803941,661326,160343.53,811058.38,664596.75
157928,803577,661329,160367.66,811035,664576.88
157549,803544,661348,160370.38,810960.38,664535.5
157523,803613,661421,160351.97,810840.44,664475.81
157552,803835,661469,160314.69,810682,664400.63
157457,804447,661810,160261.47,810491.88,664313
157731,804524,661885,160194.91,810277.19,664216.13
157873,804971,662005,160118,810045.5,664113.19
157936,805463,662350,160033.53,809803.94,664007.13
158406,806148,662541,159944.38,809559.25,663900.63
158539,806622,662737,159853.8,809318,663796.56
158642,807224,662984,159764.16,809085.5,663697
159166,808483,663799,159677.06,808867,663604.88
159310,808788,663837,159594.67,808667.88,663523.63
159454,809253,663881,159519.31,808492.5,663454.19
159565,809532,664432,159452.25,808342.88,663396.19
159807,810000,664240,159394.13,808219.88,663349.75
159855,810047,664214,159345.48,808123.63,663314.88
160034,810102,664155,159306.52,808052.69,663290.5
159770,810099,664186,159276.88,808005.5,663275.5
159951,809978,664203,159255.69,807980,663269
159909,809924,664103,159241.91,807972.75,663269.75
160014,810260,664307,159234.91,807980.63,663276.94
160051,810029,664206,159234.28,808002.19,663289.69
160126,810224,664228,159239.78,808036.25,663307.63
160255,810468,664379,159251.22,808082.38,663330.38
160354,810752,664502,159267.94,808140.63,663358.13
160617,811139,664694,159289.7,808211.38,663391.06
160589,811359,664741,159317.44,808294.88,663429.38
160856,811960,664976,159351.75,808391,663473
161052,812281,665101,159392.91,808499.88,663521.88
161158,812499,665081,159441.19,808622.63,663576.25
161252,812826,665491,159496.34,808759.63,663635.63
161624,813579,665613,159558.41,808911,663700.63
161662,813638,665604,159627.66,809077.5,663771.38
161810,813990,665725,159703.91,809258.38,663847.5
162026,814538,666330,159786.59,809452.75,663929.38
162189,814643,666037,159875.63,809660,664017.44
162288,814969,666215,159970.91,809879.5,664110.88
162384,815118,666520,160071.94,810110.13,664208.5
162423,815596,666344,160177.94,810351,664309.69
162593,815576,666436,160288.19,810601.06,664414
162685,815886,666450,160402.22,810858.88,664520.63
162615,816309,666707,160519.41,811123.5,664629.38
162873,816432,666644,160639.02,811394.81,664740
163105,816586,666747,160761.03,811671.38,664851.88
162985,817142,666800,160885.22,811951.5,664964.44
163187,816840,666898,161010.81,812233.75,665077.38
163140,816458,666701,161137.16,812515.63,665189.88
162935,815623,666327,161263.03,812792.56,665299.94
161586,810810,664353,161385.78,813050.44,665401.63
160577,808118,663035,161499.22,813265.63,665485
159835,806268,662436,161594.58,813419.38,665541.94
159039,804935,661829,161666.41,813504.75,665569.81
158918,804567,661728,161713.06,813521.06,665568.63
158690,804482,661634,161734.22,813471.44,665539.81
158516,804457,662003,161730.75,813361.94,665486
158551,804586,661825,161704.52,813200.5,665410.56
158491,805034,661920,161658.13,812995.44,665317.5
158575,805261,662132,161594.25,812755.75,665210.75
158795,806062,662762,161515.72,812490.25,665094
158900,806351,662575,161425.63,812207.31,664970.94
159090,806776,662810,161327.44,811914.75,664844.81
159117,807163,663255,161224.09,811618.75,664718.38
159631,808295,663374,161118.36,811326.25,664594.13
159885,808822,663558,161013.66,811044.75,664475
160063,809353,663776,160912.81,810780,664363.25
160269,810417,664187,160817.69,810536.63,664260.63
160605,810882,664490,160730.03,810319.25,664169.25
160801,811095,664587,160651.53,810130.81,664090.63
160876,811620,664751,160583.09,809971.56,664024.88
160897,811456,664665,160524.73,809840.75,663971.31
160936,811497,664598,160475.97,809736.94,663929
160988,811394,664640,160436.31,809657.88,663896.75
160987,811322,664699,160405.34,809600.94,663873.75
160902,811475,664601,160382.28,809563.63,663859.25
160905,811272,664698,160366,809544.13,663852.19
161055,811659,664723,160355.78,809540.25,663851.88
161128,811595,664709,160351.63,809550.81,663857.75
161240,811776,664852,160353.66,809575.19,663869.25
161396,811898,665388,160362,809612.69,663886.5
161567,812371,665239,160376.97,809663.13,663909.75
161687,812647,665245,160398.78,809727.13,663939.38
161743,812970,665376,160427.34,809805.13,663975.38
162000,813657,665779,160461.81,809897.56,664017.5
162257,813711,665757,160502.03,810005.25,664065.81
162298,814126,665797,160549.22,810128,664120.5
162430,814128,666180,160603.84,810264.88,664180.88
162592,814939,666200,160665.48,810415.38,664246.56
162698,815082,666132,160733.88,810580.13,664317.88
162816,815371,666261,160808.66,810758.75,664394.44
163085,816108,666482,160889.28,810950.88,664475.88
163233,816300,666561,160975.64,811156.88,664562.13
163323,816555,666734,161067.94,811376.38,664653.13
163377,816807,667048,161165.86,811607.75,664748.38
163437,817067,667027,161268.47,811849.5,664847.69
163706,817137,667113,161375.3,812100.5,664951.06
163672,817348,667044,161486.09,812359.25,665057.75
163705,817594,667183,161600,812624.13,665166.88
163754,817568,667213,161715.92,812893.88,665277.75
163951,817765,667298,161833.41,813166.63,665389.88
163909,817967,667476,161952.16,813440.63,665502.75
163893,818158,667408,162071.3,813714.75,665615.75
163999,818232,667400,162190.02,813988.75,665728.56
164138,818298,667439,162308.11,814261.56,665840.5
164139,818298,667517,162425.48,814531.81,665951
164119,817756,667288,162541.59,814797,666059.5
163950,816908,666841,162655.36,815052.13,666163.88
162300,812180,664865,162764.09,815289.13,666260.31
161313,809168,663647,162860.94,815489.5,666341
160722,807511,662950,162937.34,815628,666395.69
160230,806585,662499,162988.78,815692.25,666419.38
159726,805812,662270,163013.98,815682.63,666412.25
159689,805760,662234,163013.02,815603.13,666376.19
159643,805832,662346,162987.84,815461.25,666314.31
159685,806397,662448,162941.22,815266.38,666230.69
159757,806575,662679,162876.16,815028.31,666129.38
159893,807124,662853,162795.94,814756.88,666014.63
160031,807903,663431,162703.91,814461.06,665890.38
160354,808392,663541,162603.45,814149.88,665760.88
160554,808971,663732,162498.09,813832.38,665629.88
160788,809537,663896,162390.94,813516.63,665500.25
161080,810592,664285,162284.25,813209.63,665374.5
161296,811158,664653,162180.22,812918.5,665255.5
161453,811751,664802,162081.34,812648.81,665145.63
161850,812783,665522,161989.78,812403.88,665046.5
162084,813014,665424,161907.41,812187,664959.44
162189,813200,665460,161835.63,812000.56,664885.5
162228,813318,665552,161774.72,811844.63,664824.5
162421,813634,665700,161724.56,811718,664776.13
162515,813688,665748,161685.17,811619.88,664740
162542,813710,665748,161656.38,811548.25,664715.38
162329,814106,665964,161636.66,811501.25,664701.63
162586,813860,665745,161624.58,811477.19,664697.94
162583,813751,665737,161620.16,811473.38,664702.75
162556,813749,666010,161623.25,811486.75,664714.5
162902,814226,666010,161633.5,811516.13,664732.56
163017,814222,665990,161651.38,811560.94,664757.25
163018,814367,666103,161676.97,811620.25,664788.38
163238,814967,666358,161709.23,811692.94,664825.75
163345,815085,666285,161747.64,811779,664869.31
163496,815534,666401,161792.78,811879.25,664918.5
163632,816034,666762,161845.05,811994,664972.75
163789,816252,666757,161904.31,812123.13,665032.25
164028,816548,666940,161970.55,812266.94,665097.38
164055,816683,667028,162043.69,812424.88,665168.13
164152,817268,667264,162123.09,812596.38,665244.5
164279,817317,667324,162208.09,812780.88,665326.44
164409,817554,667335,162298.28,812977.25,665413.25
164530,818139,667616,162393.3,813184,665504.19
164531,818245,667646,162492.47,813400.25,665598.75
164671,818327,667514,162595.16,813625.63,665696.63
164708,818602,667745,162700.78,813859.44,665796.94
164911,818826,667960,162809.03,814100.38,665899.75
164907,818898,667905,162919.59,814347.38,666005
164956,818974,667977,163031.81,814598.69,666112.13
164599,819611,668329,163144.38,814853.25,666220.75
165017,819427,668186,163256.09,815110.81,666331.38
165149,819407,668167,163367.25,815369.75,666442.88
165248,819642,668185,163478.33,815628.38,666554.13
165375,819892,668244,163589.39,815886.13,666664.75
165290,819873,668324,163700.09,816142.38,666774.06
165290,819978,668296,163809.63,816396.13,666881.75
165167,819989,668237,163916.31,816646.31,666987.06
165444,819617,667968,164019.09,816891.25,667088.75
165254,818577,667585,164118.78,817126.38,667184.88
164899,814236,665898,164214.78,817343.06,667271.81
162919,811570,664655,164301.55,817523.88,667342.63
162192,809795,663877,164370.31,817646,667388
161724,808662,663363,164415.58,817697.69,667402.88
161327,807945,663280,164436.2,817677.88,667387.25
161375,807889,663208,164432.97,817590.38,667343.38
161204,808118,663261,164407.58,817442.75,667274.69
161272,808946,663847,164362.16,817244.38,667184.75
161635,809254,664038,164299.98,817005.63,667078.63
161832,809876,664133,164225.28,816737.75,666961.75
161837,810502,664317,164141.48,816451.06,666837.88
162266,811994,664808,164050.52,816156.13,666710.75
162509,812662,665119,163955,815863.75,666584.19
162729,813341,665428,163859.16,815582.19,666461.75
162863,815274,666455,163766.03,815317.75,666346.25
163448,815469,666355,163677.88,815077.13,666240.88
163683,815899,666474,163597.63,814866.25,666148
163931,816253,666847,163527.44,814687.44,666068.5
164133,816962,666973,163468.36,814541.75,666002.63
164217,817006,666940,163420.84,814429.63,665950.94
164274,816962,666907,163384.69,814349.31,665912.5
164064,816922,667052,163358.5,814297.75,665886.13
164331,816859,666951,163340.81,814271.63,665871
164466,816772,666813,163331.94,814267.75,665865.38
164471,816940,666817,163332.16,814282.63,665867.75
164407,816608,666693,163340.56,814313.38,665876.88
164538,816607,666775,163356.13,814357.5,665891.31
164537,816660,666747,163378.28,814413,665910.38
164558,816801,666861,163406.13,814478.56,665933.5
164676,817004,666948,163438.91,814553.63,665960.75
164736,817149,666870,163476.58,814637.63,665991.63
164811,817684,667274,163519.06,814730.5,666026
165021,817798,667236,163566.28,814832.44,666064.25
165046,817960,667220,163618.27,814943.81,666106.44
165195,818194,667346,163674.83,815064.31,666152
165221,818515,667446,163735.05,815193.75,666201
165383,818698,667691,163798.13,815332,666253.5
165455,818796,667661,163864.63,815478.5,666309.94
165236,819489,668004,163934.36,815632.81,666369.5
165432,819302,667762,164006.02,815794.75,666431.31
165543,819449,667789,164079.47,815963.63,666495.25
165629,819497,668037,164154.95,816138,666561.31
165728,819801,667900,164232.41,816316.88,666629
165760,819863,668011,164311.59,816499.88,666698.13
165840,819998,668208,164392.19,816686.25,666768.94
165439,820369,668433,164473.59,816875.25,666842
165818,820297,668261,164555.08,817066.5,666917.5
165868,820254,668161,164636.22,817258.94,666994.06
165918,819827,667992,164716.84,817450.5,667070.19
165760,818697,667339,164796.44,817636.63,667143.5
165502,816681,666685,164873.56,817807.44,667209.75
164570,814335,665610,164945,817949.38,667263.63
162651,810148,663807,165004.8,818044.88,667297.88
162388,809271,663485,165045.91,818077.5,667305.19
162087,808823,663455,165063.94,818042.63,667284.25
161957,808713,663601,165058.41,817945.06,667237.81
161855,808881,663411,165030.88,817792,667169
161948,808941,663549,164983.69,817591.5,667081
162005,809449,663741,164919.75,817352.13,666977.63
162206,810264,664066,164841.44,817083.5,666863
162496,810946,664222,164751.55,816796.25,666741
162761,811585,664522,164654.83,816499.88,666615.13
163067,813224,665195,164554.86,816202.75,666488.88
163317,813745,665447,164454,815914.06,666366.06
163635,814365,665730,164355.95,815642.31,666250.44
163663,814855,666229,164263.59,815392.75,666144.13
164098,816126,666346,164178.42,815170,666048.5
164375,816499,666533,164102.34,814978.75,665965.5
164517,816821,666723,164036.95,814821,665896.5
164407,817203,666995,163982.66,814696.56,665841.75
164807,817249,666797,163939.48,814604.75,665800.94
164857,817121,666900,163907.45,814542.75,665772.75
165021,817336,666828,163886.34,814507.25,665755.81
164981,817050,666824,163875.63,814495,665748.81
164974,816973,666792,163874.31,814502.88,665750.38
164887,816925,666679,163881.06,814527.88,665759.38
165173,817136,666896,163894.78,814568,665774.5
165202,817142,666875,163915.28,814621.88,665795.75
165261,817294,666871,163942.56,814688,665822.38
165269,818051,667404,163976.2,814765.63,665853.75
165399,817930,667110,164015.59,814854.63,665889.69
165506,817963,667131,164060.42,814955.06,665930.19
165518,818024,667146,164110.42,815065.75,665974.69
165669,818756,667284,164165.06,815186.25,666022.75
165779,818765,667369,164224.09,815317.5,666074.38
165860,818974,667436,164287.5,815459,666129.38
165952,819689,667640,164354.72,815609.75,666187.69
165916,819417,667697,164425.02,815769.38,666249.56
166178,819758,667751,164498.25,815937.44,666314.75
166127,819854,667985,164574.61,816113.25,666382.94
166075,820130,667940,164653.38,816296.13,666453.75
166247,820256,668077,164733.72,816485.38,666527.25
166325,820467,668069,164815.53,816680.25,666603.19
166313,820860,668366,164898.78,816880,666681.56
166418,820569,668206,164983.13,817083.69,666762.25
166410,820121,667911,165068,817288.5,666843.75
166215,817439,666890,165152.39,817489,666923.38
165170,814979,665871,165233.11,817672.44,666995.75
164161,812630,664767,165303.97,817818.06,667052.38
163402,810748,664135,165358.63,817909.5,667086.5
162656,809100,663400,165393.03,817939.63,667094.88
162456,808850,663426,165405.25,817906.69,667076.69
162420,808864,663452,165395.2,817813.13,667033.88
162354,809530,663897,165364.53,817665.31,666970
162302,809600,663799,165315.44,817472.19,666888.75
162540,809831,663869,165250.61,817243.44,666794.06
162715,810268,664061,165173.44,816987.63,666689.25
162939,811058,664385,165086.95,816713.38,666577.75
163137,811569,664679,164993.97,816429.25,666463.25
163284,812033,664755,164897.78,816142.94,666348.69
163641,813438,665459,164801.16,815860.38,666236.25
163914,813966,665574,164706.72,815588.88,666128.5
164207,814456,665788,164617.3,815335.88,666028.69
164252,814789,666202,164534.91,815105.88,665938.75
164611,815753,666190,164460.72,814901.63,665859.5
164745,815830,666271,164395.89,814726,665791.69
164880,816180,666529,164341.23,814579.5,665735.63
165111,816745,666721,164296.56,814461.88,665691.94
165183,816521,666589,164261.72,814372.56,665660.25
165170,816606,666592,164237.02,814309.63,665639.25
165093,816493,666916,164221.91,814270.69,665627.94
165139,816379,666595,164215.19,814253,665625.25
165057,816363,666690,164215.77,814253.25,665630.38
165159,816485,666686,164222.77,814269.13,665642.44
165225,816589,666690,164235.06,814299.81,665660.75
165394,816842,666730,164252.06,814344.75,665684.5
165513,816913,666695,164274.66,814402.88,665712.94
165549,817665,667143,164303.5,814472.75,665745.56
165611,817578,667158,164338.14,814554.13,665782.56
165809,817728,667106,164378.28,814647.38,665824.63
165974,817965,667180,164424.09,814752.44,665871.38
166160,818475,667438,164475.75,814869.13,665922.5
166291,818717,667605,164533.19,814998,665978.5
166272,819002,667574,164596.27,815139.13,666039.5
166146,819479,667863,164664.39,815291.69,666104.69
166450,819523,667800,164736.91,815455,666173.5
166622,819685,667879,164813.56,815628.56,666246
166713,819867,668124,164894.31,815811.5,666321.94
166823,820280,668117,164978.94,816003,666401.13
166805,820458,668023,165066.89,816203,666483.13
166837,820577,668113,165157.34,816410.5,666567.13
166936,820971,668484,165249.47,816624.13,666653.13
166953,820917,668367,165342.75,816842.38,666741.56
167086,821043,668420,165436.94,817064.56,666831.81
167047,821125,668676,165531.86,817289.75,666922.75
167127,820691,668239,165626.94,817515.63,667013.19
166964,819714,667831,165721.41,817737.25,667101.38
166416,817853,666980,165813.19,817945.75,667183.63
164424,812776,664999,165897.63,818128.31,667252.75
163808,810915,664144,165967.22,818266.31,667299.25
163437,810027,663771,166014.97,818341.19,667318.13
163161,809641,663717,166038.42,818347.13,667309.38
162652,809221,663509,166037.64,818287.94,667274.81
162682,809218,663497,166013.17,818169.81,667217
162597,809397,663643,165967,818000.38,667139.13
162730,809891,663835,165901.52,817788.5,667044.81
162900,810258,664032,165819.66,817543.5,666938.06
162989,810537,664093,165725.41,817273.69,666822.38
162919,811291,664619,165622.28,816986.75,666700.75
163427,811876,664714,165513.28,816690.81,666576.63
163585,812279,664859,165401.55,816393.63,666453.13
163511,812853,665467,165289.2,816101.56,666332.81
164119,814022,665492,165178.27,815821,666218.19
164358,814381,665748,165071.91,815558.75,666111.5
164497,814864,665946,164972.61,815318.88,666014.63
164840,815718,666345,164881.56,815103.75,665929
164865,815874,666247,164799.72,814915.81,665855.5
165054,815959,666344,164727.97,814756.06,665793.81
165125,815970,666601,164666.81,814623.75,665743.25
165090,816001,666413,164615.97,814516.75,665703.13
165057,815884,666213,164574.55,814433,665672.5
165153,815943,666433,164541.75,814369.88,665650.13
165117,816103,666417,164516.75,814326.13,665635.75
165140,816033,666305,164498.59,814300.5,665628.5
165190,816044,666266,164487.05,814290.88,665627.19
165372,816529,666690,164482.22,814295.25,665631.19
165363,816487,666608,164484.14,814313,665640.69
165477,816633,666618,164492.47,814344,665655.94
165619,816819,666617,164507.09,814388.25,665676.38
165638,817231,666769,164526.94,814445.56,665701.63
165813,817439,666915,164550.97,814516.13,665731.75
165940,817620,666878,164580.38,814599.81,665766.56
166004,818188,667320,164616.17,814695.88,665805.63
166286,818413,667208,164658.41,814804.38,665848.63
166458,818635,667385,164707.42,814925.88,665896.44
166446,818865,667604,164763.17,815060.38,665949.25
166571,819305,667592,164824.94,815207.19,666006.75
166680,819395,667626,164892.22,815366.19,666068.75
166686,819496,667581,164964.5,815536.06,666134.81
166800,820095,668067,165041.16,815715.56,666204.69
166964,820092,668032,165121.97,815904.25,666279
167037,820308,668014,165206.69,816101.5,666357.5
167225,820498,668381,165295.09,816306.38,666439.13
167175,820799,668289,165386.8,816518.13,666523.69
167170,820830,668130,165480.92,816735.88,666610.75
167235,820751,668144,165576.5,816957.75,666699
166795,819420,667474,165672.75,817181.5,666786.25
166468,817178,666666,165767.52,817398.38,666868
165426,814700,665663,165855.66,817590.19,666938.38
164531,811226,664222,165930.59,817738.81,666991.38
163586,810251,663794,165986.42,817831.44,667021.75
163306,809696,663590,166019.38,817860.75,667026.44
163159,809552,663571,166028.84,817827.63,667005.75
162948,809488,663577,166015.59,817738.06,666962.38
163071,809788,663660,165981.09,817599.25,666899.5
163012,809983,663961,165928.53,817419.38,666820.63
163188,810782,664170,165861.03,817206.25,666729.5
163319,810915,664224,165781.47,816967.75,666629.13
163424,811362,664357,165693,816712.5,666522.63
163547,811669,664940,165598.34,816447.75,666412.69
163997,812752,664966,165500.36,816180.5,666302.19
164094,813271,665155,165402.22,815918.5,666194.38
164358,813849,665322,165306.34,815667.94,666091.5
164627,814957,665972,165214.69,815433.81,665995.75
164902,815291,666094,165129.34,815221,665909.56
165060,815655,666094,165052.03,815033.13,665834.38
165138,815712,666547,164983.72,814871.25,665769.88
165216,815894,666137,164924.53,814734.75,665715.5
165316,815915,666146,164874.45,814622.38,665670.63
165262,815950,666166,164833.2,814532.75,665634.5
165150,815766,666180,164799.97,814464.25,665606.44
165184,815714,666182,164773.75,814415.13,665585.88
165254,815905,666224,164753.81,814382.38,665572.13
165282,816059,666201,164739.78,814364.13,665564.63
165352,816007,666335,164731.47,814359.38,665562.75
165405,816066,666240,164728.63,814366.94,665566.31
165492,816197,666241,164731.13,814386.19,665574.5
165729,816704,666469,164738.78,814417.13,665587.06
165600,816960,666503,164751.34,814460.69,665604.25
165753,817011,666514,164768.8,814517,665625.88
166088,817764,666854,164791.25,814585.38,665651.81
166297,817774,666900,164819.41,814665.63,665682.38
166306,817895,666934,164854.25,814758.63,665718.06
166267,818103,667454,164895.53,814863.75,665758.56
166545,818522,667274,164942.59,814980.63,665804
166664,818876,667417,164995.56,815109.63,665854.81
166667,818936,667396,165054.31,815250.5,665910.75
166777,819696,667898,165117.58,815402.81,665971.5
166950,819699,667687,165184.48,815566.81,666037
167047,819810,667650,165255.72,815741.81,666106.75
167134,819885,668111,165331.69,815925.94,666179.75
167232,820489,668143,165411.97,816118.44,666256.25
167353,820440,667998,165496.19,816319.13,666336.63
167316,820661,667994,165583.81,816527,666419.94
167327,820866,668175,165673.97,816741,666505.38
167465,820866,668143,165765.91,816960.31,666592.63
167486,820596,668019,165859.31,817182.31,666680.75
167383,817868,666942,165953.44,817402.13,666767.75
165798,815311,665855,166044.28,817606.75,666848.38
164936,813108,664929,166124,817774.56,666913.88
164295,811453,664189,166186.06,817889.5,666957.44
163522,810019,663677,166227.52,817944.38,666976.13
163448,809847,663726,166247.06,817937.06,666969.5
163349,809576,663647,166244.5,817871.25,666939.63
163258,809703,663723,166221.09,817753.38,666889.56
163200,810193,663850,166178.83,817591.63,666822.25
163207,810217,664030,166119.84,817393.94,666741.19
163408,810572,664171,166046.84,817167.56,666649.75
163551,811284,664472,165962.97,816920.13,666551.13
163688,811826,664471,165871.28,816660.19,666448.38
163913,812290,664676,165774.55,816395.25,666343.63
164091,813801,665399,165674.84,816132.25,666239.38
164370,814021,665314,165574.22,815878.75,666138.88
164580,814488,665579,165475.88,815640.88,666044.31
164898,814861,666022,165382.69,815422.25,665957.25
165168,815490,666129,165296.81,815225.63,665879.38
165255,815726,666235,165219.72,815053.25,665811.88
165246,815754,666212,165151.75,814905.63,665755.19
165257,815656,666154,165092.44,814781.88,665708.44
165218,815489,666201,165041.17,814679.88,665670.63
165186,815397,666074,164997.19,814596.5,665640.88
165134,815349,666132,164959.72,814528.88,665617.63
164907,815127,665960,164927.61,814474.94,665599.69
165155,815101,665890,164899.97,814432.5,665586.25
165143,815255,665941,164876.97,814400.38,665576.81
165265,815426,666105,164858.77,814378.19,665571.38
165245,815531,666024,164845.22,814366.25,665569.88
165446,815691,666209,164836.5,814364.25,665572.5
165533,816362,666440,164833,814372.5,665579.25
165576,816276,666235,164834.78,814391.63,665590.25
165839,816530,666531,164842.13,814422.13,665605.5
165901,816773,666520,164855.55,814464.5,665625.06
166127,817231,666753,164875.34,814519.25,665649.38
166251,817392,666761,164901.78,814586.88,665678.5
166155,817509,666760,164934.59,814667,665712.13
166015,818437,667326,164972.33,814759.25,665750.19
166417,818286,667141,165014.06,814864.31,665793.38
166571,818301,667143,165060.63,814981.69,665841.38
166726,818601,667171,165112.8,815110.13,665893.44
166952,819081,667356,165170.78,815249.38,665949.13
167099,819249,667560,165234.86,815399.75,666008.63
167124,819521,667689,165304.83,815560.88,666072.38
167152,819931,667845,165379.19,815731.88,666140.56
167390,820044,667830,165456.77,815912.38,666212.88
167490,820047,667956,165538.41,816101.38,666288.81
167401,818022,667095,165624.41,816295.94,666367.38
166227,816012,666193,165711.34,816485.38,666444.06
165265,813598,665212,165792.25,816650.94,666510.88
164699,812017,664381,165860.53,816776.25,666560.75
163907,810079,663789,165912.34,816851.38,666589.13
163667,809856,663577,165945.28,816871.25,666594.44
163442,809635,663649,165958.14,816837.5,666577.63
163134,809589,663773,165951.13,816755.31,666540.94
163234,809612,663651,165925.47,816630.5,666487
163157,809861,663717,165882.98,816469.31,666418.44
163212,809991,663731,165825.78,816278.44,666338.13
163297,810543,664065,165755.84,816064.75,666248.63
163420,810909,664159,165675.41,815835.31,666153.25
163510,811135,664250,165587.45,815596.5,666054.5
163307,812574,664911,165494.14,815354,665954.38
163871,812628,664840,165397.31,815114.5,665855.44
163948,813013,664927,165299.83,814884.13,665760.25
164261,813515,665474,165204.34,814667.38,665670.5
164641,814379,665546,165113.25,814468.25,665588.13
164758,814622,665724,165028.92,814290.69,665514.88
164921,814833,665638,164952.59,814136.31,665451.25
165005,815058,665977,164884,814004.75,665397.25
165147,815101,665958,164822.84,813895.19,665353.25
165100,814962,665783,164770.06,813806.5,665318.38
165070,814864,665883,164725.92,813737,665291.44
165062,814836,665801,164689.5,813684.38,665271.31
164989,814749,665718,164659.97,813646.5,665257.25
165030,814751,665742,164636.53,813621.31,665248.38
164956,814909,665816,164618.66,813607.63,665244.31
165150,814985,665881,164606.17,813604.88,665244.88
165294,815204,665907,164599.22,813612.81,665249.94
165378,815499,666380,164598.06,813631.5,665259.38
165566,815864,666230,164603.02,813661.63,665273.38
165608,815818,666243,164614.19,813703.38,665292.44
165708,816194,666249,164631.44,813756.5,665316.13
165818,816521,666420,164653.84,813821.13,665344.25
165922,816662,666483,164680.69,813897.56,665376.69
166006,816868,666657,164712.73,813985.38,665413.69
165810,817828,667069,164750.16,814084.75,665455.13
166205,817724,666922,164792.44,814196.75,665501.13
166401,817711,666913,164839.91,814320.94,665551.56
166463,817923,667167,164892.98,814455.75,665606.13
166740,818378,667167,164951.72,814600.63,665664.25
166798,818525,667301,165016.23,814755.5,665726.31
166874,818687,667338,165086.25,814919.88,665792.5
166768,819117,667594,165160.52,815092.5,665862.56
167243,819450,667567,165238.28,815273.13,665936.63
167312,819671,667798,165320.53,815462.38,666014.38
167383,820192,667972,165407.72,815660,666095.44
167476,820249,667866,165499.19,815865.13,666179.25
167589,820102,668041,165594.42,816077,666265.63
167502,819884,667895,165692.72,816293.38,666354.19
166742,817126,666742,165792.19,816506,666441.88
165802,814635,665620,165888.05,816698.81,666521.44
164894,812365,664766,165972.81,816854.25,666585.63
164309,810184,664106,166040.33,816960.5,666629.44
163671,809463,663643,166087.16,817010.5,666650.19
163295,809004,663424,166111.31,817001.5,666647.06
163126,808954,663345,166112.41,816935.75,666621
162731,808958,663495,166090.67,816819.44,666574.38
162718,808994,663460,166046.69,816659.31,666510.38
162777,809024,663581,165983.17,816461.88,666431.88
162487,809779,663837,165902.86,816234.19,666341.31
162635,809602,663687,165807.47,815983.44,666241.13
162696,809729,663769,165699.75,815715.63,666133.75
162830,809760,663983,165582.84,815435.25,666021.5
162907,810345,664033,165459.38,815147.25,665906.63
163114,810902,664198,165331.95,814857.81,665791.25
163217,811316,664290,165203.06,814573.13,665677.75
163092,811928,664781,165074.59,814298,665568.06
163639,812466,664854,164948.44,814037.13,665464.75
163882,812722,664978,164827.22,813794.56,665369.13
164027,813320,665271,164713.13,813572.56,665281.88
164187,813279,665189,164607.41,813372.38,665203.25
164243,813404,665253,164510.81,813194.63,665133.75
164212,813341,665280,164423.44,813038.88,665073.13
164207,813238,665347,164344.64,812903.5,665021.19
164234,813372,665313,164273.83,812786.94,664977.63
164207,813239,665188,164210.75,812687.88,664941.38
164027,813354,665500,164154.78,812604.69,664911.5
164231,813472,665361,164105.16,812536.38,664887.56
164442,813562,665449,164062.25,812482.75,664869.81
164418,813672,665434,164026.75,812443.25,664858.25
164459,814090,665450,163998.06,812418,664852.25
164607,814338,665529,163975.66,812407.63,664851.38
164760,814559,665552,163960.17,812412.5,664855.5
164800,815508,665902,163951.61,812433.13,664864.56
165000,815307,666020,163949.48,812470.38,664879.13
165114,815571,666055,163954.59,812524.25,664899.81
165336,815809,666492,163967.8,812594,664926.63
165490,816376,666430,163989.34,812679.75,664959.63
165609,816564,666484,164019.27,812781.81,664999.06
165722,816788,666526,164057.31,812899.63,665044.75
165516,817472,666956,164102.88,813032.31,665096.63
165970,817510,666800,164155.5,813179.75,665154.88
166171,817880,666816,164215.14,813341.63,665218.75
166257,818746,667190,164281.91,813517.31,665286.88
166510,818451,667196,164355.59,813705.75,665359.38
166589,818481,667363,164436.08,813906.13,665436.63
166639,818693,667285,164522.83,814116.75,665518.38
166842,818824,667493,164614.97,814336,665604.06
166902,819032,667389,164712,814562.5,665693
166951,819114,667402,164813.44,814794.94,665784.13
166960,819622,667868,164918.56,815031.88,665876.38
167005,819464,667692,165026.36,815272.13,665969.69
167010,819236,667583,165135.91,815514.13,666063.94
167162,819324,667539,165246.61,815755.56,666158.38
167135,819507,667673,165357.86,815995,666252.13
167193,819615,667633,165468.91,816231.88,666345.06
167147,819240,667460,165579.22,816464.88,666436.25
166520,817372,666614,165687.88,816690.69,666524
165748,815077,665797,165791.36,816899.38,666604.25
164763,812759,664952,165882.88,817072.88,666670.06
164177,811075,663885,165956.22,817195.56,666715.63
163286,809326,663575,166007.39,817259,666737.5
163104,808892,663361,166033.94,817259.38,666734.25
162804,808745,663157,166035.73,817199,666706.69
162206,808647,663206,166013.72,817084.13,666656.88
162237,808541,663208,165968.75,816921.13,666587.5
162339,808606,663290,165902.47,816716.44,666501.75
162214,808866,663452,165817.48,816476.44,666402.63
162217,808986,663451,165716.33,816207.94,666292.88
162329,809258,663605,165601.63,815918,666175.38
162249,809415,663721,165476.09,815613.19,666052.75
162480,809918,663920,165342.13,815299.38,665927.63
162517,809948,663961,165202.41,814982,665802.13
162508,810374,664045,165059.25,814665.88,665678
162690,811314,664547,164914.56,814355.13,665556.63
162920,811599,664539,164770.64,814054.94,665440.13
163161,811864,664679,164630.08,813770.75,665330.5
163249,812121,664842,164494.97,813506,665228.88
163497,812643,664950,164366.58,813262.63,665136.31
163510,812708,664969,164245.83,813042.38,665053
163575,812769,665011,164133.66,812845.5,664978.88
163446,813058,664980,164030.14,812670.63,664913.25
163559,812783,664999,163934.86,812516.5,664855.25
163579,812708,665017,163847.8,812381.75,664804.81
163578,812777,665323,163768.94,812265.5,664761.75
163518,812857,665097,163697.81,812166.63,664725.63
163646,812823,665169,163634.06,812084.25,664696.5
163749,813104,665239,163577.84,812017.38,664674.13
163793,813651,665328,163529.36,811966.19,664658.56
163906,813642,665322,163488.63,811930.94,664649.5
164100,813953,665527,163455.84,811912.25,664646.88
164254,814516,665888,163431.56,811910.63,664650.63
164478,814712,665809,163416.28,811926.75,664661
164659,815164,665968,163410.47,811961.25,664678.38
164688,815442,666080,163414.19,812014.81,664703.06
165048,816053,666319,163426.69,812087.69,664735.13
165052,816179,666327,163447.52,812179.88,664774.69
165119,816476,666396,163477.05,812290.63,664821
165293,817355,666850,163515.31,812419.31,664873.5
165391,817364,666770,163561.97,812565.75,664932
165684,817568,666849,163616.91,812729.75,664996.63
165770,817689,666871,163680.13,812909.63,665067.25
166003,818442,667076,163751.25,813104.56,665143
166103,818492,667223,163829.8,813314.44,665223.88
166205,818643,667204,163915.53,813537.75,665309.63
166359,819292,667520,164007.89,813772.19,665399.5
166417,819194,667427,164106.09,814016.31,665493
166454,819285,667485,164209.5,814269.13,665589.69
166674,819556,667631,164317.5,814529.31,665689
166629,819862,667663,164429.63,814795.81,665790.5
166706,819863,667662,164544.91,815067.63,665893.69
166771,820059,667770,164662.45,815342.94,665997.94
166860,820487,667919,164781.59,815620.63,666103
167010,820497,667936,164901.88,815900,666208.81
167127,820668,668008,165023.34,816180.25,666314.88
167280,821164,668409,165146,816460.75,666421.25
167345,820786,668238,165269.72,816740.31,666527.88
167135,820623,667953,165393.63,817016.63,666634
167069,819558,667506,165516,817285.31,666737
165451,815144,665843,165633.77,817538,666831.31
164490,812819,664720,165740,817757.44,666908.38
163861,811307,664118,165826.44,817921.5,666961.25
163469,810056,663950,165888.8,818018.88,666987.75
162931,809590,663646,165925.88,818048.63,666988.06
162838,809312,663526,165937.5,818013.75,666964
162656,809236,663437,165924.92,817919.63,666917.63
162542,809739,663534,165890.16,817774.13,666851.63
162639,809653,663655,165835.58,817585.75,666769.06
162677,810021,663834,165764.03,817362.31,666673.56
162476,810490,664168,165678.31,817110.81,666568.13
162803,810682,664211,165581.09,816838.5,666455.88
162956,811003,664354,165475.08,816552.75,666339.88
162908,811089,664469,165362.72,816259.38,666222.63
163249,811923,664582,165246.28,815963.94,666105.88
163476,812362,664676,165128.66,815672.88,665991.38
163552,812887,664945,165012.47,815391.88,665881
163926,813875,665339,164899.61,815125.75,665777
164155,814127,665583,164792.25,814878.88,665681.69
164135,814227,665652,164692.16,814654.63,665596.5
164219,814461,666072,164599.94,814453.75,665521.63
164361,814626,665838,164515.84,814276.38,665456.75
164330,814681,665779,164440.14,814122.13,665401.94
164443,814598,665721,164372.78,813989.75,665356.25
164389,814568,665596,164312.78,813878.13,665318.5
164254,814458,665646,164258.73,813785.5,665287.5
164387,814491,665736,164210.73,813709.5,665262.88
164438,814766,665912,164169.52,813648,665244.5
164499,814848,665835,164135.11,813600.38,665232.13
164647,814968,665849,164107.56,813567.06,665225.63
164598,814961,665851,164086.84,813547.63,665224.44
164854,815657,666062,164072.58,813542.13,665228.31
164972,815887,666192,164064.94,813551.88,665237.63
165070,816045,666302,164064.53,813577.38,665252.88
164775,816589,666472,164071.44,813618.25,665273.81
165396,816887,666472,164085.63,813674.63,665300.38
165568,817114,666677,164107.53,813747.38,665332.5
165531,817371,666868,164137.16,813836.25,665370.5
165810,817839,666840,164174.09,813940.94,665414.13
165967,818205,666981,164218.44,814061.75,665463.13
166018,818398,667047,164270.2,814198.38,665517.38
166454,819153,667516,164328.98,814350.38,665577.19
166574,819219,667550,164395.05,814517.69,665643.38
166657,819507,667572,164468.84,814699.81,665715.75
166719,819743,668141,164549.94,814895.69,665793.19
166857,820161,667872,164637.56,815104.38,665875.38
166866,820263,668015,164730.91,815325.06,665962.31
167034,820285,667836,164829.19,815555.81,666053.5
167128,820878,668185,164931.31,815795.38,666148
167312,820940,668138,165036.36,816043.63,666245.5
167336,821115,668152,165144.8,816298.94,666345.63
167319,821470,668326,165256.47,816559.25,666447.19
167566,821522,668549,165370.63,816823.13,666550.25
167610,821593,668476,165487.09,817089.88,666655
167677,821720,668547,165605.47,817358.38,666761.13
167633,821938,668510,165724.53,817627.5,666867.63
167695,821982,668572,165843.02,817896.25,666973.88
167751,822170,668587,165960.75,818163.63,667079.25
167525,822457,668789,166077.94,818429.13,667183.63
167886,822440,668615,166194.36,818692.13,667286.63
167870,822227,668588,166309.5,818951.31,667387.5
167877,821791,667908,166422.56,819203.69,667485.13
166998,818196,666987,166531.42,819439.63,667575.94
165877,815625,666017,166630.47,819640.63,667652.69
164991,813325,665073,166712.84,819789.19,667708.56
164213,811462,664473,166773.44,819875.38,667739.25
163904,810840,664106,166809.59,819895,667742.88
163681,810664,664018,166820.69,819848.38,667720
163607,810744,664478,166807.8,819740.56,667672.94
163490,811022,664364,166772.91,819579.88,667605.44
163597,811146,664393,166718.5,819375.25,667521.69
163523,811467,664455,166647.31,819134.69,667424.94
163620,812221,664762,166561.66,818867,667318.25
163835,812394,664874,166464.22,818580.75,667205
164062,812644,665102,166358.72,818282.94,667088.25
164216,813769,665537,166248.66,817979.25,666970.63
164620,814039,665662,166137.09,817676.5,666854.75
164719,814553,665736,166026.97,817382,666743.19
164903,814980,666019,165920.34,817101.13,666637.75
165071,815866,666454,165817.91,816838.5,666540.38
165358,816144,666519,165720.53,816598.5,666453.19
165521,816534,666619,165630.86,816383.38,666376.75
165343,816787,666836,165550.66,816194.13,666311
165677,816791,666744,165480.02,816030.25,666255.63
165635,816750,666746,165418.8,815890.75,666210.25
165695,816633,666735,165366.53,815773.75,666174.13
165672,816563,666702,165322.64,815676.88,666146.25
165651,816445,666520,165286.47,815597.75,666125.5
165648,816334,666598,165257.22,815534.06,666110.5
165578,816461,666934,165234.19,815484.13,666101.31
165632,816470,666679,165216.66,815447,666098.25
165592,816621,666694,165204.09,815422,666100.25
165695,816585,666987,165196.09,815408.38,666106.38
165788,817024,666679,165192.66,815405.81,666116
165940,817080,666854,165194.09,815414.75,666129.06
166020,817428,666908,165200.69,815435.31,666145.63
166117,818035,667229,165212.48,815468.63,666166.38
166369,818278,667194,165229.72,815516.13,666191.75
166428,818412,667235,165252.86,815578.13,666221.63
166607,819264,667566,165282.09,815654,666255.5
166927,819269,667655,165317.88,815744,666293.75
167147,819668,667729,165361.03,815849.06,666336.88
167238,819928,667843,165411.95,815969.5,666385.31
167417,820428,668061,165469.5,816105.19,666438.88
167516,820715,668058,165532.5,816256.25,666497.69
167517,820907,668101,165601.53,816422,666561.06
167698,821526,668381,165676.75,816601.19,666628.25
167913,821403,668309,165757.97,816792.38,666698.88
167819,821567,668374,165844.83,816994.63,666772.75
167873,821620,668767,165936.22,817206.38,666849.75
168045,822115,668619,166031.28,817426.38,666929.56
168053,822115,668618,166129.63,817654,667012.13
168253,822299,668634,166230.84,817887.94,667096.69
168155,822726,669101,166334.53,818126.75,667183.25
168222,822646,668882,166439.81,818369.5,667271.88
168385,822781,668871,166546.03,818615.13,667362
168490,823016,669141,166653.16,818862.5,667452.81
168462,823064,668957,166760.91,819111,667543.69
168442,822700,668658,166868.5,819358.5,667633.63
168326,821652,668243,166974.81,819600.25,667720.38
166886,817455,666532,167077.94,819827.81,667798.44
165869,814977,665568,167171.97,820024.44,667859.38
165231,813379,664918,167247.95,820167.69,667897.06
164940,811702,664411,167300.91,820245.38,667909
164393,811388,664234,167329.91,820256.06,667895.19
164193,811191,664084,167334.64,820201.94,667856.5
164149,811141,664087,167316.13,820088.5,667795.13
164194,811606,664323,167276.5,819923.81,667714.13
164058,811829,664479,167218.03,819717.13,667617.75
164067,812154,664513,167143.3,819477.13,667509.44
164489,813122,664827,167055.09,819211.88,667392.25
164541,813440,665200,166956.83,818930,667269.63
164781,813966,665256,166852.28,818640.38,667145.5
164909,814177,666000,166744.63,818349.88,667022.13
165224,815203,665815,166636.5,818064.44,666901.63
165438,815733,665981,166530.53,817790.63,666786.75
165634,816142,666164,166428.97,817533.63,666679.5
165832,817039,666703,166332.8,817297.44,666581.38
165974,817191,666591,166242.78,817085.88,666493.75
166077,817235,666594,166160.58,816899.81,666416.94
166139,817212,666907,166087.31,816737.88,666350.63
166127,817215,666677,166022.91,816598.38,666294.25
166137,817174,666560,165966.84,816479.75,666247.13
166095,816998,666565,165918.5,816379.88,666208.06
165928,816752,666470,165877,816296.63,666176
166026,816836,666423,165841.44,816228,666149.88
166069,816752,666444,165811.41,816172.19,666129
166074,816984,666662,165786.72,816127.25,666112.81
166086,817062,666540,165767.03,816092.69,666101.13
166343,817286,666602,165752.44,816069.06,666093.88
166456,817546,666724,165743.63,816057.13,666091.38
166552,818075,667028,165740.94,816058,666094.13
166753,818296,666984,165744.58,816073,666102.63
166760,818507,667029,165754.75,816102.38,666116.88
167002,819204,667426,165771.45,816146,666136.31
167190,819322,667342,165794.97,816204,666161.19
167268,819573,667401,165825.69,816277.44,666191.63
167580,819914,667582,165863.78,816366.5,666227.56
167659,820499,667891,165909.55,816471.56,666269.44
167779,820644,667861,165962.81,816593,666317.63
167880,820906,667911,166023.09,816730,666371.63
167780,821783,668475,166089.02,816882.13,666431.38
168158,821803,668366,166159.47,817049.75,666497.38
168300,821879,668293,166235.38,817232,666569.13
168266,821897,668410,166317.16,817426.81,666645.38
168408,822283,668481,166403.92,817632.19,666725.13
168449,822244,668492,166495,817846.75,666808.13
168416,822484,668625,166589.53,818068.81,666894
168536,822837,668749,166686.22,818297.19,666982.38
168744,822951,668772,166784.44,818531.25,667073.19
168800,822983,668843,166884.75,818769.81,667165.88
168801,821717,668400,166987.25,819010.75,667259.44
168256,819931,667548,167089.97,819245.75,667350.63
167453,817546,666639,167188.72,819458.88,667432.94
166339,815002,665583,167277.23,819632.81,667499.5
165165,812400,664597,167349.22,819752.31,667544.44
164905,811780,664224,167400.13,819807.63,667563.63
164609,811301,664087,167427.53,819798,667556.5
164198,811118,664307,167431.25,819727.88,667525.06
164199,811250,664144,167412.31,819603.38,667472
164179,811384,664328,167372.41,819432.25,667401
164161,811453,664290,167313.81,819222.25,667315.5
164231,812000,664615,167238.8,818980.88,667218.5
164305,812277,664690,167149.81,818716.25,667113.38
164403,812469,664728,167050.16,818435.25,667002.75
164170,813450,665253,166942.31,818144.56,666888.81
164584,813390,665075,166828.25,817850.5,666774
164817,813862,665335,166710.94,817558.69,666660.56
164926,814081,665603,166593.31,817273.63,666550.38
165415,815122,665738,166477.97,817000.13,666445.19
165492,815479,665929,166367.61,816743.63,666346.94
165645,815832,666142,166263.92,816508.06,666257.19
165648,816362,666373,166167.06,816295.13,666177.13
165828,816500,666304,166077.03,816106.38,666107.38
165991,816609,666435,165995.16,815942.25,666047.63
166028,816748,666363,165922.66,815802,665997.38
166027,816744,666344,165859.34,815684.25,665955.63
166007,816617,666247,165804.63,815587.38,665921.5
166016,816530,666355,165757.88,815509.5,665894.13
166006,816633,666434,165718.16,815448.56,665873.25
166112,816589,666445,165684.81,815403.19,665858.88
166162,816663,666328,165658.11,815372,665850.25
166243,817114,666775,165638.28,815354.13,665846.63
166350,817157,666696,165625.25,815349.13,665848.25
166363,817277,666632,165618.89,815357.63,665855.25
166547,817613,666790,165619.03,815379.44,665867.56
166603,818273,667007,165625.02,815415.69,665885.31
166823,818423,666992,165636.38,815467.63,665908.75
166902,818473,667121,165654.16,815534.88,665937.63
166924,819531,667563,165678.5,815616.5,665971.56
167125,819525,667459,165708.72,815712.94,666010.5
167490,819646,667533,165745.69,815825.06,666055
167573,819888,667895,165790.59,815952.25,666105
167768,820406,667764,165843.44,816093.75,666159.88
167891,820604,667864,165904.06,816249.63,666219.88
167967,820997,667953,165972,816419.5,666284.88
167741,821410,668281,166046.56,816602.63,666354.75
168195,821527,668340,166127.09,816798.5,666430.13
168323,821846,668356,166213.23,817006,666510.63
168495,822440,668543,166304.8,817224.63,666595.19
168648,822495,668474,166401.59,817453.75,666683.25
168657,822243,668423,166503.23,817691.81,666773.88
168443,821369,668105,166608.31,817934.13,666865.5
167248,817626,666598,166714.03,818167.88,666953.25
166276,815193,665632,166814.41,818372.69,667029.13
165613,813513,664981,166900.97,818531.56,667086.44
165203,812195,664592,166968.41,818636.75,667122
164690,811675,664379,167014.86,818685.63,667134.88
164628,811536,664162,167039.69,818679.13,667126
164370,811540,664132,167043.58,818621.38,667096.75
164394,811651,664353,167027.59,818518.75,667049.75
164358,811860,664414,166993.36,818378.13,666988.13
164375,812104,664432,166943.56,818206.38,666914.88
164373,812986,664758,166880.36,818010.63,666832.13
164472,812961,664794,166805.52,817798.19,666742.38
164658,813115,664960,166722.11,817574.88,666648.69
164836,813543,665315,166633.36,817345.69,666553.5
164978,814369,665428,166541.81,817116.25,666459
165298,814794,665661,166449.88,816892.88,666367.88
165514,815385,665823,166360.13,816680.75,666282.13
165446,816493,666314,166274.38,816484.13,666203.63
165945,816732,666346,166194.02,816307.63,666134.38
166115,817025,666341,166120.86,816154.38,666074.63
166214,817523,666706,166056.13,816025.5,666024.06
166279,817243,666575,166000.05,815920.5,665982.31
166349,817414,666724,165952.59,815837.94,665949.75
166193,817390,666679,165913.2,815776.25,665926.31
166281,817182,666551,165880.81,815733.25,665911
166338,817187,666497,165854.88,815706.31,665902.25
166423,817353,666591,165835.44,815693.63,665899.25
166418,817708,666946,165822.44,815694.25,665901.38
166398,817510,666720,165815.28,815707.19,665908.5
166532,817735,666812,165813.53,815731.81,665920.5
166617,817863,666897,165817.14,815768.13,665937.69
166776,818315,666892,165826.16,815816,665959.69
166878,818625,666936,165840.67,815876.38,665986
167058,818948,667093,165861.06,815949.75,666016.44
167150,819736,667438,165887.5,816036.38,666051.13
167341,819711,667508,165919.97,816136.75,666090.44
167553,820019,667629,165958.91,816251.31,666135.25
167541,820190,667699,166004.53,816379.69,666185.38
167697,820625,667726,166056.38,816521.38,666240.13
167960,820939,667894,166114.33,816676.38,666299.44
167940,821098,667979,166178.47,816844,666363.25
168172,821828,668328,166248.17,817023.31,666431.88
168208,821812,668205,166322.89,817213.75,666505.5
168394,822077,668341,166402.63,817415.25,666583.38
168424,822558,668594,166487.31,817627,666664.75
168647,822585,668522,166576.59,817848,666749.38
168717,822875,668668,166670.28,818077.63,666837
168787,823122,668749,166767.94,818315.31,666927.69
168871,822930,668804,166868.69,818560.5,667021
168782,822536,668457,166971.47,818810.38,667115.63
168563,821203,667898,167074.95,819057.5,667208.56
167931,816884,666223,167176.42,819289.69,667295.38
165867,814632,665292,167268.91,819488.56,667368.81
165529,813299,664698,167343.44,819634.13,667420.75
165291,812517,664513,167396.16,819717.25,667447.5
164726,811997,664204,167427.06,819738.5,667449.31
164548,811750,664178,167436.06,819701.06,667427.69
164570,811908,664212,167423.64,819610.63,667385
164390,812399,664497,167391.56,819474.25,667324
164548,812562,664492,167342.19,819300.13,667247.88
164682,812897,664675,167278.23,819096.75,667160.44
164749,813185,665060,167202.69,818871.75,667064.81
164916,813908,665100,167118.22,818632.31,666964
165075,814257,665207,167027.53,818385.75,666861
165297,814771,665417,166933.31,818138.13,666758.06
165637,815933,666072,166838.03,817894.94,666658.25
165924,816310,666110,166744.38,817662.06,666564.75
166115,816766,666210,166655.17,817445.5,666479
166275,817537,666895,166572.42,817249.25,666401.38
166582,817660,666724,166497.47,817075.25,666333
166459,817883,666668,166431.13,816925.38,666274.81
166685,817990,666860,166373.41,816799.88,666226.69
166598,818129,666765,166323.56,816698.38,666188.38
166674,818062,666756,166280.69,816619.88,666158.88
166702,818056,666689,166245.03,816561.75,666137.13
166747,818315,667049,166216.92,816521.38,666122.19
166700,818170,666822,166195.81,816497.13,666113.5
166838,818142,666873,166181.22,816487.75,666110.88
166877,818222,666879,166172.95,816491.75,666114.13
166977,818544,666839,166171,816508.38,666122.44
167168,818672,666893,166175.47,816537.63,666135.25
167243,819006,667128,166186.52,816579.38,666152.38
166970,819460,667510,166203.88,816633.75,666174.5
167400,819537,667497,166227.08,816700.88,666202.19
167594,819898,667452,166256.22,816780.88,666235.63
167668,820096,667716,166291.5,816874,666274.25
167994,820672,667642,166333.19,816980.38,666317.63
168032,820959,667721,166381.61,817100.88,666365.5
168126,821017,667890,166436.53,817235,666417.88
168162,821742,668159,166497.16,817381.63,666475.13
168384,821818,668210,166562.97,817540.44,666537.5
168386,822052,668267,166633.88,817711.56,666604.81
168637,822185,668779,166709.75,817894.13,666676.5
168755,822610,668479,166790.59,818087.31,666752.25
168746,822779,668503,166876.09,818290.44,666831.63
168869,822901,668602,166965.48,818502.5,666914
168918,823311,668817,167057.72,818722.75,666999.25
169081,823421,668842,167152.02,818950.88,667087.5
169033,823458,668800,167248.5,819185.13,667178.13
169073,824225,669089,167346.89,819423.5,667270.13
169284,823826,668930,167446.69,819664.88,667363
169233,823502,668742,167547.75,819907.44,667456
169145,822597,668322,167649.22,820146.88,667547
167622,818215,666729,167748.88,820369.75,667630.94
166646,815727,665699,167840.47,820554.25,667699.38
165944,814046,665011,167914.84,820683.25,667745.88
164884,812494,664589,167966.7,820749.75,667767.38
165030,812172,664440,167994.66,820752.25,667763.5
164889,812070,664306,167998.38,820693.13,667735.88
164734,811953,664554,167978.89,820577.75,667686.63
164742,812337,664552,167938.25,820413.75,667618.88
164748,812647,664637,167879,820209.69,667536.31
164841,812836,664745,167803.94,819974.13,667442.25
164928,813493,665084,167715.72,819713.88,667340
165133,813580,665069,167617.13,819435.75,667232.5
165102,813837,665239,167511.19,819146.88,667122.19
165221,814172,665873,167400.34,818853.13,667010.75
165406,814933,665663,167286.66,818560.38,666900.44
165813,815180,665790,167172.95,818274.44,666793.5
165671,815420,665752,167061.63,817999.38,666691.5
165992,816241,666139,166953.45,817738.63,666595.38
166108,816387,666040,166849.44,817496,666506.25
166126,816376,666091,166751.44,817273.25,666424.5
166120,816703,666275,166660.31,817070.5,666349.94
166179,816570,666220,166576.03,816887.38,666282.75
166228,816476,666169,166498.72,816723.13,666222.88
166179,816525,666216,166428.3,816576.69,666169.88
166100,816228,666123,166363.78,816446.38,666123
166152,816180,666036,166304.17,816330.25,666081.75
165923,816227,666115,166249.47,816226.75,666045.25
166053,816457,666200,166199.45,816135.13,666013.25
166237,816381,666232,166154.41,816054.88,665985.63
166281,816418,666171,166115,815985.94,665962.5
166340,816494,666384,166081.47,815928.38,665943.75
166489,817027,666371,166053.92,815882.5,665929.25
166630,817364,666395,166032.77,815850,665919.5
166759,817600,666533,166018.44,815832.25,665914.5
167013,818218,667088,166010.84,815829.63,665915.38
167021,818443,666896,166009.81,815842.88,665923.38
167099,818556,666960,166015.84,815872.88,665938
167265,818748,667433,166029.22,815919.19,665958.5
167359,819479,667450,166049.97,815981.75,665985.19
167628,819672,667365,166078.16,816061.5,666018.63
167710,819889,667382,166114.06,816158.38,666058.13
167623,820292,667510,166157.31,816272,666103
167940,820579,667689,166207.39,816402.38,666152.88
168155,820889,667702,166264.3,816548.5,666207.88
168350,821860,667900,166328.33,816709.5,666267.69
168489,821949,668070,166399.53,816886,666332.31
168636,822130,668092,166477.69,817078.13,666401.75
168706,822577,668362,166562.33,817285.13,666475.88
168896,822937,668511,166652.38,817506.44,666554.88
168935,822723,668440,166746.88,817740.5,666638.44
168897,822226,668086,166845.63,817983.13,666724.94
167802,818696,666713,166947.3,818226.44,666811
166734,816177,665728,167046.28,818454,666890.44
166112,814383,665072,167133.66,818643.19,666954.38
165794,813324,664703,167203.88,818780.38,666997.5
165183,812209,664356,167254.97,818861.5,667018.81
165066,812232,664280,167285.84,818886.44,667018.63
164941,812112,664273,167296.84,818859.5,666998.5
164789,812512,664767,167289.13,818787.38,666961.5
164903,812561,664565,167264.19,818677.06,666910.94
164971,812793,664619,167224.7,818535.31,666849.38
165071,813249,665253,167173.41,818368.56,666779
165185,814076,665219,167112.77,818184.63,666703.13
165433,814435,665319,167045.38,817991.31,666624.75
165598,814850,665381,166973.94,817794.75,666545.94
165751,815937,665857,166900.44,817600.81,666468.63
166095,816555,666093,166826.77,817416.25,666395.38
166278,816971,666138,166755.72,817246.5,666328.25
166393,817869,666608,166689.41,817094.44,666267.94
166600,818044,666678,166628.84,816962.5,666215.63
166830,818289,666660,166575.22,816852.88,666172.25
166897,818315,666657,166529.45,816766.25,666137.63
166996,818540,666802,166491.55,816701.5,666111.06
166992,818430,666761,166461.09,816657.13,666092.38
167093,818426,666759,166438.03,816631.13,666080.75
167045,818501,666819,166421.98,816621.13,666075.38
167022,818285,666822,166411.97,816624.88,666075.5
167058,818233,666765,166407.5,816640.25,666080.75
167108,818327,666810,166408.31,816665.81,666090.5
167031,818531,666849,166413.94,816700.69,666104.44
167154,818627,666964,166423.78,816744.75,666122.38
167150,818609,666882,166437.58,816797.13,666143.88
167319,819310,667443,166454.41,816857.81,666169.13
167550,819380,667285,166473.94,816927.88,666198.75
167582,819587,667201,166497.83,817007.75,666232.63
167589,819780,667590,166526.78,817097.13,666269.88
167839,820229,667624,166560.58,817196.13,666310.88
168011,820413,667674,166599.63,817305.13,666356.13
168146,820724,667629,166644.33,817424.44,666405.63
168315,821164,667862,166694.66,817553.94,666458.75
168494,821310,667942,166750.53,817693.88,666515.56
168537,821594,667973,166812.17,817843.88,666576.13
168591,822067,668334,166879.22,818003.63,666639.81
168755,822283,668187,166951.16,818172.94,666706.5
168835,822390,668267,167027.69,818351.75,666776.06
168928,822651,668451,167108.48,818539.38,666848.56
169053,823171,668577,167193.31,818735.5,666924.19
169318,823295,668665,167282.28,818940.38,667003
169278,823050,668529,167375.31,819152.5,667084.31
168981,821580,667919,167471.44,819367.94,667166.5
168231,819393,666946,167567.7,819577,667245.31
167204,816716,666089,167657.59,819761.25,667313.63
166456,814740,665205,167734.16,819902.94,667364.88
165577,812728,664382,167792.13,819990.13,667394.44
165257,812111,664244,167828.13,820016.5,667399.75
164954,811934,664091,167841.13,819982.75,667381.38
164467,812352,664581,167831.08,819894.81,667341.63
164687,812080,664282,167798.75,819760,667283.88
164774,812170,664356,167747.11,819585.13,667211.13
164767,812440,664713,167679.63,819376.75,667126
164847,813125,664684,167598.88,819142.88,667031.63
165016,813371,664800,167507.64,818891.63,666930.94
165032,813613,664928,167408.59,818629.44,666826.5
165299,814404,665410,167303.47,818361.5,666721
165614,815015,665485,167194.66,818094.25,666617.63
165784,815378,665530,167086,817834.63,666518.06
165902,816387,666240,166980.5,817587.88,666423.25
166198,816612,666105,166879.78,817358.38,666334.81
166398,817098,666282,166785.73,817150.13,666254.75
166431,817127,666260,166699.56,816965,666183.88
166490,817231,666447,166621.44,816803,666122.25
166507,817196,666251,166551.09,816662.75,666069.5
166522,817063,666341,166488.52,816542.69,666024.75
166249,817144,666516,166433.38,816440.75,665987.13
166478,816988,666320,166385.06,816355.25,665955.88
166584,816894,666169,166343.23,816284.44,665930.5
166539,816938,666197,166307.8,816226.63,665910.13
166455,817011,666291,166277.75,816180.88,665894.38
166572,817078,666301,166252.13,816146.5,665883.25
166651,817307,666290,166231.38,816123.25,665876.38
166343,818221,666705,166215.53,816112,665873.75
166875,818038,666597,166204.19,816114.13,665875.75
167093,818284,666753,166198.59,816130.13,665882.75
167257,818466,666912,166200.09,816160,665895.19
167289,819119,667033,166208.91,816204,665913.13
167429,819308,667013,166224.81,816263.31,665936.63
167654,819602,667031,166247.8,816338.13,665965.38
167583,819867,667488,166277.5,816427.81,665999.31
167884,820214,667425,166313.31,816531.88,666039.25
168111,820470,667510,166355.92,816650.38,666084.88
168111,821222,667832,166405.97,816782.56,666135.69
168365,821308,667831,166463.09,816928.25,666191.63
168418,821433,667913,166527.06,817087.88,666252.75
168594,821663,667987,166597.59,817260.63,666318.88
168706,822247,668274,166673.94,817446.13,666389.81
168860,822376,668352,166755.56,817644.13,666465.88
168923,822621,668355,166842.44,817853.69,666546.63
168984,822376,668543,166934.36,818073.13,666631.19
168804,821255,667940,167030.06,818297.5,666717.81
168101,819134,667027,167126.56,818515.88,666802.31
167138,816793,665942,167218.41,818712.63,666878.25
165668,813498,664642,167298.47,818870.5,666938
165394,812478,664299,167360.42,818974.75,666975.75
164915,812000,664056,167400.88,819020.25,666989.75
164467,812018,664199,167418.48,819009.88,666980.88
164460,811715,664095,167413.31,818948.81,666951.38
164394,811786,664019,167387.08,818842.63,666904
164469,811774,664387,167342.28,818697.06,666841.63
164535,812445,664482,167281.69,818519.19,666767.25
164504,812587,664516,167207.94,818316.75,666684.5
164709,813001,664692,167123.47,818096.63,666595.75
164651,813578,665070,167031.05,817865.13,666503.88
164992,814078,665037,166933.31,817628.88,666411.56
165168,814539,665161,166832.81,817394.06,666320.31
165381,815651,665584,166731.97,817165.88,666231.31
165779,815938,665748,166633.42,816949.31,666146.63
165939,816287,665968,166539.75,816749.63,666068.5
165975,816525,665955,166452.44,816569.69,665998.38
166075,816807,666234,166372,816410.63,665936.75
166174,816694,666007,166298.88,816272.44,665883.63
166086,816477,665921,166233.09,816153.31,665837.75
165975,816142,666018,166173.91,816050.44,665798.13
165851,815815,665691,166120.19,815960.63,665763.5
165680,815578,665631,166070.69,815880.63,665732.75
165715,815367,665486,166024.53,815807.88,665704.69
165670,815305,665507,165981.14,815740.69,665678.63
165741,815325,665549,165940.38,815678.31,665654.5
165766,815354,665549,165902.64,815620.69,665632.25
165809,816142,665977,165868.27,815568.38,665612.19
165841,816063,665738,165837.25,815522.75,665594.63
166005,816223,665759,165810.03,815486,665580.06
166122,816523,666206,165787.36,815459.19,665568.88
166334,816967,666205,165769.95,815443.63,665562.13
166531,817084,666237,165758.69,815440.38,665560.63
166542,817406,666354,165754.05,815449.94,665564.38
166594,818044,666753,165755.69,815472.88,665574
166844,818164,666709,165763.44,815510.13,665590.25
166889,818343,666668,165777.7,815562.13,665612.88
167059,818965,666962,165798.66,815628.5,665640.75
167317,819066,667002,165826.55,815709.19,665673.88
167393,819334,667089,165861.72,815804.63,665712.63
167373,819365,667122,165903.81,815914.25,665756.75
167673,820144,667418,165952.08,816037.63,665806.25
167936,820349,667502,166006.81,816175.5,665861.25
167827,820605,667489,166068.34,816327.88,665921.75
167933,819968,667361,166135.91,816492.88,665986.5
167122,817973,666380,166207.03,816663,666052.5
166469,815933,665584,166276.8,816823.44,666113.56
165922,813955,664838,166339.97,816958.63,666163.69
164888,812108,663902,166392.72,817056.25,666197.88
164609,811420,663801,166431.47,817108.38,666212.75
164406,811130,663678,166453.41,817113.5,666208.25
163879,810909,663568,166457.47,817074.25,666185.63
163745,810764,663480,166443.44,816994.38,666146.19
163710,810890,663602,166411.75,816878.75,666092.13
163788,811173,663879,166364.25,816733.25,666026.38
163804,811813,664004,166303.34,816564.69,665952.13
163847,811838,663937,166231.33,816380.06,665871.88
163907,812161,664108,166150.34,816184.38,665787.31
164019,812859,664406,166062.52,815982.5,665700.56
164274,813147,664577,165970.27,815779.88,665614.38
164522,813600,664734,165876.39,815581.63,665530.63
164716,814400,665452,165783.5,815392,665451.13
164967,814851,665254,165693.81,815215.31,665377.88
164990,815254,665326,165608.88,815055.88,665312.06
165147,815322,665424,165529.63,814916,665254.13
165344,815628,665557,165456.19,814796.25,665204.25
165271,815718,665535,165388.63,814697.13,665162.63
165319,815618,665608,165327.59,814617.19,665128.69
165407,815795,665773,165273.73,814554,665102.13
165326,815472,665582,165226.86,814505.63,665082.25
165451,815511,665574,165186.59,814470.19,665068.44
165388,815314,665480,165152.64,814446.13,665059.75
165438,815533,665598,165124.44,814431.94,665055.56
165456,815704,665577,165101.42,814427.38,665055.56
165464,815759,665592,165083.52,814432.5,665059.5
165347,816119,665992,165070.77,814447.25,665067.06
165725,816206,665968,165063.44,814471.69,665078.81
165779,816505,665774,165061.7,814506.25,665094.88
165904,816702,666064,165065.56,814551.25,665114.75
166055,817063,665992,165075.16,814607,665138.25
166073,817340,666097,165090.55,814674.06,665165.38
166263,817593,666267,165111.63,814752.75,665196.31
166417,818207,666519,165138.53,814843.13,665231.56
166568,818345,666503,165171.47,814945.75,665271.63
166683,818404,666561,165210.61,815060.63,665316.13
166820,818775,667165,165255.97,815187.13,665364.5
167019,819316,666971,165307.58,815325.25,665416.94
166974,819316,666850,165365.22,815475.38,665473.75
167164,819521,666950,165428.3,815636.44,665534.31
167362,820333,667369,165495.97,815807.75,665598.75
167555,820438,667421,165567.88,815990.13,665667.94
167639,820691,667323,165644.97,816183.56,665741.5
167691,820498,667454,165727.55,816386.88,665818.38
167161,818825,666709,165813.75,816594.5,665896.25
166478,816715,665821,165899.41,816793.63,665970.63
165765,814564,664926,165979.22,816968.75,666035.13
164741,812064,663947,166048.03,817105.13,666083.88
164258,811344,663636,166101.22,817191.88,666112.44
163955,810902,663493,166135.53,817226.25,666119.88
163079,810355,663375,166149.81,817210.44,666107.38
163216,810295,663334,166143.78,817147.94,666076.81
163228,810361,663403,166117.83,817043.25,666030.06
163012,810487,663592,166073.36,816902.06,665969.38
163032,811088,663657,166012.14,816731.38,665897.38
163177,811196,663684,165936.52,816538.5,665816.88
163119,811418,663640,165849.2,816329.31,665730.13
163307,812153,664203,165752.5,816109.25,665639.38
163584,812391,664164,165649.22,815884.31,665547.63
163614,812667,664417,165542.38,815659.88,665457.13
163843,813122,665042,165434.31,815440.13,665369.25
164199,814061,664957,165327.53,815230.06,665286.25
164444,814415,665149,165224.81,815035,665210.25
164478,814625,665120,165128.03,814858.13,665142.25
164506,815120,665290,165037.69,814700.56,665082.5
164654,815213,665328,164953.98,814563.5,665030.94
164797,815266,665288,164877.75,814447.13,664987.5
164818,815704,665267,164809.63,814350.25,664951.56
164887,815404,665429,164749.64,814271.88,664922.75
164813,815439,665254,164697.42,814210.88,664900.63
164981,815342,665383,164652.63,814165.75,664884.13
164906,815393,665409,164614.28,814134.75,664873.13
164912,815356,665306,164581.19,814116.5,664867
164813,815438,665274,164553.42,814109.63,664865
164988,815950,665581,164531.5,814113.56,664866.63
165176,815878,665634,164515.83,814128.38,664872.5
165208,816148,665601,164506.7,814154.38,664882.88
165448,816463,665854,164504.17,814192,664897.69
165639,816876,665966,164508.75,814242,664917.25
165657,817147,666064,164520.75,814305.13,664942
165896,817428,666179,164540.06,814381.75,664972.13
166064,817923,666745,164566.63,814471.81,665007.81
166181,818272,666578,164600.44,814575.88,665049.44
166330,818519,666641,164641.63,814694.25,665097.25
166407,818662,667004,164690.19,814826.63,665150.63
166454,819281,666905,164745.59,814972.38,665209
166686,819479,666843,164807.31,815131.75,665272.44
166774,819585,666945,164875.3,815304.13,665340.19
166808,820462,667126,164949.25,815488.75,665411.88
167158,820586,667457,165029.06,815686.38,665488
167358,820867,667507,165114.97,815896.69,665569.13
167506,821256,667617,165207.13,816118.63,665654.88
167367,820446,667306,165304.77,816349.38,665744
166914,818786,666715,165405.47,816581.19,665833.44
166099,816570,665701,165504.75,816800.94,665918.13
164700,812843,664137,165596.59,816990.5,665990.25
164375,811863,663914,165674.92,817132.38,666042.88
163979,811142,663574,165735.36,817219.63,666073.5
163306,810726,663278,165776.06,817252.63,666082.63
163220,810509,663381,165796.45,817234.13,666071.5
163003,810485,663373,165796.06,817168.75,666042.13
162949,810505,663888,165775.59,817062.38,665996.63
163010,810889,663694,165737.05,816921.13,665937.75
163051,811148,663693,165683.03,816752,665868.88
163094,811275,663811,165616.09,816561.56,665792.38
163164,812096,664368,165537.95,816355.88,665710.75
163342,812312,664246,165450.53,816141.63,665627.13
163537,812690,664372,165357.31,815924.63,665543.31
163693,813205,664875,165261.64,815709.75,665460.81
164034,814090,664934,165166.03,815502.44,665381.63
164258,814565,665050,165073.16,815308.25,665307.81
164448,814915,665318,164985.14,815131.25,665241.13
164585,815507,665418,164903.3,814973.63,665182.5
164604,815515,665516,164828.25,814837.06,665132.44
164679,815613,665528,164760.34,814721.5,665090.88
164732,815779,665672,164699.78,814625.81,665057.38
164706,815547,665563,164646.39,814548.56,665031.13
164841,815570,665510,164600,814487.94,665011.63
164764,815606,665469,164560.41,814442.38,664998.19
164862,815633,665529,164526.92,814410.63,664989.88
164762,815488,665511,164498.7,814391.19,664986.44
164763,815470,665430,164475.53,814382.31,664987.13
164944,816004,665662,164457.41,814382.94,664991.44
164995,816049,665758,164444.58,814393.38,664999.88
165187,816207,665797,164437.44,814414.38,665012.75
165205,816390,665866,164436.3,814446.06,665029.88
165241,816743,666085,164440.95,814488.63,665051.5
165401,816897,666182,164451.13,814542.25,665077.81
165472,817185,666179,164466.91,814607.06,665109
165470,818144,666580,164487.69,814683.63,665144.81
165825,817892,666390,164513.13,814772.75,665185.38
165912,818029,666500,164544.34,814874.13,665230.25
166094,818255,666591,164582.09,814986.88,665279.06
166229,818650,666639,164626.38,815110.63,665331.5
166438,818793,666851,164677.33,815245.25,665387.56
166399,819034,666839,164734.75,815390.31,665447.38
166630,819599,667199,164797.44,815545.06,665511
166769,819855,667110,164864.72,815709.75,665578.69
166806,820058,667261,164937.22,815884.88,665650.13
166930,820780,667578,165015.03,816070.19,665724.75
167336,820791,667647,165098.27,816265.5,665802.88
167294,820617,667521,165187.28,816469.94,665884.38
167048,819674,667030,165280.91,816679.38,665967.75
165653,815711,665427,165375.89,816880.5,666047
165109,813735,664613,165466.34,817053.25,666113.94
164571,812430,664151,165545.13,817182.69,666162.69
163615,811071,663810,165607.58,817262.88,666191.25
163323,810534,663427,165651,817291.5,666199.06
163041,810244,663336,165673.16,817268.44,666186.25
162853,810130,663245,165673.64,817197.06,666154.06
162703,810298,663451,165653.28,817082.88,666104.88
162712,810596,663503,165613.58,816932.63,666041.88
162713,810678,663562,165557.06,816753.25,665967.63
162271,811608,663927,165485.81,816551.63,665885.06
162652,811532,663945,165401.34,816334.88,665797.44
162755,811743,664008,165306.38,816108.63,665706.69
162891,811964,664269,165203.94,815876.88,665614.19
163361,812988,664570,165097.19,815645.19,665522
163445,813301,664664,164989.56,815419.88,665433
163634,813835,664926,164883.44,815205.88,665349.13
163820,814661,665220,164780,815006.88,665272.06
164075,814825,665327,164680.63,814826.5,665203.31
164258,815003,665345,164587.75,814666.75,665143.38
164266,815316,665571,164503.02,814528.13,665092.13
164288,815299,665407,164426.53,814410.38,665049.5
164322,815169,665369,164358,814312.44,665014.5
164432,815135,665416,164297.41,814232.38,664986.38
164186,815012,665387,164244.22,814168.19,664964.5
164315,814928,665276,164197.53,814117.75,664948.19
164409,815072,665379,164157.09,814079.63,664936.63
164465,815431,665683,164123.16,814053.13,664929.5
164584,815337,665508,164095.84,814038.13,664927.13
164762,815571,665545,164075.39,814034.56,664929.13
164833,815702,665626,164062.17,814042.44,664935.5
164761,816138,665708,164055.09,814062.13,664946.19
165014,816531,665913,164053.06,814094.63,664961.44
165194,816771,666026,164057.38,814140.75,664981.63
165170,817641,666356,164068.84,814201.38,665006.88
165483,817541,666277,164087.08,814276.88,665037.13
165665,817785,666325,164112.84,814367.5,665072.38
165852,818018,666816,164146.97,814472.38,665113
165905,818382,666689,164189.33,814591.19,665159.13
165942,818563,666676,164239.25,814723.5,665210.75
166104,818800,666859,164295.98,814868.38,665267.44
165831,819625,667136,164359.11,815025.13,665329.25
166294,819519,666979,164428.14,815193.5,665396.25
166403,819525,666872,164502.69,815373.06,665467
166599,820297,667314,164582.53,815562.31,665540.5
166831,820356,667310,164667.84,815760.75,665616.88
167007,820546,667389,164758.88,815968.75,665696.63
167054,820714,667468,164855.44,816185.88,665779.25
167263,821064,667758,164956.78,816410.94,665865
167281,820795,667612,165062.2,816642.5,665953.75
167085,819788,667156,165170.81,816876,666043.63
166397,815626,665447,165279.78,817101.88,666130.44
164842,813426,664609,165382.58,817302.5,666206.88
164324,812157,664012,165471.25,817457.13,666264.63
163818,811238,663769,165541.16,817555.5,666299.81
162880,810181,663409,165589.91,817595.88,666312.13
162824,809976,663264,165615.56,817578.88,666302.13
162577,809803,663232,165617.88,817508.25,666271.25
162170,810294,663290,165597.31,817390.31,666221.75
162167,809874,663334,165554.66,817231.63,666156.13
162144,810163,663374,165492.09,817038.63,666077.44
162118,810397,663649,165412.38,816817.88,665988.31
162278,810810,663737,165318.25,816576.25,665891.69
162456,810986,663884,165212.94,816320.38,665790.44
162443,811271,663863,165099.47,816055.75,665686.81
162549,811984,664285,164980.25,815787.63,665582.81
162812,812326,664334,164857.84,815521.75,665480.88
162977,812594,664452,164734.83,815263.25,665382.56
163023,813466,664725,164613.16,815015.75,665288.88
163493,813776,664892,164494.89,814783.38,665201
163559,814060,665031,164382.42,814570,665120.75
163545,814135,664974,164276.97,814377.56,665048.88
163732,814488,665234,164178.8,814206.44,664985.5
163712,814423,665055,164088.28,814056.63,664930.56
163837,814389,665187,164005.78,813927.13,664883.56
163795,814707,665303,163931.44,813816,664843.56
163741,814458,665190,163864.78,813721.63,664809.88
163801,814342,665056,163805.25,813643.06,664782.25
163844,814301,665162,163752.63,813579,664760.25
164096,814696,665137,163706.88,813528.5,664743.56
164119,814732,665120,163668.2,813491.88,664731.75
164187,814936,665384,163637.08,813468.88,664724.63
164100,815528,665337,163613.69,813459.38,664722.44
164354,815457,665414,163597.88,813463.63,664725
164607,815691,665570,163589.77,813481.88,664732.31
164683,815857,665953,163589.73,813514,664744.75
164804,816606,665979,163597.78,813560.5,664762.63
165083,816806,666220,163614,813622.94,664787
165179,817118,666098,163638.73,813701.5,664818.38
165306,817923,666415,163671.73,813796.19,664856.25
165517,817982,666414,163712.66,813907.44,664900.5
165576,818147,666541,163761.56,814035.13,664950.81
165783,818766,666913,163818.27,814178.06,665006.88
166028,819048,666914,163882.78,814336,665068.75
166124,819233,666973,163955.14,814509.13,665136.5
166298,819461,666878,164035.03,814696.63,665209.5
166463,819984,667275,164121.63,814897.5,665287
166523,819953,667221,164214,815111.25,665369.13
166523,820043,667167,164311.88,815335.63,665455.25
166592,820691,667436,164414.56,815568.13,665543.63
166693,820596,667505,164521.2,815807.63,665633.75
166914,820729,667468,164631.45,816053.56,665726.13
166997,820742,667627,164745.22,816304.63,665820.75
167146,821238,667693,164861.84,816559.63,665917.31
167372,821381,667695,164980.88,816818.31,666015.44
167474,821604,667804,165102.81,817080.13,666114.56
167147,821719,667782,165227.53,817344.25,666214.25
167334,821096,667615,165353.63,817608.25,666313.56
167003,819458,666949,165478.97,817865.13,666409.94
165911,816841,664948,165599.41,818101.63,666498.25
164407,812674,664152,165707.22,818298.5,666570.5
164018,811584,663795,165794.94,818436.69,666619.13
163492,810811,663368,165859.11,818509.13,666641.25
162749,810241,663143,165898.56,818517.38,666637.13
162484,809745,663117,165912.22,818464.63,666608.38
162349,809733,663227,165899.94,818355.38,666557.75
162162,809748,663424,165863.03,818195.94,666488.25
162129,810031,663359,165803.64,817993.88,666402.88
162077,810201,663488,165724.31,817757,666305.13
162142,810475,663431,165627.8,817492.75,666197.88
162141,810879,663711,165516.28,817208.44,666083.5
162190,811058,663833,165391.84,816910.81,665965
162350,811359,663941,165258.06,816605.5,665844.69
162467,812204,664229,165118.63,816297.5,665724.5
162819,812422,664371,164976.56,815992.5,665606.38
163044,812794,664511,164835.13,815696.38,665492.75
163046,813241,664618,164696.77,815413.88,665385.13
163309,813798,664850,164562.81,815148.75,665284.75
163390,813964,664843,164434.64,814904.25,665192.56
163477,814063,664977,164313.66,814681.38,665108.88
163180,814261,665068,164200.69,814480.06,665033.75
163522,814013,664959,164095.97,814299.5,664967
163524,813973,664885,163999.34,814138.25,664907.94
163625,814044,665172,163910.75,813994.88,664855.75
163762,814008,665062,163830.53,813868.44,664810.38
163882,814086,665052,163759.19,813758.13,664771.75
163715,814142,664988,163696.58,813663,664739.63
163857,814377,665310,163642.05,813582.75,664713.75
163917,814383,665244,163595.39,813516.75,664694.63
164133,814642,665216,163556.88,813465.13,664681.75
164143,814717,665645,163526.72,813427.75,664674.69
164150,815350,665514,163504.61,813405.25,664673.5
164363,815387,665666,163490.19,813398.5,664678.63
164565,815867,665774,163483.81,813407.88,664690.38
164640,816289,665937,163485.34,813433.88,664708.63
164742,816458,665969,163494.19,813476.75,664733.63
164951,816822,666087,163510.8,813536.63,664764.81
165026,817493,666188,163535.75,813613.25,664801.88
165299,817568,666406,163569.06,813706.75,664844.88
165360,817771,666461,163610.72,813817.06,664893.81
165473,818025,666394,163660.41,813943.5,664948.25
165691,818547,666834,163716.59,814085.38,665007.75
165875,818842,666846,163778.31,814242.94,665072.94
165903,818943,666851,163846.73,814415.25,665143.44
165959,819580,667113,163922.28,814601.06,665218.5
166201,819809,667124,164004.34,814799.75,665297.88
166400,819936,667199,164092.81,815011.06,665381.25
166413,820264,667512,164187.47,815234,665468.19
166748,820661,667492,164287.88,815467.75,665558.38
166809,820681,667439,164394.02,815711.38,665651.63
166856,820727,667451,164505.36,815962.88,665747.19
166916,821195,667896,164620.66,816220.31,665844.75
166974,821241,667735,164738.81,816482.75,665944.81
167156,821395,667854,164859.47,816749.19,666046.75
167331,821557,668073,164982.75,817018.38,666149.63
167374,821996,668028,165108.55,817289.63,666253
167481,822130,668025,165236.27,817563,666356.88
167611,822187,668120,165365.47,817837.63,666460.88
167551,822234,668096,165495.81,818112.63,666564.69
167561,821299,667706,165626.44,818385.5,666666.81
167043,819592,667044,165755.11,818647.13,666764.06
166036,814776,665065,165877.22,818883.38,666851.25
164519,812759,664270,165985.25,819074.88,666920.75
164065,811706,663931,166071.84,819203.5,666965.13
163520,810988,663557,166133.42,819262.75,666982.13
162825,810250,663418,166168.47,819254.63,666972.5
162663,810063,663360,166176.09,819182.44,666938.13
162422,810036,663262,166157.06,819052.38,666881.5
162360,810611,663637,166113.52,818872,666805.25
162475,810763,663615,166048.41,818650.25,666712.88
162566,810938,663755,165964.97,818396.25,666608.38
162532,811175,664244,165866.25,818117.5,666495.25
162633,811665,664090,165754.94,817821.13,666376.63
162664,811831,664150,165633.7,817514,666255
162865,812284,664251,165505.27,817201.69,666132.31
163196,813188,664942,165372.59,816890.31,666010.75
163408,813499,664745,165238.84,816586.13,665893
163613,813879,664838,165107.11,816294.5,665780.69
163671,814279,665443,164979.63,816019.5,665674.75
163869,815042,665340,164857.78,815764.56,665576.5
164033,815259,665562,164742.91,815533.31,665487.75
164041,815086,665401,164636.03,815326.38,665409.25
163971,815248,665514,164537.47,815142.88,665340.5
164074,815101,665456,164447.19,814981.44,665280.69
164207,815101,665321,164365.11,814840.25,665229.06
164138,815300,665775,164291.13,814717.5,665184.5
164195,815052,665462,164224.92,814611.75,665146.81
164219,815143,665380,164166.22,814521.88,665115.63
164352,815229,665503,164114.97,814447,665090.31
164355,815446,665620,164070.98,814386.88,665071
164500,815556,665536,164034,814341.38,665057.63
164518,815852,665721,164004.28,814310.38,665049.88
164609,816315,665804,163982.11,814293.94,665047.5
164848,816453,665934,163967.75,814292,665050.75
164915,816639,665973,163961.38,814305.5,665059.63
165051,817045,666465,163962.86,814334.88,665074.5
165313,817642,666303,163972.34,814381,665095.5
165462,817762,666435,163990.34,814444.63,665122.75
165567,818054,666457,164016.91,814525.5,665156.38
165668,818735,666977,164051.19,814623.13,665196
165869,819020,666843,164092.44,814738.13,665242.25
165962,819157,666865,164141.16,814870.38,665294.69
166037,819384,667188,164197.44,815018.75,665352.5
166339,820167,667329,164261.02,815182.63,665415.63
166335,820062,667301,164331.77,815362.13,665484.5
166548,820463,667297,164409.28,815555.94,665558.63
166764,820846,667498,164493.16,815762.63,665637.13
166829,820991,667508,164583.13,815981.5,665719.75
166928,821088,667566,164678.81,816211.06,665805.88
167132,821474,667911,164779.91,816449.63,665894.88
167119,821762,667836,164885.97,816696.19,665986.5
167244,821806,667962,164996.19,816950.19,666080.94
167428,821979,668002,165110.03,817210.13,666177.88
167579,822291,668092,165227.42,817474.81,666276.88
167635,822408,668185,165348.09,817743.25,666377.5
167734,822579,668193,165471.42,818014.5,666479.5
167703,822241,668082,165596.91,818287.13,666582.13
167277,820718,667430,165722.97,818555.75,666683.25
166540,818471,666539,165845.34,818808.13,666777.75
165671,815843,665592,165958.2,819027.75,666859.25
164433,812650,664281,166055.06,819197.25,666921.38
164040,811807,663962,166130.23,819303.38,666958.63
163707,811186,663655,166181.41,819342.56,666969.63
163023,811015,663746,166207.88,819318.63,666955.81
162900,810845,663631,166208.95,819237.38,666919.75
162832,810830,663544,166185.81,819104.88,666863.88
162786,810971,664083,166140.91,818927.63,666790.75
162965,811639,663984,166077.11,818714,666703.88
163069,811948,664007,165997.89,818472.94,666606.88
163198,812291,664131,165906.59,818212.5,666502.31
163446,813052,664550,165805.89,817939.31,666393.25
163549,813523,664659,165698.45,817660.63,666282.88
163783,813909,664819,165587.63,817383.5,666173.75
163968,814986,665332,165476.5,817113.75,666067.5
164202,815453,665459,165367.45,816857,665966.44
164499,815807,665557,165262.78,816618.88,665872.88
164597,816093,665736,165164.44,816402.69,665788.13
164478,816336,665768,165073.17,816209.5,665712.63
164670,816414,665793,164989.08,816039.56,665646.38
164694,816376,665758,164912.31,815892.06,665588.88
164776,816298,665908,164843,815765.38,665539.25
164714,816128,665714,164780.91,815657.13,665496.75
164700,815943,665681,164725.61,815564.88,665460.69
164757,815965,665443,164676.73,815486.63,665430.13
164784,816094,665682,164634.13,815421.25,665404
164803,816093,665619,164597.59,815368.19,665382.5
164937,816309,665768,164567.06,815327.13,665365.63
164585,816986,666089,164541.97,815298.19,665353.88
165006,816907,666006,164521.63,815282.44,665348
165187,816958,665943,164506.8,815280,665347.63
165346,817216,666216,164498.66,815290.5,665352.06
165557,817947,666219,164497.75,815314.75,665361.63
165771,818139,666435,164504.72,815354.44,665376.56
165768,818396,666521,164519.72,815410,665397.25
165928,818972,667044,164541.78,815481.13,665424.56
166242,819211,666860,164570.34,815568.13,665459.25
166318,819330,666882,164606.72,815671.06,665500.44
166279,819854,667071,164651.14,815788.94,665546.88
166545,820107,667105,164702.81,815921.31,665598.13
166677,820243,667179,164761.66,816068.06,665654.13
166847,820426,667374,164827.7,816228.25,665714.94
166994,820906,667490,164900.67,816400.94,665780.56
167189,821118,667677,164980.41,816585.75,665851.13
167181,821356,667632,165066.53,816782.13,665926.38
167344,821634,667921,165158.34,816988.88,666005.44
167391,822064,667918,165255.19,817205.38,666087.69
167595,822254,667934,165356.58,817431.38,666173.25
167780,822410,668069,165462.42,817666.13,666261.88
167822,822745,668111,165571.88,817908.31,666353.13
167875,822188,667914,165683.59,818155.88,666446.13
167643,821121,667414,165797.05,818403,666538.38
165772,816804,665672,165909.44,818639.56,666625.81
165120,814297,664801,166013.34,818847.38,666701.38
164724,812893,664145,166100.72,819004.06,666756.5
164294,812012,663799,166167.72,819098.63,666786.81
163575,811220,663535,166212.63,819130.38,666792.19
163400,811001,663575,166233.97,819101.63,666773.81
163240,810898,663464,166232.09,819017.13,666733.94
162625,811137,663701,166208.38,818883.75,666675.44
162921,811318,663727,166164.16,818708.88,666601.63
162915,811375,663695,166101.52,818500.13,666515.31
163017,812224,663928,166023.09,818264.25,666418.75
163313,812366,664083,165932.22,818008.5,666314.69
163430,812758,664197,165832.53,817740.88,666206.25
163497,812936,664360,165726.84,817467.81,666095.81
163771,813668,664528,165617.19,817194.63,665985.69
163921,814077,664626,165505.81,816927.06,665877.75
164065,814484,664884,165395.47,816670,665773.5
164149,815261,665498,165288.22,816427.06,665675.06
164692,815649,665421,165186.06,816201.88,665584.38
164654,815680,665431,165091.2,815997.75,665502.63
164798,815935,665619,165004.59,815815.56,665430.25
164685,816054,665679,164925.66,815655.44,665367.63
164785,815926,665527,164853.63,815516.5,665314.13
164768,815894,665545,164788.8,815397,665268.81
164614,815977,665629,164731.03,815295.5,665230.75
164541,815624,665460,164679.03,815210.25,665199.25
164785,815651,665372,164632.58,815138.88,665173.31
164861,815526,665645,164592.38,815079.38,665152.13
164848,815824,665597,164558.69,815030.88,665135.63
165006,816057,665728,164531.38,814993.69,665124.38
165094,816128,665594,164510.63,814968.38,665118.38
165002,816589,665957,164496.41,814955.13,665117.38
165218,816775,665864,164488.44,814954.88,665121.88
165319,816791,665942,164486.7,814967.63,665131.5
165358,817595,666202,164491.14,814992.63,665146
165678,817554,666141,164501.91,815030.13,665165.25
165816,817761,666239,164519.69,815081.13,665189.25
165629,817903,666327,164544.28,815145.63,665218.19
166029,818492,666581,164574.69,815223.63,665252.13
166064,818610,666524,164610.94,815315.44,665291.25
166100,818684,666536,164653.25,815420.56,665335
166254,819523,667099,164701.44,815537.75,665382.63
166451,819344,666863,164755.38,815666.63,665434.5
166554,819454,666853,164815.23,815807,665490.38
166603,819468,666868,164880.69,815957.38,665549.81
166676,819804,667038,164951.02,816116.38,665612.13
166709,819667,666953,165025.41,816282.88,665677.19
166900,819905,667054,165103.59,816455.31,665744.25
166869,820435,667215,165185.16,816632.5,665812.81
166947,820416,667186,165269.34,816814.13,665882.63
167158,820477,667242,165355.98,817000.25,665953.5
167240,820725,667452,165445.41,817190.38,666025.63
167276,821215,667580,165537.41,817384.38,666099.19
167453,820992,667360,165631.59,817582.38,666174.06
167374,820651,667321,165727.59,817781.94,666249.19
166161,817487,666007,165823.94,817977.81,666321
165593,815214,665108,165915.89,818156.63,666382.88
164991,813575,664357,165996.25,818298,666428.5
164605,811800,663875,166060.25,818389.19,666454.25
163837,811407,663630,166105.38,818426.25,666459
163601,810925,663401,166129.59,818408.63,666442.63
163335,810849,663436,166132.42,818339,666406.5
163200,811181,663552,166114.69,818224.06,666352.88
163134,811240,663608,166077.8,818071.63,666285
163111,811334,663782,166023.77,817887.63,666205.75
163152,812239,664189,165954.88,817677.81,666117.88
163361,812284,664049,165873.86,817449.44,666024
163460,812536,664077,165783.77,817209.5,665926.25
163621,812734,664244,165687.34,816963.31,665826.75
163767,813609,664427,165586.94,816716.31,665727.38
164025,813803,664584,165484.88,816474.25,665630
164248,814346,664819,165383.88,816241.75,665536.56
164531,815391,665365,165286.19,816022.38,665448.75
164639,815630,665269,165193.41,815820.38,665368
164919,816105,665499,165107.41,815639.94,665296
164905,816314,665629,165029.56,815483.5,665233.63
165081,816585,665687,164960.31,815351.69,665181.13
165151,816557,665690,164899.86,815243.75,665138.38
165175,816592,665720,164848.25,815158.19,665104.63
165118,816764,665748,164804.94,815093.25,665079.38
165221,816569,665728,164769.3,815047.25,665061.88
165290,816604,665610,164741.08,815018.06,665051.13
165281,816775,665804,164720.05,815004.06,665046.38
165370,816664,665778,164705.77,815004,665047.31
165301,816766,665858,164697.72,815016.44,665053.63
165481,816950,665881,164695.5,815040.38,665065
165428,817427,666038,164698.23,815076.13,665081.25
165566,817573,666051,164705.09,815124.75,665102.38
165764,817869,666225,164716.95,815186,665128.19
165900,818561,666492,164734.95,815259.75,665158.75
166043,818668,666474,164759.38,815346.63,665194.06
166225,819014,666633,164790.39,815447.31,665234.5
166459,819205,666732,164828.38,815562.06,665280.31
166701,819728,666856,164873.56,815690.63,665331.44
166746,820081,667021,164925.97,815833.25,665387.75
166880,820564,667190,164985.44,815990.63,665449.5
166620,821036,667461,165051.66,816162.38,665516.38
167223,821267,667451,165124.31,816348.25,665587.94
167459,821528,667562,165203.72,816547.88,665664.38
167516,821636,667667,165289.97,816760.25,665745.63
167600,822100,667706,165382.47,816984.06,665830.81
167767,822558,667834,165480.47,817219.13,665919.75
167914,822557,668010,165583.69,817464.75,666012.25
168062,823273,668215,165691.5,817719.44,666108.63
168144,823344,668188,165803.19,817982.06,666208.63
168336,823512,668317,165918.75,818252.5,666311.63
168446,823703,668571,166038.31,818529.75,666417.06
168356,823339,668196,166161.09,818811.38,666523.88
168178,822079,667691,166285.38,819091.44,666629.81
167513,819856,666860,166408.06,819358.75,666730.38
165446,815018,664898,166522.77,819598.13,666818.13
164963,813410,664187,166620.88,819790.81,666883.75
164631,812579,663844,166696.56,819920.25,666922.75
164287,811967,663653,166748.22,819981.13,666935
163769,811795,663656,166775.5,819977.06,666922.5
163715,811639,663583,166778.44,819913.63,666887.5
163780,811842,663707,166758.84,819797.75,666832.88
163717,812289,663799,166718.91,819637.75,666761.75
163813,812557,663978,166660.75,819442.44,666677.44
163954,812772,664109,166588.05,819219.5,666583.19
163997,813789,664684,166504.63,818976.38,666481.81
164375,814229,664639,166413.66,818721.38,666376.31
164613,814843,664908,166318.38,818463.06,666270.25
164736,815272,665383,166221.56,818208.25,666166.5
165151,816532,665432,166125.78,817963.25,666067.63
165339,817025,665700,166033.69,817735.19,665975.63
165568,817419,665912,165947.38,817528.5,665892.25
165822,818252,666463,165868.22,817345.38,665819.5
165945,818441,666385,165797.27,817188,665758.75
166043,818417,666296,165735.44,817057.25,665709.69
166112,818372,666592,165683.03,816951.75,665670.75
166113,818449,666309,165639.78,816869.25,665640.75
166061,818065,666031,165605,816807.13,665618.63
166041,818030,666076,165577.66,816762.19,665602.69
165756,817935,666112,165556.53,816732.25,665592.13
165904,817960,666120,165540.3,816715.88,665586.5
166010,817939,666018,165528.66,816711,665585.19
166123,818443,666320,165521.89,816715.88,665587.75
166135,818410,666295,165520.14,816730.38,665594.13
166339,818502,666438,165523.44,816755,665604.88
166302,818626,666427,165531.89,816789.5,665620.13
166446,819092,666603,165544.56,816834,665639.88
166639,819387,666662,165560.94,816889.44,665664.13
166651,819675,666658,165582.22,816956.75,665692.69
166914,820217,667111,165609.19,817035.88,665725.38
166939,820305,667094,165641.97,817126.88,665762.63
167237,820657,667104,165680.81,817230.38,665804.88
167322,820821,667439,165726.09,817346.5,665851.75
167581,821445,667355,165778.06,817475.25,665902.88
167713,821635,667520,165836.88,817617.19,665958.63
167828,821965,667641,165902.5,817772.13,666019.19
168015,822541,668150,165974.34,817939.56,666084.88
168139,822693,667958,166051.94,818119.38,666156.19
168242,822921,668007,166135.36,818311.31,666232.5
168259,823161,668450,166224.25,818514.44,666312.81
168464,823710,668307,166317.94,818728.25,666396.75
168564,823750,668368,166416.17,818952.63,666484.44
168656,823863,668427,166518.58,819185.88,666575.63
168425,822844,667818,166624.33,819425.94,666668.5
168059,821067,667156,166731.22,819665.38,666758.75
167223,818558,666308,166834.72,819887.63,666841
166174,814603,664553,166928.53,820074,666909.13
165071,813318,664023,167005.75,820208.75,666956.31
164826,812622,663840,167061.31,820281,666978.25
164462,812098,663737,167093.78,820289,666974.81
164192,812068,663605,167103.19,820237.13,666948.06
164026,812125,663608,167090.06,820131.63,666900.25
163939,812192,663729,167056,819980,666834.13
164151,813116,664067,167003.72,819789.63,666753
164257,813297,664193,166936.58,819568.88,666660.5
164334,813735,664300,166857.69,819327.5,666560.31
164485,814179,665099,166769.7,819073.44,666455.56
164984,815311,664991,166675.97,818814.63,666349.38
165160,816010,665113,166580.25,818559.75,666245
165322,816638,665404,166485.33,818316.06,666144.88
165779,818134,666230,166392.75,818089.5,666051.5
166044,818581,666251,166304.59,817886.63,665967.75
166219,819002,666377,166223.88,817711.75,665895.5
166484,819215,666803,166152.77,817566.5,665835.13
166489,819652,666728,166091.94,817450.69,665786.75
166558,819620,666643,166041.28,817363.75,665750.19
166748,819609,666680,166000.56,817303.5,665724.69
166496,819318,666510,165969.5,817267.5,665708.81
166677,819144,666520,165947.16,817252.38,665701
166585,818958,666405,165932.52,817253.56,665699.81
166520,818756,666397,165924.41,817267.25,665703.94
166383,818704,666301,165921.48,817290.88,665712.13
166514,818747,666417,165922.77,817322.44,665723.81
166589,818769,666241,165928.13,817360.63,665738.63
166634,819155,666449,165937.48,817405.38,665756.13
166680,819303,666521,165950.5,817457.13,665776.38
166886,819458,666467,165967.47,817516.44,665799.5
166803,820132,666715,165988.72,817583,665825
166976,820323,666815,166014.14,817657.88,665853.19
167067,820303,666867,166043.58,817742.13,665884.75
167263,820570,667005,166077.23,817835.88,665919.94
167447,821205,667101,166115.59,817939.25,665958.88
167635,821379,667246,166159.2,818053.5,666001.75
167801,821646,667248,166208.47,818179,666048.38
167960,822470,667675,166262.84,818315.56,666098.88
168093,822436,667591,166321.75,818463.94,666153.5
168302,822647,667685,166386.13,818623.88,666212.38
168325,822856,667936,166456.64,818794.5,666274.88
168462,823320,667975,166532.75,818975.25,666341
168495,823617,667939,166613.84,819166.38,666410.75
168805,823784,668181,166699.72,819367.38,666484
168818,824078,668197,166789.91,819577.19,666560.75
168805,823729,668009,166883.36,819793.81,666640
168556,822431,667413,166979,820011.94,666719.25
167831,817341,665513,167074.11,820220.25,666793.75
165803,815008,664514,167161.22,820398.13,666855.5
165398,813618,664008,167231.14,820522.5,666895.63
164980,812850,663594,167279.42,820582.88,666910
164330,812045,663381,167305.41,820579.5,666898.88
164160,811890,663312,167308.69,820515.31,666863.5
164055,811834,663373,167289.28,820395.69,666806.5
164025,812283,663640,167248.7,820227.88,666731
164027,812531,663523,167189.56,820020.13,666640
164264,812828,663759,167114.75,819781.56,666537
164395,813181,663759,167027.66,819520.13,666425.25
164550,813946,664364,166931.56,819243.75,666308.31
164656,814529,664386,166829.22,818960.75,666189.75
164852,814841,664544,166723.13,818678,666072.19
164843,816415,665218,166615.22,818401.25,665957.75
165418,816651,665295,166507.63,818137.25,665849.44
165742,817044,665539,166404.03,817892.25,665749.69
166042,817615,665769,166307.67,817670.06,665659.88
166191,818443,665878,166220.41,817474.06,665580.88
166313,818565,665968,166143.09,817306.81,665513.13
166283,818549,666045,166075.81,817168.13,665456.63
166141,818556,666133,166017.19,817056,665411.13
166265,818273,665901,165965.72,816967.81,665375.63
166235,818120,665830,165921.66,816899.88,665348.5
166298,818278,666059,165885.23,816849.13,665328.06
166271,818075,665896,165855.92,816813.5,665313.63
166259,818127,665852,165833.13,816791.5,665304.94
166362,818175,665968,165816.31,816781.81,665301.5
166451,818506,666044,165805.31,816784,665303.31
166592,818635,666088,165800.19,816798.06,665310.25
166618,818789,666166,165801.13,816824,665322.06
166724,819279,666526,165808.06,816861.5,665338.63
166961,819585,666450,165821.13,816911,665359.75
167056,819913,666468,165840.75,816973.88,665385.94
167114,820087,666519,165866.88,817050.63,665417
167310,820757,666883,165898.47,817141.5,665453.13
167363,820925,666837,165934.72,817247.19,665494.75
167580,821067,666945,165976.59,817367.38,665541.56
167608,821975,667379,166024.7,817501.19,665593.38
167961,821838,667234,166078.84,817648.75,665650.5
168049,822183,667386,166139.64,817809.75,665712.63
168280,822372,667694,166207.56,817983.69,665780
168465,823035,667807,166282.58,818170.13,665853.19
168521,823184,667748,166364.53,818369.38,665931.75
168662,823475,667870,166452.81,818580.75,666014.75
168362,823899,668206,166546.63,818803,666102
168743,823509,667855,166645.05,819034.44,666193.13
168654,822541,667473,166746.94,819270.06,666285.63
168125,817983,665703,166850.03,819500.13,666375.19
166155,815441,664547,166947.75,819705,666453.88
165557,813764,663886,167030.7,819861,666512
165115,812778,663502,167093.44,819955.38,666544.63
164477,811789,663259,167134.41,819986.19,666551.5
164222,811502,662993,167152.66,819954.75,666533.38
164000,811396,662968,167147.81,819865.5,666491.88
163948,811812,663251,167120.78,819725.25,666429.63
163789,811973,663193,167073.53,819542.25,666350
163896,812138,663342,167008.27,819325,666256.56
163906,812189,663448,166927.72,819080.38,666152.63
164099,812949,663712,166834.25,818815.25,666041.38
164175,813295,663958,166730.38,818537.63,665926.06
164320,813578,663959,166619.56,818254.13,665809.44
164538,814853,664362,166504.31,817969.94,665693.19
164701,815005,664601,166386.64,817691.31,665579.56
164990,815388,664687,166269.94,817424.69,665471.38
165077,815919,665102,166157.19,817174.69,665370.25
165326,816809,665320,166050.06,816945.5,665277.63
165604,817086,665392,165950.25,816741,665195.5
165660,817300,665496,165859.19,816562.94,665124.38
165589,817561,665623,165777.41,816411.13,665064.38
165721,817278,665486,165704.72,816284.38,665015.06
165693,817278,665462,165640.63,816180.19,664975.13
165687,817352,665506,165584.48,816095.94,664943.38
165711,817248,665456,165535.73,816029.56,664918.75
165966,817306,665488,165494.41,815979.75,664900.88
165772,817206,665433,165460.53,815945.13,664889.25
165860,817489,665522,165433.36,815924.5,664883.25
165944,817686,665580,165412.33,815917.63,664882.5
165951,817882,665657,165397.44,815924.5,664887
166126,818763,666026,165388.64,815944.88,664896.56
166367,818724,666012,165386.41,815979.5,664911.5
166349,818768,665955,165391.13,816029.19,664932.19
166611,819263,666212,165402.81,816093.88,664958.5
166806,819993,666270,165421.67,816174.63,664990.5
166893,820063,666439,165447.91,816272.56,665028.25
167004,820355,666523,165481.47,816387.13,665071.81
167208,821197,666812,165522.36,816517.69,665121.25
167537,821286,667046,165570.89,816664.5,665177.13
167608,821529,667028,165627.58,816827.44,665239.63
167836,821753,667294,165692.41,817005.63,665308.19
167969,822248,667367,165765.13,817198.13,665382.38
168015,822383,667406,165845.3,817404.44,665462.13
168061,822598,667408,165931.94,817623.06,665546.63
168358,823254,667860,166024.14,817852.81,665635.63
168410,823394,667779,166121.53,818093.25,665729.63
168606,823535,667810,166224.19,818343.75,665827.75
168705,823894,668356,166332.05,818602.94,665929.06
168715,823484,667843,166444.47,818868.25,666032.81
168264,821900,667225,166559.47,819133.75,666136.63
167637,819711,666297,166673.14,819387.25,666235.75
165605,814730,664299,166778.84,819612.81,666321.69
165100,813401,663554,166868.13,819792,666385.06
164723,812558,663229,166935.13,819908.88,666421
164391,812135,663214,166978.16,819958.88,666429.56
163912,811633,663022,166996.94,819945,666412.44
163739,811678,663033,166991.53,819872.75,666372.44
163768,811788,663145,166963.31,819749.13,666312.88
163731,812367,663209,166914.81,819582.63,666237.06
163797,812493,663495,166848.73,819382,666148.38
163888,812755,663537,166768.03,819154.75,666050.31
163634,813318,664027,166675.27,818907.25,665945.5
164096,813715,664022,166572.78,818646.19,665836.63
164314,813973,664045,166463.91,818378.81,665726.63
164436,814464,664504,166351.91,818111,665617.5
164906,815368,664680,166239.66,817848.63,665511.5
165120,815965,664926,166130.33,817598.25,665411.56
165281,816413,664935,166026.34,817365.06,665319.31
165523,816991,665333,165929.03,817152.38,665235.75
165627,817380,665383,165839.5,816963,665162.13
165777,817494,665355,165758.78,816798.38,665098.56
165736,817534,665708,165687.31,816658,665044.63
165859,817567,665581,165624.89,816540.44,665000.25
165757,817528,665449,165571.09,816444.13,664964.88
165855,817504,665381,165525.31,816367,664937.38
165856,817435,665482,165486.48,816307.88,664916.63
165792,817282,665458,165453.47,816265,664902.13
165910,817639,665530,165426.5,816236.25,664893.63
165999,818083,665664,165406.16,816220.5,664890.63
166081,818021,665635,165392.53,816217.88,664892.94
166196,818266,665860,165385.59,816228.5,664900.63
166240,818526,665907,165385.25,816252.81,664914.13
166395,819138,666086,165390.98,816291.63,664933.56
166607,819389,666179,165402.61,816346,664959
166858,819775,666235,165421.31,816416.5,664990.25
166754,820337,666648,165448.06,816503,665027.25
167027,820577,666629,165482.72,816605.75,665070.13
167230,820876,666637,165524.88,816725,665119
167381,821212,666915,165574.47,816860.75,665173.5
167729,821737,667038,165631.81,817012.69,665233.56
167858,822014,667137,165697.38,817181,665299.44
167913,822160,667209,165770.94,817364.63,665371
168053,822587,667554,165851.63,817562.19,665448
168153,822626,667409,165938.72,817772.31,665530.63
168240,822789,667579,166031.72,817993.38,665617.88
168355,823021,668007,166130.03,818223.75,665708.88
168524,823620,667868,166233.19,818462.88,665803.38
168675,823903,668006,166340.97,818711.13,665901.5
168735,823887,667854,166453.03,818967.63,666003.13
168783,824294,668005,166568.31,819231,666106.81
168893,824162,668053,166685.81,819499.81,666212.13
168792,823356,667709,166805,819770.13,666317.81
168483,819494,665925,166924.36,820033.69,666420.63
166365,816369,664808,167037.84,820272.31,666513.06
165652,814303,663987,167135.66,820460.56,666584.63
165072,813321,663574,167211.38,820583.69,666629.63
164427,812239,663178,167262.38,820639.13,666647
164280,811890,663065,167287.34,820627.88,666637.5
163959,811962,663088,167286.98,820554.88,666603.25
163912,812526,663351,167262.81,820427.56,666547.25
163997,812579,663370,167217.19,820254.5,666473
164068,812815,663495,167153.31,820045,666384.56
164154,813116,664005,167074.41,819807.25,666285.38
164332,813725,663979,166983.56,819549,666178.63
164453,814202,664031,166883.84,819278.19,666067.75
164719,814705,664302,166778.31,819002,665955.44
165092,815907,665071,166670,818727.13,665845.06
165339,816349,665045,166562.06,818460.38,665740.56
165558,816907,665121,166457.5,818208.75,665643.38
165696,817328,665734,166358.47,817976.75,665554.19
166025,818235,665717,166266.56,817768.13,665474.31
166182,818443,665776,166183.34,817586.13,665405.06
166279,818570,665793,166109.75,817431.5,665346.63
166103,818485,665834,166045.64,817303.44,665298.25
166310,818421,665785,165990.38,817200,665259.38
166284,818342,665706,165943.59,817118,665228.75
166286,818524,665744,165904.83,817054.38,665205.5
166340,818275,665690,165873.5,817006.88,665188.63
166356,818210,665787,165849.2,816974,665177.75
166344,818264,665720,165831.39,816954.13,665172.25
166416,818444,665867,165819.31,816946.5,665171.88
166497,818629,665884,165812.53,816950.63,665176.38
166602,818919,665916,165811.31,816966.75,665185.5
166812,819627,666250,165816,816995.38,665199.38
166857,819846,666288,165826.67,817037.44,665218.5
167069,820065,666486,165843.72,817094.38,665243.31
167277,820361,666787,165867.72,817166.5,665273.94
167465,820985,666705,165899.19,817254.25,665310.19
167584,821195,666789,165938.3,817358.13,665352.13
167813,821567,667008,165985.06,817478.25,665399.94
167954,822167,667553,166039.16,817614.5,665454
168100,822308,667348,166100.16,817766.88,665514.94
168288,822493,667310,166168.31,817934.5,665582
168319,822764,667677,166243.69,818116,665654.13
168468,823208,667577,166325.63,818310.5,665730.75
168640,823494,667701,166413.66,818517.75,665811.81
168694,823543,667714,166507.44,818736.75,665897
168724,823958,667903,166606.03,818965.81,665985.88
168915,824154,668053,166708.5,819204.06,666078.25
168988,824330,668053,166814.73,819450.5,666173.94
169131,824839,668369,166924.53,819703.75,666272.25
169149,824873,668338,167037.38,819962.75,666372.75
169234,825057,668265,167152.56,820226.88,666475.25
169309,825008,668357,167269.44,820495,666579.06
169262,824448,667959,167387.17,820763.75,666682.88
168935,822900,667383,167504,821026.13,666783.5
168126,820412,666337,167616.56,821269.75,666875.94
166067,815223,664312,167718.98,821477.63,666953.38
165598,814015,663870,167803.44,821630.63,667008.5
165091,813150,663471,167863.38,821714.5,667035.94
164907,812779,663383,167896.63,821726.88,667034.63
164602,812751,663484,167903.88,821673,667007.13
164480,812899,663437,167886.44,821560.44,666956.81
164539,812953,663476,167846.47,821397.5,666886.75
164548,813873,664114,167786.22,821193.31,666800.38
164954,814120,664128,167708.72,820957.69,666702.06
165000,814575,664080,167618.81,820699.88,666595.63
164926,815042,664723,167520.08,820427.44,666484
165484,816255,664833,167415.09,820148.94,666370.31
165739,816747,665060,167307.75,819873.25,666258.25
165999,817332,665293,167201.53,819607.25,666150.63
166488,818447,665791,167098.86,819356.19,666049.88
166638,818842,665935,167002.11,819125.5,665958.38
166823,819127,666066,166913.59,818919.06,665877.38
166950,819625,666311,166834.67,818738.5,665807.38
166958,819721,666234,166765.64,818584.25,665748.25
166980,819552,666242,166706.13,818455.75,665699.75
166967,819581,666073,166655.55,818350.69,665660.5
167071,819477,666091,166613.34,818266.75,665629.25
166923,819376,666110,166578.88,818201.5,665605.06
166978,819344,666121,166551.28,818152.63,665587.38
166846,819580,666169,166529.88,818118.13,665575.75
167017,819541,666177,166514.19,818096.88,665569.63
167112,819686,666236,166504.03,818088.44,665568.81
167135,819769,666261,166499.38,818092.56,665572.88
167440,820341,666550,166500.44,818109.38,665582
167541,820456,666618,166507.88,818139.63,665596.75
167585,820750,666620,166521.89,818183.63,665617.13
167559,821730,667119,166541.7,818241.63,665642.81
167907,821597,666969,166566.91,818314.69,665674.13
168168,821790,667110,166598.59,818402.88,665711.25
168265,822162,667355,166637.75,818505.94,665754.13
168546,822510,667388,166684.56,818623.56,665802.38
168647,822782,667479,166739.17,818755.63,665856.38
168686,822977,667452,166801.22,818901.63,665915.63
168774,823445,667904,166869.27,819060.38,665980.13
169076,823769,667848,166942.44,819231.56,666050.13
169010,823760,667843,167021.34,819414.88,666125.25
169182,824274,668128,167106,819608.94,666204.25
169303,824432,668089,167195.81,819812.63,666286.75
169427,824768,668202,167290.53,820026,666372.56
169472,824879,668214,167389.63,820248.63,666461.63
169526,825065,668350,167492.22,820479.19,666553.25
169635,825467,668488,167597.52,820716.63,666647.25
169706,825537,668515,167705.19,820960.5,666743.63
169826,826027,669006,167814.98,821209.5,666841.69
169761,825907,668778,167926.34,821462.38,666941.38
169864,825629,668567,168038.41,821717.38,667042.13
169808,825010,668426,168150.38,821970.5,667142.38
168698,821010,666600,168260.44,822209.94,667237.06
167560,818141,665431,168362.78,822414.63,667317.25
166598,815912,664509,168448.58,822565.19,667374.75
165446,814275,664090,168511.03,822651.63,667405.56
165359,813638,663583,168546.89,822670.69,667408.75
165336,813468,663577,168555.94,822623.38,667384.69
165258,813389,663871,168540.25,822514.75,667335.63
165252,814134,663847,168502.55,822353.63,667265.38
165326,814413,664029,168445.63,822150.38,667178.19
165504,814618,664197,168372.75,821914.25,667078.19
165554,815629,664644,168286.56,821653.25,666969.38
165964,816301,664806,168189.91,821376.75,666855.75
166231,816927,665028,168087.41,821094.69,666740.5
166408,818380,665729,167983.19,820815.19,666626.31
166867,818867,665725,167880.17,820545.69,666515.94
167227,819484,666157,167781.66,820294.13,666412.63
167430,820009,666444,167690.34,820066,666319.38
167679,820895,666820,167607.55,819864.81,666238.13
167874,821002,666726,167534.14,819693.38,666169.75
167949,821192,666692,167471.23,819551.75,666113.63
168073,821343,667049,167419.28,819438.38,666068.5
167951,821056,666709,167377.75,819350.88,666033.5
167982,821037,666657,167345.58,819286.31,666007.44
168026,820929,666697,167321.84,819242,665989.38
167854,820853,666655,167305.27,819215.25,665978.5
168008,820856,666708,167294.47,819203.75,665974
168049,820932,666828,167289.56,819205.88,665975.5
167947,821495,667033,167290.09,819220.75,665982.88
168208,821422,666966,167295.16,819248.19,665996.13
168450,821573,666974,167305.84,819288.13,666014.69
168535,821766,667218,167323.34,819340.25,666038.38
168660,822253,667225,167347.73,819404.5,666067
168677,822459,667355,167378.66,819481.5,666100.81
168903,822749,667378,167415.86,819571.44,666139.63
168584,823304,667826,167459.13,819674.25,666183.75
169081,823495,667761,167508.13,819790.25,666233.75
169255,823783,667814,167562.88,819919.5,666289.25
169468,824416,668057,167623.66,820061.63,666349.44
169655,824504,668043,167690.75,820216.13,666413.88
169754,824645,668087,167764.17,820383,666482.38
169747,824786,668240,167843.34,820561.5,666554.75
169846,825113,668341,167927.19,820750.25,666631
170062,825378,668501,168015.03,820948.75,666710.81
170157,825478,668512,168107.16,821156,666794.13
170061,825870,668896,168203.13,821371,666880.31
170225,826041,668718,168301.91,821593.06,666968.88
170310,826189,668838,168403.03,821821.5,667059.88
170384,826309,668837,168506.23,822055,667153
170393,826544,668921,168610.44,822292.44,667247.63
170420,826328,668732,168714.45,822532.38,667342.88
170447,825944,668686,168818.25,822771.56,667437.38
169526,822541,667106,168920.75,823004.88,667528.63
168213,819279,665950,169016.34,823216.5,667609.88
167273,817044,664889,169096.25,823380.88,667671.06
166730,815421,664102,169154.16,823480.75,667705.63
165986,814222,663940,169187.17,823510.63,667711.75
165819,814200,663838,169193.97,823471.25,667690
165752,814116,663924,169175.44,823368.63,667643
165491,814569,664236,169134,823210.75,667574.75
165736,814870,664215,169072.28,823006.88,667489.38
165954,815226,664422,168993.63,822767,667390.5
166128,816460,664804,168901.89,822500.25,667281.5
166455,816915,665040,168800.89,822216.25,667166
166722,817597,665274,168694.47,821925.63,667048
166867,818278,665571,168585.84,821637.5,666931.13
167500,819569,666285,168477.75,821359.63,666818.63
167750,820089,666415,168373.38,821099.88,666714.5
167943,820553,666530,168276.03,820863,666620.25
168035,821836,667179,168187.47,820651.63,666536.63
168372,821665,666952,168108.63,820467.88,666464.38
168484,821563,667003,168040.55,820313.06,666403.94
168538,821724,667029,167983.59,820186,666354.94
168453,821548,666875,167937.11,820084.5,666316.25
168455,821536,666956,167900.03,820005.88,666286.63
168528,821395,666897,167871.47,819947.38,666265.13
168438,821629,666864,167850.53,819906.63,666250.88
168461,821471,666895,167836.08,819881.75,666243.06
168513,821202,666839,167827.69,819870.63,666240.75
168545,821314,667099,167825.27,819871.38,666243.38
168487,821632,666910,167828.22,819882.94,666250.38
168692,821853,667119,167836.14,819905.75,666261.75
168966,822212,667182,167849.53,819940.38,666277.81
169041,822806,667485,167869.03,819987.56,666299.06
169197,822870,667443,167894.72,820047.88,666325.88
169400,823023,667626,167926.88,820121.5,666358.13
169487,823794,667956,167965.84,820208,666395.5
169632,823719,667767,168011.47,820307.13,666437.75
169738,824064,667940,168063.53,820419.56,666484.88
169851,824321,667984,168121.75,820545.25,666536.81
169952,824598,668190,168185.66,820684.38,666593.63
170008,824904,668173,168254.69,820836.63,666655
170171,825181,668252,168328.55,821001.25,666720.44
170289,825803,668615,168407.14,821176.63,666789.38
170268,825750,668580,168490.03,821361.75,666861.75
170500,825873,668649,168576.66,821556.5,666937.88
170542,825887,668666,168666.86,821759.69,667017.5
170653,826426,668735,168760.22,821970.25,667099.88
170686,826443,668786,168856.13,822187.75,667184.56
170525,826192,668679,168953.69,822410.38,667270.75
170192,824048,667815,169051.75,822633.75,667356.63
169367,821328,666600,169147.25,822845.38,667437
168142,818712,665585,169233.19,823023.88,667503.19
167327,816587,664414,169301.81,823150.88,667547.94
166557,814946,664089,169348.03,823215.75,667567.38
166361,814560,663912,169369.47,823214.88,667560
166312,814418,663840,169366.63,823151.25,667527
166093,814841,664128,169341.41,823031.88,667471.56
166196,814954,664168,169295.88,822865.5,667397.75
166287,815375,664254,169232.91,822661,667309
166320,816331,665000,169155.66,822427,667208.63
166848,816904,665049,169067.64,822172.88,667100.88
167053,817456,665187,168973.09,821908.75,666990
167303,818285,665559,168875.69,821643.5,666879.38
167746,819853,666268,168777.41,821385.06,666772.75
168053,820548,666474,168680.59,821141.94,666674
168178,821074,666558,168589.09,820921.63,666585.13
168545,822430,667154,168505.75,820728.19,666506.88
168828,822362,667209,168432.3,820564.31,666440.31
169069,822490,667167,168370.28,820431.63,666386.44
169111,822594,667280,168320.28,820329.56,666344.88
169206,822558,667250,168281.91,820255.75,666314.75
169090,822396,667236,168254.13,820207.13,666295.13
169167,822208,667075,168235.92,820180.25,666284.38
168618,822022,667218,168226.28,820171.69,666281.25
168955,822006,667113,168223.75,820178.75,666284.88
169052,821853,667128,168227.19,820198.44,666294.31
169096,822164,667267,168236.16,820228.75,666308.63
169199,822382,667350,168250.47,820269.56,666327.38
169312,822433,667259,168270.03,820320.63,666350.63
169397,822689,667406,168294.91,820381.63,666378.31
169629,822926,667636,168324.98,820452.38,666410.44
169708,823360,667627,168360.41,820533.5,666447.31
169788,823586,667724,168401.38,820625.5,666488.75
169909,823828,668170,168447.75,820728.38,666534
170178,824294,667934,168499.63,820842.25,666582.88
170281,824552,668007,168557.42,820967.63,666635.5
170337,824694,668151,168620.97,821104.31,666692.13
170441,825119,668245,168688.84,821251.88,666752.63
170508,825324,668393,168759.83,821410.56,666817.13
170621,825368,668404,168834.52,821579.13,666885.38
170728,826152,668768,168913.5,821755.88,666956.88
170759,826025,668550,168996.38,821940.13,667031.25
170953,826285,668672,169082.7,822132.25,667108.25
170968,826290,668731,169172.28,822331.69,667187.63
171048,826702,668880,169264.05,822537.5,667269.13
171154,826599,668799,169357.05,822748.63,667352.44
171098,826328,668765,169451.44,822962.88,667436.63
169938,823331,667439,169546.59,823175.38,667519.75
169165,820569,666251,169637.75,823371.81,667595.81
168169,818007,665215,169716.16,823528.81,667654.88
167444,816377,664303,169774.56,823628.63,667689.94
166828,814872,664052,169809.25,823664,667698.38
166639,814654,663943,169818.84,823633.25,667680
166442,814603,663953,169804.06,823540.75,667636.63
166444,814962,664278,169766.58,823394,667572
166521,815354,664336,169709,823202.13,667490.38
166574,815799,664403,169634.66,822975.06,667395.19
166837,816324,665125,169547,822722.25,667289.75
167153,817567,665235,169449.91,822453.63,667178.13
167461,818181,665463,169347.38,822179.5,667064.75
167627,818804,665718,169242.81,821908.31,666953
168048,820246,666264,169138.75,821646.63,666845.75
168321,820797,666509,169037.84,821401.5,666746.38
168807,821412,666673,168943.5,821179.75,666656.75
169014,822910,667192,168858.72,820985.5,666577.88
169381,822774,667372,168785.31,820821.38,666511.25
169490,822919,667443,168724.41,820689.38,666458
169520,823013,667391,168676.08,820589.13,666417.94
169486,822951,667541,168639.17,820518.13,666390.13
169561,822932,667303,168612.36,820473.25,666373.25
169405,822791,667291,168594.89,820451.38,666365.56
169366,822868,667401,168585.83,820449.31,666365.5
169507,822542,667292,168584.31,820463.75,666372
169594,822690,667155,168589.84,820492.19,666384.25
169640,822761,667435,168602,820533.25,666401.19
169655,823104,667403,168620.28,820586.25,666422.75
169837,823220,667510,168644.28,820651.06,666448.94
169982,823506,667510,168674.13,820727.38,666479.63
170200,824086,668128,168709.86,820815.13,666515.38
170266,824284,668038,168751.41,820915,666557.5
170406,824471,668044,168798.98,821027.31,666605.63
170537,824716,668316,168852.72,821151.75,666658.88
170596,825496,668423,168912.36,821288.63,666716.88
170820,825463,668380,168977.63,821438.81,666779.94
170960,825716,668483,169048.56,821601.38,666847.63
170694,826252,668660,169124.84,821775.5,666919.38
171043,826261,668601,169205.63,821961.13,666995.06
171099,826445,668736,169290.28,822156.75,667074
171209,826934,669009,169378.33,822360.81,667155.75
171356,826966,669001,169469.52,822572.13,667240.38
171417,827187,669154,169563.66,822790.5,667328
171445,827282,669137,169660.25,823015.19,667418.38
171434,827338,669321,169758.34,823244.69,667511.13
