394158,806976,915774,393115.84,806544.44,915633
394485,807183,916203,393091.69,806539,915626.63
394677,807139,916116,393079.38,806537.75,915624.25
394834,807248,916010,393079.63,806541.06,915625.75
395162,807323,916332,393092.97,806549.13,915630.31
395464,807613,916342,393119.88,806562.31,915638.25
395857,807630,916308,393160.88,806581.13,915650
396313,807704,916333,393216.97,806605.5,915665.25
396681,808082,916742,393287.19,806635.88,915684.38
396943,808085,916627,393370.25,806673.25,915707.88
397382,808237,916759,393468.31,806717.06,915735.94
397767,808685,916802,393583.38,806766.75,915767.94
398263,808415,916827,393715.81,806822.13,915803.75
398815,808695,917181,393866.03,806883,915843.44
399085,808871,917087,394034.38,806949.81,915887.38
399567,809112,917260,394218.06,807023,915935.5
399906,809141,917373,394414.66,807102.5,915987.5
400244,809277,917447,394626.13,807187.81,916043.44
400142,809524,917794,394854,807278.44,916103.06
400889,809575,917674,395097.19,807374.13,916166.13
401400,809584,917712,395354.69,807474.38,916232.56
401432,809811,917932,395625.31,807578.63,916302.25
401956,809782,917844,395907.63,807686.63,916375
401719,809374,917581,396199.66,807796.5,916449.5
400942,809055,917325,396496.84,807905.25,916523.5
398472,807873,916722,396790.69,808008.94,916594.13
397637,807370,916356,397069.44,808102.63,916657.81
396686,806844,915883,397321.56,808181,916711.63
396023,806367,915820,397539.94,808240.44,916753.25
394462,806081,915322,397720,808279.56,916781.25
393966,805769,914970,397857.03,808298,916795
393434,805659,915063,397949.5,808296.13,916794.63
392413,805589,915067,397997.84,808275.88,916781.44
392578,805463,914978,398003.19,808239.13,916757.13
392492,805782,915056,397968.5,808187.88,916722.88
392378,806017,915270,397897.69,808124.25,916680.56
392527,805921,915264,397795.31,808051,916631.94
392524,805967,915234,397666.13,807970.38,916578.75
392643,806010,915206,397514.63,807884.63,916522
392798,806215,915458,397343.84,807795.38,916462.75
393257,806375,915532,397157.31,807705,916402.81
393472,806525,915638,396962.13,807615.5,916343.56
394137,806939,916115,396765,807528.31,916285.88
394409,807032,916075,396570.66,807445.13,916231
394672,807150,916211,396383.06,807368,916180.88
394822,807093,916349,396204.78,807298.06,916136.38
395155,807168,916132,396037.59,807235,916097.25
395140,807009,916207,395882.94,807178.5,916063.13
395274,807213,916207,395741.25,807128.13,916033.94
395158,807232,916572,395612.44,807084.13,916009.5
395423,807153,916147,395496.41,807046.88,915989.63
395443,807068,916121,395393.13,807015,915973.38
395400,807137,916346,395302.25,806987.5,915960.31
395199,807194,916176,395222.44,806964.38,915950.38
395738,807372,916288,395153.19,806945.81,915943.5
395877,807282,916285,395095.56,806932.13,915939.75
395830,807541,916322,395050.56,806923.38,915939.13
396476,807596,916393,395018.81,806920.31,915941.38
396806,807745,916546,395001.31,806922.94,915946.75
397296,807949,916843,394999.41,806931,915955.69
397636,807991,916718,395014.25,806944.38,915968.31
398036,808105,916849,395046.63,806963.63,915984.88
398353,808294,916892,395096.94,806989.13,916005.75
398680,808463,917041,395164.25,807021.13,916030.75
399267,808652,917029,395248,807060,916060
399469,808797,917199,395349.75,807105.81,916093.19
400004,809194,917302,395469.81,807158.5,916130.38
400444,809196,917486,395607.88,807218.13,916171.63
400726,809217,917540,395764.38,807284.63,916217.31
401144,809394,918033,395939.09,807357.75,916267.13
401749,809669,917782,396131.75,807437.38,916320.56
401921,809642,917796,396342.09,807523.38,916377.88
402175,809780,917890,396568.72,807615.13,916439
402628,810277,918570,396808.63,807712.44,916504.38
402989,810186,918138,397059.63,807815.63,916574.38
403132,810127,918072,397322.66,807923.88,916648
403105,809886,918031,397597,808035.25,916723.38
401738,808951,917295,397877.06,808145.88,916798.06
400666,808268,916902,398153,808249.81,916868.13
399372,807723,916470,398414.63,808342,916930.25
397509,806948,915936,398652.94,808419.25,916981.5
396730,806352,915679,398859.75,808479,917019.63
396080,806144,915656,399028.44,808517.75,917043.88
395127,805887,915465,399155.16,808534.69,917054.56
393924,805737,915250,399237.13,808530.81,917051.75
393656,805588,915066,399272.31,808507.13,917035.88
393375,805728,915130,399262.25,808465.38,917008
393132,805721,915226,399210.19,808408.25,916969.56
392761,805855,915314,399119.25,808338.38,916922.94
392755,805771,915403,398992.94,808258.13,916870
392661,806033,915471,398835.94,808169.38,916812.06
392867,806020,915472,398653.47,808073.94,916750.06
392858,806068,915446,398450,807974.38,916685.5
392911,806126,915527,398229.63,807872.56,916619.63
393437,806525,915778,397997,807770.5,916553.75
393778,806655,915835,397757.94,807670.81,916489.63
394020,806687,915935,397517.63,807575.25,916428.25
393451,807271,916452,397278.38,807484.88,916370.88
394540,807028,916131,397042.13,807401.13,916318.31
394702,807010,916158,396813.5,807324.31,916270.75
394663,806924,916183,396595.91,807254.06,916227.88
395165,807032,916193,396390.69,807190,916189.5
395203,807025,916065,396199.72,807132.13,916155.38
394939,807125,916002,396023.31,807080.38,916124.75
394832,806955,916168,395859.25,807034.75,916097.19
395245,806992,916093,395706.41,806994.31,916073
395260,807023,916095,395566.69,806958.63,916051.88
395241,807221,916368,395441.06,806927.56,916033.75
395433,807164,916198,395329.06,806901,916018.75
395666,807087,916157,395231.06,806879.13,916006.63
395692,807189,916271,395147.31,806861.56,915997.38
396110,807480,916527,395077.5,806848.88,915991.44
396522,807570,916568,395022.19,806841.88,915989.75
396689,807512,916388,394983.25,806840.81,915992.13
397107,807842,916822,394961.38,806845.13,915997.5
397287,807875,916824,394956.44,806855.06,916006.38
397735,807969,916777,394969.19,806871.13,916019.44
398083,808165,916885,395000.44,806893.5,916036.81
398432,808489,917106,395049.44,806922.75,916058.5
398854,808459,917059,395115.19,806959.38,916084.88
399069,808636,917208,395199,807003.13,916115.63
398488,809028,917621,395300,807053.63,916150.88
399805,808796,917349,395416.31,807110.75,916191
399920,808874,917272,395549.09,807173.75,916234.88
400335,809111,917780,395698.81,807242.13,916281.75
400954,809318,917565,395865.31,807316.06,916331.63
401284,809361,917682,396048.94,807395.69,916384.69
401350,809420,917734,396248.88,807480.38,916440.88
401464,809333,918021,396461.53,807569.13,916500.44
401227,809088,917578,396682.69,807660.25,916562.75
400810,808700,917308,396909.56,807750.94,916625.5
399852,807808,916786,397137.34,807837.75,916685.63
397967,807186,916405,397356.63,807916.13,916739.88
396984,806738,915912,397556.25,807981.06,916785.31
396223,806444,915810,397728.75,808029.56,916819.75
394469,805833,915430,397869.41,808060.19,916842.13
393780,805710,915173,397973.16,808071.88,916851.88
393140,805470,915184,398035.38,808064.63,916848.69
392539,805354,915460,398054.59,808039.63,916833.63
391835,805392,915111,398031,807998.19,916808
391368,805437,915038,397965.25,807942.69,916773
391213,805344,914898,397859.56,807875.13,916729.25
390733,805363,915117,397716.19,807797.13,916677.94
390996,805391,915001,397538.25,807710.56,916620.63
390880,805460,915194,397331.81,807617.25,916558.69
390600,806050,915610,397101.56,807519.69,916494
391067,805947,915440,396851.19,807420.88,916428.44
391525,805944,915418,396587.34,807322.75,916363.13
391723,806139,915756,396316.94,807226.38,916298.88
392369,806412,915733,396045.44,807133.5,916236.88
392559,806515,915867,395778.06,807045.88,916178.38
392785,806495,915815,395518.56,806964.5,916124.13
392085,806536,916146,395268.44,806889.63,916074.63
392987,806513,916022,395028.59,806821.25,916030.63
392950,806384,915838,394800.81,806758.75,915991.5
393167,806570,915824,394586.69,806701,915956.25
393231,806554,915840,394387,806648.13,915924.19
393198,806400,915834,394202.09,806600.13,915895.13
393190,806398,915710,394031.56,806556.5,915868.88
393279,806470,915891,393874.56,806517.06,915845.13
393356,806583,915878,393730.75,806482,915824.13
393556,806643,915903,393600.81,806451.63,915806
393445,806896,916349,393485.19,806426.38,915790.75
394070,806824,916198,393384.22,806406.5,915778.5
394331,806841,916162,393299.44,806391.88,915770.19
394509,806997,916307,393231.94,806382.5,915766.06
394844,807219,916275,393180.5,806378.88,915766.06
395225,807288,916339,393144.25,806381.56,915769.94
395387,807378,916364,393125.59,806390.63,915777.38
395499,807901,916673,393124.47,806406.38,915788.5
396151,807672,916546,393139.66,806429.5,915803.25
396431,807745,916714,393173.31,806459.38,915821.88
396703,807947,917204,393226.84,806495.38,915844.5
397126,808102,916927,393299.81,806537.69,915871.25
397437,808127,917038,393392,806586.25,915902.38
397799,808201,916953,393503.06,806640.5,915937.81
397534,808649,917443,393632.5,806700.13,915977.63
398565,808531,917290,393779.88,806765,916022.25
398836,808724,917351,393944.69,806835.38,916071.38
399316,809088,917459,394126.38,806910.88,916124.13
399451,808760,917256,394324.06,806990.75,916179.75
399115,808628,917110,394535.25,807073.88,916236.88
398455,807985,916740,394754.56,807157.63,916293.25
397160,807124,916363,394975.25,807237.13,916346.19
396188,806630,915969,395188.97,807307.25,916393.06
395367,806225,915648,395386.38,807364.25,916431.5
394342,805989,915662,395560.13,807406.44,916460
392421,805359,915164,395702.94,807432.25,916478.06
391722,805140,915028,395807.25,807440.44,916484.75
390924,804953,914956,395869.25,807430.88,916480.13
389836,804819,914829,395887.91,807404.44,916464.81
389447,804789,914834,395862.63,807362.38,916439.56
389147,804796,914759,395794.13,807306.44,916405.38
388203,805098,914826,395684.34,807238.88,916363.25
388106,804770,914832,395535.31,807161.5,916314.25
388246,804753,914823,395350.38,807075.75,916259.88
388132,804790,915037,395134.66,806983.25,916201.25
388022,804959,914957,394893,806885.75,916139.38
388300,804949,915078,394630.13,806785.25,916075.88
388497,805136,915069,394351.63,806683.44,916012.25
388588,805547,915540,394062.75,806582.38,915950.13
389124,805574,915413,393768.44,806484.38,915891.13
389438,805572,915381,393474.25,806390.94,915835.81
389460,805840,915890,393184.44,806302.56,915783.75
389600,805873,915659,392901.59,806220,915735.5
389847,805726,915496,392627.94,806143.81,915691.69
389646,805790,915525,392365.19,806073.88,915651.88
389721,805961,915771,392113.59,806010.69,915616.25
389966,805681,915616,391873.69,805954.5,915585.13
389856,805600,915574,391647.06,805903.69,915558.13
389893,806058,915906,391434.13,805857,915534.63
389956,805846,915661,391235,805814.75,915514.75
390062,805901,915643,391049.88,805777.5,915498.19
390206,805900,915620,390879.34,805745.38,915484.63
390584,806108,915769,390724.09,805718.63,915474
391091,806171,915807,390585.81,805697.5,915466.5
390992,806151,915798,390466.09,805682.19,915462.38
391195,806670,916126,390364.88,805672.38,915461.38
391605,806503,916031,390282.06,805668.5,915464
391874,806586,916205,390218.5,805670.88,915470.5
392257,806690,916517,390174.69,805679.88,915481.63
392814,806878,916403,390151.56,805695.25,915497.63
393160,807025,916473,390150.19,805717.5,915518.38
393496,807309,916557,390171.03,805746.94,915543.75
393731,807580,916712,390213.22,805784.13,915573.63
394252,807442,916766,390276,805828.94,915608.13
394607,807582,916798,390359.84,805880.63,915647.13
394834,807665,917216,390464.69,805938.5,915690
395335,807964,917128,390589.72,806002.63,915737
395580,807889,917064,390734.31,806072.94,915788.06
396057,808144,917274,390897.81,806148.88,915843
396159,808269,917367,391077.63,806231,915901.75
396421,808264,917288,391270.59,806319.63,915964
396352,808025,917186,391476.44,806412.38,916028.63
395924,807571,916791,391693.13,806505.88,916094
394462,806831,916230,391913.47,806596.25,916157
393624,806368,915991,392127.78,806678.5,916214.13
392757,805950,915712,392327.81,806748.94,916262.88
390629,805190,915144,392507.03,806804.69,916301.25
389772,804789,915073,392657.31,806842.75,916327.69
388719,804508,914706,392770.25,806861.5,916341.25
385819,804029,914920,392840.06,806861,916342
385929,803913,914610,392862.03,806841.63,916330.44
385531,803714,914420,392832.88,806803.5,916307.5
384990,803724,914269,392753.44,806747.56,916273.75
384104,803669,914319,392625.88,806676,916230.25
384001,803828,914426,392452.38,806591.19,916178.19
383776,803673,914311,392237.16,806495.63,916119.06
383354,803904,914743,391985.28,806391,916054.63
383435,803931,914489,391701.38,806279.63,915986.75
383637,803992,914582,391390.88,806164.06,915916.63
383655,804093,914900,391059.69,806046.13,915845
383865,804266,914815,390713.53,805927.88,915773.25
384034,804479,914834,390357.78,805811.38,915702.88
384175,804469,914867,389997.44,805698.38,915634.38
384346,804729,915004,389635.53,805590.38,915568.5
384686,804813,915173,389275.22,805488.88,915506.25
384987,804811,915011,388922.25,805394.5,915448.25
385188,805070,915171,388581.75,805306.75,915394.38
385256,804949,915224,388256.06,805225.5,915344.69
385174,804775,915056,387946.31,805151,915299.44
385262,804677,914963,387652.94,805082.69,915257.88
385169,804636,915093,387374.75,805019.5,915219.38
385358,804604,915159,387110.75,804960.88,915184.38
385317,804818,915097,386863.06,804907,915153.13
384912,805050,915413,386633.44,804858.38,915125.38
385575,805022,915271,386422.06,804815.63,915101.5
386005,805065,915246,386229.84,804779.13,915081.5
386164,805143,915554,386058,804749,915065.63
386890,805405,915484,385908.16,804725.63,915054.19
387204,805544,915622,385782.31,804709.75,915047.56
387350,805635,915690,385681.31,804701.75,915045.75
387770,805813,916090,385604.38,804701.63,915049.56
388223,805927,915940,385551.41,804709.44,915059.5
388652,806053,916043,385523.69,804725.25,915075.19
388723,806172,916507,385521.41,804748.88,915095.88
389226,806624,916319,385543.63,804780.69,915121.44
389707,806515,916179,385590.13,804821.25,915152
389976,806678,916401,385660.94,804870,915187.06
390162,806894,916581,385754.44,804926.38,915226.88
390694,806827,916593,385869,804990.38,915271.63
391011,807097,916637,386004.56,805061,915320.88
391362,807747,916944,386160.94,805137.63,915373.88
392003,807523,916816,386337.56,805220.25,915430.38
392144,807501,916970,386534,805309.13,915490.38
392358,807347,916755,386748.63,805403.38,915553.5
391546,806848,916546,386976.63,805500.25,915618.06
390931,806349,916090,387210.44,805595.56,915681.38
390049,805890,915804,387443,805685.25,915740.5
388206,805091,915476,387667.56,805765.88,915793
387310,804606,915187,387875.44,805833.63,915836.5
385840,804215,914760,388055.75,805885.19,915869.75
384926,803833,914625,388199.69,805918.44,915891.5
383167,803295,914515,388301.25,805932.25,915901.25
382529,803131,914239,388355.44,805925.81,915899.38
381642,802956,914045,388360.19,805899.69,915885.63
380499,803046,914430,388315.44,805855.63,915860.88
379913,802827,914164,388221.22,805795.81,915826.75
379615,802919,914038,388078.5,805721.94,915784.38
379415,802904,914460,387890.78,805636,915734.69
378715,802907,913986,387662.13,805540.25,915678.88
378584,802949,913927,387395.91,805436.5,915617.38
378423,802888,913959,387096.34,805326.5,915551
378077,803040,913966,386768.63,805212.38,915480.69
378589,803212,914175,386418.31,805096.38,915407.88
378770,803436,914195,386051.69,804980.69,915334.25
378897,803782,914541,385674.69,804866.88,915261.13
379310,803622,914454,385292.81,804756.44,915189.81
379531,803834,914621,384911.63,804650.69,915121.5
379836,803807,914555,384535.88,804550.94,915057.13
380018,803968,914687,384168.88,804457.75,914997
379920,803861,914632,383812.5,804371.5,914941.31
380234,803859,914727,383469.5,804291.75,914890.13
380163,804028,914551,383142.56,804218.38,914843.63
380392,803974,914623,382833.19,804151.63,914801.38
380341,803729,914484,382542,804090.88,914762.75
380318,803907,915069,382268.94,804035.38,914727.13
380681,804074,914789,382014.25,803985.5,914694.88
380735,804097,914767,381779.19,803941.88,914666.75
380952,804160,914848,381564.31,803904.56,914642.75
381276,804506,915413,381368.56,803874.06,914623.75
381600,804454,915127,381191.44,803851.13,914610.56
381807,804389,915173,381036,803835.38,914603.13
382044,804579,915585,380904.5,803825.88,914600.63
382571,804910,915506,380797.28,803823.31,914603.44
382768,805031,915394,380715,803828.63,914611.81
383107,805090,915622,380657.69,803842,914625.5
383503,805448,915803,380624.69,803863.5,914644.81
384126,805482,915842,380616.19,803893.63,914670.13
384403,805565,915844,380633.38,803931.88,914700.94
384625,805856,916079,380675.97,803977.5,914736.5
385171,805966,916141,380743.06,804030.13,914776.63
385760,806038,916184,380834.75,804090,914821.56
385845,806121,916200,380950.78,804157.13,914871.13
386776,806308,916358,381089.41,804231,914924.81
387013,806671,916270,381249.78,804311.63,914982.25
387107,806665,916655,381432.09,804399.5,915043.19
387889,807007,916827,381635.06,804493.63,915107.81
388099,806942,916728,381857.47,804593,915175.88
388391,806776,916636,382098.88,804697,915246.69
388100,806642,916515,382356.94,804804.06,915319.38
387230,805982,916009,382625.69,804911.13,915391.5
386616,805457,915742,382897.13,805013.63,915460.25
385668,805018,915337,383163.31,805107.56,915522.69
383150,804489,915126,383415.09,805190.25,915577.44
382509,803734,914620,383641.56,805258.88,915623.25
381661,803405,914354,383834.16,805309.75,915657.38
380523,803124,914171,383987.72,805340.75,915678.25
378872,802778,914118,384097,805351.75,915686.13
378197,802515,914022,384157,805342.81,915681.75
377181,802505,913840,384165.75,805314.69,915665.5
376169,802310,913840,384122.56,805269.25,915638.13
375935,802252,913583,384028.03,805208.13,915600.38
375648,802258,913634,383885.47,805132.94,915552.75
375317,802140,913793,383699.25,805045.25,915496.38
374761,802236,913691,383473.19,804946.94,915432.56
374899,802185,913677,383211.13,804840,915363.13
374907,802245,913653,382918.75,804726.31,915289.5
374843,802641,913947,382601.72,804608.5,915213.06
375201,802657,913979,382265.63,804489.38,915135.88
375386,802825,914023,381916.75,804371,915059.38
375915,803266,914621,381561.38,804255.38,914984.75
376228,803190,914454,381205.44,804144.38,914914
376432,803377,914345,380854.31,804039.38,914847.75
376600,803327,914402,380511.97,803941.44,914785.88
376777,803426,914504,380180.13,803850.75,914728.63
376982,803290,914546,379860.19,803767.19,914676.25
376971,803322,914492,379555.31,803690.25,914628.88
376174,803822,914834,379266.19,803620.25,914586.5
376911,803509,914486,378991.97,803558,914549
376842,803505,914415,378733.56,803502.88,914515.56
377253,803411,914598,378492.5,803454.13,914485.38
377437,803520,914609,378270.19,803411.13,914458.44
377840,803661,914687,378068.28,803374.06,914435.5
378112,803878,914681,377888.13,803343.56,914417
378231,804073,915086,377729.06,803320.38,914403.31
378714,804210,915045,377590.31,803305.25,914395.44
379135,804169,915065,377474.56,803298.06,914393.38
379487,804764,915366,377384.38,803298.5,914396.63
380009,804712,915430,377320.47,803307,914405.44
380553,804728,915421,377283.75,803324.13,914420.25
380713,804864,915602,377274.56,803349.75,914441
381363,805244,915625,377291.84,803383.94,914467.5
381821,805189,915712,377335.13,803426.88,914499.5
382074,805365,915753,377405.06,803478.13,914536.63
382566,805814,916170,377501.44,803537.06,914578.38
383159,805745,916184,377623.69,803603.5,914625.38
383301,805731,916097,377771.34,803677.31,914677.56
383640,805883,916180,377942.47,803757.75,914734.38
384190,806125,916475,378133.31,803844.5,914795.5
384356,806190,916382,378340.81,803937.5,914861
384861,806210,916490,378566.28,804035.88,914930.38
384853,806802,916872,378809.75,804139.63,915003.25
385629,806689,916723,379068.94,804249.25,915079.75
386181,806751,916656,379344.63,804364.06,915159.13
386578,806750,916876,379637.69,804482.75,915240.75
386429,806591,916735,379946.19,804603.88,915324
385899,806189,916376,380265.25,804724.88,915407.44
385252,805608,915927,380587.88,804842.06,915488
382493,804679,915628,380905.81,804951.5,915562.56
382183,804263,915264,381208.19,805049,915628.75
381426,803752,914905,381484.31,805130.13,915684.56
380436,803188,914475,381727.22,805191.94,915728.5
378617,802812,914215,381930.66,805232.75,915759.63
377493,802489,914255,382087.25,805251.5,915776.88
376799,802341,914022,382192.69,805248.13,915780.44
375666,802178,913904,382246.06,805223.88,915770.88
375189,802122,913830,382247.47,805180.38,915749
374597,802112,913757,382197.44,805119.69,915715.5
374130,802258,914162,382097.88,805044.13,915671.88
374080,802401,913957,381952.44,804956.5,915619.81
374054,802157,913901,381766.53,804859.5,915561.25
373900,802285,914031,381545.75,804754.69,915497.75
373729,802461,914160,381294,804644.25,915431
374121,802598,914017,381015.63,804530.75,915362.19
374349,802658,914362,380718.25,804416.25,915292.5
374567,803204,914596,380407.88,804302.94,915223.5
374873,802992,914491,380088.88,804192.75,915156.69
375529,803170,914614,379768.5,804087.13,915092.81
375630,803237,914916,379453.63,803986.94,915032.75
375754,803347,914591,379147.78,803893.13,914976.75
375896,803287,914669,378853,803806,914924.75
376143,803280,914675,378571.34,803725.5,914876.88
375200,803363,914803,378304.31,803651.31,914833.25
376049,803155,914546,378052.38,803583.31,914793.94
376164,803244,914529,377815.56,803520.75,914757.88
376313,803618,915001,377594.5,803463.5,914724.63
376644,803347,914973,377390.31,803412,914695.44
376645,803548,914819,377204,803366.44,914670.88
376496,803579,914868,377035.13,803327.25,914650.75
377185,803767,915001,376883.06,803294.75,914634.63
377457,803725,915061,376749,803269.13,914623
377716,803865,915041,376635.13,803250.19,914615.75
378014,804535,915855,376542.63,803237.88,914612.75
378624,804344,915550,376472.31,803232.75,914614.56
379112,804358,915660,376425.75,803235.75,914622.44
379387,804379,915653,376403.88,803246.56,914636.75
380157,804633,915734,376406.13,803264.88,914657
380345,804818,915747,376432.06,803290.88,914682.63
380737,804908,915972,376482.81,803324.75,914713.38
381036,805642,916115,376558.41,803366.88,914749.5
381522,805496,916266,376657.94,803417.69,914790.88
382016,805490,916252,376781.31,803477.38,914837.81
382384,805655,916669,376928.25,803545.06,914889.69
382994,805715,916617,377098.34,803620.06,914946.25
383402,805968,916607,377291.25,803701.94,915007.75
383634,806040,916669,377505.91,803790.5,915073.88
384154,806471,917043,377740.22,803885.38,915144.5
384482,806250,916758,377992.56,803986.38,915219.5
385003,806478,916874,378262.56,804092.56,915297.75
385246,806697,917350,378549.75,804203.5,915378.44
385545,806561,917001,378852.38,804318.38,915461.31
385288,806294,916774,379167.44,804435.69,915545.38
384708,805771,916567,379489.78,804552.38,915628.5
383178,805077,915929,379811.31,804665.44,915708
382285,804360,915561,380122.06,804771.06,915780.31
381273,804019,915103,380412.5,804863.38,915842.38
380442,803483,915218,380675.5,804938.63,915892.25
378476,803018,914843,380903.88,804994.88,915929.63
377704,802632,914565,381089.94,805030.44,915954.38
376918,802500,914410,381229.34,805044.75,915966.31
375511,802321,914184,381320.66,805038.63,915965.25
375275,802264,914262,381362.69,805013.63,915951.88
374826,802244,914266,381355.81,804971.44,915927.56
373677,802309,914287,381302.56,804914.38,915894
374170,802272,914556,381206.66,804844.5,915853.13
374158,802349,914479,381071.53,804764.19,915807
374046,802385,914556,380901.5,804675.56,915756.38
374127,802673,914613,380701.56,804581,915702.06
374177,802683,914667,380476.97,804483.06,915645.75
374256,802676,914680,380232.63,804383.44,915588.88
374734,803273,914962,379973.63,804283.63,915532.44
375274,803279,914870,379706.19,804186.31,915477.75
375491,803365,915052,379436.78,804093.5,915425.63
375690,803538,915382,379170.03,804006.38,915376.81
376184,803689,915269,378909.66,803926,915332.38
376292,803580,915203,378659.16,803852.88,915292.5
376468,803595,915329,378420.81,803786.5,915257
376501,803669,915493,378194.47,803726.88,915226.25
376780,803575,915284,377979.81,803674,915200.38
376793,803641,915255,377779.63,803627.13,915178.5
376896,804123,915497,377595.88,803586,915159.88
377156,803831,915471,377428.81,803550.75,915144.94
377328,803767,915473,377279.19,803521.38,915133.88
377441,803754,915434,377147.38,803497.38,915126.5
377799,804064,915518,377032.63,803478.63,915122.5
378196,804119,915696,376935.16,803465.94,915122.06
378387,804174,915785,376856.97,803459.5,915125.75
377953,804433,915902,376798.84,803459.06,915133.5
379087,804646,916151,376760.56,803465.06,915145.56
379536,804825,916042,376743.38,803478.56,915162.63
379464,804807,916503,376747.69,803500,915184.5
380337,805183,916436,376773.06,803529.19,915211.13
380679,805240,916496,376820.56,803566.5,915243.25
381163,805322,916577,376891,803611.69,915280.88
381589,805657,916907,376983.69,803664.25,915323.88
382174,805718,916652,377098.25,803724,915372.38
382490,805739,916706,377235.34,803791,915425.13
382657,805787,917068,377394.56,803864.5,915481
383088,805924,916924,377574.06,803943.56,915540
383464,806004,916915,377772.75,804027.75,915601.88
383940,806256,917113,377989.97,804116.88,915666.5
384452,806564,917241,378223.84,804211.5,915734
384646,806586,917430,378472.38,804312.13,915804.75
384978,806644,917423,378735.69,804417.88,915878.75
385460,807019,917572,379014.13,804527.56,915955.69
385915,806956,917529,379307,804640.94,916035
385951,806656,917482,379613.09,804757.06,916115.88
385424,806349,917212,379928.66,804873.5,916196.88
383875,805424,916667,380245.53,804985.88,916275.38
383150,804996,916333,380553.25,805089.25,916347.88
382085,804480,916057,380843.25,805179.69,916411.88
380026,803653,915581,381108.44,805254.13,916465.63
379067,803234,915366,381340.44,805309.75,916507.44
378152,802978,915121,381530.69,805344.25,916536.13
377341,802548,914838,381674.06,805357.13,916550.94
375923,802340,914684,381767.81,805348.38,916551.5
375212,802199,914546,381809.13,805318.75,916538.25
374871,802199,914451,381797.97,805270,916512.06
374176,802282,914902,381737.25,805204.63,916474.88
374076,802267,914624,381630.25,805125.25,916429.25
374059,802321,914503,381481.13,805034.25,916376
373998,802381,914905,381295.13,804934.13,916315.5
373704,802595,914666,381077.06,804827.38,916249
374084,802595,914737,380831.88,804716.38,916178.5
374408,802648,914635,380566,804603,916105.38
374446,803132,915058,380286.03,804489.38,916031.06
375388,803501,915271,379998.5,804379,915957.88
375789,803462,915283,379710.34,804274.38,915887.94
376146,803954,915645,379427.19,804176.38,915821.88
376771,803892,915633,379153.69,804085.88,915760.5
377125,803942,915621,378894.38,804004,915704.88
377206,803889,915596,378651.97,803931.13,915655.13
377367,804042,915757,378426.88,803866.88,915611.06
377527,803999,915614,378218.94,803811,915572.69
377516,803906,915644,378029.38,803763,915539.44
377921,804215,915861,377858.5,803721.63,915510.75
377949,804127,915831,377706.44,803686.5,915486.5
378089,804150,915731,377573.66,803658.25,915467.13
378298,804207,916373,377460.38,803636.94,915452.13
378856,804414,916041,377367.13,803622.56,915441.69
379012,804413,916090,377294.94,803615.31,915436.38
379361,804679,916155,377244.16,803615.19,915436.56
379947,805084,916736,377213.75,803623.25,915442.63
380385,805115,916419,377203.63,803640.44,915455.38
380713,805136,916495,377216.31,803666.5,915474.13
381003,805298,916938,377253,803700.5,915498.19
381634,805744,917035,377313.47,803742.69,915528
382212,805731,916921,377398.34,803793.75,915564.38
382432,805972,917039,377507.81,803853.44,915606.88
383082,806361,917271,377640.88,803922.13,915655.06
383651,806398,917354,377797.25,804000.5,915709.13
383962,806637,917416,377977.22,804087.88,915768.88
384308,806815,917943,378179.94,804183.31,915833.75
384829,806928,917774,378404.06,804286.25,915903.69
385233,806964,917804,378648.69,804396.13,915978.75
385739,807163,917889,378913,804512.13,916058.5
386538,807383,917976,379195.75,804634,916142.38
386991,807668,918102,379496.44,804761.81,916229.75
387151,807775,918214,379815.13,804895.63,916320.69
387715,808779,918582,380150.75,805034.75,916414.88
388060,808286,918593,380501.69,805178.88,916512.5
388615,808242,918656,380867.06,805328.06,916613.75
388705,808231,918548,381245.44,805481.13,916717.63
388012,807305,917994,381632.59,805634.63,916822
387175,806690,917565,382020.75,805783,916922.88
385845,805981,917093,382400.22,805920.38,917016.5
383684,805249,916790,382759.63,806042.75,917100.38
382987,804695,916339,383087.88,806146.69,917172.44
382254,804099,916073,383377.59,806228.44,917230.63
381215,803841,915668,383624.56,806285.63,917273.63
379755,803457,915492,383824.19,806318.06,917301.06
379211,803293,915400,383972.31,806326.13,917312.63
378847,803306,915324,384068.56,806311.44,917308.88
378036,803253,915321,384114.16,806276.63,917291.19
377975,803219,915251,384110.59,806224.19,917261
377965,803300,915474,384062.31,806156.38,917220.25
377892,803493,915574,383975,806075.5,917170.81
377713,803585,915534,383853.19,805984.63,917114.63
377941,803537,915657,383701.5,805886.25,917053.31
377932,803717,915661,383525.03,805782.75,916988.75
377923,804027,915836,383328.44,805676.44,916922.38
378400,804014,915886,383116.5,805570,916855.63
378921,804328,916124,382895.06,805465.25,916789.88
379683,804637,916469,382670.69,805363.88,916726.75
380077,804763,916608,382449.47,805267.75,916668
380413,804892,916589,382236.41,805178.63,916615
380539,804852,916487,382034.63,805097.63,916567.88
380864,805062,916568,381845.88,805024.75,916526
380874,804890,916482,381671.53,804960,916489.06
380928,804808,916430,381511.88,804902.5,916456.5
379831,805467,916704,381365.56,804851.75,916428.13
380852,805088,916614,381231.13,804808.38,916404.63
381205,804987,916578,381109.44,804772.06,916385.5
381325,805100,916615,381002.31,804742,916370.13
381831,805271,916612,380910.81,804718.13,916358
382013,805242,916748,380836.19,804700.81,916349.38
381969,805244,916879,380778.5,804689.5,916344.63
382302,805379,916945,380735.31,804683.88,916344.25
382794,805496,916931,380705.81,804684,916348.13
383192,805694,917087,380693.19,804690.25,916356.13
383447,806069,917392,380700.13,804702.88,916368.25
384047,805996,917276,380726.94,804722.13,916384.44
384559,806157,917413,380774.75,804748.38,916405.06
384987,806364,917487,380844.5,804781.94,916430.56
385541,806568,917747,380935.84,804823.13,916461.13
386004,806684,917787,381048.44,804872.06,916497.19
386179,806879,917829,381182.81,804928.63,916538.38
386776,807268,918392,381338.75,804992.88,916584.38
387373,807387,918296,381516.16,805065.13,916635.38
387695,807485,918272,381715.09,805145.44,916691.88
388021,807571,918274,381934.5,805233.44,916753.38
388481,807944,918496,382170.81,805328.75,916819.13
389003,807945,918721,382421.56,805431.31,916889.5
389181,808038,918717,382688.38,805540.38,916964.56
389252,808639,919167,382970.53,805655.63,917044
390076,808495,918952,383265.56,805777.38,917127.38
390441,808562,918937,383574.31,805904.88,917214.13
391043,808734,919168,383897.53,806037.06,917303.5
391100,808480,919016,384234.13,806172.75,917394.75
390413,807825,918645,384580.16,806308.63,917486.63
389652,807326,918202,384928.13,806440,917576
386633,806246,917776,385268.44,806562.25,917659.5
386460,805648,917128,385589.38,806670.5,917733.75
385643,805089,916893,385880.63,806759.56,917795.63
384850,804612,916427,386136,806826.56,917843.5
383214,804182,916224,386350.5,806870.5,917876.63
382480,803989,916098,386518.53,806890.38,917894.19
381964,803863,915920,386637.75,806886.94,917896.5
381073,803914,916175,386708.25,806862.13,917884.88
380825,803851,916012,386730.88,806818.38,917861.31
380755,803799,915860,386708.19,806758,917827
380585,804021,916461,386644.38,806683.5,917783
380626,804056,916054,386544.13,806597.5,917731.13
380632,804145,916015,386412.28,806502.88,917672.94
380821,804175,916140,386253.94,806402,917609.75
380858,804470,916487,386072.63,806297.06,917543.63
381287,804606,916466,385872.31,806190.75,917476.75
381586,804817,916550,385660.19,806085.5,917410.63
381950,805392,916885,385442,805983.5,917346.13
382399,805370,917002,385221.5,805887.13,917284.81
382946,805404,917089,385005.06,805797.88,917228.25
383161,805409,917260,384798.34,805716.19,917176.94
383311,805507,917181,384603.75,805642,917130.5
383480,805533,917169,384422.56,805575.38,917089.5
383502,805426,917182,384255.47,805516,917053.88
382771,805465,917195,384102.34,805463.63,917023.31
383523,805494,917184,383962.69,805418.25,916997.63
383657,805435,916968,383836.38,805379.06,916975.88
384005,805259,917095,383723.94,805345,916957.25
384126,805649,917152,383626.34,805315.88,916941.88
384275,805654,917209,383543.88,805292.25,916929.88
384358,805726,917214,383476.31,805274.25,916921.25
384863,805745,917351,383423.16,805261.5,916916
385213,805918,917355,383385.06,805254.06,916914.25
385413,806006,917453,383363.81,805252.19,916916.19
385663,806690,917898,383360.13,805256.31,916921.75
386291,806613,917743,383374.44,805267.5,916931.44
386928,806647,917989,383408.44,805286.56,916946
387101,806885,918123,383463.34,805313.75,916966.25
387714,807220,918111,383538.63,805349.38,916992.38
388240,807361,918266,383634.19,805394.25,917024
388690,807573,918320,383751.47,805448.31,917060.75
388997,807890,918518,383890.09,805511.63,917102.56
389377,807881,918595,384048.38,805584.13,917149.63
389863,807889,918755,384226.44,805664.81,917201.75
390198,808029,919063,384424.59,805752.5,917259
390442,808143,918902,384641.56,805846.56,917321
391204,808606,919037,384876.53,805947,917387.44
391485,808599,919212,385129.31,806054.25,917458.25
392082,808984,919576,385399.09,806168.25,917534
392309,808987,919503,385684.53,806288.63,917614.94
392579,809096,919441,385984.56,806414.81,917700.25
393060,809253,919624,386298.06,806545.75,917788.5
392945,809061,919355,386623.16,806680.13,917878.56
392823,808373,919065,386956.38,806815.13,917968.63
391983,807902,918841,387292.13,806946.13,918056.25
389663,806811,918091,387622.16,807067.63,918138.38
388745,806284,917476,387935.13,807174,918210.75
387534,805785,917312,388218.81,807261.38,918270.13
386722,805412,917237,388465,807327.75,918315.63
385012,804782,916805,388667.91,807371.38,918347
384399,804458,916625,388822.25,807391.19,918363.88
383730,804398,916473,388926.06,807387.75,918366.13
383077,804386,916515,388980.03,807362.88,918354.5
382703,804422,916543,388985.56,807319.25,918330.88
382571,804383,916498,388945.19,807259.44,918296.75
382220,804568,916620,388862.88,807185.63,918253.63
382441,804588,916601,388743.31,807100.25,918203.06
382312,804548,916497,388591.31,807006,918146.38
382482,804710,916931,388411.81,806905.19,918084.63
382648,804919,916932,388209.94,806800.25,918020
382927,805043,916949,387991.25,806693.63,917954.5
383282,805191,916973,387761.31,806587.5,917889.25
383588,805738,917405,387525.22,806483.88,917825.81
384112,805670,917327,387287.94,806384.88,917765.75
384421,805739,917377,387054.56,806292,917709.75
384701,805988,918004,386829.25,806205.94,917658
385176,805960,917609,386615.13,806127.25,917611.06
384955,805854,917472,386414.31,806056.13,917569.13
385183,805979,917546,386227.19,805992.25,917531.75
385157,806085,917614,386052.75,805936.25,917498.88
385318,805955,917589,385890.19,805888.44,917470.5
385588,806111,917686,385741.56,805847.69,917446.5
385528,806181,917948,385608.63,805813,917426.81
385663,806177,917693,385491,805783.88,917411
386066,806159,917642,385388.94,805760.5,917399
386239,806188,917689,385303.34,805742.81,917390.31
386778,806425,917823,385234.63,805730.88,917385
387074,806573,917958,385183.5,805725.25,917383.5
387276,806722,917979,385151.34,805726.44,917386.13
387358,807042,918411,385138.75,805734.63,917392.94
388038,807093,918175,385145.84,805750,917404
388458,807122,918313,385173.25,805772.81,917419.44
389012,807285,918589,385221.72,805803.06,917439.44
389537,807600,918787,385292.19,805840.94,917464.5
389980,807690,918747,385385.28,805886.81,917495.44
390385,807955,918857,385501,805940.88,917532.13
390985,808443,919074,385638.44,806003.13,917574.5
391382,808259,919139,385796.78,806073.5,917622.5
391897,808477,919333,385976.81,806151.75,917676.25
392181,808657,919696,386178.63,806237.88,917735.38
392781,808926,919539,386401.25,806331.69,917799.56
393054,809129,919615,386643.84,806433.38,917868.69
393577,809168,919776,386905.38,806542.63,917942.63
393975,809544,919924,387182.88,806658.88,918021.31
394318,809565,919866,387473.63,806782,918104.25
394708,809640,919994,387778.5,806911.25,918190.75
394973,810122,920313,388098.13,807045.63,918280.13
395408,809920,920150,388430.88,807184.5,918372.06
395212,809408,919965,388774.5,807326.06,918465.63
394524,808924,919533,389124.06,807466.38,918558.88
392126,807592,918563,389470.97,807599.25,918647.19
391023,807098,918196,389803.06,807718.13,918725.69
390001,806351,917902,390107.25,807818,918791.25
387270,805473,917419,390375.22,807896.31,918842.63
387060,805232,917268,390600.25,807951,918878.88
386393,804948,917085,390775.44,807980.38,918899.31
385695,804952,916885,390897.94,807984.75,918904.13
384636,804741,916777,390967.41,807966,918893.81
384338,804672,916695,390983.78,807926.13,918869.31
384155,804582,916738,390949.81,807867,918832
383596,804831,916854,390869.75,807791.25,918783.88
383698,804791,916809,390747.75,807701.81,918727
383739,804791,916707,390588.63,807601.38,918662.63
383749,804917,917037,390398,807492.38,918591.88
383375,805153,917138,390180.41,807377.5,918516.88
383955,805146,917070,389940.28,807259.38,918439.88
384283,805309,917157,389684.06,807140.06,918362.13
384588,805719,917563,389416.78,807021.81,918285.25
384904,805770,917510,389142.47,806907.38,918211.25
385400,805913,917621,388868.13,806798.38,918141.13
385798,806394,918479,388600.38,806695.75,918075.25
386335,806263,918066,388343.81,806600.94,918015
386560,806344,917945,388102.03,806514.63,917961.19
386629,806218,917917,387877.06,806436.88,917913.75
386600,806344,917934,387667.69,806367.13,917872
386756,806341,917933,387472.5,806305.13,917835.63
386821,806228,917981,387293.31,806250.44,917804.31
386525,806295,917863,387131.47,806202.25,917777.63
386804,806324,917817,386986.13,806160.25,917754.75
387131,806320,917896,386857.06,806124.25,917735.13
387129,806484,918039,386744.56,806094.25,917719
387721,806588,918015,386649.13,806070.5,917706.44
387899,806682,918096,386572,806053.25,917697.63
387957,806650,918016,386513.38,806042.38,917692.5
388535,807101,918769,386472.75,806037.81,917691.88
388919,807130,918481,386450.81,806040.25,917697.31
389260,807268,918474,386449.06,806050.25,917708.31
389650,807378,919141,386468.16,806067.94,917724
390051,807726,918924,386508.31,806093.56,917744.75
390804,807828,918977,386570.31,806127.63,917771.31
390922,807889,918954,386654.88,806170.13,917803.38
391299,808262,919076,386761.06,806220.75,917840.44
392203,808430,919339,386888.69,806279.81,917882.38
392367,808614,919464,387038.69,806347.75,917929.81
392843,809027,919624,387210.63,806424.13,917982.69
393230,809093,919589,387403.5,806508.88,918040.5
393905,809087,919677,387616.88,806601.94,918102.88
394102,809198,919755,387850.38,806702.5,918169.38
394505,809501,920029,388100.94,806809.88,918240.06
395070,809658,920173,388366,806924,918315.31
395520,809691,920201,388647.13,807044.63,918395.06
396107,810076,920383,388945.25,807170.63,918478.75
396357,810086,920364,389259,807301.69,918565.56
396300,810079,920446,389586.69,807437.25,918655.38
396444,809939,920346,389925.47,807576,918747.31
395218,808865,919619,390269.69,807714.13,918839
394118,808189,919067,390610,807845.13,918925.94
392847,807694,918725,390935.75,807963.63,919004.06
390700,806553,918359,391237.88,808066.31,919071.69
389929,806108,917862,391507.53,808149.75,919127.31
388970,805648,917456,391735.88,808209.63,919168
388193,805388,917526,391917.5,808244.13,919191.88
386519,805145,917055,392049,808253.75,919198.69
386005,804848,916863,392126.69,808239.5,919189.13
385615,804789,916926,392150.75,808202.5,919164.13
384790,804846,916908,392124.38,808145.63,919125.5
384782,804876,916894,392050.88,808072.31,919075.25
384805,804858,916902,391933.88,807984.63,919014.88
384785,805219,917198,391778.38,807884.75,918946.13
384937,805202,917060,391590.25,807775.5,918870.75
384930,805281,917136,391375.22,807659.94,918790.75
385110,805234,917169,391138.63,807540.31,918708
385601,805676,917526,390885.31,807418.75,918624.25
385677,805856,917541,390620.56,807298.13,918541.75
386258,806084,917730,390350.72,807181.25,918461.88
387086,806542,917885,390082.28,807069.81,918385.75
387341,806478,918013,389820.81,806965.38,918314.75
387546,806693,917932,389571.06,806869.5,918249.31
387669,806592,918379,389335.56,806783,918189.56
387757,806494,918209,389115.47,806705.25,918135.75
387913,806544,918112,388911.38,806635.38,918088.31
388022,806507,918021,388723.78,806572.88,918046.56
387671,806585,918385,388551.25,806517.88,918010.19
388031,806500,918083,388391.94,806470.44,917979.31
388174,806507,917928,388247.25,806429.38,917953
388128,806470,918283,388118.66,806393.56,917929.69
388499,806778,918280,388005.97,806363.19,917909.56
388799,806758,918191,387910,806338.75,917893.56
388971,807003,918128,387831.5,806320.88,917881.69
389295,807190,918254,387770.44,806309.88,917873.31
389901,807112,918616,387727.34,806306.13,917869.19
390298,807349,918510,387704.38,806309.31,917870.13
390609,807587,918893,387702.94,806319.5,917876.19
391085,807770,918753,387723.25,806337.25,917887.25
391602,807894,918843,387765.84,806363.06,917903.31
392064,808119,918976,387831.41,806397.25,917924.5
392627,808452,919139,387919.81,806440.19,917951
392944,808509,919317,388030.56,806492.38,917983.06
393427,808702,919192,388163.97,806553.38,918020.63
394119,809198,919636,388319.94,806622.81,918063
394249,809192,919625,388497.56,806700.5,918110.38
394741,809250,919768,388696.38,806786.63,918163.25
395161,809337,919758,388915.94,806880.75,918221.38
395915,809707,920185,389156.09,806982.38,918284.75
396238,809886,920169,389416.75,807091.63,918353.75
396580,810056,920219,389696.75,807208.5,918428.13
397044,810556,920999,389992.69,807333,918507.44
397461,810383,920523,390301.69,807464.94,918592.13
397784,810508,920490,390624.81,807603.19,918681.06
397790,810451,920543,390961.91,807746.13,918773
397860,810244,920320,391309.53,807891.88,918866.63
397298,809537,919922,391663.19,808036.75,918959.63
396112,808658,919370,392015.44,808175.38,919048.44
393364,807453,918501,392355.59,808302.19,919128.63
392380,806868,918076,392670.69,808411.94,919195.63
391196,806418,917763,392948.47,808499.25,919246.88
390519,805818,917533,393181.75,808561.38,919281.56
388734,805481,917331,393366.19,808597.69,919300
388165,805336,917075,393497.31,808607.88,919302
387619,805135,916986,393574.13,808592.88,919287.75
386922,805231,917118,393598.53,808554.88,919258.75
386776,805149,917202,393573.16,808496.63,919217.38
386727,805221,917063,393501.66,808421.06,919165.75
386612,805537,917307,393388.88,808330.94,919105
386440,805454,917431,393239.63,808229.38,919037.13
386606,805521,917287,393058.78,808119.25,918964.56
386611,805518,917196,392851.63,808002.88,918888.38
386814,805729,917504,392623.44,807882.38,918809.38
387051,805907,917663,392379.56,807760.13,918729.88
387349,805942,917779,392125.41,807638.38,918651.81
387285,806873,918477,391864.59,807519.56,918577.44
388219,806630,918263,391601,807406.63,918509.06
388604,806705,918294,391341.75,807301.19,918447.13
388642,806612,918153,391092.22,807203.5,918391.06
388885,806641,918260,390854.38,807113.13,918340.25
389120,806707,918231,390630.03,807029.88,918294.5
388897,806700,918171,390420.06,806954,918253.56
388709,806558,918202,390222.97,806885.06,918217
388988,806539,918161,390037.38,806822.31,918184.5
389046,806609,918154,389864.75,806765.13,918155.63
388947,806512,918335,389706.13,806713.38,918130.13
389096,806657,918153,389560.94,806667.13,918107.38
389257,806644,918312,389429.44,806626.13,918087.81
389578,806793,918315,389312.34,806590.44,918071.88
389688,807122,918382,389210.19,806560.69,918059.75
390068,807113,918604,389123.31,806537.88,918051.75
390394,807112,918549,389053.13,806522.06,918048.13
390734,807343,918969,389000.41,806512.69,918048.88
391149,807566,918885,388965.63,806510.25,918054.06
391415,807717,918850,388950.03,806515.5,918064.13
391761,807799,919024,388954.44,806528.81,918079.19
392111,808040,919075,388977.66,806550.13,918099.13
392484,808091,919227,389018.63,806579.63,918124.13
392903,808243,919349,389079,806616.88,918154.19
392421,808872,919878,389158.31,806661.94,918189.38
393484,808627,919525,389254.47,806715.31,918229.56
393779,808813,919706,389368.63,806776.63,918274.63
394082,808765,920010,389501.66,806845.25,918324.5
394916,809133,919841,389653.56,806920.63,918379.06
395357,809187,919901,389825.47,807002.69,918437.81
395537,809240,919975,390017.19,807091.13,918500.38
395765,809548,920234,390225.44,807185.13,918566.75
396306,809524,920146,390447.44,807284.38,918636.94
396503,809592,920131,390684.13,807388.25,918710
396678,809369,920109,390935.63,807495.94,918785.13
396030,808959,919830,391198.13,807604.88,918861
395167,808184,919328,391464.81,807710.63,918934.88
394175,807779,918944,391727.06,807808.06,919003.13
392204,806814,918378,391976.25,807892.88,919062.63
391172,806217,918253,392202.69,807960.5,919111
390131,805880,917849,392396.56,808007.88,919146.81
388882,805338,917794,392550.75,808034.06,919169.25
387372,805147,917271,392659.56,808038.69,919177.38
386661,804877,917021,392718.38,808021.75,919170.75
385771,804761,917062,392725.66,807984,919149.69
384625,804819,917073,392680.38,807927.5,919115.75
384649,804744,916868,392582.78,807854.56,919070.5
384666,804825,917051,392438.19,807767.75,919015.13
383292,805196,917434,392251.88,807669.88,918951.5
383993,804949,917067,392027.16,807563.75,918881.5
384121,804813,917143,391769.69,807451,918806.5
384218,805059,917371,391486.38,807332.81,918727.75
384426,805270,917157,391183.34,807211.88,918646.06
384366,805379,917459,390865.91,807090.63,918563.38
384688,805391,917467,390538.81,806970.94,918481.75
384488,805740,917989,390206.56,806854.44,918403.19
385616,806080,917875,389874.22,806743.63,918329.69
385943,806156,917866,389548.44,806640.5,918261.63
386359,806410,917934,389234.63,806545.88,918198.88
386608,806234,917974,388936.31,806459.63,918141.63
386643,806152,917907,388655.5,806381.63,918089.75
386475,806042,917931,388392.56,806311,918042.81
386640,806166,917989,388146.75,806247.13,918000.63
386706,806080,917894,387918.06,806189.88,917963
386802,806021,917894,387707.13,806138.5,917929.44
386562,806238,918205,387513.69,806092.5,917899.56
387101,806213,918106,387337.44,806052.13,917873.56
387315,806286,918033,387179.5,806017.69,917851.88
387435,806431,918151,387040.88,805989.38,917834.38
387511,806613,918155,386920.06,805967.56,917821
388010,806690,918211,386816,805952.88,917811.75
388499,806792,918448,386731.63,805945.38,917806.81
388718,807295,918555,386668.47,805945.5,917806.63
389119,807195,918530,386625.81,805954.13,917811
389719,807407,918690,386605.69,805971.25,917820.13
390147,807561,919139,386610.38,805996.75,917834.5
390548,807791,919001,386640.34,806030.88,917854.38
390988,808063,919066,386695.44,806074,917880
391364,808163,919199,386775.38,806126.25,917911.44
391321,808459,919593,386879.31,806187.75,917949.13
392404,808596,919367,387006.66,806258.44,917993.25
392812,808751,919584,387157.88,806338.06,918043.13
392952,809021,919778,387332.25,806425.63,918097.94
393671,809050,919777,387528.38,806520.13,918157.38
394102,809114,919876,387745.88,806621.5,918221.5
394179,809359,919879,387983.75,806729.63,918290
394959,809666,920209,388239.5,806844.31,918362.75
395377,809733,920223,388512.03,806965.81,918439.81
395407,809681,920135,388801.31,807093.13,918520.75
395521,809634,920117,389105.13,807224.38,918604.25
394510,808794,919563,389418.19,807356.19,918688.13
393662,808105,919183,389732.13,807483.31,918769
392500,807426,918686,390037.44,807600.13,918843.25
390216,806431,918052,390324.63,807701.38,918907.38
389255,806011,917633,390583.19,807782.5,918958
388384,805507,917423,390803.56,807841,918993.44
385827,805129,917035,390979.94,807876,919013.38
385339,804810,916965,391107,807887.38,919018
384904,804753,916823,391179.75,807875.5,919007.31
384462,804537,916968,391198,807841.94,918982.19
383640,804507,916692,391164.19,807788.44,918944.06
383326,804313,916736,391080.19,807716.94,918894.25
383227,804398,916724,390949.72,807629.44,918834.38
382960,804912,916895,390777.94,807530,918766.5
383009,804712,916724,390570.06,807423.13,918692.19
383128,804718,916806,390331.56,807309.94,918612.75
383139,804924,917260,390068.13,807191.38,918529.25
383724,805100,917171,389785.94,807069.88,918443.69
383838,805235,917258,389491.66,806948.13,918358.44
383844,805353,917273,389190.31,806828.06,918275
384639,805858,917580,388885,806712.19,918194.56
385025,805958,917643,388580.56,806603.25,918118.63
385221,806024,917599,388283.88,806502.5,918047.88
385584,806451,917947,387999.84,806409.75,917982.13
385585,806189,917855,387730.78,806325.13,917921.56
385785,806142,917605,387477.94,806248.88,917866.56
385928,806091,917699,387242.25,806180.69,917816.75
385977,806170,917723,387024.13,806120.13,917771.75
386017,806136,917559,386823.38,806066.81,917731.38
385959,805994,917598,386639.88,806020.06,917694.88
385725,806250,917956,386473.75,805978.94,917661.88
386380,806216,917729,386325.69,805943.31,917632.63
386619,806249,917770,386195.84,805913.5,917607.38
386916,806379,918107,386084.44,805889.88,917586.38
387635,806704,918025,385992.94,805873,917570.13
387816,806709,918065,385923.19,805863.5,917558.88
388145,806759,918250,385875.75,805861.44,917552.88
388602,807428,918639,385850.31,805866.5,917553.06
389097,807325,918532,385847.34,805879.19,917560.25
389413,807433,918620,385867.81,805900.5,917574.13
389654,807557,919014,385911.66,805930.5,917593.75
390244,807877,918926,385978.38,805969.25,917619.13
390469,807935,918928,386067.88,806017,917650.5
390992,808225,919151,386179.56,806073.5,917688
391612,808604,919468,386311.75,806139.56,917731.88
392121,808668,919508,386463.47,806215.75,917782.88
392501,808847,919648,386636.75,806301.5,917840.75
392884,809442,919833,386832.63,806395.56,917904.75
393506,809311,919824,387050.25,806497.75,917974.25
393823,809304,919864,387289,806607.94,918048.81
394130,809417,919907,387547.56,806725.13,918127.94
394863,809872,920265,387823,806848.88,918211.38
395173,810047,920190,388113.31,806979.75,918299.31
395523,810003,920311,388419.5,807117.25,918391.13
394268,809427,919962,388740.94,807259.63,918485.56
394138,808807,919388,389071.38,807402.94,918579.75
393174,808187,919021,389400.75,807540.5,918669.38
391945,807351,918026,389718.56,807666.38,918750.81
389863,806232,917686,390013.88,807774.63,918820.38
388822,805883,917456,390275.38,807860.25,918874.5
387935,805483,917107,390495.84,807921.38,918911.75
386090,805071,917167,390671.44,807958,918932.13
385472,804876,916781,390798,807970.69,918936.44
384785,804655,916637,390872.13,807959.88,918924.88
384318,804474,916826,390893.41,807926.13,918898.31
383599,804541,916648,390863.63,807871.5,918858.38
383474,804503,916500,390785.31,807798.75,918806.63
383336,804597,916655,390662.63,807710.75,918744.63
382811,804840,916816,390500.19,807610.75,918674.69
383182,804809,916712,390302.53,807502.5,918598.88
383306,804879,916907,390075.69,807387.75,918518.63
383638,805508,916946,389826.28,807268,918435.69
383995,805295,917076,389560.94,807145.88,918351.75
384310,805493,917127,389285.88,807024.13,918268.06
384661,805672,917241,389006.75,806905.38,918186
385249,806064,917547,388726.94,806791.88,918107
385608,806077,917612,388450,806685.69,918032.75
385851,806272,917721,388182.47,806587.81,917964.13
385932,806324,917845,387929.13,806498.75,917901.38
386255,806316,917650,387691.66,806418.5,917844.06
386372,806284,917549,387471.31,806346.75,917791.75
386418,806213,917833,387268.63,806282.88,917744.13
386425,806144,917546,387083.38,806226,917701.13
386551,806230,917537,386915.28,806175.38,917662.13
386610,806144,917605,386764.09,806130.88,917626.94
386847,806520,918108,386629.38,806092.5,917596.38
387080,806418,917871,386511.09,806060.63,917571.25
387371,806528,917682,386410.47,806035.5,917551.25
387569,806613,918129,386328.5,806016.75,917535.25
387857,806945,918073,386265.38,806005.06,917523.63
388319,807083,918141,386221.63,806001.25,917517.13
388788,807203,918213,386198.34,806005.81,917516
389195,807555,918252,386196.59,806019.25,917520
389737,807697,918457,386217.13,806042.56,917529.25
390154,807786,918589,386260.75,806075.44,917544
390659,808329,918876,386327.91,806117.5,917564.94
391030,808277,918847,386418.63,806169,917592.13
391662,808456,918997,386532.94,806230.13,917625.5
391990,808555,919068,386670.78,806300.13,917664.88
392527,808902,919220,386831.13,806378.88,917710.06
393066,809027,919291,387013.03,806466.38,917760.81
393419,809187,919539,387216.88,806562.5,917817.13
394014,809562,919710,387441.88,806666.44,917879.06
394173,809598,919828,387686.16,806777.88,917946.63
394589,809673,919856,387948.94,806896.5,918019.63
394748,809801,920073,388229,807021.63,918097.81
395608,810062,920168,388525.19,807152.63,918181.13
395911,810173,920165,388837.44,807289.25,918269
396321,810270,920243,389165,807431,918360.63
395680,810026,920313,389504,807576.88,918455.13
395206,809328,919528,389847.56,807724.06,918550.44
394156,808473,918892,390188.34,807866.13,918641.88
392699,807706,917931,390517.44,807996,918724.63
390597,806641,917702,390822.75,808108.13,918794.56
389669,806134,917487,391092.75,808197.25,918849
388783,805888,917135,391320.75,808261.38,918886.94
387072,805411,916726,391502.63,808300.63,918907.5
386639,805185,916689,391634.63,808315.5,918910.25
386017,804942,916421,391714.97,808306.13,918896.13
385650,805094,916608,391744.69,808273.63,918866
385337,805109,916592,391726.41,808220.63,918821.88
385322,805182,916637,391664.09,808150.75,918766.38
385312,805177,916627,391562.69,808067.25,918701.75
384858,805333,916752,391427.13,807972.63,918629.75
385097,805292,916868,391261.75,807869.5,918552.44
385413,805459,916792,391071.31,807760,918471.56
385806,805818,917205,390861.47,807646.19,918388.38
386182,805903,917248,390638.25,807530.75,918304.88
386802,806215,917431,390408.59,807416.81,918223.38
386806,806111,917409,390178.34,807306.69,918145.25
387531,806786,917881,389950.5,807202.13,918071.75
387973,806878,917912,389728.69,807105.81,918004.69
388108,806953,917861,389518.28,807019.06,917944.63
387324,807317,918233,389321.03,806942.38,917891.25
388240,806921,917841,389136.38,806875.75,917844.38
388120,806809,917826,388965.38,806817.56,917803.13
388445,806783,917803,388809.06,806766.38,917766.63
388560,806871,917779,388668.06,806721.5,917734.25
388647,806807,917666,388542.69,806682.63,917705.63
388532,806745,917678,388432.47,806649.38,917680.25
388415,806794,917934,388334.88,806621,917658.38
389035,806906,917847,388248.56,806597.75,917640.38
389398,807086,917860,388176.69,806579.81,917626.13
389493,807508,918222,388121.66,806567.63,917615.44
390080,807538,918030,388084.03,806561.88,917608.25
390368,807516,918410,388064.88,806563.25,917605.56
390835,807782,918423,388065.13,806572,917608.38
391304,808015,918640,388084.81,806588.63,917617.25
391691,808156,918635,388123.84,806613.5,917632.13
392120,808276,918720,388183.66,806646.69,917652.75
392554,808697,919461,388265.25,806687.94,917678.81
393274,808881,919288,388369.19,806737.5,917710.75
393501,808906,919312,388495.91,806796.13,917749.63
393961,809112,919270,388644.81,806863.63,917795.25
394399,809471,919504,388813.5,806939.88,917846.75
394966,809496,919579,389000.13,807025.25,917904.13
395329,809761,919627,389206.44,807119,917966.94
395648,810472,920091,389432.06,807221.75,918034.81
395861,810168,919953,389674.13,807333.69,918107.75
396485,810281,920063,389932.63,807453.75,918185.75
396801,810456,920423,390208.16,807580.5,918268.38
397289,810497,920278,390499.94,807713.19,918355.69
397455,810455,920250,390806.63,807850.5,918446.75
397338,810108,919972,391125.44,807990.25,918539.88
394852,808962,919322,391451.25,808128.88,918631.88
394227,808167,918666,391773.56,808260.44,918718.13
393279,807489,918253,392078.63,808377.38,918794.38
392057,806650,917567,392356.19,808474.38,918857.38
390360,806319,917170,392598.19,808548.69,918904.44
389536,805951,917036,392797,808598.56,918933.88
388777,805675,916953,392948.81,808623.38,918946.13
387775,805466,916663,393052.25,808623.81,918941.94
387247,805334,916649,393106.63,808601.25,918922.13
386956,805441,916786,393112.63,808557.88,918888.25
386721,805664,917009,393073,808496.5,918842.69
386391,805482,916672,392991.38,808420,918787
386414,805411,916839,392871.66,808330.75,918722.81
386450,805529,916816,392718.78,808231,918652
386443,805655,916944,392537.44,808123.13,918576.38
386711,805802,917001,392332.25,808009.94,918497.5
386864,805829,917063,392109.34,807893.63,918417
387145,806600,917544,391873.59,807776.38,918335.88
387537,806489,917359,391629.44,807661.13,918255.63
388046,806592,917520,391383.34,807550.44,918178.13
388472,806676,917862,391141.56,807445.69,918104.69
388659,807023,917874,390908.16,807348.06,918036.38
389159,806939,917763,390686.25,807258.75,917974.19
389248,807057,917791,390478.44,807177.88,917918
389148,807133,918159,390285.94,807105.75,917868.13
389526,807062,917912,390109.19,807042.25,917825
389596,807176,917885,389948.63,806986.88,917788.13
389744,807280,918004,389804.47,806939,917755.88
389890,807135,917890,389676.75,806898.19,917727.81
390129,807187,918021,389565.75,806864,917704.13
389988,807153,918093,389471.19,806836,917685.38
390463,807434,918190,389392.06,806814.13,917671.88
390561,807514,918072,389328.19,806799,917663.25
390903,807636,918219,389280.69,806791,917659.25
391426,808155,918799,389250.97,806790.06,917659.75
391804,808058,918605,389240.38,806796.63,917665.5
392305,808161,918614,389250.06,806811.31,917677.06
392562,808182,918739,389280.44,806834,917694.38
393317,808820,919156,389331.22,806865,917717.75
393548,808741,918987,389402.19,806905.38,917747.94
394017,808994,919126,389494.56,806955.13,917784.25
394469,809755,919448,389609,807013.81,917826.19
394888,809485,919631,389745.19,807081.75,917874.5
395356,809582,919472,389902.94,807159,917929.19
395768,809742,920101,390081.97,807245.06,917989.5
396289,810189,920020,390281.81,807339.75,918055.56
396791,810229,920144,390502.19,807443.5,918127.88
397136,810471,920106,390742.41,807555.81,918206.19
397799,811046,920491,391001,807676.5,918289.94
398233,811057,920526,391276.91,807806,918379.38
398586,811078,920605,391570.41,807943.69,918474.06
398692,811281,921042,391880.38,808088.38,918573.13
399136,811176,920802,392204.44,808238.5,918675.75
398801,810887,920444,392539.81,808392,918780.94
398673,810437,920244,392882.06,808545.44,918886.25
396416,809173,919201,393224.25,808695.06,918987.63
395417,808450,918719,393555.22,808835.31,919079.63
394121,807727,918263,393862.06,808958.13,919158.38
393144,807033,917820,394135.38,809057.94,919221.38
390959,806377,917368,394367.22,809131.81,919266.81
390288,806086,917095,394549.69,809177.75,919293.44
389588,805770,916890,394679.56,809195.69,919301
388383,805740,916811,394756.56,809187,919290.25
388049,805572,916837,394780.59,809153.81,919262.75
387786,805580,916719,394753.25,809098.63,919220.5
386753,805684,916765,394678.44,809024.31,919165.13
387240,805537,916795,394560.56,808933.63,919098.69
387260,805609,916764,394403.75,808829.06,919023
387199,805646,916992,394212.91,808713.13,918939.75
387276,805901,917044,393993.38,808588.69,918850.94
387277,805865,917001,393750.34,808458.63,918758.75
387311,806087,917084,393488.5,808325.31,918664.69
387991,806564,917283,393212.84,808191.19,918570.31
388388,806661,917535,392929.81,808059.13,918477.63
388855,806810,917663,392646.41,807931.94,918388.75
389332,807017,918202,392368.5,807811.5,918305
389792,807269,917983,392100.94,807699.5,918227.5
389976,807165,917808,391847.34,807596.88,918156.63
390086,807231,917979,391609.69,807503.38,918092.13
389915,807325,918010,391386.81,807419.38,918034.13
389875,807217,917855,391176.81,807344.94,917982.38
389999,807188,917853,390980.78,807278.88,917936
390172,807600,917983,390800.63,807219.88,917894.69
390208,807205,918019,390636.78,807167.88,917858.5
390458,807253,917976,390489.38,807122.25,917827.5
390728,807334,918060,390359.06,807083,917801.38
390907,807501,918082,390246.06,807050.44,917780.19
391143,807546,918190,390150.16,807024.69,917763.75
391524,807696,918254,390072.5,807006,917752.31
391353,807984,918616,390014.13,806994.5,917746.06
392218,808211,918603,389975.31,806991,917745.5
392758,808316,918714,389957.44,806996.38,917751.25
392817,808382,918991,389961.28,807010.63,917763.19
393797,808780,918963,389987.25,807034,917781.38
394100,808911,919046,390036.81,807066.88,917805.94
394651,809199,919191,390110.72,807109.63,917836.75
395176,809706,919734,390208.5,807162.38,917874.63
395755,809482,919588,390329.94,807224.81,917920.38
395971,809667,919585,390475.5,807296.38,917973.25
396308,809888,920156,390644.41,807377,918031.88
396801,810140,919919,390835.25,807466.63,918096.25
397121,810122,920092,391047.03,807564.81,918166.38
397591,810415,920209,391278.69,807670.75,918242.31
398314,810780,920359,391527.88,807784.75,918323.75
398582,810909,920415,391792.78,807907.5,918410.38
398966,811008,920525,392074.53,808038,918501.63
399301,811686,920495,392373.59,808175.06,918596.88
399889,811660,920714,392688.72,808318.44,918695.75
400088,811439,920745,393018.88,808468.13,918797.63
400192,811282,920648,393361.81,808622,918901.63
398624,810117,919948,393711.5,808775.5,919005
397564,809279,919242,394057.13,808921.38,919103.19
396218,808653,918621,394387.31,809053.19,919191
393502,807524,918168,394692.25,809166.63,919265.13
392806,807073,917787,394961.5,809257.75,919323.44
391831,806625,917442,395185.44,809323.06,919364.25
391073,806356,917050,395358.94,809361.31,919386.56
389920,805794,916913,395480.06,809372.5,919390.69
389451,805837,916860,395547.56,809357.38,919376.88
389120,805696,916702,395562.84,809317.88,919346.06
388450,805986,917110,395529.06,809257.06,919300.5
388677,805949,917017,395450.19,809178.31,919243.38
388489,805811,916782,395330.72,809084.75,919176.44
388471,805974,917109,395175.53,808978.75,919100.63
388293,806157,917035,394989.19,808863.19,919017.94
388610,806275,917129,394776.63,808741.31,918930.5
388807,806312,917089,394543.63,808615.5,918839.94
388795,806728,917486,394295.59,808488.31,918748
389472,806729,917458,394037.63,808362.25,918656.75
389827,806978,917652,393775.94,808239.5,918567.94
390307,807660,918050,393516.22,808122,918482.63
390994,807476,917984,393263.88,808011.88,918402.13
391262,807613,918043,393023.72,807910.56,918327.81
391385,807528,917820,392798.59,807818.63,918259.56
391448,807613,918002,392587.81,807735.63,918196.88
391539,807541,917949,392390.34,807661.13,918139.69
391577,807527,918005,392208.13,807594.63,918088
391614,807677,917905,392042.56,807535.56,918041.5
391637,807473,917815,391892.94,807483.44,917999.5
391554,807525,917892,391758.69,807437.63,917961.38
391929,807453,918196,391639.56,807397.63,917927.13
392225,807594,918021,391536.31,807363,917896.94
392583,807708,918031,391450.38,807334.13,917871.06
392718,807905,918154,391382.34,807311.5,917849.56
393106,808273,918724,391332.19,807296.19,917833.75
393348,808289,918472,391299.97,807289.25,917824.94
393712,808463,918489,391286.38,807290.88,917822.5
394056,808600,919012,391292.09,807300.75,917825.38
394720,808891,918980,391317.94,807319.38,917833.88
395135,808921,918860,391365.19,807346.75,917848.75
395425,809109,919076,391434.25,807382.75,917870
395958,809542,919307,391524.25,807427.88,917897.5
396236,809497,919173,391634.5,807482.56,917931.5
396858,809775,919477,391765.56,807546.38,917971.38
397171,810260,919843,391917.94,807618.69,918017.25
397853,810333,919810,392091.53,807699.81,918069.38
398210,810246,919878,392286.34,807789.75,918127.88
398483,810267,919825,392501.5,807887.38,918192
399065,810806,920147,392734.75,807991.88,918261.31
398922,810864,920300,392983.63,808103.88,918336
399634,811028,920400,393247.34,808223.13,918416.13
400311,811471,920581,393526.38,808348.81,918501.25
400605,811427,920679,393820.72,808480.63,918590.75
400801,811460,920756,394129.63,808618.13,918684.63
400923,811424,920697,394450.94,808760.19,918782.5
400237,810546,920126,394780.44,808903.56,918881.94
399342,809842,919517,395110.88,809042.5,918978.75
397923,809125,919038,395432.53,809170.88,919068.5
395262,808071,918498,395733.06,809284.63,919147.88
394565,807402,918082,395999.75,809379.13,919214.5
393570,807007,917676,396224.75,809449.88,919265.63
392708,806588,917366,396404.19,809494.38,919299.13
391219,806260,917019,396534.44,809512.5,919313.88
390876,806134,916874,396612.59,809505.13,919310.38
390308,806076,916936,396639.25,809474.06,919289.75
389614,806003,916819,396617.09,809422,919254
389647,806062,916917,396549.44,809351.63,919205.13
389576,806143,916844,396439.94,809265.69,919144.81
389585,806451,917083,396293.25,809166.81,919075.13
389309,806275,917042,396114.13,809057.63,918997.88
389528,806354,917018,395907.13,808940.63,918915.19
389656,806364,917130,395677.56,808818.38,918828.56
389981,806760,917315,395430.63,808693.19,918739.88
390273,806781,917358,395171.56,808567.88,918650.81
390617,806933,917577,394906.53,808444.38,918563.13
391224,807457,917858,394641.19,808324.44,918478.25
391413,807344,917685,394380.31,808209.88,918397.19
391717,807369,917828,394128.06,808102.13,918320.75
391797,807500,917924,393887.31,808001.88,918249.5
392164,807508,918072,393660.06,807909.38,918184.38
391969,807529,917983,393447.44,807824.94,918125.56
392007,807473,917904,393249.34,807748.06,918072.63
391042,807747,918134,393063.63,807678.75,918025.56
391779,807451,917901,392888.06,807616.81,917984.5
392076,807402,917979,392724.25,807561.31,917948.38
392119,807451,918002,392574.41,807511.38,917916.63
392220,807665,917900,392438.94,807467.13,917888.75
392563,807746,917907,392318.19,807429.25,917864.38
392359,807744,917991,392212.38,807398,917843.25
392924,807954,918222,392120.44,807373.31,917826
393359,808072,918335,392042.88,807355.69,917813.44
393941,808075,918356,391983.25,807345.25,917806
394150,808619,918820,391944.31,807341.81,917803.63
394554,808680,918790,391926.41,807346.38,917806.63
395063,808825,918924,391930,807359.88,917816.13
395585,809044,919099,391956.13,807382.56,917832.63
396254,809434,919088,392005.19,807415.06,917856.19
396495,809465,919170,392077.19,807457.88,917886.13
396851,809540,919219,392172.44,807510.38,917921.94
397234,810008,919942,392290.63,807571.81,917963.13
397752,810088,919743,392431.06,807642.31,918010.06
398076,810226,919777,392593.44,807722,918063.44
398398,810283,919902,392776.88,807810.63,918123.25
399023,810697,920193,392979.09,807907.5,918189.38
399464,810969,920295,393198.75,808013.25,918262
399816,811012,920285,393436.88,808127.75,918340.88
399497,811736,920953,393692.75,808250.75,918425.13
400270,811243,920540,393963.44,808381.69,918514.31
400057,811076,920365,394246.88,808518.38,918607.5
400034,810551,919624,394539.94,808657,918702.25
397920,809185,919075,394835,808791.81,918794.25
396739,808462,918491,395119.75,808914.88,918878
395807,807950,918026,395383.44,809020.5,918949.31
393435,807041,917583,395617.59,809106.13,919005.63
393079,806540,917202,395813.94,809169.25,919045
392297,806367,917039,395967.44,809207.25,919066.75
391486,806140,916836,396076.06,809219.63,919070.88
390414,805957,916883,396137.88,809207.69,919058.63
390008,805845,916766,396151.75,809173.19,919031.38
389753,805832,916780,396119.34,809118.5,918991.13
389340,805851,916754,396044.06,809046.38,918939.25
388995,805815,916770,395929.06,808959.13,918877.5
389012,805876,916827,395777.69,808859.25,918807.75
388811,805976,917250,395594.13,808749.13,918731.63
388868,806105,916906,395382.94,808631.13,918650.63
389082,806256,916936,395149.16,808508.31,918566.31
389478,806376,917160,394898.72,808383.31,918480.31
389925,806889,917462,394635.72,808259,918394.88
390419,807056,917585,394364.5,808138.56,918312.25
390699,807290,917724,394093.44,808024.5,918234.06
390819,807726,918150,393828.13,807918.63,918161.38
391495,807581,918091,393571,807822.63,918095.19
391751,807594,917897,393327.06,807736.38,918036
391919,807674,918193,393100.06,807659.31,917983.19
392122,807572,918044,392891.13,807591,917936.25
392019,807634,917993,392700.47,807530.88,917895.31
392187,807654,918005,392527.69,807478.5,917860
391059,807583,918162,392371.19,807433.25,917830.13
392110,807530,917976,392229.25,807394.38,917805.5
392374,807729,918062,392102.56,807361.38,917785.5
392478,808039,918151,391992.44,807334.63,917769.69
392919,807953,918287,391899.38,807314.38,917758.13
393209,808092,918411,391824.38,807301,917751.5
393468,808127,918395,391768.31,807294.75,917750.25
394171,808458,918813,391730.91,807295.88,917754.69
394386,808530,918741,391712.63,807305,917765.44
394766,808520,918782,391715.25,807321.75,917782.25
394832,809083,919385,391739.31,807346,917804.25
395572,809089,919250,391784.38,807378.25,917831.56
395899,809208,919101,391851.13,807419.06,917864.88
396439,809385,919373,391940.06,807468.31,917904
396848,809831,919614,392049.44,807526.25,917949.25
397354,810005,919662,392177.66,807593.81,918001
397707,810081,919675,392326.59,807670.88,918058.81
398008,810743,920183,392495.88,807757.38,918122.25
398296,810738,920155,392682.72,807854,918191.69
398865,810762,920203,392887.75,807960.19,918267.19
399277,810864,920619,393112.19,808074.56,918348.13
400085,811158,920672,393356.13,808196.25,918434.5
400504,811396,920727,393620,808325.38,918526.56
400790,811456,920903,393903.06,808461.38,918624.19
400121,811428,921040,394202.88,808603.56,918727
400761,811206,920552,394515.88,808749.88,918833.5
400363,810538,920089,394837.25,808896.38,918940.13
399386,809164,919151,395160.31,809037.88,919042.38
396888,808470,918559,395473.63,809167.75,919135.25
395778,807927,918152,395763.09,809279,919213.88
394799,807406,917783,396018.97,809367.31,919275.69
393034,806701,917363,396235.94,809430.56,919319.19
392311,806513,917088,396408.88,809467.38,919343.5
391734,806381,917035,396533.25,809478.38,919348.88
390998,806279,917228,396607.69,809465.25,919336.63
390465,806190,916982,396632.72,809429.75,919308.38
390257,806054,916897,396610.31,809374.38,919266.13
390139,806148,916989,396544.19,809301.63,919211.81
389840,806254,916993,396438.5,809214.38,919147.44
390056,806234,917139,396297.56,809115.38,919075.13
390038,806260,917090,396126.88,809007,918996.81
390202,806801,917383,395931.56,808891.81,918913.88
390396,806891,917470,395716.25,808773.25,918828.31
390755,807008,917639,395487.03,808654.5,918742.5
391211,807116,918065,395250.28,808537.63,918658.63
391626,807559,917974,395011.66,808424.63,918578.25
392203,807678,918062,394776.53,808318,918502.69
392588,807870,918226,394549.81,808219.38,918432.88
392676,808240,918618,394334.94,808130,918370.13
393218,808122,918468,394134.38,808050.81,918315.56
393210,808064,918408,393949.84,807981.5,918268.69
393209,808204,918493,393781.56,807921.13,918228.38
393223,807980,918263,393628.81,807869,918193.75
393227,807937,918318,393491,807824.13,918164
393074,807852,918335,393367.16,807785.13,918138.88
393314,808057,918280,393256.13,807751.81,918117.88
393484,808060,918362,393158,807724.25,918100.88
393589,808174,918351,393073.38,807702.56,918087.56
393834,808615,918900,393002.75,807686.81,918078
394221,808621,918798,392946.75,807677.63,918072.75
394563,808571,918835,392906.53,807675.56,918072.88
395075,808748,918875,392883.5,807680.75,918078.63
395692,808916,919227,392878.53,807693.13,918090
395973,809103,919071,392892.5,807713,918107.5
396367,809211,919196,392926.75,807740.63,918130.5
396619,809712,919404,392981.69,807775.75,918158.44
397106,809661,919474,393056.81,807818.63,918191.5
397490,809735,919558,393152.38,807869.5,918229.75
397858,809892,920113,393268.41,807928.19,918273.5
398282,810159,919990,393404.53,807994.63,918323.13
398835,810392,920091,393560.63,808068.94,918378.94
399148,810585,920225,393736.56,808151.5,918440.75
399833,811098,920387,393931.06,808242.31,918508.44
399979,811057,920377,394142.88,808341.25,918581.63
400141,811159,920562,394371.5,808448.25,918659.69
400776,811361,921110,394616.38,808562.5,918741.94
401441,811498,920920,394877.69,808683.13,918828.06
401477,811667,920855,395155.19,808810.13,918918.44
401705,811656,921026,395446.75,808942.75,919012.81
401615,811392,920790,395748.75,809080.13,919110.06
401142,810835,920309,396056.25,809219.56,919207.75
400002,810114,919746,396363.06,809355.06,919302
398791,809066,919095,396660.41,809480.13,919388.19
396303,808188,918372,396936.13,809588.69,919462.06
395453,807738,918061,397177.91,809675.5,919520.06
394553,807285,917751,397378.59,809738,919560.63
392956,806719,917411,397535.25,809775,919583.13
392277,806374,917249,397644.53,809785.69,919587.38
391625,806269,917130,397703.25,809770.63,919574.19
390479,806442,917317,397711.38,809731.88,919544.81
390463,806293,916982,397671.06,809672.38,919500.94
390727,806364,917223,397584.94,809595.25,919444.5
390368,806272,917169,397457.59,809503.25,919377.5
390272,806390,917229,397293.78,809398.75,919301.63
390409,806532,917268,397098.25,809284.56,919219.13
390478,806508,917252,396876.56,809163.31,919131.88
390577,807145,917576,396633.91,809037.13,919041.75
390953,807012,917742,396375.5,808908.63,918951.13
391350,807313,917812,396107.56,808781.19,918862.13
391563,807410,918434,395835.88,808657.63,918775.88
392210,807872,918169,395565.59,808540.06,918693.63
392528,807948,918160,395301.84,808430.69,918616.69
392798,808020,918060,395048.63,808330.63,918545.19
393079,808111,918333,394806.94,808240.38,918479.25
393242,808088,918451,394577.31,808160.13,918419.69
393217,807947,918245,394362.81,808088.88,918366.75
393177,808309,918458,394165,808025.13,918319.5
393206,808020,918239,393983.28,807968.25,918277.19
393206,808034,918257,393817.13,807918.25,918239.63
393276,808072,918267,393666.13,807874.94,918206.5
393509,808037,918182,393529.84,807838,918177.63
393668,808162,918504,393408.38,807807.13,918152.88
393793,808068,918441,393302.63,807782.06,918132.88
393459,808439,918770,393212.88,807762.69,918117.81
394319,808548,918633,393139.5,807749.63,918107.81
394693,808655,918737,393083.38,807743.88,918102.94
394881,808769,919220,393045.25,807745.38,918103.38
395715,809180,919106,393026.25,807754.75,918109.75
396013,809194,919127,393028.13,807772.75,918122.38
396338,809330,919314,393051.69,807799.25,918141.13
397025,809801,919734,393096.44,807833.88,918166.75
397473,809756,919740,393162.56,807877,918200
397780,810015,919842,393251.44,807928.88,918240.88
398195,810189,920302,393363.25,807989.75,918288.63
398864,810591,920102,393497.75,808059.94,918342.94
399319,810840,920276,393655.38,808140.13,918403.75
399692,810816,920378,393835.75,808230.19,918471
400066,811357,920645,394036.44,808329.75,918544.63
400569,811338,920647,394255.16,808438.94,918624.5
400910,811556,920696,394492.72,808557.13,918709.81
401356,812027,921064,394749.56,808683.38,918799.88
401659,811861,921023,395024.38,808817.38,918894.44
401721,811660,920794,395315,808957.38,918992.75
401634,811227,920548,395618.22,809100.38,919092.75
399574,810113,919646,395926.91,809240.88,919190.38
398614,809317,919119,396229.38,809372,919280.63
397032,808702,918700,396513.34,809487.63,919359.38
394913,807739,918093,396768.94,809583.81,919423.88
394288,807193,917562,396987.94,809657.19,919471.63
393590,806929,917379,397163.53,809705,919500.75
392714,806616,917079,397292.06,809726.75,919510.63
391677,806410,917082,397371.75,809723.38,919502.13
391196,806282,917039,397401.44,809696.38,919476.88
391011,806353,916927,397382.78,809647.88,919436.63
390485,806482,917463,397319.69,809581.13,919383.88
390454,806479,917246,397216.13,809499.56,919322
390499,806595,917100,397075.94,809405.81,919252.25
390630,806614,917529,396904.28,809302.31,919175.25
390392,806747,917356,396706.13,809191.5,919092.63
390698,806960,917520,396486.03,809075.88,919006.88
390861,807040,917442,396249.13,808958.13,918919.88
391059,807503,917764,396000.47,808840.75,918832.88
391976,807743,918022,395745.81,808726.81,918748.25
392445,807921,918145,395492.5,808618.88,918667.88
392652,808513,918555,395246.06,808518.31,918593.25
393335,808397,918583,395010.44,808426.5,918525.5
393508,808304,918421,394789.22,808344.31,918465.44
393599,808222,918432,394584.44,808271.5,918412.38
393498,808268,918482,394395,808207.13,918365.69
393589,808155,918324,394219.44,808150.38,918325
393550,808211,918238,394058.53,808100.63,918289.19
393683,808306,918460,393913.25,808057.25,918257.38
393929,808306,918333,393783.81,808019.88,918229.38
393897,808313,918423,393670.19,807988.63,918205.38
394113,808372,918883,393572.06,807963.5,918185.94
394445,808593,918733,393489.56,807944.69,918171.5
394436,808545,918686,393423.13,807932.25,918162.5
394975,808696,918687,393372.88,807926.25,918158.38
395399,809165,919295,393339.5,807926.88,918159.5
395795,809212,919136,393323.94,807935.5,918166.69
396117,809208,919186,393327.59,807952.13,918180.25
396483,809423,919671,393351.31,807976.38,918199.88
396976,809762,919587,393395.38,808008.63,918225.75
397470,809943,919704,393460.47,808049.63,918258.5
397866,809930,919707,393547.06,808099.25,918297.75
398029,810220,919801,393654.69,808157.5,918342.88
398602,810508,920036,393782.41,808224.69,918393.63
398892,810521,920217,393929.84,808300.63,918450.31
399249,810997,920353,394096.44,808384.13,918512.81
399868,810997,920511,394281.63,808474.75,918580.63
400104,811053,920567,394485.31,808572.63,918654
400589,811214,920578,394706.69,808677.31,918732.63
401050,811452,920798,394944.25,808788.44,918815.94
400910,811520,920839,395195.81,808905.75,918903.63
401364,811660,921019,395459.91,809028.5,918995.5
402160,811973,921131,395736.25,809156.06,919090.94
402283,811872,921127,396024.81,809287.63,919189.25
402133,811745,920874,396324.19,809422.13,919289.38
402090,811488,920745,396631.19,809557.63,919389.75
400192,810139,919938,396938.69,809689.38,919487.38
399049,809484,919170,397235.38,809810.19,919577
397926,808798,918723,397510.53,809914.38,919653.75
395460,807828,918474,397754.34,809999,919715.5
394702,807196,917818,397956.5,810061.06,919761
393737,806975,917536,398111.13,810096.88,919788
392871,806730,917656,398215.78,810105.69,919795.5
391519,806232,917107,398268.19,810088.25,919784.06
390991,806211,917043,398266.56,810045.5,919754.63
390427,806068,917045,398211.88,809979.5,919709
389704,806259,917064,398106.88,809893.38,919649.25
389607,806206,917029,397955,809790.75,919577.44
389588,806213,917020,397760.56,809674.25,919495.5
389523,806386,917314,397529.06,809546.38,919405.38
389170,806345,917219,397265.56,809410,919309.19
389449,806490,917289,396974.94,809267.5,919209
389526,806570,917429,396662.91,809121.38,919106.63
389948,807000,917478,396335.88,808974.25,919003.88
390281,807189,917636,396000.25,808829.5,918902.19
390572,807227,917643,395662.06,808689.5,918802.88
391221,807768,918076,395326.38,808555.5,918707.25
391318,807868,918225,394997.75,808429.38,918617.44
391645,807746,918087,394680.53,808312.94,918534.5
391892,807900,918120,394378.16,808206.5,918458.38
391963,807935,918253,394092.75,808110.13,918388.94
392062,807880,918111,393825.25,808023.5,918326.06
391952,807876,918177,393575.84,807946.13,918269.38
391618,808184,918168,393342.44,807877.63,918219
392097,807870,918154,393123.38,807817.88,918175
392155,807779,918167,392920.81,807765.63,918136.5
392290,807856,918278,392736.5,807719.88,918102.81
392824,808123,918274,392571.28,807680.88,918073.88
393140,808432,918527,392426.88,807649.75,918050.06
393474,808360,918390,392304.63,807627.38,918031.88
393966,808731,918692,392204.31,807613.69,918019.19
394468,808913,918875,392126.13,807609.5,918012.75
394652,809043,918904,392072.44,807615.13,918013.06
395039,809353,919202,392044.25,807630.69,918020
395755,809608,919549,392041.88,807656.44,918034.25
396376,809809,919534,392066.81,807693.13,918056.75
396708,809948,919630,392119.78,807740.88,918087.75
397142,810459,919760,392199.91,807799.75,918126.38
397779,810557,920027,392306.31,807870.5,918172.69
398130,810669,919983,392439.38,807952.63,918226.56
398781,811088,920321,392598.56,808045.19,918287.25
399222,811338,920531,392783.06,808148.13,918354.5
399740,811449,920510,392992.69,808261.75,918429
400039,811605,920721,393226.75,808385.5,918510.38
400604,811885,921025,393483.69,808518.5,918598.5
400981,811979,920866,393762.25,808660.13,918693.19
401393,812306,921127,394061.03,808810,918793.44
400932,813090,921735,394376.78,808968,918899.13
402208,813015,921555,394706.63,809134.88,919010.63
402680,812962,921585,395051.19,809310,919127.5
402918,813084,921769,395410.75,809491.63,919248.69
403162,812774,921462,395783.06,809677.5,919372.69
402756,812143,921031,396164.56,809863.63,919496.94
401814,811307,920413,396548.5,810044.19,919617.5
398594,809447,919199,396923.38,810212.56,919728.63
397458,808807,918668,397273.38,810361,919824.13
396474,808214,918279,397585.5,810482.38,919900.25
395539,807534,917931,397853,810573.25,919955.5
393741,807207,917628,398070.63,810632.75,919989.25
393157,806931,917295,398233.25,810660.75,920001.63
392894,806877,917183,398340.25,810658.63,919993.13
391969,806785,917349,398394.13,810629,919965.56
391883,806870,917195,398397.13,810575,919921.5
391913,806964,917424,398352.81,810500.25,919863.38
391526,807322,917700,398266.53,810408.38,919793.75
391908,807155,917480,398143.94,810302.63,919714.88
392228,807300,917475,397990.69,810186.25,919628.63
392199,807401,917613,397812.66,810062.25,919537.06
392433,807705,917954,397613.25,809933.75,919442.5
392803,807822,917945,397396.38,809803.69,919347.5
393214,808060,918161,397169.81,809674.63,919253.88
393046,808852,918704,396939.41,809549.25,919163.31
394162,808816,918548,396709.25,809430.75,919077.94
394627,808874,918659,396485.88,809321.25,918998.75
395011,808927,918956,396275,809221.25,918926.13
395461,809121,918922,396079.69,809131,918860.5
395510,809115,918693,395902,809051,918802
395540,809087,918583,395742.28,808980.75,918749.75
394865,808971,918827,395598.38,808919.63,918703.13
395469,808918,918719,395468,808866.63,918662.19
395518,808747,918674,395351.78,808820.13,918626.56
395596,808996,918931,395250.44,808779.13,918595.56
396012,809031,918761,395164.16,808743.5,918569
396081,808933,918739,395093.56,808713.63,918546.81
396295,809081,918733,395038.72,808689.31,918528.63
396399,809354,918981,394998.06,808670.94,918514.63
396885,809398,919026,394970.63,808659.25,918505.25
397266,809469,918999,394959,808654.38,918500.69
397544,809912,919731,394965.44,808656.44,918500.75
398407,810061,919678,394991.03,808666.38,918506.38
398924,810118,919645,395038,808684.81,918519
398967,810383,919631,395107.03,808712,918538.44
399698,810856,920053,395195.56,808748.63,918564.38
400161,810978,920061,395302.38,808795.63,918597.38
400576,811128,920271,395430.25,808853.25,918637.63
400703,811759,920588,395579.31,808921.38,918685
401433,811671,920677,395747.5,809000.75,918739.63
401913,811736,920757,395936.13,809090.44,918801.75
402181,811902,921062,396146,809189.19,918870.94
402745,812284,921054,396375.94,809296.56,918946.75
403162,812362,921209,396625.25,809412.63,919029.06
403411,812396,921165,396892.88,809536.63,919117.38
403218,812914,921573,397176.59,809667.88,919211
404204,813100,921549,397474.69,809806.94,919310.25
404644,813104,921676,397786.69,809953.44,919414.44
404730,813077,921470,398111.63,810105.63,919522.75
404413,812470,921229,398446.16,810260.25,919633.38
403720,811830,920682,398784.44,810412.63,919742.5
402541,810927,920005,399118.25,810557.13,919845.5
399613,809487,919163,399437.28,810686.31,919937.38
398567,808753,918535,399728.56,810792.88,920013.13
397554,808286,918187,399979.69,810872.63,920069.75
396831,807851,918083,400184.16,810924.38,920106.25
395309,807461,917829,400338.69,810948.13,920123.25
394954,807402,917605,400440.38,810944.5,920121.38
394611,807457,917559,400490.06,810915.63,920101.69
394009,807432,917696,400490.13,810864.63,920066
394011,807438,917675,400443.25,810794.56,920017
393780,807414,917611,400354.06,810708.13,919956.38
393602,807787,917798,400226.63,810608.13,919886.13
393935,807909,917983,400065.09,810498.5,919808.5
394204,807944,917880,399876.81,810382.38,919726
394379,807966,918168,399668.94,810262,919640.25
394232,808248,918278,399446.13,810139.5,919553.38
395013,808451,918331,399212.97,810017.25,919467.25
395518,808759,918504,398975.94,809898.19,919383.13
396092,809340,919201,398741.34,809785,919303.38
396950,809414,919146,398515,809680.5,919230.88
397243,809692,919220,398302.5,809586.5,919166.38
397573,809800,919302,398107.25,809503.63,919109.75
397812,809668,919250,397930.78,809431.56,919060.44
397876,809593,919225,397773.81,809369.38,919018.13
397698,809483,919204,397635.56,809316,918982.25
397634,809494,919032,397513.88,809270.44,918952
397600,809483,918922,397406.78,809231.75,918925.94
397809,809438,919127,397313.81,809199.44,918903.5
397724,809869,919461,397234.81,809172.88,918885
397819,809668,919182,397168.97,809152.31,918870.44
398120,809649,919270,397116,809137.63,918859.94
398478,809753,919254,397076.69,809128.63,918853.5
398952,810140,919547,397051.5,809125.69,918851.25
399186,810118,919534,397040.81,809129.81,918853.88
399557,810325,919563,397046.31,809141.13,918861.25
399770,810835,920034,397069.19,809159.94,918873.31
400364,810793,920135,397109.69,809187.13,918891
400672,810954,920138,397168.66,809222.94,918915.25
401068,811097,920619,397246.5,809267.19,918946
401324,811314,920457,397342.94,809319.75,918983.63
401888,811494,920476,397457.75,809380.63,919027.5
402217,811581,920610,397591.06,809449.69,919077.13
403030,812260,920957,397742.66,809526.63,919132.5
403460,812239,921095,397912.81,809612.06,919194.38
403893,812370,921264,398102.78,809706.25,919263
404233,812641,921633,398312.63,809809,919337.75
404740,812784,921502,398541.5,809919.5,919418.13
404594,812961,921704,398787.69,810037.81,919504.25
405205,813116,921710,399048.88,810163.63,919596
406006,813642,922105,399322.91,810297.25,919693.13
406531,813809,922126,399609.38,810439.63,919795.88
406605,813814,922078,399910.19,810589.88,919903.5
406763,813711,922113,400224.84,810746.44,920014.56
405917,812833,921361,400548.63,810905.75,920126.5
404859,811909,920693,400873.31,811060.75,920234.44
403231,810904,919907,401188.03,811203.69,920332.88
400629,809600,918949,401480.81,811327.13,920416.31
399642,809009,918689,401739.44,811424.81,920480.5
398755,808667,918389,401954.31,811493.81,920524
396253,808153,918224,402120.06,811534.06,920546.88
396686,807951,917972,402233.56,811546.19,920549.63
396359,807844,918067,402294.19,811531.13,920533.75
396081,807718,917803,402304.38,811490.88,920501.13
395626,807885,917925,402267.5,811428.19,920453.5
395614,807883,917912,402187.19,811346.63,920392.94
395626,807972,917892,402068.25,811249.44,920321.31
395872,808479,918310,401915.97,811139.88,920241.13
395970,808328,918278,401735.88,811021.44,920155.31
396024,808429,918290,401534.06,810897.13,920065.94
396211,808521,918670,401315.81,810769.25,919973.88
396405,808945,918673,401085.84,810640.5,919880.81
396843,809151,918702,400849.03,810514.13,919789
397594,809356,918891,400611.25,810392.56,919700.38
398155,809697,919357,400377.13,810278.19,919616.63
398566,809739,919386,400150.31,810172.88,919540
398808,809997,919504,399936.38,810077.44,919471.44
398919,810506,919483,399739.06,809992.13,919411
399151,810124,919511,399559.06,809917,919358.5
399088,809932,919451,399396.69,809851.69,919313.19
399260,809878,919563,399251.53,809794.81,919274.56
399151,809978,919524,399121.56,809745.5,919242.25
399287,809862,919415,399004.69,809703.25,919215.75
399169,809908,919425,398901.78,809667.44,919193.94
399362,810089,919813,398813.5,809637.5,919176.56
399747,810127,919622,398740.06,809613.5,919163.75
400140,810241,919598,398682.69,809595.81,919155.5
400315,810459,919917,398642.28,809585.19,919151.75
401042,810639,919817,398619.88,809582.13,919152.63
401421,810864,919976,398617.19,809587.19,919158.38
401753,811000,920189,398635.25,809600.88,919169.56
402292,811379,920860,398673.81,809623.5,919187.69
402821,811506,920763,398733.19,809655.69,919214.5
402966,811691,920664,398814.25,809697.69,919249.56
403309,811766,921240,398916.53,809749.13,919291.13
403655,812265,921133,399039,809810,919339
404275,812232,921063,399181.34,809880.75,919393.56
404691,812497,921141,399343.94,809961,919454.19
404929,813001,921657,399526.53,810050.75,919520.88
405583,813014,921615,399728.59,810150.63,919594.25
406281,813145,921720,399950.19,810259.88,919674.13
406582,813869,922190,400191.38,810377.56,919759.5
407342,813886,922211,400451.88,810503.75,919850.13
407445,813922,922377,400731.06,810638.88,919946.88
407692,814152,922457,401026.88,810782.5,920049.88
408339,814180,922589,401335.94,810933.63,920158.5
408432,814177,922476,401656,811090.75,920271.75
408438,814080,922481,401986.44,811251.81,920388.13
407723,813119,921680,402325.06,811414,920505.13
406446,812262,921016,402664.66,811571.44,920618.25
404835,811339,920443,402992.53,811716.25,920721.81
403153,810439,919706,403295.31,811841.25,920810.88
400999,809309,919127,403560.72,811941,920881.69
400111,808956,918785,403778.56,812011.25,920931.88
399191,808469,918494,403944,812050.63,920960.5
397484,808459,918620,404054.38,812060.5,920968.63
397298,808212,918271,404107.63,812043.5,920957.75
396901,808200,918201,404105,812001.44,920929
396473,807998,918338,404049.94,811936.13,920883.38
396245,808238,918099,403946.22,811850.44,920822.38
396158,808218,918202,403798.59,811747.94,920748.63
396295,808274,918297,403612.78,811631.75,920664.75
396351,808545,918343,403394.78,811505.06,920573.38
396534,808530,918377,403150.44,811371,920476.38
396577,808663,918472,402885.81,811232.25,920375.38
396864,809180,918893,402606.47,811090.94,920272.5
397450,809362,918918,402318.44,810950.44,920169.88
397948,809506,918939,402028.41,810814.13,920069.56
398354,809747,919202,401742.34,810684.38,919973.19
399081,809948,919299,401464.88,810562.88,919882.13
399260,810146,919609,401199.88,810451.13,919798
399458,810140,919564,400951,810349.94,919721.56
399724,810341,919700,400720.38,810259.13,919653.25
399738,810073,919557,400508.88,810178.13,919592.5
399850,810189,919458,400316.63,810106.25,919538.63
399898,810158,919420,400143.38,810043.06,919490.5
399956,810192,919709,399988.66,809988.25,919448.13
400138,810222,919558,399852.06,809941.5,919411.88
400193,810205,919581,399733.38,809902.06,919381.25
399761,810835,920211,399630.56,809870.31,919356.38
400535,810606,919856,399542.09,809846.94,919337.88
400766,810696,919822,399469.81,809832,919325.63
401046,810659,920173,399415.59,809824.88,919318.5
401604,810841,919929,399380.19,809825.13,919316.38
402037,811148,920165,399364.94,809833.06,919319.38
402255,811073,920255,399370.69,809849,919327.88
402909,811556,920724,399395.25,809872.5,919342.88
403297,811707,920762,399437.5,809904.13,919365.5
403879,811950,920714,399501,809944.88,919395.5
403945,812389,921289,399588.16,809995.44,919432.13
404737,812425,921286,399698.25,810055.88,919475.56
405180,812525,921364,399831.69,810126.19,919526.5
405340,812646,921438,399988.06,810205.88,919585
405945,813191,921775,400165.44,810294.88,919650.63
406488,813322,921786,400362.81,810393.81,919723.44
406798,813314,921849,400580.75,810502.38,919802.88
407543,813851,922644,400818.44,810619.13,919888.13
407819,813786,922284,401074.53,810743.5,919978.88
408051,813946,922328,401348.88,810875.25,920075.38
408256,814069,922375,401640,811014,920177
408563,814350,922707,401943.81,811159,920283.25
408754,814181,922471,402256.63,811309.63,920393.75
408843,814040,922403,402578.38,811463.63,920506.88
406624,813217,921904,402906.06,811618.44,920620.25
406145,812145,921010,403229.91,811768.88,920730.13
404849,811267,920519,403537.72,811906,920830.38
403683,810552,919596,403819.25,812022.75,920916.06
401488,809605,919151,404064.94,812114.56,920983.25
400230,809047,918828,404264.63,812178,921029.63
399588,808767,918636,404412.56,812211.5,921054.63
397431,808432,918534,404506.88,812216.38,921059.25
397832,808263,918197,404546.84,812194.38,921044.38
397768,808294,918246,404534.03,812147,921011.19
397359,808493,918500,404472.56,812077.19,920961.5
397070,808446,918289,404366.5,811988.38,920897.75
397302,808411,918445,404220.44,811883.88,920822.63
397165,808470,918485,404040.19,811766.44,920738.63
397141,808712,918745,403830.88,811639,920648.44
397180,808733,918721,403597.03,811504.63,920554.38
397228,808918,918777,403343.53,811366,920458
397615,809319,919347,403075.63,811225.75,920360.75
398047,809428,919154,402799.25,811086.31,920264.25
398450,809668,919310,402520.5,810950.88,920170.69
398808,809840,919352,402244.53,810821.81,920081.63
399123,810077,919457,401974.06,810700.81,919997.75
399546,810076,919520,401711.44,810589,919919.69
399620,810065,919522,401461.53,810486.5,919847.75
399390,810374,919622,401225.88,810393.38,919782.13
399187,809933,919490,401002.44,810309.25,919722.56
399259,809758,919308,400791.38,810232.5,919668.25
399321,809805,919528,400593.81,810161.75,919618
399087,809777,919235,400409.56,810096.5,919571.44
399221,809769,919383,400237.91,810036.63,919528.31
399349,809774,919448,400078.94,809981.88,919489
398721,809827,919641,399933.22,809932.38,919454.25
399580,809899,919553,399801.13,809888.69,919424.38
399853,809981,919486,399683.19,809850.5,919399.13
400239,810468,919764,399580.5,809817.75,919377.63
400654,810437,919837,399494.75,809791.38,919360.5
400904,810548,919857,399427.22,809772.25,919348.38
401081,810614,919960,399378.25,809761.13,919341.5
401672,810902,920122,399347.66,809757.81,919340.13
402092,811056,920287,399336.09,809763.13,919344.63
402423,811059,920395,399345.25,809776.94,919355.38
402731,811988,921200,399375.84,809799.38,919372.5
403635,811833,920847,399428.47,809831.5,919396.56
403983,811923,920927,399504.69,809874.19,919428
404302,812251,921091,399604.66,809927.25,919466.88
404953,812582,921368,399726.94,809991.13,919513.25
405351,812642,921447,399870.69,810066,919567.38
405470,812780,921404,400036.19,810151,919628.75
406282,813496,921549,400221.94,810245.5,919695.88
406701,813424,921710,400426.75,810349.5,919768.06
406915,813324,921848,400651.72,810463,919845.63
407146,813320,921945,400896.19,810584.19,919928.69
406853,813195,921633,401156.69,810711,920016
406614,812745,921423,401428.5,810840.5,920105.13
405542,811936,920729,401704.81,810968.13,920192.5
402738,810715,919986,401976.69,811088.25,920273.5
401920,809954,919391,402231.94,811194.63,920343.19
401016,809407,919057,402457.91,811280.88,920398.25
399974,808611,918471,402646.56,811343.5,920437.13
398216,808220,918243,402792.25,811380.75,920458.88
397482,808066,918085,402889.25,811391.5,920462.63
396871,807949,918032,402935.53,811376.75,920448.69
396189,807885,918081,402932.38,811338.75,920418.88
396054,807882,918100,402882.25,811280.13,920375.5
395676,808057,918040,402788.06,811203.75,920320.38
395648,808301,918556,402653.5,811112.88,920255.13
395664,808347,918293,402483.56,811010.63,920181.63
395811,808310,918122,402283.88,810900.25,920102
395786,808484,918330,402059.94,810784.13,920018
396205,808762,918375,401816.78,810665.13,919931.06
396683,808860,918493,401560.38,810545.75,919843.13
396879,809060,918705,401297.44,810428.19,919755.75
397501,809742,919060,401033.06,810314.5,919670.88
397997,809770,919234,400772.13,810207.19,919590.25
398451,809855,919307,400520.69,810108.56,919516
398901,810055,919507,400283.63,810019.88,919448.69
399062,810180,919434,400063.66,809941.63,919388.5
399153,810191,919536,399862.03,809874.19,919335.63
399139,810085,919349,399678.69,809816.75,919289.88
398896,810070,919307,399512.63,809768.25,919250.25
398958,809936,919271,399362.34,809727.69,919215.63
399145,810005,919367,399227.13,809693.88,919185.75
399154,810006,919774,399106.88,809666.31,919160.44
399308,810057,919333,399001.28,809644.88,919139.5
399102,810009,919404,398909.69,809628.88,919122.5
399622,810039,919538,398831.56,809617.75,919109.75
399899,810384,919509,398766.75,809611.88,919101.25
400314,810478,919627,398715.81,809612.81,919097.13
400539,810554,919769,398681.06,809620.25,919097.25
401011,811249,920421,398664.38,809634.25,919102.56
401548,811232,920236,398666.97,809655.88,919113.75
402154,811241,920273,398690.44,809685.81,919131.56
402430,811399,920327,398735.94,809723.94,919155.63
403236,811825,920686,398803.06,809770.38,919186
403624,812019,920707,398891.94,809826,919223.19
403756,812260,920887,399003.5,809891.19,919267.19
403732,812561,921414,399137.13,809965.81,919317.56
404598,812619,921243,399291.59,810049.56,919374.38
405032,812697,921264,399466.63,810141.94,919437.5
405260,812741,921642,399661.47,810242.13,919506.88
406047,813243,921682,399875.44,810349.63,919582.13
406269,813344,921801,400108.44,810465,919663.63
406527,813398,921806,400359.31,810587.75,919750.88
407167,813936,922356,400625.84,810717.13,919844
407372,813833,922152,400906.78,810852.63,919943.13
407583,813809,922069,401201.41,810993.69,920047
407326,813362,921769,401507.31,811138.06,920153.25
405592,812053,920825,401817.19,811280.19,920257.88
404238,811121,920141,402119.09,811412,920354.88
402824,810610,919823,402401,811527,920439.69
400549,809483,919227,402651.88,811622,920509.5
399543,808916,918744,402861.34,811693.88,920562
398773,808670,918380,403022.97,811738.94,920595.19
397800,808371,918161,403134.19,811756,920608.63
396311,807947,917904,403192.38,811745.75,920602.75
395930,807859,917932,403195.41,811709.25,920578.5
395614,807803,917943,403145.06,811649,920537.69
394817,807930,918113,403044.53,811568,920483
394737,807978,917934,402896.69,811469.75,920416.63
394835,807839,917952,402706.72,811357.06,920340.31
393819,808156,918208,402480.91,811232.63,920255.5
394575,808091,918082,402224.5,811099.19,920164.31
394838,808253,918276,401942.75,810959.63,920068.81
395109,808381,918457,401642.13,810816.63,919971.25
395478,808804,918395,401329.13,810673.06,919873.31
396108,809061,918703,401010.44,810532.38,919776.63
396481,809366,918747,400692.84,810397.5,919682.88
396740,809585,919318,400381.41,810270.88,919594.25
397286,809598,919233,400080.31,810153.75,919512.81
397427,809670,919219,399793.31,810046.5,919439
397581,809728,919569,399522.69,809949,919372.38
397438,809744,919251,399269.03,809861.25,919312.75
397737,809635,919039,399032.53,809782.75,919259.25
397757,809694,919111,398813.75,809712.75,919210.88
397279,809618,919017,398611.81,809650.69,919167.25
397600,809527,918975,398424.88,809596.13,919127.69
397851,809758,919071,398253.5,809548.31,919091.88
397791,809969,919226,398098.69,809507,919060.13
398217,809861,919254,397960.66,809472.25,919032.75
398429,809926,919423,397840.31,809444.13,919010.44
398627,810081,919341,397738.34,809423,918993.25
399094,810322,919659,397653.34,809409.31,918981.38
399496,810404,919713,397584.75,809403.63,918975.38
399734,810566,919842,397535.88,809406.06,918975.56
400385,810960,920205,397509.31,809416.75,918982
400878,811174,920225,397506.09,809436.44,918994.88
401348,811332,920344,397527.63,809466.06,919014.88
401344,811330,920583,397573.75,809505.56,919042
402286,811875,920591,397643.75,809554.75,919075.81
402689,811956,920658,397738.53,809614.38,919116.31
402990,812148,920864,397858.22,809684.25,919163.63
403641,812676,921569,398001.28,809764.13,919218.38
404047,812796,921238,398166.88,809854.06,919281.25
404413,812837,921483,398355.19,809954.31,919351.75
404802,813048,921754,398565.81,810064.25,919428.81
405193,813409,921781,398797.38,810183.38,919511.75
405822,813683,921806,399049,810312,919600.88
406041,813754,921989,399319.91,810449.81,919695.88
406164,813932,922072,399608.63,810596.38,919796.38
406930,814057,922283,399913.88,810750.94,919902
407032,813688,922033,400234.06,810911.13,920011.81
406386,812683,921303,400565.06,811072.75,920123.13
404093,811584,920449,400896.84,811228.88,920230.63
402652,810794,919768,401214.66,811370.75,920327.88
401327,810111,919291,401505.94,811492.13,920410
398958,809090,918645,401761.5,811588.44,920474
398248,808636,918227,401973.06,811656.25,920517.5
397387,808349,918067,402133.94,811694.25,920539.63
395943,808167,917924,402241.44,811703.5,920541.13
395779,807938,917809,402295.13,811685.56,920523.5
395295,808101,917829,402295.5,811642.94,920488.38
394952,808023,918192,402244.88,811578.94,920437.75
394627,807991,917921,402146.84,811496.5,920374
394814,808225,918048,402006.25,811398.63,920299.81
394726,808238,917985,401828.97,811288.5,920217.5
394657,808551,918638,401619.84,811169.88,920129.63
394936,808555,918249,401383.44,811046,920038.69
395127,808719,918296,401126.66,810919,919945.88
395614,808926,918867,400856.63,810790.88,919852.25
396141,809347,918930,400579.97,810664.56,919760.25
396506,809573,919102,400303,810543.06,919672.56
397113,809812,919148,400031.13,810428.75,919590.75
397582,810176,919178,399768.97,810323.63,919515.25
397995,810268,919369,399520.25,810229.5,919446.38
398282,810256,919496,399288.69,810146.63,919385
398367,810219,919587,399076.56,810074.19,919331.25
398019,810183,919320,398883.31,810011.25,919284.69
398233,810017,919274,398707.44,809956.75,919244
398367,810065,919239,398548.56,809909.5,919208.38
398362,810038,919154,398406.44,809868.75,919177
398246,809944,919300,398279.78,809833.88,919149.63
398431,810006,919197,398168,809804.25,919126.06
398475,810637,919488,398070.81,809779.5,919106.25
398267,810418,919431,397987.25,809760.13,919090.25
398772,810248,919526,397916.72,809746.94,919078.56
398987,810273,919606,397860.16,809739.25,919071.5
399529,810630,919805,397819.06,809737,919069.44
399911,810735,919847,397795.03,809741.13,919072.69
400120,810978,919917,397789,809752.31,919081.25
400566,811528,920717,397799.63,809771.44,919095.5
401229,811552,920372,397826.63,809799.75,919116.13
401640,811489,920428,397873.41,809837.19,919143.44
401717,811572,920703,397941.66,809882.56,919176.69
402564,811874,920666,398030.94,809935.38,919215.38
402808,812116,920739,398141.81,809996.13,919259.63
403360,812216,920905,398274.38,810065,919309.75
403684,812571,921229,398427.38,810141.88,919366
404110,812696,921228,398599.31,810227.13,919428.56
404406,812835,921273,398790.25,810320.25,919497.13
404860,813171,921545,399000.25,810421.06,919570.5
405110,813157,921635,399228.06,810528.88,919648.38
405562,813491,921676,399472.59,810643.63,919731.13
405842,813503,921972,399732.69,810765.25,919818.81
405979,813708,921924,400007.16,810893,919911.31
406425,813680,921849,400294.47,811025.88,920007.63
406706,813644,921924,400593.06,811162.63,920106.44
405439,812679,921160,400900.25,811300.56,920206.19
404231,811759,920566,401208.25,811434,920303.19
402868,810968,920042,401503.75,811555.13,920391.75
401610,810345,919545,401774.75,811658.13,920467.38
399171,809320,918775,402010.63,811738.63,920526.88
398265,808787,918429,402200.84,811793,920567.38
397278,808389,918134,402339.84,811819.13,920587.63
394640,808432,918278,402424.13,811818.13,920588.19
394954,807999,917867,402450.16,811792,920570.56
394490,807847,917723,402418.5,811741.88,920535.63
394324,807941,917856,402333.09,811669.56,920484.56
393833,807917,917717,402198.53,811578.25,920419.5
393824,807970,917921,402019.41,811471,920342.75
393434,808057,917786,401800.63,811350.75,920256.63
393395,808202,918246,401545.69,811220.63,920163.63
393851,808297,918218,401259.31,811083.56,920066.63
393853,808396,918443,400950.25,810942.19,919967.88
394018,808896,918589,400625.78,810799,919869
394694,808938,918616,400291.94,810656.94,919771.25
395118,809070,918595,399955.88,810518.63,919675.94
395201,809291,918912,399623.16,810386.13,919584.5
395563,809671,919016,399297.38,810261.38,919498.5
395801,809617,918925,398981.75,810146.25,919418.69
396026,809859,919004,398679.59,810041.25,919344.94
396107,809635,919316,398393.19,809946.13,919277.31
395984,809613,919074,398123.28,809859.81,919216
395887,809578,918965,397869.44,809781.63,919160.75
395924,809493,918921,397631.06,809711,919110.56
395521,809429,918935,397406.13,809647.13,919065
395833,809333,918978,397192.63,809589,919023.94
395940,809427,918978,396992.56,809536.25,918987.25
395624,810050,919323,396807,809489.38,918955
396193,809823,919179,396635.09,809449.38,918927.63
396290,809709,918970,396478.75,809416.5,918904.75
396636,809828,919408,396339.81,809390.06,918886
397064,810150,919458,396219.44,809370.25,918872
397240,810136,919481,396118.91,809357.88,918863.69
397705,810255,919606,396038.88,809352.81,918861
397139,810690,919933,395979.44,809355.06,918864.5
398157,810777,919884,395940.19,809365.25,918874.75
398714,810934,920011,395921.81,809384.25,918891.5
399267,811327,920336,395926.06,809412.38,918914.5
399771,811539,920445,395954.13,809450,918944.25
400286,811564,920541,396006.81,809497.75,918981
400680,811828,920549,396084.44,809555.5,919024.81
401487,812137,920921,396186.19,809623.13,919075.25
401805,812440,920984,396311.56,809701.25,919132.75
402277,812477,921055,396461.56,809789.75,919197.13
402156,812901,921700,396635.44,809887.63,919267.56
403176,813008,921481,396831.41,809994.38,919344.19
403331,813103,921571,397049.22,810109.94,919427
403658,813276,921443,397287.78,810234.06,919515.5
403941,813284,921599,397543.44,810365.5,919608.19
403935,813017,921185,397812.44,810502.44,919703.5
403198,812247,920994,398091.88,810640.75,919798.94
400470,811147,919778,398374.28,810775.38,919891.31
399353,810139,919182,398645.94,810900,919975.69
398371,809387,918973,398893.19,811006.25,920046.31
397151,808974,918424,399107.25,811088.88,920100.38
394973,808102,918040,399280.09,811145.5,920136.56
394167,807899,917928,399403.69,811174.38,920153.88
393489,807677,917650,399474.69,811175.94,920152.5
391196,807411,917528,399493.44,811152.25,920133.31
391354,807317,917461,399459.25,811105.44,920097.38
391239,807421,917459,399372.06,811037.38,920046.5
390990,807742,917717,399235.31,810950.75,919982.63
390723,807650,917704,399054.28,810848.88,919908.25
390590,807651,917643,398833.75,810735.19,919825.94
390347,807650,917655,398578.56,810612.25,919737.44
390670,807996,917955,398293.78,810482.75,919644.63
390896,807975,917904,397985.81,810349.5,919549.63
391181,808238,918055,397661.84,810215,919454.19
391179,808971,918835,397327.94,810081.75,919359.81
391845,808857,918607,396989.44,809952.38,919268.75
392431,808840,918531,396652.81,809829.38,919182.88
392710,809083,918676,396324.19,809714,919102.69
392969,809146,918749,396007.28,809607.25,919028.69
393049,809069,918761,395704.31,809509.38,918961.13
393056,809066,918594,395416.94,809419.88,918899.75
392985,809480,918877,395145.75,809338.75,918844.06
393072,809110,918688,394890.63,809266.06,918793.88
393027,809003,918588,394651.69,809200.94,918748.88
393222,809032,918635,394429.31,809142.25,918708.25
392816,809041,918565,394223.13,809089.5,918672
393292,809082,918783,394032.38,809042.69,918640
393446,809142,918837,393858,809001.75,918612.38
393580,809398,918978,393700.94,808966.88,918589.88
393963,809434,919027,393561.59,808938.75,918572.63
394252,809620,919021,393441.25,808917.88,918560.69
394528,810003,919431,393340.91,808904.38,918553.63
395023,810036,919337,393261.44,808898.75,918551.5
395396,810147,919474,393203.94,808901.81,918555.19
395565,810338,919503,393168.84,808913.75,918565
396454,810500,919744,393155.72,808935,918580.88
396681,810780,919846,393165.06,808966,918603.13
397034,810834,919876,393198.19,809006.5,918631.75
397526,811594,920365,393255.81,809055.75,918666.5
397970,811418,920345,393337.75,809114,918707.63
398325,811632,920443,393443.88,809181.94,918755.63
398809,811693,920550,393573.44,809259.56,918810.31
399518,811942,920724,393725.66,809346.25,918871.5
399886,812187,920859,393899.94,809441.75,918938.88
400258,812330,920969,394096.72,809545.88,919012.44
400710,812870,921420,394315.25,809658.13,919091.5
401146,812858,921283,394554.13,809778,919175.88
401451,812829,921338,394812.63,809905.5,919265.31
401620,812869,921076,395089.13,810039.63,919359.19
400719,811964,920748,395379,810176.94,919455.25
399693,811295,920038,395673.75,810311.69,919549
398260,810339,919435,395962.63,810437.25,919635.63
395710,809328,918652,396234.56,810548,919710.25
394605,808629,918237,396477.81,810638.63,919769.06
393434,807984,917907,396680.94,810704.69,919809.94
392520,807665,917468,396836.94,810743.75,919832.31
390444,807163,917361,396940.94,810755.31,919836.13
389659,806992,917186,396987.59,810739.88,919821.75
388975,806824,917051,396975.34,810698.88,919789.81
387946,806925,917211,396904.47,810635.5,919742.13
387489,806827,917156,396775.56,810553.25,919681.06
387520,806786,916976,396593.75,810454.19,919608.44
387433,807274,917361,396366.69,810340.38,919525.75
387205,807079,917220,396100.63,810215.13,919435.25
387286,807176,917171,395801.19,810081.63,919339
387263,807186,917170,395474.44,809942.44,919238.31
387713,807531,917433,395126.09,809799.94,919134.69
388093,807770,917541,394762.94,809657.38,919030.5
388385,808000,917871,394392.72,809517.75,918928.13
388461,808815,918346,394022.19,809383.38,918829.44
389517,808734,918326,393657.38,809256.88,918736.38
390003,808939,918224,393304.66,809140.81,918650.25
390382,808975,918414,392968.94,809036.56,918571.63
390454,808892,918337,392653.06,808943.88,918500.5
390536,808809,918210,392358.19,808861.69,918436.25
390601,808912,918281,392084.5,808789.13,918378.38
390290,808789,918297,391831.75,808725.5,918326.38
390590,808767,918279,391599.28,808669.94,918280.25
390534,808646,918239,391386.44,808621.38,918239.5
390799,808747,918578,391192.94,808579.13,918203.75
390317,808862,918238,391017.88,808543,918172.88
390932,808890,918340,390860.16,808513.31,918146.38
391189,809035,918281,390720.81,808490.06,918124.19
391680,809269,918664,390599.88,808473.81,918106.56
392019,809414,918711,390497.09,808465.25,918094.5
392293,809668,918901,390415.59,808465,918088.63
392648,809988,918984,390357.53,808473.13,918089.25
393472,810175,919298,390323.91,808489.81,918096.88
393623,810173,919234,390316.03,808516,918111.88
394060,810415,919386,390333.75,808551.63,918133.63
394681,810817,919716,390374.72,808597.06,918162.38
395432,811140,919845,390438,808653.25,918198.75
395752,811428,920091,390527.25,808721,918243.13
396418,811917,920477,390644.44,808800.31,918295.5
396937,812066,920334,390788.94,808891.13,918355.63
397373,812168,920490,390960.84,808993.75,918423.06
397753,812224,920733,391159.38,809107.5,918497.75
398611,812476,920953,391383.75,809231.06,918579.56
398977,812594,920951,391633.78,809363.63,918668.63
399069,812725,921030,391907.69,809504.38,918764.13
399519,813032,921495,392201.94,809651.88,918865.63
399911,812954,921279,392513.94,809805.25,918973.31
400081,812932,921253,392842.44,809963.13,919085.56
399968,812709,921070,393184.88,810123.94,919200.25
398588,811669,920305,393534.44,810283.31,919314.13
397237,810739,919628,393880.06,810434.31,919422.06
395960,809975,919156,394209.88,810570.25,919519.19
392985,808737,918305,394513.56,810686.25,919601.63
392434,808093,917867,394780.75,810778,919665.63
391441,807692,917558,395001.53,810841.13,919709.25
390395,807597,917303,395170.28,810874.06,919732
388728,807110,917082,395283.16,810877.88,919734.13
388194,806951,916879,395336.91,810853.94,919716.56
387852,806849,916901,395332.44,810804.38,919680.75
387058,806983,916924,395272.34,810732.13,919628.75
387089,807000,917052,395159.47,810640.63,919563.38
386980,807086,917029,394999.94,810533.38,919486.94
386986,807461,917150,394800.75,810413.63,919401.56
387272,807387,917154,394568.53,810284.38,919309.13
387169,807520,917326,394309.56,810149.06,919211.94
387581,807651,917931,394029.66,810010.38,919112.19
388056,807963,917734,393735.5,809870.94,919012.25
388541,808176,917832,393434.31,809733.75,918914.25
388829,808374,918004,393132.25,809601.25,918820
389598,808903,918641,392834.28,809476.06,918731.63
389829,808944,918363,392545.06,809360.88,918650.94
390274,809080,918510,392269.53,809256.63,918578.38
390284,809042,918817,392010.88,809163,918513.63
390148,808974,918457,391769.69,809079.31,918456.63
390258,808879,918418,391545.38,809004.63,918406.38
390270,808827,918337,391337.75,808937.88,918362.13
389938,808842,918303,391146.06,808878.75,918322.88
390352,808798,918281,390969.5,808827.06,918288.19
390377,808713,918296,390808.41,808781.63,918257.5
390378,809104,918536,390663,808741.19,918230.63
390613,809002,918467,390533.03,808705.75,918207.5
390875,808997,918474,390418.94,808676.13,918188.56
391094,809213,918627,390321.44,808652.75,918174.25
391594,809412,918706,390241.19,808636.13,918164.75
391652,809651,918846,390178.72,808627.25,918160.5
392075,809696,918995,390134.69,808626.5,918161.69
392727,810028,919188,390110.06,808633.75,918168.5
393212,810124,919221,390106.53,808649.25,918180.56
393529,810286,919387,390125.5,808673.44,918198.63
393791,810336,919904,390167,808706.38,918223
394477,810687,919781,390230.94,808748,918254
394690,810905,919868,390317.56,808798.63,918292.13
395070,811071,919861,390426.34,808858.63,918337.13
395321,811287,920353,390554.5,808928.13,918389.06
395762,811216,920233,390699.63,809006.5,918448.25
396113,811298,920103,390863,809092.25,918513.63
395861,811370,920529,391044.5,809184.13,918583.56
396884,811841,920506,391242.31,809281.88,918657.75
397191,811847,920588,391456.88,809386.06,918736.56
397427,811854,920461,391688.13,809496,918819.31
397870,812108,920728,391934.13,809611,918905.06
398027,812102,920602,392193.25,809730.63,918993.38
397740,811605,920301,392463.44,809852.88,919082.81
397149,810337,919670,392739.94,809973.56,919170.38
394636,809567,918977,393012.78,810086.38,919251.69
393546,808951,918491,393268.13,810183.88,919322.13
392286,808184,918153,393495.22,810260.63,919378.5
389971,807348,917519,393687.13,810313,919418.81
388772,806963,917273,393835.75,810338.38,919441.19
387901,806635,917105,393932.66,810336.25,919445.25
386084,806413,916756,393973.5,810307.38,919431
385190,806308,916822,393955.75,810253.5,919399.19
384730,806266,916782,393877.94,810177.13,919351.75
384149,806110,916739,393742.06,810080.94,919291.13
383775,806418,916713,393552.31,809967.75,919218.94
383623,806346,916708,393313.69,809841.25,919136.88
383633,806246,916782,393032.47,809703.94,919046.88
382656,807037,917250,392713.72,809558.44,918951.44
383640,806793,917248,392362.56,809408.38,918853.56
383900,807037,917164,391987.59,809257,918755.13
384119,807103,917627,391597.31,809106.88,918657
384674,807417,917507,391198.75,808960.13,918560.88
385124,807632,917629,390798.94,808819.13,918468.13
385354,807691,917834,390404.13,808685.63,918380.25
385724,807849,917942,390017.13,808560.63,918298.56
385993,807801,917919,389640.38,808444.25,918223.63
386060,807794,917682,389278.97,808336.88,918154.75
385967,807850,918216,388936.09,808238,918091.25
385837,807744,917913,388611.63,808147.19,918033.06
385997,807773,917875,388305.44,808064.13,917980.63
385890,807609,917799,388017.75,807988.38,917933.44
385845,807698,917788,387748.44,807919.19,917890.94
385835,807662,917771,387497.03,807856.25,917852.63
386099,807710,917854,387263.5,807799.38,917818.44
386164,807715,918274,387048.41,807748.38,917788.5
386525,808017,918121,386852.38,807703.63,917763.38
386639,808049,918101,386676.34,807665.94,917743.5
386977,808196,918052,386521.13,807635.69,917728.5
387190,808489,918345,386385.5,807613.38,917718.25
387708,808657,918384,386268.81,807599.75,917713.31
388023,808773,918381,386174.25,807595.5,917713.81
387600,809217,919027,386103.13,807600.63,917719.63
388761,809277,918808,386054.56,807615.75,917731.38
389202,809384,918862,386030.34,807641.13,917749.31
389764,809485,919116,386032.38,807676.25,917773.5
390439,809739,919221,386061.69,807720.75,917804.13
390492,809936,919358,386118.5,807774.63,917841.44
390912,809973,919323,386201.25,807837.75,917885.13
390901,810354,920029,386308.19,807909.63,917935.63
391928,810554,919849,386438.38,807990.38,917993.94
392502,810623,919853,386592.81,808080.13,918059.25
393011,811188,920135,386772.28,808178.19,918130.5
393421,811107,920269,386976.16,808284.25,918207.38
393831,811095,920433,387203.28,808398,918290.19
393751,811049,920231,387451.34,808518,918378.38
393051,810283,919741,387715.88,808641.25,918469.19
392046,809672,919185,387989,808762.25,918558.5
390942,808787,918787,388260.22,808875.25,918642.25
389490,807562,918188,388518.63,808974.63,918716.88
387288,807053,917651,388752.44,809055.13,918778.75
385875,806415,917187,388949.56,809112.13,918825.31
384681,806095,917046,389101.47,809143.31,918855
381802,805458,916412,389201.5,809148,918867.06
381047,805275,916303,389242.25,809125.88,918860.75
380265,805094,916243,389219.59,809078.25,918836.5
378730,805339,916290,389132.56,809007.75,918796
378292,804975,916087,388981.41,808917.13,918741
378160,805049,916102,388770.19,808808.94,918673.19
377744,804889,916260,388505.63,808685.5,918594.25
377183,805013,916205,388193.06,808549.25,918506.13
377164,805100,916210,387837.59,808403,918411
377382,805173,916269,387446.13,808249.75,918311.06
376681,805576,916540,387026.34,808092.25,918208.25
377471,805714,916486,386584.88,807933.63,918104.75
377886,805800,916680,386128.88,807776.88,918002
378250,806238,917076,385665.94,807624.13,917901.25
378787,806396,916979,385203.31,807477.13,917803.88
378982,806380,917037,384747.38,807338.56,917711.5
379074,806453,917146,384302.53,807209.38,917625.13
379147,806233,917140,383871.31,807089.19,917545.13
379303,806117,917075,383455.69,806977.06,917471.5
379228,806033,917147,383057.75,806871.88,917403.88
379212,806486,917294,382678.53,806773,917341.63
379054,806242,917048,382318.19,806680.63,917284.25
379187,806182,917022,381976.75,806595.38,917231.5
379185,806158,916862,381654.63,806517.13,917183.13
379352,806254,916877,381351.94,806445.69,917138.44
379539,806318,917028,381068.81,806381.13,917097.38
379438,806329,917132,380806.56,806323.63,917060.5
379566,806803,917287,380565.44,806273.13,917028.19
380141,806692,917340,380346.06,806230.06,917000.69
380662,806851,917452,380150.81,806195.25,916978.63
380872,806963,917897,379981.63,806169.25,916962.63
381447,807383,917853,379839.44,806152.69,916953.06
381841,807483,917861,379725.34,806146.44,916950.63
382118,807425,917817,379639.88,806150.38,916955.13
382999,808238,918240,379582.81,806164.25,916966.25
383267,808081,918196,379554.5,806188.88,916984.5
383605,808086,918244,379555.88,806224.13,917009.63
384097,808580,918875,379587.03,806269.5,917041.25
384881,808630,918863,379648.06,806324.88,917080
385242,808822,918765,379739.44,806390.63,917126.44
385522,808990,918898,379860.22,806466.38,917179.81
386188,809517,919238,380007.38,806552.31,917239.88
386615,809433,919114,380178.88,806648.75,917306.69
386862,809595,919274,380375.41,806754.75,917379.38
387213,810062,919750,380596.56,806868.94,917457.31
387289,809601,919332,380839.69,806990.06,917539.88
387086,809043,918998,381100.97,807115.25,917625.25
386450,808544,918506,381374.63,807239.94,917710.38
384209,807306,917740,381652.16,807358.13,917790.81
383220,806450,917166,381921.75,807462.88,917861.75
381947,805849,916956,382170.5,807548.25,917920
378737,805104,916234,382388.44,807611.81,917963.88
377849,804630,916080,382565.31,807651.63,917992
376565,804201,915748,382689.75,807665.44,918002.94
375643,804064,915574,382755.44,807652.88,917996.38
373970,803867,915376,382760.03,807615.44,917972.94
373369,803746,915304,382701.75,807555.13,917933.5
372976,803662,915361,382582.38,807474.13,917879.63
371986,803856,915334,382406.31,807375.13,917813.63
372066,803819,915339,382177.94,807261.31,917737.13
371898,803806,915323,381902.56,807135.63,917652.13
371561,803770,915759,381586,807000.25,917560.13
371741,804003,915553,381234.13,806857.63,917463.38
371742,804085,915592,380853.75,806710.5,917363.75
371897,804365,915954,380451.56,806561.88,917263.44
372416,804645,916188,380032.81,806414.56,917165.13
372832,804826,916259,379603.63,806271.44,917070.88
373236,805000,916307,379173.38,806134.5,916981.63
373501,805648,916583,378749.84,806005.38,916897.75
373839,805196,916436,378337.75,805885.13,916819.38
373800,805206,916443,377940.34,805773.88,916747
373848,805130,916311,377559.41,805671.38,916680.63
373795,804966,916348,377194.81,805576.75,916619.69
373903,805086,916194,376846.5,805489.25,916563.5
373848,804998,916199,376516.19,805408.75,916511.56
373148,805080,916412,376205.38,805335.06,916463.38
373924,805111,916360,375914.16,805268.25,916419
374220,805146,916212,375643.06,805208.25,916378.75
374250,805224,916485,375392.91,805154.81,916342.44
374678,805435,916465,375164.44,805108.5,916310
