555704,967955,1102837,553354.75,966245.00,1101493.75
556072,968124,1102997,553420.19,966294.75,1101535.00
555948,968800,1103346,553496.38,966352.13,1101581.62
556087,968562,1103087,553582.13,966417.00,1101633.12
556542,968606,1103046,553676.63,966489.63,1101689.00
556555,968753,1103053,553780.25,966569.38,1101748.25
556571,969083,1103398,553891.25,966656.00,1101810.87
556647,969015,1103416,554007.25,966749.63,1101877.12
556610,969023,1103463,554128.00,966848.88,1101947.00
556529,969641,1103678,554251.19,966953.13,1102019.75
556604,969405,1103695,554374.00,967062.31,1102095.50
556907,969393,1103787,554497.69,967175.88,1102173.87
556972,969533,1103761,554624.06,967292.56,1102254.75
557178,969786,1103901,554753.13,967412.13,1102337.50
557158,969820,1103793,554884.31,967534.69,1102421.50
557346,969936,1103958,555017.13,967659.75,1102506.00
556216,970092,1104518,555150.25,967786.88,1102592.25
557543,970175,1104224,555282.50,967915.88,1102680.75
557845,970290,1104179,555415.13,968046.25,1102770.75
558086,970672,1104431,555549.88,968177.69,1102860.50
558122,970416,1104203,555687.00,968309.50,1102949.75
558251,970033,1103931,555826.00,968440.50,1103037.00
557782,969312,1103410,555965.31,968567.13,1103120.25
556669,967846,1102347,556101.25,968683.00,1103195.00
555825,967213,1101825,556227.50,968780.63,1103255.62
554989,966761,1101671,556336.75,968855.75,1103299.37
553406,966038,1101687,556423.63,968906.75,1103326.00
553203,966007,1101355,556484.06,968933.13,1103335.75
552953,965644,1101166,556514.88,968935.00,1103329.50
552629,965573,1101045,556515.88,968913.06,1103308.50
551979,965576,1101126,556486.75,968869.38,1103273.62
552343,965490,1101043,556427.75,968806.63,1103226.75
552280,965681,1101073,556344.00,968727.38,1103169.62
550715,966148,1101537,556238.75,968635.38,1103104.00
551980,965820,1101305,556113.13,968534.00,1103032.25
551911,965592,1101123,555970.75,968424.50,1102955.75
552036,965791,1101149,555815.75,968307.94,1102875.37
552244,965842,1101213,555651.50,968186.38,1102792.00
552604,965960,1101324,555481.81,968061.94,1102707.25
552715,966100,1101534,555310.56,967936.75,1102622.37
553036,966679,1101859,555138.81,967812.88,1102539.75
553917,966848,1101968,554968.94,967693.00,1102461.25
554348,967154,1102149,554808.50,967580.50,1102388.50
554573,967703,1102512,554663.00,967477.88,1102322.50
554562,967627,1102439,554533.63,967386.81,1102263.75
554900,967726,1102431,554420.13,967307.94,1102212.87
555185,967816,1102583,554323.44,967241.38,1102169.75
554982,967771,1102359,554243.50,967186.56,1102134.00
555277,967767,1102367,554179.50,967142.50,1102104.62
555355,967620,1102371,554130.75,967107.94,1102080.50
555491,967867,1102656,554096.75,967081.88,1102061.75
555389,967880,1102550,554076.63,967064.25,1102048.50
555902,967989,1102501,554069.69,967054.75,1102040.50
555955,967987,1102547,554076.13,967053.06,1102037.00
556023,968010,1102787,554095.56,967058.38,1102038.00
556325,968289,1102735,554127.25,967070.50,1102043.75
556283,968270,1102848,554170.69,967089.63,1102054.12
556139,968918,1103440,554222.75,967116.25,1102069.62
556323,968719,1103063,554280.13,967151.44,1102090.75
556657,968572,1102789,554344.50,967194.00,1102116.25
556176,968644,1103466,554416.81,967242.13,1102144.75
556719,968859,1103249,554495.38,967295.06,1102176.50
556933,969027,1103216,554580.38,967353.13,1102211.75
557080,969106,1103313,554672.50,967416.50,1102250.50
556896,969346,1103372,554770.81,967485.63,1102292.37
557357,969341,1103431,554874.25,967560.75,1102337.25
557434,969352,1103548,554983.06,967640.63,1102385.00
557434,969657,1103693,555096.88,967723.81,1102435.62
557479,969546,1103746,555214.50,967809.75,1102489.00
557846,969557,1103572,555335.50,967898.06,1102544.75
557765,969710,1103658,555459.88,967988.44,1102601.87
558189,970142,1103979,555586.63,968081.31,1102660.50
557746,970133,1104014,555714.25,968177.56,1102721.25
557994,970357,1104034,555842.25,968277.25,1102784.50
558328,970603,1104240,555971.19,968380.25,1102849.37
558337,970592,1104243,556101.81,968486.38,1102915.75
558565,970280,1104052,556234.00,968594.75,1102983.50
558777,970282,1103943,556367.63,968703.19,1103051.37
558119,969150,1103117,556501.63,968808.50,1103116.50
557353,968276,1102632,556631.63,968904.38,1103174.50
556586,967687,1102096,556751.63,968984.88,1103221.50
554634,966842,1101538,556855.94,969047.00,1103255.75
554311,966327,1101226,556938.13,969088.06,1103275.37
553652,966121,1101022,556992.63,969105.63,1103278.75
553253,965906,1101090,557016.75,969099.25,1103265.50
552357,965799,1100929,557009.63,969070.38,1103236.62
552540,965628,1100998,556971.31,969020.94,1103194.37
552394,965626,1100811,556904.38,968952.75,1103140.50
551377,965529,1100849,556811.94,968868.13,1103076.50
551923,965477,1100730,556695.81,968769.38,1103003.25
552014,965492,1100802,556558.75,968658.38,1102922.37
551994,965819,1100895,556404.25,968537.06,1102835.50
552064,965577,1100965,556235.81,968407.81,1102744.75
552181,965643,1100962,556056.69,968272.88,1102651.50
552343,965822,1100816,555870.25,968134.75,1102556.62
552796,966045,1101202,555678.06,967996.00,1102461.00
553364,966233,1101373,555482.75,967859.19,1102367.00
553154,966525,1101381,555290.94,967726.63,1102276.50
553803,967122,1102140,555107.88,967600.75,1102190.62
554467,967197,1101979,554937.44,967483.88,1102111.25
554636,967228,1101889,554782.88,967377.88,1102039.50
554464,967098,1101901,554644.75,967282.88,1101975.00
554827,967338,1101873,554522.50,967198.38,1101917.00
554920,967321,1101899,554416.25,967124.38,1101865.50
554843,967293,1101890,554325.88,967060.44,1101820.00
554936,967646,1102153,554249.94,967006.00,1101781.12
555113,967428,1102130,554187.63,966960.75,1101748.87
555086,967616,1102101,554138.88,966924.50,1101723.25
555394,967676,1102505,554103.31,966897.38,1101703.37
555473,967864,1102331,554080.94,966879.25,1101689.25
555649,967984,1102421,554071.63,966870.44,1101681.25
555811,968031,1102415,554074.81,966870.63,1101679.37
555755,968287,1102610,554087.56,966879.63,1101683.62
556011,968460,1102667,554106.81,966897.88,1101693.75
556204,968437,1102659,554135.19,966925.13,1101709.87
556254,969152,1103166,554175.13,966960.50,1101731.00
556466,968907,1102995,554225.88,967004.00,1101756.75
556554,968834,1103053,554286.75,967055.63,1101788.12
556733,969058,1102896,554357.38,967114.81,1101824.75
556946,969308,1103116,554436.88,967181.31,1101865.62
557127,969280,1103102,554525.00,967255.13,1101910.37
557200,969352,1103411,554621.50,967335.25,1101959.25
556882,969997,1103564,554725.75,967420.63,1102012.50
557423,969867,1103393,554837.00,967511.31,1102069.75
557735,969834,1103570,554954.75,967607.63,1102130.37
557628,970008,1103880,555078.13,967709.25,1102194.25
557672,970129,1103747,555206.06,967815.75,1102261.00
557694,970119,1103792,555337.00,967926.38,1102330.62
557974,970209,1103671,555470.25,968040.31,1102402.50
557955,970639,1104085,555605.63,968156.63,1102476.00
558345,970501,1103996,555742.88,968274.75,1102551.87
558414,970808,1104125,555882.38,968395.50,1102629.75
558700,970682,1104251,556024.50,968519.00,1102709.25
558706,970111,1103694,556169.00,968643.38,1102789.25
558320,969633,1103274,556314.31,968764.38,1102866.25
557420,968851,1102795,556456.38,968876.88,1102937.37
556087,967713,1101950,556588.63,968975.38,1102998.37
555320,967283,1101762,556704.13,969054.38,1103045.75
554703,966819,1101436,556796.75,969111.06,1103078.00
553989,967056,1101921,556863.00,969145.00,1103094.75
553420,966434,1101362,556900.75,969156.69,1103097.50
553347,966459,1101406,556909.50,969147.63,1103087.25
553260,966514,1101337,556891.13,969120.00,1103065.75
553042,966553,1101266,556847.63,969076.56,1103034.25
553194,966454,1101353,556781.38,969019.50,1102993.50
553048,966449,1101323,556695.63,968950.50,1102945.50
552522,966860,1101630,556591.38,968872.00,1102891.37
552756,966571,1101494,556468.63,968786.44,1102833.00
553257,966561,1101477,556332.38,968695.13,1102771.75
553200,966730,1101993,556188.50,968599.25,1102708.00
553457,966974,1101794,556040.25,968501.13,1102643.25
553962,967162,1101965,555891.00,968403.13,1102579.50
554363,967350,1102005,555744.88,968307.63,1102518.50
553595,968191,1102432,555604.50,968216.75,1102461.50
554897,968043,1102391,555471.63,968133.06,1102410.25
555265,968211,1102335,555349.19,968058.38,1102364.75
555442,968450,1102691,555240.19,967993.25,1102325.00
555926,968529,1102916,555146.00,967938.13,1102292.12
555859,968377,1102760,555067.63,967893.00,1102266.75
555967,968394,1102603,555004.50,967857.00,1102248.00
555852,968701,1102949,554954.25,967829.75,1102234.75
556095,968623,1102923,554914.88,967811.25,1102227.75
556215,968781,1102975,554887.50,967801.38,1102226.87
556655,969060,1103267,554873.56,967799.63,1102231.37
556736,969050,1103101,554873.63,967806.00,1102241.00
556773,969030,1103113,554887.31,967820.25,1102255.37
556926,969117,1103201,554913.38,967841.94,1102274.62
556847,969480,1103303,554948.75,967870.88,1102298.37
557216,969451,1103297,554990.81,967907.50,1102326.50
557540,969812,1103598,555042.19,967951.88,1102359.00
555771,970519,1104065,555103.38,968004.38,1102396.75
557231,970248,1103998,555170.75,968065.69,1102440.50
557641,970288,1103939,555244.75,968135.50,1102490.00
557606,970314,1104197,555326.75,968212.88,1102544.75
558107,970559,1104090,555416.81,968296.94,1102603.75
558052,970542,1104067,555514.94,968387.25,1102666.50
557973,970742,1104058,555620.06,968483.06,1102732.37
558017,970985,1104495,555729.19,968584.25,1102801.00
558314,970971,1104424,555840.38,968690.69,1102873.00
558632,971163,1104585,555955.50,968801.63,1102948.25
558546,971396,1104945,556076.00,968916.50,1103026.25
558550,971480,1104725,556200.63,969035.00,1103106.62
558825,971513,1104677,556328.31,969157.00,1103189.00
559088,971516,1104798,556459.25,969281.88,1103272.87
559245,971782,1104910,556593.19,969408.94,1103358.12
558890,971881,1104785,556728.50,969538.19,1103444.25
559264,971931,1104869,556864.38,969669.38,1103530.50
559508,971994,1105003,557001.50,969801.50,1103616.37
559458,971609,1104610,557140.00,969932.88,1103700.87
559225,970997,1104060,557278.75,970060.50,1103781.75
558822,970154,1103624,557415.13,970179.63,1103855.25
557344,968825,1102817,557543.88,970283.63,1103918.00
556268,968204,1102288,557656.75,970366.13,1103965.75
555582,967807,1102221,557746.88,970423.50,1103996.50
554261,967566,1102326,557809.63,970456.00,1104010.75
554124,967170,1101817,557841.50,970465.06,1104009.75
553996,966878,1101579,557842.56,970449.88,1103993.25
553739,967003,1102012,557815.13,970411.19,1103961.37
553310,967154,1101889,557760.69,970352.13,1103916.50
553377,966952,1101681,557681.00,970275.88,1103861.12
553321,966800,1101669,557578.88,970184.44,1103796.62
552498,966961,1101813,557457.38,970080.13,1103724.37
553229,967069,1101732,557319.00,969966.50,1103646.25
553326,967025,1101839,557166.81,969845.25,1103563.50
553351,967353,1101880,557004.25,969717.63,1103477.37
553562,967277,1101941,556834.38,969585.56,1103389.50
553959,967248,1101983,556660.81,969451.38,1103301.00
554344,967611,1102152,556487.81,969317.56,1103213.37
554509,967866,1102528,556316.81,969186.75,1103128.62
555114,968168,1102584,556149.13,969061.69,1103048.87
554855,968371,1102802,555989.63,968944.50,1102975.37
555222,968829,1103090,555842.00,968836.63,1102909.00
556089,968863,1102993,555708.38,968739.13,1102850.25
556160,968926,1103006,555592.00,968653.25,1102799.37
556221,968897,1103023,555493.38,968579.19,1102756.00
556339,968834,1102949,555411.75,968516.13,1102719.50
556435,968780,1103189,555346.50,968462.75,1102689.50
556450,968924,1103198,555296.63,968418.38,1102666.37
556540,969460,1103640,555261.00,968383.00,1102650.75
556623,969402,1103407,555238.31,968357.25,1102642.75
556835,969386,1103373,555228.50,968341.63,1102641.75
556957,969633,1103963,555231.38,968335.94,1102646.50
557118,969762,1103667,555246.63,968340.13,1102656.75
557302,969766,1103518,555273.94,968354.13,1102672.75
557391,969925,1103804,555312.63,968377.00,1102693.75
557381,970397,1103985,555359.88,968409.25,1102720.25
557077,970280,1103981,555411.94,968451.50,1102752.50
557921,970408,1104018,555470.19,968502.75,1102789.87
557831,970989,1104582,555537.81,968562.19,1102832.25
558133,971010,1104445,555615.00,968630.13,1102880.00
558494,971015,1104480,555701.69,968706.88,1102933.25
558575,971211,1104526,555798.13,968791.81,1102991.50
558700,971577,1104813,555903.38,968884.81,1103054.62
558900,971573,1104748,556016.25,968986.00,1103122.50
558814,971608,1104860,556136.13,969094.25,1103194.75
558704,971954,1105058,556261.88,969208.56,1103270.75
559036,972051,1104870,556392.13,969328.63,1103349.50
559265,971939,1104948,556526.56,969454.00,1103430.37
559511,971988,1105234,556665.38,969583.13,1103513.00
559405,972283,1105132,556808.00,969715.13,1103597.37
559772,972342,1105320,556953.75,969850.00,1103683.25
559753,972589,1105392,557102.38,969987.63,1103770.75
559452,973013,1105553,557252.88,970128.06,1103860.00
559893,972705,1105510,557404.25,970270.81,1103951.00
559909,972541,1105426,557555.88,970414.38,1104042.50
559952,971468,1104715,557706.94,970556.00,1104132.75
558996,970551,1103871,557854.88,970689.63,1104217.25
558271,969911,1103435,557994.25,970808.13,1104290.62
557178,969157,1103041,558118.63,970905.88,1104349.12
556129,968467,1102561,558222.56,970979.50,1104391.00
555744,968080,1102242,558302.00,971026.75,1104415.00
555450,968065,1102158,558354.50,971047.50,1104420.50
554799,968130,1102474,558378.94,971044.00,1104409.12
554454,967829,1102155,558374.88,971018.38,1104382.50
554404,967627,1102081,558343.13,970972.38,1104342.75
554214,967677,1102087,558286.00,970907.75,1104291.25
554090,967754,1102033,558205.00,970827.13,1104229.50
554131,967713,1102212,558101.94,970733.25,1104159.37
554147,967635,1102169,557981.00,970628.25,1104082.75
553751,968146,1102274,557844.13,970514.50,1104001.25
553764,967807,1102265,557691.38,970394.50,1103916.12
554008,967907,1102411,557526.88,970270.13,1103829.00
554584,967973,1102703,557356.63,970143.00,1103741.75
555072,968410,1102600,557185.81,970015.50,1103655.62
555313,968662,1102908,557019.13,969890.94,1103572.12
555810,968998,1103019,556859.88,969772.13,1103493.25
555004,969312,1103398,556710.25,969661.38,1103420.62
556139,969401,1103411,556570.94,969560.50,1103355.75
556548,969618,1103402,556444.44,969470.38,1103298.87
556784,969714,1103559,556333.13,969391.13,1103249.25
557081,969703,1103582,556238.31,969322.13,1103206.50
557011,969551,1103587,556160.13,969263.25,1103171.25
557035,969510,1103347,556097.44,969213.63,1103142.50
557126,969735,1103385,556048.00,969172.44,1103119.25
557307,969724,1103538,556010.25,969139.75,1103100.87
557518,969939,1103640,555985.31,969115.63,1103087.62
557484,970164,1104189,555974.06,969100.00,1103080.00
557646,970303,1103867,555975.63,969093.44,1103078.37
557798,970234,1103869,555989.13,969095.81,1103082.50
558032,970350,1103890,556014.44,969106.56,1103091.75
558123,970617,1104089,556049.38,969125.44,1103106.25
558245,970715,1104129,556091.63,969152.69,1103125.87
558417,970810,1104127,556142.75,969188.19,1103150.50
557251,971664,1104832,556202.63,969231.88,1103179.50
558581,971137,1104576,556269.00,969284.00,1103213.00
558805,971192,1104376,556343.13,969343.75,1103251.62
558766,971432,1104688,556426.00,969410.38,1103294.75
559117,971612,1104751,556517.13,969483.88,1103342.00
559167,971465,1104740,556616.00,969563.69,1103393.75
559028,971705,1104805,556721.50,969648.75,1103449.50
559220,971816,1104920,556830.38,969738.50,1103508.62
559475,971845,1105002,556940.38,969832.56,1103571.00
559499,971875,1105131,557053.75,969930.13,1103636.75
559780,972207,1105260,557172.13,970030.69,1103705.00
559549,972141,1105064,557294.81,970134.00,1103774.75
559865,972167,1105080,557420.63,970239.63,1103845.75
559913,972272,1105197,557549.06,970347.13,1103917.50
559760,972664,1105316,557679.31,970456.63,1103990.25
560176,972564,1105360,557810.56,970568.63,1104064.00
560388,972684,1105409,557943.31,970682.44,1104138.75
560011,972267,1104868,558077.75,970796.88,1104213.50
559322,971297,1104433,558210.88,970908.19,1104285.87
559318,970535,1103804,558338.19,971009.88,1104351.00
558217,969768,1103186,558455.75,971096.25,1104404.62
556832,968583,1102671,558557.25,971162.00,1104443.25
556455,968363,1102510,558636.06,971202.88,1104465.00
555768,968105,1102358,558689.13,971218.25,1104469.75
554688,968175,1102647,558712.88,971209.81,1104459.50
555041,967929,1102193,558704.88,971180.13,1104435.75
554740,967901,1102152,558668.88,971130.75,1104399.00
554760,967905,1102607,558608.88,971063.56,1104350.25
554219,968014,1102104,558526.88,970981.38,1104290.87
554446,967889,1102057,558424.25,970886.69,1104222.25
554421,967870,1102067,558304.19,970781.38,1104146.00
554054,967946,1102224,558169.88,970667.75,1104063.75
554354,967921,1102159,558023.75,970548.38,1103977.25
554548,967986,1102393,557868.44,970424.50,1103888.25
554794,968590,1102678,557707.13,970297.50,1103798.25
555339,968659,1102562,557543.94,970170.19,1103708.50
555644,968796,1102800,557383.31,970046.00,1103620.87
555996,969022,1102891,557228.88,969927.50,1103537.25
556045,969378,1103104,557082.00,969816.38,1103459.00
556436,969430,1103205,556943.69,969714.63,1103387.25
556480,969427,1103227,556816.31,969622.50,1103322.25
556812,969727,1103529,556701.94,969540.19,1103264.12
556908,969714,1103326,556601.38,969467.81,1103212.75
557170,969696,1103335,556515.00,969405.50,1103168.25
556915,969696,1103680,556442.75,969352.75,1103130.25
557210,969748,1103436,556383.38,969308.75,1103098.75
557258,969970,1103432,556336.50,969273.38,1103073.37
557195,969902,1103507,556301.75,969246.75,1103053.75
557336,970113,1103895,556278.13,969228.75,1103040.25
557433,970120,1103752,556265.56,969219.38,1103033.75
557846,970303,1103532,556263.88,969218.13,1103033.00
558162,970532,1104336,556273.75,969225.13,1103037.00
558038,970877,1104095,556295.50,969241.06,1103046.00
558364,971003,1104247,556328.25,969266.69,1103061.50
558550,971105,1104197,556371.75,969302.00,1103083.37
558540,971420,1104460,556424.00,969346.88,1103111.37
558934,971455,1104653,556482.75,969401.75,1103145.87
559134,971570,1104466,556550.38,969465.50,1103186.62
559371,972255,1104750,556629.13,969537.38,1103232.50
559253,971995,1104691,556718.00,969617.25,1103283.25
559674,972193,1104799,556816.06,969705.13,1103338.25
559532,972212,1104970,556922.50,969800.63,1103397.75
559544,972449,1105286,557035.19,969902.88,1103462.00
559682,972532,1105348,557151.88,970011.56,1103531.50
559812,972688,1105332,557272.75,970126.00,1103606.00
558553,972791,1105387,557398.13,970245.75,1103684.50
560040,972686,1105313,557527.69,970369.63,1103765.75
560336,972943,1105526,557660.88,970496.63,1103849.00
560548,973172,1105855,557797.88,970626.50,1103934.37
560432,973286,1105559,557938.38,970759.63,1104021.37
560643,973235,1105623,558081.19,970895.38,1104109.50
560516,973004,1105394,558225.38,971031.94,1104197.75
560017,972115,1104617,558369.50,971166.88,1104283.50
559498,971095,1104003,558510.06,971295.00,1104361.87
558563,970295,1103580,558641.31,971408.13,1104428.75
557803,969126,1103082,558756.94,971500.06,1104481.50
556436,968746,1102568,558850.94,971567.06,1104517.50
555830,968555,1102384,558917.63,971606.81,1104535.50
555385,968348,1102243,558954.25,971619.50,1104535.75
554918,968328,1102281,558959.75,971608.00,1104519.62
554814,968148,1102186,558934.50,971575.19,1104488.75
554755,968292,1102163,558881.50,971522.63,1104444.62
554685,968594,1102477,558804.50,971452.31,1104388.75
554293,968294,1102189,558705.88,971367.13,1104322.50
554544,968303,1102131,558587.63,971269.50,1104248.00
554522,968223,1102111,558453.25,971161.50,1104166.87
554478,968394,1102178,558305.63,971045.06,1104080.25
554713,968431,1102479,558147.81,970922.69,1103990.37
555072,968533,1102354,557983.50,970796.50,1103899.25
554751,969284,1102687,557816.50,970668.63,1103808.00
555369,969133,1102754,557649.56,970541.75,1103718.00
555818,969174,1102904,557485.75,970418.63,1103631.50
556260,969469,1103462,557329.00,970301.25,1103549.50
556443,969846,1103424,557182.25,970191.75,1103473.50
556900,970021,1103508,557047.88,970092.19,1103405.25
557144,970076,1103433,556927.81,970003.50,1103345.50
556805,970494,1103844,556823.00,969926.38,1103294.25
557313,970239,1103559,556733.44,969860.75,1103251.75
557407,970419,1103756,556658.56,969806.25,1103217.37
557606,970620,1103733,556598.13,969762.00,1103190.25
557663,970550,1103689,556551.88,969727.50,1103169.50
557657,970519,1103699,556519.13,969702.38,1103155.00
557412,970628,1103777,556498.00,969686.50,1103146.12
557963,970840,1103863,556487.25,969679.50,1103143.00
558424,971085,1104048,556487.88,969681.88,1103145.75
558400,970986,1104049,556501.38,969693.63,1103154.37
558544,971402,1104465,556527.50,969714.00,1103168.62
558691,971521,1104516,556565.25,969743.25,1103188.62
558718,971438,1104315,556614.00,969781.50,1103214.75
558843,971671,1104444,556672.56,969827.88,1103246.62
558831,971821,1104524,556738.38,969882.19,1103283.25
559241,971864,1104851,556809.31,969944.13,1103325.25
559347,972038,1104797,556887.63,970013.06,1103372.50
559019,972794,1105164,556973.00,970089.25,1103424.75
559500,972500,1105057,557062.88,970173.50,1103481.00
559669,972514,1105164,557158.50,970264.88,1103541.75
559970,972686,1105134,557261.50,970362.25,1103606.62
559757,972853,1105241,557371.31,970465.25,1103674.87
559804,972803,1105174,557486.13,970573.13,1103746.00
559837,972805,1105192,557604.50,970684.88,1103819.50
559231,972998,1105874,557724.19,970799.50,1103895.50
560353,973219,1105682,557844.31,970917.13,1103975.62
560374,973256,1105440,557966.81,971037.75,1104058.75
560599,973696,1105824,558092.88,971160.56,1104143.00
560562,973505,1105636,558222.00,971285.38,1104228.25
561006,973461,1105748,558354.06,971411.50,1104314.25
560995,973378,1105493,558489.13,971537.75,1104399.75
560116,972219,1104581,558625.88,971660.75,1104482.25
559832,971291,1104121,558759.75,971773.88,1104556.50
558855,970490,1103518,558885.25,971870.38,1104618.62
556851,969647,1103163,558996.06,971946.00,1104665.75
556521,969092,1102718,559085.50,971997.63,1104695.75
556059,968906,1102451,559147.75,972023.06,1104708.00
555984,968812,1102473,559180.69,972022.88,1104702.87
555123,968797,1102472,559185.00,971999.38,1104682.00
555184,968644,1102377,559160.94,971955.00,1104647.25
554916,968601,1102285,559110.06,971891.75,1104600.00
553547,968984,1102639,559032.81,971812.50,1104542.25
554624,968636,1102314,558929.63,971720.06,1104476.25
554781,968505,1102266,558805.81,971616.13,1104402.62
554555,968576,1102366,558666.31,971502.00,1104322.25
554910,968830,1102412,558514.25,971380.13,1104237.00
555041,968842,1102393,558353.19,971253.50,1104148.12
555097,968913,1102433,558186.69,971124.25,1104057.00
555106,969022,1102667,558016.38,970994.00,1103965.25
555832,969297,1102856,557844.75,970864.88,1103874.50
556093,969665,1103176,557677.00,970739.63,1103787.25
556314,970102,1103423,557517.25,970620.50,1103705.25
556781,970351,1103484,557367.88,970509.56,1103629.75
557378,970494,1103742,557232.00,970409.50,1103561.87
557427,970551,1103788,557112.00,970321.56,1103502.87
557569,970817,1103855,557008.31,970246.00,1103453.00
557655,970880,1103926,556920.13,970183.13,1103411.75
557949,970921,1103884,556847.75,970132.69,1103379.00
557792,971183,1104009,556791.50,970093.88,1103353.50
557941,970965,1103927,556750.75,970065.63,1103334.62
557998,970995,1104110,556723.75,970047.38,1103322.25
558129,971082,1104558,556709.38,970038.19,1103317.00
558415,971280,1104272,556707.38,970037.88,1103318.50
558523,971421,1104094,556717.75,970046.63,1103326.25
558605,971526,1104224,556740.06,970064.38,1103339.37
558441,972082,1104975,556772.13,970091.50,1103358.00
559042,972086,1104717,556812.25,970129.00,1103383.50
559107,972199,1104771,556862.25,970176.69,1103415.75
559168,972200,1105032,556922.69,970233.31,1103453.87
559203,972524,1104991,556992.50,970298.31,1103497.50
559542,972670,1104895,557070.75,970371.63,1103546.50
559585,972705,1105018,557157.50,970453.00,1103600.00
558984,972957,1104948,557251.63,970541.88,1103657.25
559767,973053,1105064,557352.13,970638.13,1103717.75
559984,973151,1105219,557458.50,970740.88,1103781.00
560026,973862,1105646,557570.56,970849.38,1103847.00
560345,973627,1105477,557688.00,970963.50,1103915.62
560394,973609,1105405,557810.56,971083.00,1103987.00
560620,973650,1105601,557938.00,971207.19,1104060.87
560243,973715,1105647,558067.25,971334.75,1104137.25
560426,973630,1105671,558195.00,971464.50,1104215.50
560389,973785,1105525,558321.88,971595.25,1104295.00
560372,974299,1106068,558449.63,971726.88,1104375.00
560890,974213,1105837,558578.63,971859.75,1104455.62
560998,974001,1105796,558709.25,971993.63,1104536.75
560858,973992,1105598,558840.94,972126.81,1104617.50
560875,973116,1104982,558972.19,972256.50,1104695.50
560501,972344,1104297,559101.25,972377.38,1104766.75
559667,971459,1103794,559224.63,972483.69,1104826.37
557828,970382,1103223,559336.13,972570.50,1104871.37
557053,969853,1102827,559428.00,972633.75,1104899.37
556532,969654,1102629,559493.38,972670.75,1104909.25
556436,969542,1102686,559530.25,972681.44,1104901.50
555257,969176,1102415,559538.19,972667.50,1104877.00
555359,969190,1102343,559516.19,972630.38,1104837.37
555487,969152,1102342,559466.38,972572.31,1104784.25
555040,969085,1102314,559390.38,972496.56,1104719.37
555022,968839,1102238,559288.63,972405.44,1104644.50
555105,968864,1102323,559165.88,972299.94,1104561.00
555081,969287,1102522,559027.63,972181.75,1104470.75
555035,969137,1102305,558876.63,972053.94,1104375.50
555182,969067,1102319,558715.50,971919.25,1104276.25
555389,969229,1102447,558547.63,971779.88,1104174.50
556018,969474,1102639,558376.25,971638.38,1104072.12
556397,969687,1102636,558205.88,971497.50,1103971.00
556495,969977,1102840,558040.88,971360.13,1103872.50
556108,970604,1103330,557884.25,971228.69,1103778.00
557137,970615,1103402,557737.88,971105.63,1103690.00
557350,970677,1103446,557604.00,970992.75,1103609.75
557825,970790,1103517,557484.50,970891.00,1103537.50
557570,970768,1103298,557380.13,970800.13,1103472.50
557543,970892,1103336,557289.75,970720.06,1103414.00
557677,970812,1103390,557212.13,970650.25,1103362.00
557692,971201,1103441,557146.44,970590.25,1103316.25
557769,970977,1103329,557091.75,970540.00,1103276.37
557930,971125,1103425,557048.38,970499.00,1103242.00
558042,971373,1103826,557016.31,970467.13,1103213.00
558521,971311,1103637,556996.25,970444.13,1103189.75
558494,971478,1103724,556988.75,970430.00,1103172.50
558448,971567,1103740,556993.13,970425.00,1103161.25
558755,971923,1103916,557007.56,970429.50,1103155.75
558810,971892,1104064,557031.25,970443.75,1103156.50
558823,972021,1104059,557064.38,970467.13,1103163.50
558842,972563,1104492,557106.56,970499.00,1103176.50
559101,972447,1104119,557156.88,970539.38,1103194.62
559114,972573,1104133,557215.13,970588.56,1103217.50
559396,972585,1104087,557280.94,970646.25,1103244.25
559593,972719,1104368,557353.63,970711.63,1103274.62
559560,972752,1104291,557432.25,970783.75,1103308.75
559630,972940,1104442,557516.75,970862.19,1103346.50
559613,973391,1104679,557605.81,970946.63,1103387.50
559635,973269,1104533,557697.75,971037.31,1103431.25
560063,973411,1104699,557793.06,971133.75,1103478.12
560042,973429,1104957,557893.00,971235.25,1103528.00
559803,973556,1104827,557996.50,971341.19,1103580.37
560153,973637,1104901,558102.19,971450.88,1103635.50
560264,973825,1104912,558210.00,971563.81,1103693.50
559263,974061,1105184,558320.13,971680.25,1103753.87
560288,974030,1105030,558431.63,971800.00,1103816.87
560490,973878,1104871,558544.00,971921.88,1103881.25
560542,973070,1104341,558657.19,972043.44,1103945.50
559812,972467,1103866,558769.44,972160.50,1104006.37
558773,971694,1103282,558875.63,972266.69,1104059.75
558169,971209,1102996,558969.31,972356.75,1104101.62
556701,970465,1102581,559045.25,972427.38,1104130.25
556058,970000,1102329,559097.88,972475.88,1104144.62
555547,969996,1102194,559123.00,972501.38,1104144.25
555461,969940,1102423,559119.75,972505.50,1104129.62
555074,969741,1102241,559089.63,972490.13,1104102.37
555368,969715,1102157,559034.81,972456.75,1104064.37
555056,969684,1102174,558958.50,972407.25,1104017.00
554644,969701,1102155,558860.63,972343.75,1103961.75
554813,969731,1102032,558740.75,972268.38,1103899.37
554993,969759,1102108,558604.38,972183.25,1103831.12
553582,970271,1102447,558455.69,972090.94,1103758.75
554841,969998,1102218,558295.75,971994.06,1103684.12
555283,970007,1102398,558128.75,971894.13,1103608.25
555573,970092,1102555,557960.25,971792.25,1103532.25
556231,970700,1102729,557794.75,971690.75,1103457.87
556358,970726,1102666,557636.13,971592.88,1103386.25
556570,970877,1102913,557487.00,971500.38,1103318.37
556715,971415,1103218,557346.25,971414.38,1103255.50
557353,971619,1103431,557213.94,971337.00,1103199.50
557731,971750,1103394,557095.50,971270.13,1103151.37
557678,971688,1103569,556994.75,971214.13,1103110.50
557519,971664,1103307,556910.69,971167.75,1103075.75
557733,971802,1103426,556841.63,971130.56,1103047.25
557869,971960,1103334,556787.00,971102.75,1103024.25
557480,972027,1103571,556746.25,971084.25,1103006.75
558180,972175,1103593,556718.63,971074.94,1102995.25
558379,972181,1103597,556704.50,971074.50,1102989.25
558759,972675,1103967,556704.13,971082.69,1102988.75
558441,972475,1103871,556716.88,971099.25,1102994.00
558707,972608,1103858,556741.25,971124.00,1103004.75
558811,972625,1103818,556776.94,971156.50,1103020.50
559024,972796,1104110,556823.50,971196.25,1103040.87
558960,972928,1104065,556880.19,971242.88,1103066.12
559267,973128,1104208,556946.13,971296.63,1103096.00
559060,973751,1104892,557018.63,971358.00,1103131.25
559369,973352,1104504,557094.88,971427.44,1103172.50
559513,973469,1104436,557176.81,971503.63,1103218.87
559611,973473,1104862,557266.13,971585.00,1103269.00
559602,973751,1104644,557361.88,971671.13,1103323.00
559820,973667,1104718,557463.25,971761.75,1103380.25
559915,973782,1104721,557569.81,971856.00,1103440.50
559482,974025,1104817,557680.56,971953.88,1103503.25
559991,974264,1104883,557794.25,972056.13,1103568.25
559994,974310,1105052,557910.25,972162.44,1103635.37
560182,974805,1105262,558028.25,972272.13,1103704.75
560325,974663,1105242,558148.13,972385.00,1103776.50
560384,974798,1105231,558269.75,972501.19,1103850.25
560309,974804,1105214,558392.25,972620.25,1103925.37
560268,974942,1105493,558513.69,972741.63,1104001.75
560693,974885,1105475,558632.81,972864.44,1104079.50
560653,974681,1105065,558751.38,972987.38,1104157.75
560451,974176,1104728,558869.94,973108.56,1104234.00
560035,973054,1103921,558986.38,973223.75,1104305.25
558850,972396,1103560,559095.63,973325.88,1104366.75
558160,971697,1103016,559191.25,973409.13,1104414.75
556639,971003,1102591,559266.63,973470.13,1104447.12
556274,970689,1102358,559316.00,973506.63,1104462.50
555916,970422,1102383,559337.38,973518.25,1104461.00
555234,970644,1102569,559330.50,973506.44,1104444.75
555193,970093,1102208,559295.31,973473.00,1104415.75
555005,969995,1102062,559233.81,973419.31,1104374.50
554843,969975,1102481,559148.69,973347.00,1104321.25
554360,970284,1102110,559041.44,973259.06,1104257.75
554418,970050,1101998,558913.50,973158.69,1104185.50
554645,969925,1102150,558767.94,973047.56,1104106.25
554382,970097,1102263,558608.00,972927.50,1104022.00
554621,970109,1102258,558436.00,972801.25,1103934.37
555174,970151,1102260,558256.56,972670.50,1103844.75
555286,970877,1101869,558074.75,972536.94,1103754.25
555676,970724,1102476,557894.38,972403.44,1103663.62
555956,970943,1102635,557718.75,972273.00,1103574.87
556374,971254,1102725,557551.13,972148.38,1103489.62
556739,971569,1103175,557393.00,972031.75,1103409.50
557111,971671,1103180,557245.75,971925.13,1103336.12
557395,971828,1103213,557113.25,971829.19,1103270.25
556303,971984,1103403,556998.00,971744.25,1103211.87
557344,971997,1103324,556899.44,971670.50,1103161.00
557938,972031,1103361,556817.06,971607.50,1103117.00
558189,972167,1103524,556751.94,971555.25,1103080.25
558257,972344,1103585,556704.63,971513.63,1103050.75
558195,972155,1103528,556673.94,971482.38,1103028.25
558293,972287,1103515,556658.25,971460.25,1103012.00
558452,972636,1103787,556656.13,971446.75,1103002.00
558531,972723,1103747,556666.44,971442.25,1102998.25
558407,972782,1103760,556688.38,971447.25,1103000.75
558719,972792,1104320,556721.19,971461.25,1103008.25
559027,972853,1104151,556764.75,971483.50,1103021.50
558793,972973,1103956,556818.75,971513.25,1103040.25
559077,973126,1104037,556881.81,971550.25,1103064.00
559191,973473,1104389,556951.50,971595.13,1103092.50
559294,973562,1104497,557025.88,971648.75,1103126.87
559528,973727,1104367,557106.56,971710.63,1103166.75
559691,974260,1104840,557195.38,971779.63,1103211.00
559424,973836,1104689,557291.31,971855.00,1103259.25
559915,973852,1104614,557393.00,971935.88,1103311.87
559735,974010,1104616,557499.94,972021.50,1103367.87
560038,974298,1104721,557611.50,972111.88,1103426.62
559994,974349,1104781,557726.88,972207.19,1103488.00
559895,974377,1104658,557845.13,972307.00,1103551.12
559557,974914,1104999,557964.50,972410.25,1103615.50
560028,974693,1105036,558083.94,972516.38,1103681.25
560231,974815,1105283,558203.63,972625.69,1103749.25
560368,974755,1105305,558324.00,972737.88,1103819.75
560144,974707,1105123,558444.56,972851.63,1103891.50
560650,974932,1105201,558564.75,972966.13,1103964.00
560711,974960,1105401,558685.31,973081.25,1104037.25
560129,974844,1105319,558806.75,973196.75,1104111.25
560515,974548,1104708,558928.13,973311.31,1104184.50
560199,973821,1104412,559047.00,973421.13,1104253.62
559605,972548,1103579,559159.75,973520.63,1104315.25
557763,971918,1103119,559260.31,973603.75,1104366.00
556959,971289,1102603,559340.00,973665.44,1104402.12
556363,971150,1102489,559393.31,973703.38,1104421.50
555467,970664,1102464,559418.13,973717.63,1104424.75
555271,970553,1102491,559413.44,973708.50,1104413.25
555024,970658,1102447,559379.38,973677.75,1104388.87
554812,970622,1102474,559317.44,973628.13,1104352.87
554433,970551,1102245,559229.56,973561.94,1104305.75
554484,970509,1102340,559117.63,973481.38,1104249.25
554537,970590,1102359,558985.00,973388.75,1104185.25
554286,970623,1102261,558833.25,973286.38,1104115.00
554637,970659,1102405,558663.94,973176.56,1104040.00
554741,970662,1102447,558483.00,973061.13,1103961.50
554136,971187,1102810,558294.25,972942.25,1103881.00
555048,971033,1102739,558099.00,972822.63,1103800.00
555615,971135,1102788,557903.25,972704.13,1103720.12
556006,971487,1103284,557713.38,972588.50,1103643.25
556842,972026,1103173,557534.13,972478.69,1103570.50
556780,972164,1103388,557369.13,972377.69,1103503.50
557063,972369,1103549,557219.75,972287.13,1103443.50
556579,972792,1103708,557085.13,972207.94,1103391.25
557612,972756,1103768,556964.56,972141.13,1103347.25
557938,972549,1103687,556861.25,972086.06,1103311.37
557928,972897,1103636,556777.38,972041.25,1103282.50
557995,972824,1103793,556711.88,972005.94,1103259.75
558137,972731,1103691,556663.63,971980.06,1103243.25
558219,972705,1103665,556631.63,971962.88,1103232.00
558253,972928,1103758,556614.75,971953.56,1103225.50
558482,973191,1103851,556611.63,971952.56,1103223.75
558689,973260,1103917,556622.38,971960.38,1103226.75
558473,973351,1104402,556646.50,971976.63,1103234.25
558604,973260,1104065,556682.44,972000.38,1103246.25
558868,973444,1104072,556728.88,972030.81,1103262.62
558941,973695,1104170,556785.19,972068.25,1103283.25
559306,973802,1104425,556851.19,972112.88,1103308.00
559348,973933,1104353,556926.81,972164.63,1103337.50
559527,973762,1104259,557011.56,972222.75,1103371.00
558337,974788,1105343,557102.13,972286.50,1103408.12
559456,974541,1104806,557195.13,972356.50,1103450.12
559852,974369,1104735,557292.25,972433.38,1103497.00
559570,974436,1104909,557395.44,972515.88,1103547.75
559824,974524,1104782,557503.38,972602.75,1103601.50
559996,974736,1104872,557615.56,972693.69,1103657.75
559926,974782,1104970,557731.50,972788.63,1103716.25
560113,974966,1105001,557849.63,972887.38,1103777.00
560345,974948,1104925,557969.00,972989.50,1103839.37
560376,975144,1105041,558090.50,973094.44,1103902.75
560332,975191,1105429,558214.38,973201.88,1103967.00
560254,975145,1105220,558339.19,973311.50,1104032.00
560488,975380,1105292,558463.94,973422.38,1104098.00
560555,975314,1105396,558588.50,973534.00,1104165.00
560646,975608,1105288,558712.75,973646.19,1104232.75
560522,975440,1105340,558835.88,973758.75,1104300.62
560557,975573,1105249,558957.00,973871.00,1104367.87
560793,975502,1105069,559075.94,973982.13,1104434.00
560632,974706,1104638,559192.63,974089.69,1104497.37
560040,974034,1104363,559305.31,974189.25,1104555.00
559428,973259,1103753,559410.13,974275.81,1104604.00
557558,972058,1103092,559500.44,974344.00,1104640.75
556637,971721,1102768,559567.69,974389.06,1104662.37
556081,971496,1102544,559606.25,974409.50,1104667.75
555230,971212,1103125,559614.00,974407.00,1104658.00
555166,970975,1102513,559590.06,974383.19,1104635.25
554913,970832,1102240,559536.19,974338.25,1104599.50
554776,970853,1102820,559455.00,974273.25,1104551.75
554470,970987,1102426,559348.81,974191.06,1104493.50
554739,970863,1102376,559220.38,974094.56,1104426.75
554730,970860,1102416,559073.75,973985.88,1104353.00
553857,971081,1102433,558912.13,973868.13,1104273.75
554595,970924,1102288,558737.69,973744.13,1104190.00
554689,971132,1102519,558553.38,973615.25,1104102.75
554955,971575,1102590,558362.88,973482.88,1104013.75
555659,971432,1102542,558170.50,973349.56,1103924.12
556012,971438,1102687,557981.63,973217.25,1103835.00
556502,971889,1102950,557800.81,973088.25,1103748.25
556614,972144,1103269,557628.88,972965.25,1103665.75
557169,972386,1103403,557466.31,972850.63,1103589.87
557035,972514,1103455,557317.25,972745.88,1103521.37
556996,972660,1103707,557184.63,972651.56,1103460.25
557252,972633,1103372,557068.38,972567.50,1103406.00
557546,972505,1103375,556968.13,972493.44,1103357.75
557571,972536,1103559,556883.25,972428.38,1103315.75
557593,972482,1103314,556813.38,972371.63,1103279.25
557767,972569,1103300,556757.75,972322.63,1103247.75
557786,972742,1103351,556715.69,972281.31,1103220.25
557627,973017,1103780,556686.38,972248.31,1103197.75
558006,972965,1103475,556669.06,972224.13,1103180.75
558208,973055,1103782,556663.56,972208.38,1103169.00
558341,972999,1104133,556669.88,972200.44,1103162.50
558157,973246,1103882,556687.13,972199.81,1103161.12
558603,973359,1104003,556714.25,972206.63,1103165.00
558649,973362,1103863,556751.25,972220.94,1103174.00
558595,973642,1104226,556795.75,972243.00,1103188.00
558940,973758,1104281,556845.25,972273.50,1103207.25
559267,973922,1104115,556902.38,972311.94,1103231.75
559266,974056,1104270,556969.50,972357.31,1103260.25
559285,974230,1104407,557045.63,972409.25,1103292.87
559467,974223,1104558,557129.44,972467.75,1103329.62
559617,974325,1104566,557220.50,972532.50,1103370.75
559605,974514,1104467,557317.69,972602.88,1103415.75
559752,974395,1104662,557419.88,972678.38,1103463.50
559642,974571,1104660,557526.25,972758.13,1103514.25
558996,974990,1104719,557636.19,972841.75,1103567.25
559875,974920,1104833,557749.06,972929.13,1103622.25
559961,974866,1104804,557864.38,973020.31,1103679.25
560095,974940,1104990,557981.63,973114.50,1103738.00
560231,975204,1105100,558100.50,973211.38,1103798.37
560375,975286,1105009,558221.13,973311.13,1103860.62
560417,975405,1105284,558343.13,973413.75,1103924.62
560353,975801,1105434,558465.69,973519.00,1103990.75
560448,975623,1105161,558587.81,973627.00,1104059.00
560769,975490,1105095,558709.56,973736.63,1104127.62
560480,974663,1104955,558831.00,973845.88,1104194.87
559655,973774,1104154,558949.25,973949.81,1104258.00
558567,972937,1103487,559058.38,974041.13,1104312.87
557385,972285,1102905,559150.88,974114.00,1104355.50
556133,971733,1102706,559220.75,974165.88,1104383.12
555991,971615,1102639,559264.25,974196.25,1104395.50
554987,971420,1102561,559278.38,974204.88,1104393.75
554933,971576,1102821,559261.13,974192.25,1104378.75
554563,971278,1102519,559213.75,974159.94,1104351.75
554538,971154,1102462,559138.50,974110.13,1104314.25
554518,971037,1102386,559038.44,974044.56,1104267.50
554276,971142,1102394,558916.75,973965.06,1104212.75
554467,971161,1102340,558776.50,973874.13,1104151.00
554409,971234,1102489,558620.81,973774.06,1104083.50
554561,971885,1102590,558452.25,973667.50,1104012.00
554818,971488,1102466,558273.63,973557.19,1103937.62
555215,971472,1102718,558090.25,973444.69,1103861.62
555360,971567,1102955,557906.88,973331.13,1103785.75
555501,971990,1103005,557726.38,973218.63,1103711.25
556316,972309,1103158,557552.00,973110.13,1103640.00
556767,972478,1103344,557388.38,973008.13,1103573.75
556114,973114,1103790,557238.69,972914.81,1103514.00
557100,973012,1103775,557103.94,972831.88,1103462.50
557663,973038,1103624,556985.50,972759.94,1103419.00
557740,973382,1103739,556885.13,972698.50,1103382.50
557762,973173,1103616,556802.56,972647.13,1103352.12
558076,973352,1103722,556737.25,972605.75,1103327.50
558008,973269,1103721,556688.69,972574.19,1103308.50
558061,973338,1103658,556655.50,972551.75,1103294.75
558058,973479,1103894,556635.94,972537.75,1103285.62
558254,973513,1103961,556629.19,972532.13,1103281.75
558321,973895,1104657,556634.88,972534.38,1103283.25
558617,973862,1104140,556652.63,972544.25,1103290.25
558691,973957,1104277,556682.31,972562.25,1103302.75
558590,974142,1104289,556722.88,972588.50,1103320.62
558547,974550,1104463,556770.56,972623.50,1103343.87
559022,974464,1104425,556823.00,972667.50,1103372.25
559086,974641,1104349,556882.75,972720.00,1103404.87
558115,975225,1104977,556950.00,972780.75,1103441.25
559257,975027,1104832,557022.25,972850.00,1103481.75
559363,974975,1104782,557100.75,972926.88,1103526.75
559610,975063,1105015,557186.88,973010.06,1103575.50
559550,975304,1104953,557280.00,973098.75,1103627.25
560032,975211,1104943,557379.88,973192.56,1103682.00
559938,975404,1104872,557486.38,973290.63,1103739.50
559723,975655,1105314,557596.50,973392.63,1103799.50
560056,975678,1105071,557707.06,973498.63,1103862.12
560333,975799,1105159,557820.25,973608.19,1103926.87
560155,976081,1105522,557937.63,973720.63,1103993.00
560410,975965,1105344,558058.38,973835.13,1104060.50
560765,976007,1105412,558182.25,973951.50,1104129.50
560561,975999,1105292,558309.50,974069.13,1104199.25
560368,976240,1105626,558438.50,974187.63,1104269.75
560798,976495,1105679,558568.06,974307.19,1104341.50
560784,976484,1105738,558698.13,974428.25,1104414.50
560918,976850,1106232,558828.25,974550.38,1104488.75
560715,976747,1105852,558957.31,974673.25,1104563.62
561015,976631,1105772,559084.75,974796.38,1104639.00
561046,976208,1105471,559210.88,974917.88,1104713.25
559872,974788,1104479,559333.50,975032.75,1104783.25
559063,973802,1103766,559446.31,975133.19,1104843.25
557905,973257,1103366,559542.44,975212.88,1104888.87
555460,972873,1103370,559613.88,975269.88,1104919.00
556020,972159,1102905,559653.88,975303.25,1104934.25
555782,971978,1102728,559662.13,975311.44,1104933.75
555134,971868,1103002,559640.19,975294.38,1104917.25
554893,971781,1102532,559588.63,975254.25,1104885.87
554767,971633,1102638,559508.94,975193.38,1104841.25
554673,971662,1102810,559403.94,975113.88,1104785.75
554343,971833,1102730,559276.44,975018.88,1104721.75
554495,972036,1102802,559129.00,974912.00,1104651.00
554522,971903,1102758,558965.00,974796.25,1104574.75
554726,972033,1103093,558788.00,974673.13,1104494.25
554748,972048,1102906,558601.75,974544.50,1104410.50
555205,972076,1102935,558409.88,974412.50,1104325.50
555390,972295,1103001,558216.50,974279.31,1104240.25
556128,972740,1103425,558025.19,974147.56,1104156.62
555808,972961,1103384,557838.50,974020.56,1104076.75
556619,973099,1103570,557659.88,973900.50,1104001.50
557373,973726,1103900,557493.88,973789.00,1103931.87
557515,973699,1103844,557344.13,973687.75,1103869.00
557642,973821,1104001,557212.50,973598.19,1103813.50
557947,973819,1104353,557099.75,973520.50,1103765.75
557735,973856,1104171,557005.50,973454.25,1103725.75
557972,973815,1104040,556928.50,973398.50,1103693.25
557997,973802,1104051,556867.75,973352.44,1103667.25
557968,974264,1104707,556822.00,973315.75,1103648.25
558261,974237,1104261,556790.25,973289.13,1103636.25
558422,974213,1104330,556772.44,973272.44,1103631.00
558501,974322,1104687,556768.63,973264.88,1103631.50
558374,974701,1104689,556777.63,973266.38,1103638.12
558813,974754,1104518,556798.25,973277.56,1103650.75
559030,974920,1104788,556830.81,973298.50,1103669.25
558328,975191,1104820,556874.88,973329.25,1103693.12
558931,975102,1104810,556928.63,973369.75,1103722.37
559368,975403,1104885,556991.25,973419.13,1103756.25
559634,975787,1104854,557063.69,973476.63,1103794.37
559676,975601,1105047,557146.00,973541.88,1103836.25
559872,975751,1105203,557237.50,973614.38,1103882.00
559725,975839,1105225,557336.81,973694.00,1103931.87
559935,976216,1105252,557440.50,973780.44,1103985.37
560176,976173,1105392,557546.13,973873.81,1104042.00
560313,976367,1105422,557656.25,973973.50,1104101.75
559026,976475,1105632,557772.25,974078.63,1104164.12
560146,976441,1105613,557892.00,974188.38,1104228.75
560360,976418,1105386,558014.56,974301.63,1104295.25
560072,976386,1105674,558139.00,974417.00,1104362.50
560532,976669,1105782,558264.31,974533.88,1104430.12
560849,976788,1105877,558391.25,974652.31,1104499.25
560658,976751,1105795,558520.38,974772.25,1104570.00
560666,977838,1106027,558650.50,974893.38,1104642.00
560980,977327,1105940,558780.75,975016.44,1104715.25
560944,977094,1105951,558911.25,975141.25,1104789.00
561193,977196,1106505,559041.75,975266.38,1104862.50
561477,977256,1106013,559172.88,975390.88,1104935.37
561025,977137,1106015,559304.13,975514.00,1105007.25
561410,976942,1105763,559434.00,975634.50,1105077.75
560515,975808,1105026,559559.38,975750.38,1105144.00
559886,975019,1104374,559674.63,975856.88,1105201.87
558918,974249,1103889,559775.75,975946.38,1105247.12
557936,973436,1103561,559858.69,976013.25,1105277.37
556327,972899,1103066,559916.75,976054.25,1105291.00
555935,972515,1102729,559943.88,976067.88,1105287.00
555711,972331,1102836,559938.94,976054.38,1105265.50
555125,972255,1102712,559903.50,976015.38,1105228.25
555000,972262,1102870,559839.25,975953.56,1105177.50
554934,972178,1102686,559747.75,975871.88,1105115.25
554614,972514,1102860,559631.56,975773.25,1105043.00
554864,972234,1102885,559493.75,975660.50,1104962.75
554818,972291,1102934,559337.94,975536.25,1104876.50
554910,972177,1103105,559167.50,975402.50,1104786.00
554834,972385,1102860,558985.69,975261.38,1104691.87
555089,972406,1102855,558795.38,975115.44,1104595.37
555517,972586,1103016,558600.63,974967.13,1104497.75
555393,973021,1103515,558405.38,974818.75,1104401.37
556037,973113,1103452,558213.00,974673.38,1104308.75
556536,973366,1103382,558027.31,974533.50,1104220.75
556907,973869,1103933,557852.25,974401.38,1104137.50
557507,973920,1104006,557691.19,974278.50,1104060.25
557532,973833,1103865,557546.63,974166.56,1103990.75
557084,973905,1103901,557418.00,974065.56,1103929.00
557676,973781,1103816,557303.63,973974.88,1103873.87
557859,973866,1103984,557204.13,973893.75,1103825.25
557903,973984,1103906,557120.56,973822.00,1103783.25
557978,974299,1104142,557052.56,973759.63,1103747.12
558298,974263,1103931,556999.75,973706.69,1103716.75
558242,974092,1104127,556961.94,973663.19,1103691.75
558536,974262,1104238,556938.56,973628.50,1103672.62
558068,974392,1104204,556926.81,973602.50,1103659.62
558481,974345,1104251,556923.63,973585.00,1103652.25
558493,974603,1104170,556930.00,973575.63,1103650.00
557883,975245,1104560,556945.63,973575.06,1103652.25
558647,974966,1104411,556968.19,973584.13,1103659.00
558870,974849,1104328,556999.13,973601.94,1103670.12
559094,975049,1104764,557040.00,973627.38,1103685.62
559216,975405,1104713,557091.00,973660.63,1103706.00
559007,975314,1104629,557150.88,973701.88,1103731.12
559486,975305,1104797,557218.63,973750.25,1103760.50
558478,975650,1104985,557291.69,973804.94,1103793.75
559586,975709,1105005,557367.50,973866.13,1103831.75
559743,975686,1105020,557448.25,973933.50,1103873.87
560026,976029,1104987,557536.63,974006.13,1103919.25
559911,975982,1105056,557632.00,974083.88,1103967.37
559965,976109,1104996,557733.25,974166.50,1104017.50
560079,976015,1105018,557839.13,974253.19,1104069.00
559839,976150,1105037,557948.63,974343.06,1104121.37
560115,976133,1104935,558060.88,974435.38,1104174.12
560266,976289,1105227,558175.13,974529.50,1104227.00
560244,976523,1105736,558291.00,974625.06,1104280.25
560088,976467,1105497,558407.25,974721.56,1104335.00
560307,976504,1105404,558522.94,974819.13,1104391.00
560447,976573,1105447,558637.94,974917.63,1104448.00
560459,976748,1105567,558752.50,975016.88,1104505.87
560605,976610,1105381,558866.25,975116.56,1104564.25
560722,976352,1105426,558979.44,975215.31,1104622.00
558960,975804,1105126,559089.13,975311.25,1104678.50
558836,974693,1104161,559188.75,975400.31,1104730.50
558218,973890,1103665,559273.75,975475.25,1104773.25
557061,973310,1102998,559340.00,975530.31,1104802.75
555850,972713,1102769,559381.75,975562.56,1104816.75
555477,972427,1102857,559394.25,975570.75,1104815.00
554951,972195,1102601,559376.38,975555.06,1104798.50
554177,972188,1102552,559328.19,975517.31,1104768.25
554395,972085,1102588,559250.75,975460.06,1104725.50
554205,972078,1102469,559146.63,975385.25,1104671.75
554049,972030,1102686,559018.63,975295.00,1104608.50
553930,972071,1102654,558869.25,975191.38,1104537.12
554045,972102,1102746,558701.81,975077.13,1104460.25
554277,972295,1102634,558520.13,974954.75,1104379.50
554282,972422,1102814,558327.88,974827.13,1104295.87
554383,972569,1102933,558128.13,974697.00,1104211.12
554755,972607,1103111,557924.44,974566.31,1104127.12
555234,972930,1103087,557721.56,974436.75,1104045.00
555695,973055,1103273,557524.00,974310.13,1103965.75
556086,973327,1103179,557335.94,974189.00,1103889.87
556427,973535,1104026,557160.69,974075.75,1103818.12
556955,973851,1103833,557000.94,973971.88,1103751.75
557238,973900,1103937,556859.13,973878.88,1103693.00
557134,973946,1103969,556735.94,973796.94,1103642.75
557159,974287,1104482,556629.75,973726.25,1103601.25
557227,974259,1103845,556538.88,973667.50,1103568.50
557341,973934,1103741,556463.13,973619.50,1103542.12
557469,974065,1104180,556402.75,973580.25,1103520.50
557383,974293,1104086,556356.75,973549.38,1103503.50
557871,974316,1104082,556324.81,973527.13,1103492.00
557796,974196,1104066,556306.88,973513.13,1103486.25
557009,974477,1104012,556301.63,973506.63,1103485.25
557865,974552,1104019,556307.38,973508.25,1103488.37
558222,974655,1104184,556323.94,973517.56,1103495.25
558128,975225,1104260,556351.63,973534.25,1103506.00
558540,975188,1104373,556389.94,973558.63,1103520.50
558656,975229,1104338,556439.00,973591.50,1103539.00
558751,975277,1104389,556498.44,973632.56,1103561.37
558661,975352,1104698,556565.63,973680.88,1103587.75
559147,975464,1104741,556638.38,973735.75,1103618.50
558756,975681,1104777,556717.88,973797.00,1103654.00
558692,976037,1105368,556804.13,973864.63,1103693.50
559352,975990,1104945,556896.50,973938.50,1103737.00
559697,976049,1105097,556996.00,974018.31,1103784.25
559518,976036,1105282,557102.63,974103.50,1103835.00
559658,976277,1105219,557214.94,974193.38,1103889.00
559733,976418,1105209,557331.81,974287.75,1103945.87
559838,976452,1105361,557452.63,974386.44,1104005.50
559654,976872,1105707,557576.25,974488.75,1104068.50
559871,976733,1105423,557701.56,974594.19,1104134.87
560204,976737,1105482,557828.38,974702.63,1104203.50
560087,976734,1105863,557956.75,974813.13,1104273.12
560042,977061,1105758,558085.88,974925.38,1104344.00
560295,977213,1105730,558214.75,975039.75,1104416.25
560566,977075,1105619,558343.69,975156.06,1104489.37
560368,977248,1105919,558471.56,975274.25,1104563.12
560622,977188,1105784,558596.38,975394.13,1104637.25
560794,977157,1105605,558719.94,975514.00,1104711.00
560516,976200,1105174,558843.31,975631.06,1104782.50
559450,975326,1104345,558963.00,975740.44,1104848.12
558481,974513,1103816,559072.38,975835.00,1104903.00
557616,973832,1103384,559164.88,975908.94,1104943.75
556322,973167,1102807,559234.81,975959.13,1104968.00
555577,972861,1102715,559277.31,975983.56,1104974.50
555000,972574,1102733,559288.56,975982.38,1104963.87
553619,972588,1102599,559267.75,975956.88,1104938.00
554272,972637,1102938,559215.88,975909.56,1104898.87
554348,972321,1102669,559135.00,975843.13,1104848.75
554204,972246,1102873,559028.19,975759.19,1104789.25
553912,972386,1102669,558898.31,975659.75,1104721.00
554073,972278,1102613,558748.00,975547.63,1104645.62
554076,972282,1102763,558580.81,975424.88,1104564.62
553685,972705,1102968,558399.75,975293.94,1104480.00
553978,972585,1102810,558207.25,975157.44,1104393.50
554172,972641,1102600,558006.50,975018.00,1104305.50
554270,972886,1103263,557801.00,974877.50,1104216.25
555152,973035,1103099,557595.25,974738.13,1104127.75
555356,973265,1103290,557394.50,974602.44,1104042.25
555684,973423,1103477,557202.56,974472.75,1103961.25
556172,973685,1103540,557021.88,974350.69,1103886.00
556578,973896,1103556,556855.31,974238.00,1103817.00
556930,973995,1103779,556705.69,974135.81,1103754.50
556619,974501,1104090,556574.06,974044.38,1103699.00
556629,974270,1103706,556458.75,973963.81,1103650.50
556801,974402,1103810,556358.50,973894.63,1103608.37
557035,974367,1103875,556273.38,973837.00,1103572.62
556947,974352,1104057,556203.00,973790.13,1103543.50
557216,974398,1103946,556146.63,973752.88,1103521.00
557358,974445,1103820,556104.25,973724.75,1103504.25
557344,974751,1104103,556074.94,973705.50,1103492.00
557401,974658,1104116,556056.75,973694.94,1103484.50
557694,974832,1104037,556050.13,973693.00,1103481.87
557769,974985,1104533,556055.94,973699.50,1103484.25
557904,975241,1104376,556073.69,973714.88,1103491.87
558107,975317,1104475,556102.88,973739.25,1103505.25
558432,975494,1104640,556143.50,973772.50,1103524.25
557383,975610,1105082,556195.38,973814.38,1103549.75
558485,975603,1104731,556257.44,973864.44,1103581.87
558716,975736,1104699,556328.75,973921.75,1103619.25
558766,976148,1105138,556408.75,973985.63,1103660.50
559253,976152,1105115,556497.44,974056.13,1103705.62
559116,976284,1105133,556594.75,974133.56,1103755.25
559350,976493,1105160,556699.75,974217.75,1103809.25
559499,976486,1105323,556810.25,974308.38,1103867.00
559548,976432,1105210,556924.63,974404.25,1103928.00
559663,976582,1105435,557043.50,974504.00,1103992.00
559796,976913,1105537,557167.63,974607.13,1104058.12
559787,976767,1105363,557296.13,974713.38,1104126.00
559776,976992,1105499,557427.88,974822.25,1104194.87
559805,976837,1105497,557561.38,974933.63,1104265.00
559680,977291,1105703,557693.13,975047.00,1104336.37
560251,977195,1105653,557820.56,975162.44,1104408.87
560283,977267,1105646,557947.63,975279.50,1104482.00
558912,978047,1106114,558074.75,975397.88,1104555.25
560061,977481,1105680,558198.44,975517.75,1104627.75
559997,977607,1105823,558319.50,975638.38,1104699.75
560376,977513,1105621,558439.50,975758.88,1104770.87
560001,976771,1105016,558558.19,975876.88,1104839.50
559575,975850,1104614,558673.38,975987.25,1104901.75
558586,975059,1103973,558780.69,976083.94,1104954.25
556698,973815,1103451,558872.00,976161.88,1104993.62
556157,973399,1103001,558938.75,976216.81,1105017.25
555550,973258,1102821,558976.88,976246.13,1105023.75
555101,972965,1102809,558985.81,976249.75,1105013.62
554122,972827,1102614,558964.25,976228.88,1104987.87
554401,972665,1102699,558912.19,976185.50,1104948.25
554176,972726,1102650,558832.25,976121.81,1104896.37
553758,972553,1102426,558727.44,976040.38,1104834.00
553560,972477,1102585,558599.25,975943.13,1104761.87
553546,972490,1102524,558449.69,975832.00,1104682.00
553417,972677,1102744,558282.06,975709.38,1104595.75
553476,972638,1102693,558099.75,975577.38,1104504.87
553510,972467,1102669,557905.44,975438.63,1104411.00
553720,972761,1102550,557702.00,975295.25,1104315.12
554157,972837,1102982,557493.75,975149.81,1104218.62
554484,973082,1103103,557285.25,975004.75,1104123.75
555100,973235,1103168,557081.25,974862.44,1104032.62
555012,974073,1103844,556883.81,974726.25,1103946.50
555936,974096,1103681,556694.50,974600.00,1103867.25
556347,974319,1103815,556519.25,974485.25,1103796.25
556427,974483,1104237,556362.63,974382.69,1103733.25
556465,974598,1103880,556224.88,974292.81,1103678.25
556564,974581,1103834,556105.13,974215.50,1103630.87
556590,974552,1103805,556002.63,974149.88,1103590.50
556572,974616,1103904,555915.81,974095.50,1103556.75
557041,974846,1104022,555843.63,974052.13,1103529.50
557130,974986,1103971,555787.38,974019.88,1103508.75
557244,975286,1104371,555747.63,973998.13,1103494.12
557490,975113,1104071,555723.75,973986.19,1103485.50
557452,975254,1104237,555715.06,973983.75,1103482.50
557625,975260,1104312,555720.44,973990.63,1103485.25
557844,975618,1104542,555738.13,974006.69,1103493.87
558023,975702,1104524,555766.88,974032.13,1103508.75
558101,975741,1104535,555807.50,974066.75,1103529.25
558201,976219,1104852,555860.25,974109.88,1103555.00
558637,976073,1104644,555924.88,974161.25,1103585.50
558578,976138,1104752,556001.00,974220.63,1103620.25
558465,976208,1104993,556086.88,974286.94,1103659.00
558999,976255,1105020,556181.25,974359.50,1103702.00
559157,976492,1104958,556284.50,974437.75,1103749.00
559276,976669,1104981,556396.63,974521.75,1103799.50
559334,976915,1105545,556516.38,974611.88,1103853.75
559350,976983,1105415,556642.38,974708.19,1103912.75
559624,976781,1105246,556773.75,974809.50,1103975.75
559450,976883,1105609,556909.75,974913.88,1104040.75
559538,977176,1105288,557048.88,975020.75,1104106.75
559805,977233,1105545,557190.25,975130.44,1104173.75
559850,977072,1105281,557333.75,975242.25,1104242.12
559918,977587,1105581,557477.25,975355.50,1104311.00
560103,977527,1105513,557618.88,975470.69,1104380.50
560127,977436,1105487,557760.19,975587.31,1104450.25
560106,977896,1105713,557902.13,975704.25,1104519.75
560095,977761,1105644,558043.63,975821.25,1104589.00
560447,977779,1105645,558184.25,975938.44,1104658.00
560451,978023,1105763,558324.25,976055.75,1104726.37
560616,977741,1105878,558462.75,976172.75,1104794.37
560595,977604,1105530,558598.50,976287.75,1104861.50
560330,977032,1105268,558731.56,976398.13,1104925.75
557716,975594,1104197,558859.75,976500.19,1104984.25
557888,974743,1103629,558976.25,976587.81,1105033.00
557259,974266,1103234,559073.00,976653.94,1105067.00
556580,973870,1102976,559145.06,976694.94,1105083.75
555343,973501,1102773,559188.88,976710.50,1105083.50
554909,973239,1102602,559200.88,976701.00,1105066.50
554629,973087,1102460,559180.38,976667.44,1105033.50
554083,973080,1102581,559128.50,976611.75,1104986.00
554030,972901,1102415,559046.63,976536.00,1104925.87
554119,972712,1102403,558938.00,976442.44,1104854.75
553724,972756,1102865,558805.81,976333.00,1104774.50
553655,972664,1102445,558652.63,976210.06,1104687.50
553696,972692,1102398,558481.00,976075.88,1104594.50
553841,972795,1102454,558294.63,975932.88,1104496.50
553841,972900,1102608,558097.13,975783.88,1104395.25
554123,973030,1102798,557891.69,975631.88,1104293.00
554371,973228,1102798,557682.50,975479.13,1104191.50
554722,973902,1103222,557473.75,975327.31,1104091.62
554864,973672,1103057,557269.06,975178.75,1103994.50
555705,973864,1103175,557072.00,975036.00,1103901.75
555612,973887,1103296,556886.38,974901.13,1103814.62
555985,974125,1103470,556713.63,974775.13,1103734.00
556181,974196,1103455,556554.81,974658.81,1103660.75
556263,974385,1103400,556411.31,974552.94,1103594.37
556499,974642,1103543,556282.75,974458.13,1103534.75
556279,974423,1103230,556167.75,974374.50,1103481.25
556367,974345,1103264,556066.50,974301.00,1103432.75
556416,974424,1103814,555979.13,974236.75,1103389.00
556332,974741,1103595,555905.06,974181.88,1103350.37
556807,974767,1103599,555843.81,974137.00,1103317.75
557064,974770,1103638,555796.38,974101.94,1103291.00
556112,975023,1104040,555763.44,974076.25,1103270.75
556982,975100,1103864,555743.88,974060.00,1103257.25
557492,975250,1103889,555736.88,974053.38,1103250.25
557461,975578,1104186,555742.50,974056.00,1103248.62
557668,975406,1104141,555760.50,974067.38,1103252.25
557735,975468,1104036,555790.13,974087.19,1103261.25
557969,975609,1103973,555830.75,974114.88,1103275.00
558444,975807,1104245,555881.75,974150.31,1103292.75
558223,975814,1104171,555942.13,974193.38,1103314.87
558431,976104,1104503,556011.88,974243.81,1103341.37
558609,976141,1104879,556091.00,974301.13,1103372.75
558462,976192,1104567,556178.75,974364.50,1103409.00
558577,976381,1104724,556273.44,974433.75,1103449.62
558803,976358,1104684,556374.06,974508.75,1103494.62
558532,976526,1104860,556477.94,974588.75,1103543.37
558874,976517,1105036,556582.13,974673.25,1103596.12
559136,976590,1104933,556688.88,974761.50,1103652.75
557805,977318,1105220,556798.63,974853.38,1103712.37
558919,977033,1105105,556908.31,974949.38,1103774.62
559164,977085,1105084,557018.75,975049.50,1103839.12
559306,976982,1105261,557131.75,975152.38,1103905.50
559452,977412,1105210,557247.38,975257.56,1103973.37
559539,977391,1105359,557365.50,975365.38,1104042.62
559628,977529,1105356,557485.75,975475.63,1104113.00
559379,977532,1105673,557605.13,975587.88,1104185.00
559847,977619,1105619,557721.25,975701.56,1104258.75
560018,977507,1105346,557837.00,975815.75,1104333.25
559844,976564,1104720,557954.56,975928.50,1104406.50
558833,975686,1104069,558070.63,976034.88,1104474.25
557969,975100,1103676,558178.88,976127.88,1104532.25
557141,974296,1103292,558273.00,976202.13,1104577.25
554856,973567,1102931,558347.13,976253.75,1104607.75
554953,973368,1102570,558395.38,976280.75,1104622.25
554671,973102,1102449,558414.13,976283.00,1104620.50
553680,973023,1102532,558403.13,976262.13,1104603.12
553624,972943,1102499,558362.69,976219.75,1104571.87
553531,972959,1102353,558293.38,976158.50,1104528.75
553411,972695,1102455,558197.31,976080.50,1104475.00
553433,972709,1102427,558077.75,975987.44,1104412.75
553380,972746,1102386,557938.13,975881.38,1104343.00
553311,972694,1102400,557781.50,975764.56,1104267.50
552763,973180,1102781,557607.88,975640.25,1104187.50
553237,972967,1102801,557417.50,975511.75,1104106.00
553422,972979,1102583,557216.63,975380.38,1104023.75
553638,973020,1103060,557011.63,975246.88,1103941.25
554520,973662,1103158,556807.13,975113.88,1103859.50
555074,973829,1103139,556609.25,974984.94,1103781.37
555308,974120,1103231,556422.81,974862.88,1103708.00
555314,974396,1103454,556249.19,974750.25,1103639.75
555719,974433,1103467,556088.88,974648.94,1103577.87
555960,974588,1103349,555943.94,974558.75,1103522.25
556170,974684,1103612,555816.00,974479.00,1103472.50
556054,974687,1103603,555705.13,974409.56,1103429.12
556096,974630,1103558,555610.06,974349.88,1103392.00
556435,974667,1103606,555530.25,974299.38,1103360.62
556486,974901,1103767,555464.88,974257.88,1103335.00
556587,974958,1103793,555413.06,974225.63,1103315.25
556709,975047,1103710,555375.06,974202.63,1103301.00
556933,975489,1103974,555351.25,974188.44,1103291.50
557086,975499,1104090,555341.13,974183.38,1103286.12
557468,975664,1104214,555345.13,974188.25,1103286.75
557495,975616,1104518,555363.63,974203.00,1103293.62
557749,975788,1104192,555395.88,974226.69,1103306.37
557682,975819,1104381,555441.00,974258.75,1103324.37
558073,975950,1104411,555498.00,974298.75,1103347.75
557966,976378,1104992,555565.88,974346.50,1103377.12
558122,976255,1104689,555643.13,974402.25,1103413.25
558241,976405,1104415,555728.94,974465.50,1103454.50
558238,976355,1105196,555822.88,974535.13,1103499.00
558460,976699,1104903,555923.94,974610.69,1103546.87
558567,976794,1104637,556031.50,974692.19,1103598.12
558651,976904,1104908,556144.94,974779.56,1103652.00
558799,977076,1105036,556262.25,974872.56,1103708.50
558964,977057,1105110,556381.88,974970.81,1103767.75
558999,977105,1105071,556504.88,975073.13,1103830.00
559230,977613,1106347,556632.13,975178.38,1103894.25
559279,977383,1105475,556763.06,975286.38,1103960.75
559223,977329,1105342,556896.88,975396.63,1104029.87
559419,977448,1105458,557032.50,975508.38,1104101.00
559194,977551,1105405,557167.69,975621.25,1104173.50
559635,977620,1105434,557300.81,975734.88,1104246.75
559558,977702,1105419,557433.25,975849.00,1104319.87
558564,978019,1105824,557566.00,975963.13,1104392.62
559544,977948,1105651,557697.63,976077.13,1104465.00
559827,978037,1105645,557828.00,976191.13,1104537.37
560034,978097,1105591,557957.50,976305.19,1104609.50
559883,977559,1105294,558086.38,976417.94,1104680.25
559298,976733,1104797,558212.50,976525.31,1104747.12
558777,976049,1104139,558331.88,976621.88,1104806.12
556873,974790,1103382,558439.81,976702.75,1104853.12
556165,974196,1103095,558529.31,976763.25,1104884.75
555347,973778,1102989,558592.63,976799.00,1104900.00
554876,973581,1102681,558625.38,976809.13,1104898.87
553994,973443,1102579,558626.13,976794.88,1104882.00
553704,973249,1102534,558593.94,976757.81,1104850.25
553418,973136,1102435,558529.75,976699.56,1104805.25
553063,973198,1102456,558434.19,976623.00,1104748.37
553023,973072,1102332,558308.25,976531.25,1104681.25
553021,973051,1102382,558157.00,976425.63,1104605.00
553059,973376,1102842,557986.00,976307.75,1104521.50
552437,973160,1102384,557797.81,976180.00,1104432.00
552747,973077,1102412,557594.13,976044.88,1104338.00
552825,973072,1102285,557378.50,975903.94,1104240.75
553129,973308,1102525,557154.63,975759.25,1104141.00
553529,973487,1102720,556926.88,975613.50,1104041.25
553844,973680,1102985,556700.31,975469.38,1103943.62
553899,974550,1103308,556479.38,975329.19,1103850.25
554721,974547,1103262,556267.88,975196.06,1103762.87
555167,974743,1103524,556069.50,975073.13,1103682.50
555461,974841,1103745,555887.50,974962.06,1103609.75
555594,975033,1103674,555723.44,974863.25,1103544.75
555935,975055,1103714,555578.06,974777.00,1103488.00
556079,975093,1103631,555452.00,974703.00,1103439.50
555584,975338,1104239,555345.56,974640.75,1103399.12
556174,975377,1103964,555258.25,974590.44,1103368.00
556228,975280,1103824,555188.44,974551.50,1103345.25
556494,975589,1104152,555134.81,974522.75,1103328.87
556465,975586,1103864,555096.88,974503.69,1103318.25
556964,975556,1103852,555074.38,974494.25,1103312.62
556411,975673,1103963,555066.38,974494.06,1103312.00
557337,975807,1104051,555070.50,974502.50,1103316.00
557225,975909,1104123,555086.00,974519.50,1103325.00
557230,975994,1104224,555114.25,974544.63,1103338.75
557367,976498,1104582,555154.88,974577.38,1103357.25
557626,976415,1104564,555207.25,974617.69,1103380.62
557791,976602,1104628,555270.88,974666.13,1103409.37
557762,976654,1104573,555345.13,974722.75,1103443.50
557777,977015,1104811,555426.63,974787.50,1103482.25
558295,977106,1104875,555513.00,974860.38,1103526.00
558497,977167,1105001,555607.00,974941.13,1103574.75
557695,977945,1105522,555709.13,975029.19,1103627.75
558483,977439,1105151,555816.06,975124.25,1103685.12
558610,977518,1105126,555928.50,975225.38,1103746.00
558791,977561,1105462,556047.50,975331.25,1103810.25
558786,977607,1105329,556172.25,975441.13,1103877.25
558495,977602,1105206,556301.00,975553.81,1103946.50
558831,977727,1105288,556431.81,975668.50,1104017.25
558227,978057,1105587,556562.69,975785.13,1104089.37
559076,977959,1105298,556692.06,975903.63,1104162.87
559325,978062,1105365,556822.13,976023.50,1104236.75
559435,978349,1105708,556955.00,976144.25,1104310.50
559560,978330,1105646,557090.50,976265.88,1104384.62
559475,978363,1105441,557227.75,976388.13,1104458.75
559626,978316,1105698,557365.88,976510.25,1104532.12
559570,978604,1105781,557503.88,976632.00,1104605.12
560028,978661,1105736,557641.50,976753.44,1104678.00
559880,978492,1105644,557779.38,976874.13,1104749.75
559320,977280,1105292,557916.38,976991.88,1104819.37
558553,976442,1104218,558048.63,977101.00,1104883.25
557832,975551,1103632,558169.88,977193.50,1104935.75
557034,974969,1103219,558274.25,977263.88,1104972.75
555339,974215,1102787,558355.69,977308.75,1104992.75
554805,973862,1102689,558407.63,977326.63,1104994.75
554351,973797,1102585,558427.25,977317.50,1104979.75
552765,974147,1102839,558412.75,977284.25,1104949.75
553240,973718,1102431,558362.63,977230.00,1104906.50
553125,973512,1102523,558279.75,977156.50,1104851.12
553018,973387,1102345,558169.00,977065.19,1104785.00
553003,973347,1102379,558033.63,976957.81,1104709.50
552917,973400,1102381,557877.25,976836.75,1104626.00
553005,973340,1102442,557703.25,976704.63,1104536.00
552695,973533,1102489,557514.50,976564.13,1104441.00
552896,973325,1102405,557313.38,976418.00,1104342.87
553018,973592,1102525,557103.19,976267.56,1104242.25
553056,973828,1102922,556887.63,976114.63,1104140.75
553604,973865,1102973,556670.25,975961.75,1104040.25
554185,974180,1102934,556456.00,975811.44,1103942.87
554633,974451,1103008,556250.00,975666.75,1103849.75
555382,974810,1103427,556055.56,975530.31,1103761.87
555027,974767,1103358,555874.50,975403.88,1103681.00
555338,974770,1103369,555708.38,975287.63,1103607.50
555337,975145,1103440,555558.63,975181.56,1103540.87
555350,974981,1103406,555425.13,975085.81,1103481.12
555784,975079,1103556,555307.63,975000.63,1103428.25
555837,975089,1103960,555206.63,974925.75,1103382.00
556110,975217,1103803,555122.63,974861.13,1103343.00
556040,975349,1103657,555055.00,974806.63,1103311.25
556096,975270,1103627,555002.75,974762.13,1103285.87
556095,975669,1104214,554964.63,974727.75,1103267.00
556376,975448,1103955,554940.00,974703.69,1103255.37
556583,975674,1104000,554928.88,974689.00,1103250.50
556633,975591,1104373,554930.81,974682.63,1103251.50
556432,975946,1104100,554944.50,974684.50,1103257.87
556965,976095,1104156,554968.75,974695.00,1103269.50
557221,976224,1104174,555004.38,974714.44,1103286.25
556838,976373,1104456,555051.13,974743.00,1103308.00
557427,976477,1104275,555108.00,974780.63,1103334.75
557746,976509,1104378,555175.13,974826.50,1103365.75
557752,976823,1104636,555252.63,974879.50,1103400.50
557833,976800,1104657,555339.50,974939.25,1103439.12
557881,976765,1104745,555434.31,975005.13,1103482.00
557870,976933,1104700,555535.88,975076.63,1103528.75
557954,977088,1104876,555641.00,975153.25,1103579.00
558238,977167,1104736,555747.56,975234.88,1103632.25
558032,977176,1104748,555857.25,975321.00,1103687.75
557699,977289,1105071,555970.56,975410.63,1103744.50
558535,977482,1104943,556087.00,975503.25,1103802.87
558679,977456,1105029,556207.31,975599.00,1103862.75
558616,977552,1105083,556331.25,975697.38,1103924.25
558866,977766,1105138,556457.88,975797.88,1103987.37
558849,977678,1105184,556586.88,975900.50,1104051.75
558797,977751,1105217,556717.13,976004.50,1104116.75
558882,978108,1105474,556847.25,976109.25,1104182.50
559039,978145,1105522,556976.44,976215.25,1104249.75
559274,978104,1105315,557105.31,976322.50,1104317.75
559302,978183,1105480,557234.50,976430.50,1104385.75
559176,977370,1104891,557363.50,976537.00,1104452.00
558891,976733,1104467,557490.19,976637.44,1104514.00
557946,976072,1103852,557611.13,976726.75,1104567.75
555966,974922,1103253,557718.25,976801.44,1104610.12
555384,974271,1102980,557802.13,976857.88,1104638.12
554621,974117,1102854,557857.88,976891.25,1104651.00
554318,973771,1102871,557884.19,976900.44,1104649.00
553424,973527,1102490,557880.31,976886.38,1104632.50
553150,973403,1102341,557845.38,976849.88,1104602.37
553052,973537,1102364,557780.50,976792.88,1104559.50
552661,973437,1102339,557688.19,976718.38,1104505.50
552762,973454,1102268,557570.88,976628.75,1104441.87
552700,973305,1102250,557431.88,976526.13,1104370.00
551551,973467,1102474,557274.25,976412.25,1104291.12
552418,973318,1102530,557100.06,976289.00,1104207.12
552507,973140,1102469,556912.25,976158.13,1104120.25
552646,973406,1102588,556714.38,976021.31,1104031.00
552799,973563,1102615,556510.00,975881.25,1103940.25
553260,973836,1102678,556303.00,975740.75,1103849.75
553577,974107,1102852,556097.75,975602.88,1103761.50
554012,974627,1103231,555897.88,975470.06,1103677.50
554552,974723,1103158,555706.69,975344.63,1103599.12
554639,974701,1103264,555528.13,975228.50,1103527.12
554705,975219,1103819,555363.88,975122.75,1103461.50
555275,975236,1103602,555215.06,975028.25,1103403.00
555274,975126,1103564,555083.00,974945.75,1103352.12
555090,975232,1103579,554967.50,974874.69,1103308.87
555426,975335,1103735,554867.50,974814.50,1103272.87
555601,975467,1103678,554783.13,974765.25,1103244.12
555604,975465,1103609,554714.38,974726.75,1103221.87
555731,975970,1104078,554660.38,974698.06,1103205.25
555922,975696,1103719,554620.69,974678.63,1103194.25
556141,975651,1103813,554595.19,974668.38,1103188.50
556511,975760,1103818,554584.25,974666.75,1103187.87
556440,976058,1104097,554587.38,974673.63,1103192.50
556468,976068,1104132,554602.88,974689.38,1103202.50
556744,976204,1103994,554630.00,974713.63,1103218.00
556804,976739,1104186,554668.38,974746.25,1103237.75
556933,976727,1104424,554716.50,974787.94,1103261.75
557506,976856,1104400,554775.31,974838.88,1103290.87
557434,976838,1104804,554846.00,974898.38,1103324.75
557359,977181,1104552,554927.38,974965.75,1103363.00
557782,977272,1104746,555017.88,975040.94,1103405.75
557921,977368,1104755,555117.44,975123.69,1103452.87
557074,977641,1105200,555225.81,975213.38,1103504.87
558065,977654,1105192,555341.75,975309.69,1103562.25
558267,977657,1104986,555464.38,975411.75,1103624.50
558413,977971,1105173,555593.00,975518.63,1103690.00
558646,977749,1105127,555727.25,975629.25,1103758.25
558521,977812,1105355,555866.56,975742.63,1103828.75
558588,978002,1105286,556009.25,975858.13,1103901.75
558759,977991,1105357,556153.19,975975.38,1103976.50
558910,978228,1105260,556297.00,976094.06,1104052.25
558916,978069,1105551,556441.63,976213.75,1104128.62
558835,978588,1105999,556587.19,976333.69,1104206.00
559024,978569,1105676,556732.69,976453.88,1104284.62
559218,978631,1105583,556877.88,976575.13,1104363.87
559271,978873,1105693,557022.88,976697.50,1104443.25
559219,979195,1105948,557164.69,976821.63,1104522.75
559549,978967,1105841,557300.75,976947.50,1104602.50
559776,978821,1105767,557434.75,977073.50,1104682.12
557884,978167,1105350,557567.81,977197.75,1104759.87
558329,977110,1104409,557695.13,977315.81,1104832.25
557092,976223,1103778,557810.63,977419.88,1104893.62
556485,975413,1103189,557908.50,977503.13,1104940.00
555251,974659,1102771,557983.38,977561.44,1104969.00
554502,974332,1102618,558030.38,977592.50,1104979.12
554027,974084,1102668,558046.63,977596.25,1104971.25
552983,974003,1102699,558029.31,977573.94,1104947.25
553088,973797,1102314,557977.00,977527.63,1104908.87
552993,973702,1102220,557893.63,977459.50,1104856.50
552800,973570,1102557,557784.00,977371.63,1104791.50
552155,973509,1102226,557649.88,977266.25,1104715.75
552381,973385,1102344,557493.00,977145.50,1104631.00
552284,973441,1102405,557316.38,977011.75,1104539.50
551477,973452,1102272,557123.25,976867.44,1104442.50
551826,973395,1102278,556915.06,976715.00,1104341.25
552110,973471,1102153,556694.75,976556.38,1104236.62
552419,973782,1102411,556466.56,976393.75,1104129.50
552586,973668,1102528,556234.88,976229.50,1104021.50
553068,974036,1102740,556004.06,976066.25,1103915.25
553491,974090,1102786,555778.69,975906.75,1103812.50
554194,974515,1103129,555563.50,975753.25,1103714.75
554309,974673,1103216,555362.50,975608.25,1103623.75
554326,974693,1103163,555177.13,975473.13,1103540.25
554127,975168,1103483,555004.94,975349.38,1103464.25
554563,974942,1103302,554843.81,975238.38,1103396.50
554782,974798,1103228,554697.13,975138.88,1103336.00
554696,975077,1103553,554567.75,975049.25,1103282.00
554938,975237,1103696,554455.06,974970.13,1103235.00
555065,975142,1103560,554358.88,974901.75,1103196.00
555194,975139,1103350,554279.25,974843.31,1103164.00
555018,975517,1103450,554214.88,974795.00,1103137.75
555540,975501,1103494,554165.06,974757.69,1103116.75
555665,975671,1103590,554130.31,974731.00,1103101.00
555979,976050,1103913,554111.25,974714.06,1103090.50
556097,975976,1103975,554107.69,974707.00,1103085.75
556320,975981,1103984,554119.31,974709.56,1103087.50
556336,976204,1104020,554145.25,974721.56,1103095.50
556502,976599,1104269,554184.00,974743.38,1103109.75
556660,976517,1104104,554234.13,974775.25,1103130.12
556679,976677,1104161,554295.44,974816.56,1103155.62
556950,977077,1104389,554367.63,974866.69,1103185.50
557381,976984,1104532,554450.94,974925.50,1103220.25
557557,977077,1104597,554545.63,974992.38,1103260.25
557472,977118,1104741,554650.75,975066.63,1103305.00
557687,977277,1104701,554764.75,975147.38,1103354.00
557790,977300,1104700,554886.50,975234.00,1103407.00
557614,977363,1104575,555014.75,975325.75,1103462.87
557570,977570,1105231,555147.00,975421.50,1103521.75
557787,977522,1104853,555281.50,975520.88,1103584.50
558085,977652,1104973,555418.44,975623.25,1103650.00
557833,977645,1105246,555557.88,975728.25,1103717.25
558035,977726,1105075,555698.38,975835.06,1103785.75
558388,977762,1104921,555839.88,975943.13,1103855.00
558459,977827,1104844,555982.81,976051.94,1103924.12
558124,977835,1105053,556125.44,976161.44,1103992.50
558119,977920,1105024,556264.63,976271.63,1104060.00
558411,977854,1105263,556400.56,976381.13,1104127.25
558528,978283,1105076,556535.00,976488.88,1104194.25
558546,977581,1104785,556668.13,976593.81,1104260.00
558353,977182,1104424,556798.88,976693.56,1104321.87
557704,976372,1104004,556924.94,976784.38,1104377.00
555747,975165,1103132,557040.00,976860.88,1104422.25
554904,974653,1102830,557135.19,976917.19,1104453.87
554245,974158,1102437,557203.75,976950.38,1104469.75
551971,973798,1102608,557242.25,976959.88,1104469.75
552481,973643,1102329,557248.00,976946.13,1104455.00
552614,973521,1102240,557220.19,976910.25,1104426.50
552401,973527,1102337,557161.25,976854.06,1104385.50
551895,973389,1101982,557073.94,976779.88,1104333.00
551812,973433,1102145,556959.75,976689.88,1104270.25
551699,973408,1102055,556821.25,976586.50,1104199.00
551276,973518,1102169,556661.56,976472.50,1104120.62
551469,973458,1102206,556483.50,976350.25,1104037.12
551495,973496,1102144,556289.94,976221.56,1103949.75
551433,973717,1102759,556083.81,976088.13,1103859.50
551909,973739,1102422,555868.75,975952.13,1103767.75
551803,973935,1102567,555649.00,975816.00,1103676.62
552188,973969,1102612,555427.75,975681.75,1103588.00
552830,974593,1102921,555207.44,975551.75,1103503.00
553337,974604,1102929,554991.88,975428.75,1103423.00
553634,974597,1102927,554787.38,975314.13,1103348.87
553904,975363,1103452,554598.38,975208.00,1103280.75
554000,975094,1103293,554426.13,975111.63,1103219.25
554112,974985,1103264,554271.00,975025.69,1103165.00
554125,974876,1103083,554132.75,974949.50,1103117.75
554408,975024,1103104,554010.13,974882.25,1103076.00
554352,975131,1103247,553902.38,974823.75,1103039.75
554455,975143,1103251,553809.75,974774.25,1103008.87
554176,975604,1103347,553732.38,974733.44,1102983.25
554682,975512,1103355,553669.25,974701.63,1102962.75
554817,975390,1103314,553620.63,974678.75,1102947.25
554796,975408,1103745,553586.13,974664.06,1102936.12
554855,975667,1103508,553564.75,974656.94,1102929.25
555104,975877,1103583,553555.63,974657.94,1102927.12
555547,975915,1103758,553559.25,974667.44,1102930.25
555172,976261,1104152,553576.25,974685.56,1102939.25
555684,976286,1104088,553606.31,974712.56,1102955.50
555873,976464,1104167,553648.25,974748.25,1102978.25
555990,976753,1104140,553701.38,974792.31,1103006.75
556225,976611,1104107,553765.25,974844.31,1103040.00
556176,976799,1104177,553839.13,974903.50,1103077.37
556377,976864,1104430,553921.81,974969.50,1103118.75
556486,977362,1104728,554012.19,975042.31,1103164.75
556586,977283,1104652,554109.13,975122.50,1103216.25
556855,977392,1104510,554212.75,975209.50,1103272.00
557007,977660,1104839,554323.31,975302.13,1103330.75
557166,977603,1104833,554440.56,975399.94,1103392.25
557153,977630,1104785,554563.63,975502.13,1103456.50
557210,977588,1104816,554691.38,975607.88,1103523.12
557082,978043,1105057,554820.25,975716.50,1103591.75
557580,977992,1105004,554947.63,975828.63,1103662.62
557615,978117,1105046,555076.38,975943.63,1103735.25
556845,978568,1105582,555206.81,976061.63,1103809.00
557765,978377,1105261,555336.19,976182.63,1103883.75
557930,978563,1105286,555466.38,976306.13,1103959.75
558120,978390,1105435,555599.38,976431.00,1104036.75
558200,978671,1105482,555735.00,976556.44,1104114.75
557810,978419,1105284,555871.88,976681.63,1104193.25
557921,977888,1104772,556007.88,976804.38,1104270.00
555612,976395,1103838,556138.63,976920.44,1104340.50
555422,975652,1103360,556256.63,977023.44,1104400.12
554659,975099,1102878,556354.75,977106.19,1104445.00
553767,974685,1102762,556428.88,977165.00,1104473.75
553092,974573,1102739,556475.19,977199.69,1104486.50
552756,974391,1102603,556491.94,977211.13,1104484.75
552523,974364,1102609,556479.56,977200.88,1104469.75
552027,974202,1102522,556439.63,977170.81,1104442.50
551769,973914,1102430,556373.25,977122.38,1104404.50
551511,973863,1102387,556281.38,977056.50,1104356.50
550920,973867,1102777,556165.81,976974.88,1104299.87
551245,973752,1102340,556029.13,976879.25,1104235.62
551315,973627,1102260,555874.00,976771.63,1104165.00
551393,973842,1102348,555703.81,976654.19,1104089.00
551449,974134,1102651,555522.00,976530.13,1104009.50
551547,974109,1102638,555331.75,976402.56,1103928.87
551711,974272,1102573,555136.25,976273.50,1103848.25
550996,974988,1103098,554936.81,976145.38,1103768.37
552365,974809,1102882,554735.44,976021.38,1103691.25
552986,974878,1102986,554538.75,975903.00,1103617.50
553054,975101,1103517,554352.81,975791.25,1103547.75
553803,975737,1103403,554180.38,975688.38,1103483.12
553761,975575,1103264,554024.00,975596.50,1103424.62
553803,975630,1103390,553884.13,975515.50,1103372.25
554020,975885,1103406,553760.00,975445.38,1103326.00
554099,975882,1103630,553651.38,975386.50,1103286.00
554062,975697,1103431,553558.00,975337.94,1103252.50
554415,975699,1103827,553480.13,975298.19,1103224.50
554094,975817,1103599,553416.88,975266.50,1103201.75
554351,975848,1103582,553367.13,975242.56,1103184.25
554619,975958,1103664,553330.31,975226.00,1103171.87
554807,976191,1103803,553306.44,975217.00,1103164.62
554914,976368,1103819,553294.63,975216.13,1103162.62
555162,976586,1104015,553295.63,975223.75,1103166.00
555365,976964,1104154,553309.75,975239.75,1103175.12
555445,976812,1104085,553336.75,975263.38,1103190.00
555630,976995,1104195,553376.00,975295.13,1103210.25
555772,977039,1104994,553427.00,975335.31,1103235.25
555872,977222,1104475,553489.13,975383.50,1103265.50
555985,977179,1104291,553561.38,975439.13,1103300.50
556158,977213,1104424,553643.00,975501.06,1103339.25
556002,977630,1105213,553732.00,975569.19,1103382.00
556410,977757,1104769,553826.31,975644.25,1103430.00
556369,977766,1104678,553926.75,975726.00,1103482.12
556618,977824,1105058,554033.88,975813.19,1103537.12
556574,977947,1104882,554146.75,975905.00,1103594.25
556667,978025,1104963,554264.44,976000.88,1103653.62
556623,977927,1104685,554385.63,976100.06,1103715.00
556426,978131,1104917,554509.38,976202.25,1103777.25
556843,978138,1104954,554635.00,976307.75,1103840.25
557156,978128,1105144,554762.50,976415.00,1103904.12
557091,978817,1105254,554891.88,976522.63,1103969.25
557622,978610,1105069,555023.25,976630.88,1104034.50
557368,978740,1105246,555156.75,976740.63,1104100.25
557433,978757,1105264,555291.50,976851.88,1104166.25
557506,978856,1105489,555424.38,976964.25,1104232.87
557565,978930,1105499,555553.63,977077.19,1104300.50
557654,978826,1105441,555680.81,977190.19,1104368.75
557159,978541,1105158,555807.38,977302.00,1104436.75
557300,977804,1104615,555932.06,977409.81,1104502.00
556345,976916,1104106,556051.00,977508.00,1104560.62
555237,976208,1103489,556157.94,977590.75,1104609.25
553751,975314,1103070,556244.88,977653.38,1104644.75
552999,975046,1102869,556304.75,977692.63,1104665.25
552537,974684,1102775,556333.94,977707.75,1104670.37
551775,974594,1103060,556331.88,977699.75,1104661.75
551555,974449,1102659,556298.63,977670.50,1104641.00
551196,974277,1102518,556234.75,977621.31,1104608.87
551179,974275,1102844,556142.13,977553.75,1104565.25
550937,974275,1102734,556023.63,977470.13,1104511.62
551042,974234,1102592,555882.44,977372.88,1104450.37
550669,974249,1102291,555721.50,977264.19,1104382.50
550327,974153,1102673,555541.44,977146.56,1104308.50
550436,974146,1102442,555342.75,977022.13,1104230.25
550586,974220,1102630,555130.44,976891.94,1104148.87
550699,974693,1102852,554909.69,976757.31,1104065.50
551009,974688,1102729,554684.38,976620.75,1103981.25
551448,974763,1102801,554458.88,976485.31,1103897.75
551725,975027,1102886,554237.44,976353.50,1103816.00
552205,975348,1103152,554022.94,976227.50,1103737.37
552815,975561,1103290,553818.50,976109.75,1103663.50
552839,975844,1103238,553628.56,976001.88,1103595.25
552025,975884,1103594,553455.50,975904.75,1103532.87
553354,975985,1103549,553300.00,975818.63,1103477.25
553458,975911,1103673,553162.75,975743.38,1103428.62
553481,976171,1103685,553043.63,975678.69,1103387.12
553672,976261,1103656,552941.94,975624.88,1103352.12
553810,976198,1103684,552857.50,975581.88,1103323.25
553943,976458,1103727,552789.88,975548.88,1103300.50
553993,976781,1103941,552738.38,975526.06,1103283.75
554299,976667,1103983,552702.63,975513.25,1103273.50
554318,976732,1103940,552682.13,975510.25,1103269.50
554400,977002,1104555,552676.19,975516.25,1103271.12
554678,977009,1104272,552683.94,975530.75,1103278.37
554914,977012,1104370,552705.31,975553.63,1103291.87
554961,977142,1104444,552740.00,975584.81,1103311.62
555068,977488,1104683,552785.13,975624.63,1103337.75
555379,977550,1104483,552838.38,975673.75,1103369.75
555409,977644,1104506,552901.50,975731.50,1103406.75
555708,978061,1105046,552976.13,975796.38,1103447.50
555630,978160,1104970,553061.25,975868.50,1103492.87
556015,978171,1104962,553156.00,975948.00,1103543.12
555993,978184,1104970,553259.88,976034.50,1103597.87
556005,978292,1104899,553371.75,976126.75,1103656.25
556235,978256,1104970,553490.38,976223.75,1103717.00
556263,978583,1105133,553614.94,976324.88,1103780.00
555910,978920,1105232,553744.25,976430.00,1103845.00
556416,978811,1105200,553877.06,976539.13,1103911.75
556427,978690,1105241,554012.63,976651.38,1103980.00
556648,978645,1105433,554150.38,976765.50,1104049.25
556450,978834,1105363,554289.38,976880.44,1104119.25
556877,979075,1105511,554429.13,976996.25,1104190.37
557137,979204,1105531,554570.06,977113.50,1104262.50
556649,979584,1105865,554712.50,977232.44,1104335.87
556821,979565,1105733,554855.00,977353.25,1104411.00
557193,979640,1105678,554996.13,977475.88,1104487.25
557213,979888,1105948,555136.19,977599.88,1104563.25
557375,979598,1105805,555275.25,977724.00,1104639.12
557280,979264,1105470,555412.88,977846.75,1104713.87
556489,978649,1105072,555546.81,977965.00,1104785.25
555348,977029,1103989,555672.75,978072.50,1104849.12
554454,976573,1103525,555784.88,978161.94,1104900.25
553518,975865,1103229,555875.50,978228.81,1104935.75
552696,975604,1103250,555938.56,978271.50,1104954.75
551894,975303,1102940,555970.50,978290.00,1104957.75
551513,975159,1102926,555969.63,978284.88,1104945.87
551434,974993,1102806,555936.88,978257.44,1104920.37
550898,975021,1102855,555872.88,978209.69,1104882.62
550910,974820,1102745,555778.63,978143.75,1104834.25
551043,974925,1102814,555658.75,978061.88,1104776.50
550078,975378,1102923,555516.63,977967.00,1104711.25
550341,974908,1102743,555352.38,977862.25,1104640.00
550487,974900,1102739,555169.94,977748.81,1104563.50
550306,974683,1102776,554974.00,977627.44,1104482.37
550386,974867,1102742,554767.44,977499.44,1104397.50
550422,975043,1102874,554552.94,977367.25,1104310.25
550582,975082,1102843,554333.63,977233.19,1104222.50
550268,975505,1103630,554112.13,977099.38,1104136.50
551715,975669,1103384,553892.88,976968.31,1104055.00
552370,975989,1103558,553682.38,976843.00,1103979.00
552651,976496,1103855,553486.25,976725.81,1103908.50
553067,976428,1103743,553307.31,976618.56,1103844.00
553243,976424,1103843,553147.13,976522.00,1103786.50
553341,976513,1103967,553006.25,976436.25,1103736.00
553463,976490,1103871,552884.13,976360.94,1103692.87
553556,976598,1103955,552780.13,976295.63,1103656.37
553381,976584,1103827,552693.25,976239.88,1103626.00
553076,976736,1104160,552622.38,976193.38,1103600.62
553664,976750,1103836,552566.88,976155.56,1103579.37
553901,976812,1103699,552526.25,976126.50,1103561.87
553752,976873,1103854,552499.75,976105.88,1103548.00
554005,977051,1104107,552485.25,976093.44,1103538.12
554329,976987,1103962,552481.63,976089.13,1103532.75
554306,977085,1103970,552490.25,976092.13,1103531.62
553230,977721,1104620,552509.75,976102.88,1103535.00
554438,977447,1104470,552537.50,976122.13,1103544.50
554822,977437,1104407,552575.00,976149.06,1103560.00
554631,977742,1104719,552623.38,976182.88,1103580.12
555227,977635,1104565,552682.31,976223.38,1103604.75
555293,977784,1104640,552752.00,976269.88,1103633.37
555227,977890,1104634,552831.75,976322.00,1103666.00
555247,977994,1104752,552919.13,976379.63,1103702.00
555540,978119,1104691,553012.25,976442.94,1103741.25
555557,978184,1104627,553111.63,976511.25,1103782.75
555572,978150,1104758,553217.19,976583.63,1103826.00
555448,977976,1104665,553327.38,976658.81,1103870.12
555760,978048,1104639,553441.00,976735.25,1103915.00
555890,977918,1104600,553557.88,976812.00,1103959.87
555633,978039,1104652,553677.25,976888.31,1104004.25
555521,978040,1104856,553796.63,976963.88,1104048.50
555581,978170,1104804,553914.75,977038.69,1104092.87
555926,978494,1104865,554031.94,977112.88,1104137.50
555984,978327,1104796,554149.13,977186.56,1104181.75
556139,978268,1104973,554266.25,977259.63,1104225.62
555989,978401,1105391,554382.88,977331.88,1104269.37
556359,978375,1105071,554498.50,977403.13,1104313.12
556190,978285,1104811,554613.13,977473.06,1104356.50
556000,978068,1104649,554725.88,977540.50,1104398.25
554883,977401,1104605,554833.13,977604.25,1104437.25
554333,976679,1103729,554929.56,977661.56,1104471.62
553406,976016,1103202,555009.81,977706.31,1104497.12
552282,975619,1103105,555068.56,977733.94,1104510.62
550740,975011,1102759,555099.31,977742.50,1104511.25
550378,974766,1102359,555096.69,977730.75,1104498.75
550048,974756,1102482,555059.88,977699.13,1104472.87
549270,974700,1102324,554991.06,977649.75,1104435.00
549473,974405,1102315,554892.50,977584.63,1104386.37
549388,974432,1102332,554766.50,977504.63,1104328.50
549419,974629,1102156,554616.13,977411.50,1104262.50
549030,974319,1102344,554444.56,977307.00,1104190.12
549191,974382,1102318,554254.50,977193.25,1104112.50
548962,974382,1102263,554049.00,977072.13,1104030.75
549116,974471,1102505,553828.88,976945.69,1103946.25
549188,974587,1102394,553595.50,976816.00,1103860.50
549463,974716,1102489,553355.38,976685.19,1103774.50
549845,975346,1103067,553115.25,976555.25,1103689.25
550798,975270,1103091,552880.50,976428.50,1103607.25
551111,975486,1103159,552656.88,976307.69,1103530.50
551524,975762,1103428,552448.38,976195.13,1103459.87
552050,975887,1103358,552257.75,976092.38,1103395.75
552096,976001,1103338,552087.13,976000.13,1103338.75
552223,975911,1103357,551936.69,975918.38,1103288.37
551988,975886,1103508,551805.31,975846.63,1103244.75
552065,975998,1103351,551691.38,975784.38,1103207.50
551981,975869,1103228,551593.19,975730.94,1103175.75
552286,975910,1103683,551510.13,975685.06,1103148.62
552244,976187,1103420,551441.88,975646.63,1103125.75
552374,975972,1103420,551387.75,975615.75,1103107.75
552601,976162,1103358,551347.38,975591.81,1103093.87
552576,976465,1103519,551318.44,975575.00,1103084.00
552996,976432,1103586,551298.75,975566.13,1103078.25
553163,976421,1103572,551291.13,975564.50,1103076.75
553340,977050,1104016,551298.13,975569.56,1103079.25
553474,976807,1103767,551319.19,975581.13,1103086.00
553696,976751,1103762,551353.75,975599.56,1103096.75
553880,976974,1103800,551401.25,975624.75,1103111.37
553890,977075,1104108,551460.81,975656.75,1103129.75
554255,977183,1104110,551531.38,975695.25,1103152.62
554073,977289,1104151,551612.38,975740.25,1103179.75
552991,977491,1104428,551701.75,975791.13,1103210.87
554083,977500,1104214,551797.25,975847.75,1103245.25
554425,977647,1104332,551898.50,975909.88,1103282.50
554656,977605,1104396,552006.13,975977.13,1103323.00
554672,977688,1104174,552120.13,976048.63,1103366.00
554645,977746,1104261,552239.38,976123.63,1103410.25
554826,977638,1104307,552362.50,976201.44,1103455.50
554640,978026,1104343,552488.75,976281.13,1103501.50
554825,977983,1104400,552616.88,976362.69,1103548.50
554978,978002,1104466,552746.31,976446.25,1103596.00
555019,978114,1104856,552876.63,976531.50,1103643.87
555214,978134,1104626,553007.69,976617.88,1103691.62
555343,978255,1104515,553139.44,976705.25,1103739.62
555259,978356,1104681,553271.44,976793.75,1103788.25
555196,978504,1104791,553402.50,976884.00,1103837.50
555547,978357,1104668,553531.88,976976.00,1103887.75
555312,978461,1104769,553659.63,977068.38,1103938.00
555208,978047,1104457,553784.75,977159.38,1103987.75
554087,977035,1103643,553903.75,977245.63,1104034.12
553294,976220,1103335,554010.75,977320.88,1104073.00
552146,975551,1102789,554099.25,977379.50,1104101.50
550229,974789,1102260,554162.75,977417.63,1104117.12
549515,974405,1101991,554194.19,977432.81,1104117.87
549041,974271,1102052,554189.13,977424.50,1104103.50
548533,974680,1101838,554146.63,977394.44,1104075.75
548359,974098,1101884,554068.06,977345.00,1104035.87
548249,974076,1102026,553956.75,977277.94,1103985.37
548124,973923,1101890,553816.63,977195.13,1103926.00
546986,973851,1101796,553649.50,977098.25,1103858.75
547473,973843,1101704,553456.13,976989.13,1103784.12
547456,973871,1101740,553240.81,976869.88,1103703.25
546231,974020,1101979,553007.94,976742.88,1103618.00
547221,973882,1101785,552760.38,976610.50,1103529.75
547233,973719,1101810,552501.25,976473.75,1103439.50
547384,974105,1101998,552234.25,976333.19,1103347.87
547884,974041,1101818,551963.75,976190.88,1103255.75
548265,974160,1102075,551694.88,976049.13,1103164.50
548909,974526,1102208,551432.88,975910.75,1103075.75
549714,975090,1102703,551182.13,975778.75,1102991.50
550188,975367,1102626,550946.75,975656.69,1102914.25
550402,975437,1102705,550731.63,975546.38,1102844.25
550652,975694,1103112,550539.38,975448.19,1102781.25
550684,975636,1102945,550370.13,975361.88,1102726.00
550745,975476,1102802,550223.00,975287.13,1102678.00
550896,975531,1102828,550097.13,975222.88,1102637.00
550866,975681,1102863,549989.63,975168.63,1102602.12
551192,975696,1102856,549897.75,975124.25,1102573.25
551207,975865,1102964,549823.63,975089.56,1102550.00
550166,976466,1103317,549767.00,975065.13,1102532.50
551361,976073,1103137,549725.25,975051.31,1102520.50
551649,975945,1103179,549699.25,975046.88,1102514.37
551990,976140,1103244,549690.63,975050.00,1102514.00
552153,976323,1103272,549699.63,975060.81,1102519.00
552250,976415,1103231,549725.25,975079.38,1102529.12
552314,976338,1103373,549766.38,975105.25,1102543.50
552378,976663,1103604,549819.50,975138.25,1102562.37
552859,976737,1103547,549882.31,975178.75,1102586.25
553004,976805,1103545,549957.13,975226.31,1102614.37
552991,977058,1103801,550045.19,975280.25,1102646.50
553122,977225,1103696,550144.75,975340.88,1102682.50
553191,977171,1103800,550254.25,975407.81,1102722.00
553345,977265,1103807,550372.63,975480.13,1102764.62
552969,977286,1103750,550498.69,975556.75,1102809.75
553399,977312,1103790,550631.06,975637.13,1102856.62
553525,977418,1103947,550768.38,975720.50,1102905.00
553629,977644,1104039,550910.13,975806.25,1102954.87
553788,977486,1103950,551056.19,975894.06,1103005.62
553951,977550,1104043,551205.63,975983.25,1103057.25
553969,977522,1103982,551357.38,976073.25,1103109.75
554247,977681,1104018,551510.88,976163.63,1103162.75
554310,977579,1103958,551666.00,976254.00,1103215.50
554273,977855,1104063,551822.13,976344.19,1103268.00
554140,978456,1104663,551975.75,976435.13,1103320.50
554405,978074,1104248,552123.88,976527.63,1103374.00
554332,978100,1104157,552268.88,976621.13,1103427.87
554280,977923,1104308,552411.88,976714.00,1103480.75
553684,977227,1103628,552550.88,976804.00,1103531.00
553024,976475,1103202,552681.75,976886.38,1103576.00
552240,975927,1102862,552799.50,976956.38,1103613.25
549476,974528,1102061,552898.13,977010.88,1103639.75
548791,974322,1101725,552968.38,977046.50,1103652.37
548025,973932,1101514,553002.00,977059.38,1103649.62
547542,973848,1101565,552995.81,977048.00,1103631.75
546629,973489,1101244,552949.75,977013.38,1103599.50
546475,973367,1101190,552864.13,976957.13,1103554.00
546201,973189,1101188,552741.75,976881.13,1103496.50
545642,973238,1101149,552585.19,976787.50,1103428.75
545559,973048,1101082,552397.00,976678.44,1103352.37
545617,973080,1101014,552181.13,976556.00,1103268.25
545287,973246,1101394,551942.00,976422.38,1103177.75
545218,973096,1101096,551683.00,976279.88,1103082.75
544786,973063,1101014,551406.63,976130.75,1102984.25
545058,972913,1101387,551115.56,975976.31,1102883.12
545551,973204,1101329,550814.63,975818.38,1102780.75
545788,973323,1101488,550510.06,975659.50,1102679.50
546144,973536,1101607,550206.88,975502.38,1102581.50
547124,974202,1102296,549909.44,975349.75,1102488.75
547533,974332,1102033,549623.00,975204.94,1102403.75
548149,974373,1102020,549353.88,975070.13,1102326.50
548238,974517,1102568,549106.63,974946.25,1102256.12
548497,974896,1102175,548882.25,974834.19,1102192.62
548765,974822,1102154,548681.44,974734.88,1102136.00
548698,974766,1102237,548504.19,974647.88,1102086.50
549139,974880,1102337,548348.63,974572.75,1102043.75
549088,974945,1102313,548213.50,974509.63,1102008.00
549318,974970,1102523,548099.69,974457.38,1101979.00
549381,975339,1102660,548007.88,974415.00,1101956.62
549593,975183,1102410,547937.13,974381.75,1101940.37
549753,975296,1102329,547886.75,974358.06,1101929.25
550021,975379,1102559,547856.13,974343.94,1101922.87
549968,975591,1102572,547843.13,974339.31,1101921.50
550250,975690,1102705,547845.50,974344.19,1101925.50
550544,975780,1102692,547864.00,974358.31,1101934.25
549741,976151,1103254,547899.75,974381.19,1101948.00
550654,976140,1102908,547951.50,974412.69,1101966.62
551277,976157,1102980,548018.13,974452.69,1101990.12
551312,976286,1103253,548099.63,974500.63,1102018.25
551551,976436,1103097,548195.50,974556.13,1102050.75
551467,976428,1103028,548304.06,974618.50,1102087.12
551545,976478,1103203,548423.31,974687.00,1102126.50
551721,977118,1103518,548551.56,974760.81,1102169.50
552066,976856,1103234,548688.19,974840.25,1102216.00
552180,976804,1103315,548833.06,974924.75,1102265.25
552139,977111,1103824,548985.19,975013.38,1102316.62
552201,976859,1103478,549142.75,975105.00,1102370.00
552186,977106,1103405,549304.00,975199.13,1102425.00
552220,977040,1103245,549467.63,975295.63,1102480.62
552291,977118,1103441,549631.13,975394.44,1102536.00
552391,977086,1103323,549792.75,975495.50,1102590.75
552543,977183,1103489,549953.38,975597.25,1102645.00
552543,977606,1103975,550113.88,975698.69,1102698.75
552651,977478,1103511,550273.63,975800.00,1102752.00
552727,977466,1103692,550431.94,975901.44,1102805.00
552971,977566,1103679,550588.75,976002.63,1102857.75
553159,977700,1103506,550744.06,976103.38,1102910.25
552934,977232,1103378,550897.13,976202.88,1102960.75
552359,976748,1102981,551046.00,976298.25,1103008.00
549459,975367,1102034,551186.00,976385.25,1103049.25
548637,974487,1101616,551307.31,976457.63,1103080.62
547821,974042,1101432,551398.13,976509.00,1103098.62
546935,973742,1101023,551451.94,976536.63,1103102.00
545126,973211,1100866,551464.75,976540.13,1103090.00
545152,973046,1100695,551433.00,976519.56,1103063.00
544701,972866,1100695,551358.25,976475.94,1103022.25
543282,972824,1100637,551243.38,976411.25,1102969.00
543553,972554,1100512,551090.38,976327.63,1102905.00
543429,972518,1100587,550901.13,976226.63,1102831.25
543027,972635,1100631,550679.00,976110.13,1102749.37
542610,972272,1100349,550426.75,975980.06,1102660.00
542747,972295,1100571,550148.00,975838.31,1102564.75
542280,972401,1100505,549846.63,975687.44,1102465.50
542212,972372,1100596,549525.50,975530.00,1102363.87
541939,972158,1100567,549187.19,975367.50,1102261.00
542161,972491,1100469,548835.94,975201.63,1102157.50
542319,972887,1100959,548476.94,975035.06,1102054.25
543686,973219,1101107,548117.19,974871.38,1101952.75
544185,973236,1101150,547765.63,974713.81,1101856.25
544746,973643,1101135,547429.19,974564.63,1101765.62
545108,973873,1101373,547110.38,974425.81,1101681.50
545567,973853,1101467,546810.63,974298.88,1101604.75
545800,973853,1101491,546534.63,974183.50,1101535.75
545238,974423,1101767,546283.75,974080.13,1101474.75
545976,974074,1101504,546056.13,973989.31,1101421.00
545994,973929,1101339,545852.88,973909.88,1101374.25
546051,973957,1101625,545674.50,973840.19,1101333.25
546349,974117,1101623,545520.25,973779.75,1101298.87
546238,974211,1101776,545389.38,973728.75,1101271.00
546473,974202,1101557,545280.69,973687.00,1101249.50
545952,974501,1101882,545191.56,973654.44,1101233.62
547021,974518,1101774,545120.25,973631.25,1101223.75
547345,974642,1101798,545069.38,973617.38,1101219.00
547588,975039,1101981,545040.94,973612.38,1101219.25
547938,974900,1101951,545034.69,973615.94,1101224.25
548186,974954,1101920,545050.25,973628.13,1101233.50
548355,975066,1102091,545086.75,973648.63,1101247.25
548600,975449,1102422,545142.63,973677.63,1101265.87
548766,975327,1102172,545216.50,973715.25,1101289.62
548866,975493,1102254,545307.13,973760.75,1101317.75
549083,975574,1102603,545413.38,973813.19,1101349.25
549033,975719,1102589,545533.25,973871.88,1101384.25
549325,975736,1102375,545665.19,973936.63,1101422.87
549520,975730,1102423,545808.25,974006.94,1101464.50
549455,975764,1102643,545961.25,974081.69,1101508.50
549763,975848,1102494,546122.56,974160.06,1101554.87
549768,975849,1102592,546291.00,974241.44,1101603.12
548726,976355,1103139,546462.94,974325.75,1101654.00
549594,976265,1102607,546634.06,974413.50,1101708.00
549972,976112,1102760,546805.63,974504.25,1101763.75
549870,976173,1102871,546979.31,974596.44,1101819.75
550217,976194,1102771,547154.63,974689.25,1101876.25
550316,976407,1102775,547331.25,974782.63,1101932.50
550493,976363,1102860,547509.25,974876.38,1101988.50
550108,976390,1102752,547687.63,974970.56,1102043.87
550106,976111,1102737,547864.38,975064.25,1102098.25
549690,975677,1102350,548036.56,975154.75,1102150.00
549178,974369,1101709,548200.50,975238.00,1102197.25
546177,973747,1101036,548347.88,975308.88,1102235.75
545227,973004,1100722,548465.75,975361.00,1102262.00
544168,972707,1100414,548546.00,975390.63,1102274.00
542491,972133,1100093,548584.88,975396.56,1102271.00
541656,971825,1099952,548578.75,975378.50,1102252.75
541059,971763,1099887,548524.44,975336.94,1102219.75
540057,971569,1099815,548422.06,975273.75,1102173.75
539683,971303,1099724,548273.50,975190.44,1102115.75
539093,971368,1099654,548080.00,975088.94,1102047.25
538858,971300,1100155,547844.19,974971.88,1101969.37
538260,971201,1099701,547569.63,974841.56,1101884.00
538122,971172,1099606,547259.88,974700.00,1101792.25
537658,970976,1099567,546919.06,974549.00,1101695.50
537514,971297,1100300,546550.25,974390.88,1101595.25
537591,971345,1099763,546157.38,974229.13,1101493.75
537646,971495,1099914,545747.00,974065.88,1101392.25
538114,971473,1100512,545326.25,973902.63,1101291.25
538748,972023,1100176,544902.38,973741.88,1101192.25
539703,972414,1100315,544483.88,973587.06,1101097.25
540290,972410,1100420,544078.69,973441.13,1101007.50
540533,972889,1100591,543692.88,973305.75,1100924.25
541368,972753,1100646,543330.50,973182.50,1100848.00
541691,972793,1100655,542995.50,973071.13,1100779.25
542072,973331,1100889,542690.38,972970.69,1100717.62
542246,973057,1100637,542416.00,972881.44,1100663.25
542295,972987,1100737,542172.44,972803.44,1100615.25
542395,973000,1100660,541958.38,972736.06,1100573.50
542465,973284,1100812,541770.63,972679.06,1100537.75
542976,973102,1100858,541606.88,972632.25,1100507.87
542641,973211,1100981,541468.88,972595.00,1100484.25
542714,973304,1101239,541357.25,972566.25,1100466.37
543682,973296,1101057,541272.00,972545.50,1100453.75
543873,973430,1101016,541213.81,972532.63,1100446.50
543981,973547,1101360,541181.75,972527.88,1100444.62
544364,973896,1101268,541174.44,972531.50,1100448.25
544585,973957,1101351,541191.00,972544.13,1100457.50
544877,974032,1101237,541230.63,972565.69,1100471.75
545442,974479,1101634,541291.75,972595.63,1100491.00
545563,974405,1101470,541373.06,972634.13,1100515.50
545834,974484,1101733,541474.75,972680.88,1100544.75
545798,974532,1102199,541595.88,972735.25,1100578.50
545822,974944,1102015,541733.63,972797.06,1100617.25
546099,975007,1101998,541885.56,972866.69,1100660.75
546589,974853,1101864,542050.88,972943.38,1100708.75
546631,975161,1102141,542226.63,973026.38,1100760.50
546663,975122,1101935,542408.75,973115.38,1100815.25
546941,975131,1101955,542598.50,973209.13,1100872.25
547104,975617,1102283,542797.50,973306.25,1100930.50
546987,975454,1102238,543004.19,973406.38,1100990.25
547362,975524,1102143,543216.63,973509.63,1101051.50
547447,975584,1102289,543434.00,973615.44,1101114.00
547501,975754,1102461,543655.00,973723.50,1101177.75
547604,975711,1102364,543878.00,973833.31,1101243.00
547667,975997,1102504,544101.81,973944.63,1101309.12
547163,975978,1102430,544326.13,974057.00,1101375.50
547597,975845,1102342,544549.75,974169.50,1101441.50
547527,975317,1102094,544770.13,974279.94,1101505.75
546907,974773,1101118,544983.81,974385.00,1101566.12
544166,973280,1100690,545182.63,974478.88,1101618.75
543004,972675,1100263,545353.63,974554.63,1101659.12
541713,972056,1100014,545487.13,974607.69,1101685.00
539298,971572,1099650,545577.50,974636.56,1101695.25
538437,971258,1099537,545618.69,974640.88,1101690.00
537400,970954,1099425,545604.38,974620.38,1101669.50
536689,970603,1099456,545532.31,974575.63,1101634.75
534886,970386,1099248,545402.00,974507.81,1101586.37
534199,970296,1099094,545212.00,974418.25,1101526.25
533620,970139,1098916,544963.88,974308.88,1101455.25
532803,969842,1098851,544661.88,974182.44,1101374.25
532353,969889,1098890,544310.00,974041.50,1101284.37
531841,969893,1098896,543912.25,973887.50,1101187.50
531572,970076,1099445,543473.19,973722.13,1101085.25
531404,969876,1098986,542998.75,973547.75,1100979.00
531627,969944,1099008,542495.81,973366.94,1100870.75
532102,970194,1099146,541972.75,973182.63,1100761.50
533279,970763,1099513,541438.44,972998.75,1100653.75
534187,970970,1099750,540903.13,972819.38,1100550.00
534741,971296,1099724,540379.00,972647.63,1100452.00
536178,972274,1100218,539874.94,972486.69,1100360.75
536845,972154,1100214,539397.81,972339.63,1100277.62
537451,972251,1100398,538955.94,972208.25,1100203.75
537469,972171,1100448,538553.81,972092.25,1100139.25
537366,972132,1100322,538190.69,971990.50,1100084.00
537838,972077,1100221,537865.13,971901.69,1100036.50
538062,972125,1100177,537577.13,971824.75,1099996.25
537389,972387,1100429,537326.13,971759.63,1099962.50
538799,972312,1100390,537111.50,971706.63,1099935.50
539499,972296,1100569,536934.50,971664.50,1099915.50
539718,972706,1100684,536796.13,971632.38,1099901.87
540080,972792,1100603,536695.63,971610.44,1099894.25
540693,972977,1100780,536632.13,971599.50,1099892.75
540997,972975,1100983,536605.19,971599.50,1099898.12
541525,973475,1101092,536613.44,971610.50,1099910.50
541834,973700,1101189,536655.13,971633.38,1099930.25
542055,973700,1101209,536729.13,971668.31,1099956.62
542169,974195,1101776,536833.19,971714.38,1099989.25
542765,973997,1101449,536965.00,971770.88,1100027.50
542779,974074,1101530,537122.75,971837.13,1100071.75
542872,974139,1101615,537303.56,971911.81,1100121.50
543083,974293,1101608,537502.50,971994.25,1100176.00
543195,974139,1101561,537715.50,972083.25,1100234.50
543418,974118,1101531,537942.13,972177.13,1100296.00
542809,974815,1101906,538180.00,972274.81,1100359.50
543488,974507,1101687,538424.63,972376.31,1100424.75
543727,974505,1101614,538675.88,972481.25,1100491.50
543939,974527,1101760,538934.69,972588.88,1100558.50
544206,974844,1101978,539199.81,972698.50,1100625.75
544447,974921,1101951,539470.44,972810.50,1100694.25
544545,975065,1101973,539745.44,972925.00,1100763.75
544000,975191,1102170,540021.38,973041.63,1100834.37
544900,975446,1102331,540295.00,973160.25,1100906.37
545381,975515,1102310,540568.63,973281.25,1100980.00
545478,975694,1102568,540844.69,973404.63,1101055.00
545202,975775,1102480,541121.63,973530.31,1101130.75
545220,975259,1102097,541396.50,973656.63,1101206.62
544842,974708,1101778,541666.38,973779.81,1101280.25
542340,973241,1100767,541926.50,973893.63,1101347.50
541101,972434,1100253,542166.50,973990.63,1101403.50
539604,971825,1099826,542372.63,974065.13,1101444.75
536952,970866,1099670,542534.69,974114.63,1101469.75
535784,970390,1099440,542644.63,974137.06,1101478.00
534850,970321,1099102,542694.38,974131.00,1101469.87
533641,970083,1099181,542680.38,974097.38,1101446.25
531901,969747,1098800,542601.00,974038.19,1101408.12
531541,969670,1098916,542455.13,973955.00,1101356.25
530620,969406,1098582,542245.50,973849.81,1101291.75
528716,969835,1099259,541973.88,973725.63,1101216.50
529067,969376,1098563,541642.00,973585.75,1101132.37
529150,969261,1098710,541256.75,973432.00,1101040.50
528813,969146,1098722,540827.38,973265.75,1100942.00
528712,969343,1098853,540360.88,973089.50,1100838.75
528739,969271,1098605,539864.13,972905.88,1100732.25
528972,969295,1098838,539344.56,972717.50,1100623.50
529966,969862,1099310,538809.88,972526.75,1100514.75
531042,970134,1099360,538270.19,972337.69,1100409.25
531884,970520,1099570,537738.94,972154.50,1100308.62
532948,971422,1100017,537227.56,971980.75,1100214.50
534073,971388,1100145,536745.00,971819.25,1100128.75
535041,971659,1100253,536299.13,971673.13,1100052.62
535526,971796,1100345,535895.50,971543.75,1099986.87
536404,972042,1100445,535536.25,971431.56,1099931.50
536374,972040,1100407,535221.75,971336.56,1099886.00
536882,972040,1100453,534952.56,971257.88,1099849.87
537057,972094,1100525,534728.13,971193.88,1099822.25
537398,972025,1100466,534546.56,971143.13,1099802.50
537549,972087,1100470,534406.50,971104.81,1099789.87
537730,972082,1101125,534305.81,971078.00,1099783.62
538233,972240,1100577,534242.63,971062.00,1099783.25
538650,972351,1100656,534215.88,971056.38,1099788.50
538941,972447,1100724,534224.44,971060.88,1099799.62
539101,973008,1101316,534264.94,971075.88,1099817.00
539444,973040,1100945,534333.69,971102.25,1099841.00
539860,973030,1100948,534430.50,971139.50,1099870.87
540277,973177,1101510,534555.75,971186.63,1099905.25
540450,973768,1101478,534707.63,971243.63,1099944.87
540910,973850,1101428,534884.25,971311.38,1099990.25
541172,973707,1101521,535083.88,971389.44,1100041.00
540869,974295,1101745,535304.13,971476.63,1100097.00
541600,974174,1101610,535542.00,971572.94,1100157.75
541956,974193,1101642,535796.19,971677.25,1100222.25
542146,974671,1101871,536065.25,971787.63,1100289.62
542416,974403,1101913,536347.44,971902.88,1100359.50
542492,974458,1101749,536640.63,972022.63,1100431.75
542453,974585,1101926,536942.00,972146.25,1100505.75
542568,974544,1102161,537246.25,972272.94,1100581.50
542890,974614,1101977,537549.44,972401.63,1100659.37
542849,974590,1101881,537853.13,972531.13,1100738.00
542680,974958,1101979,538158.31,972660.94,1100816.00
543301,975042,1101990,538463.63,972791.19,1100893.25
543548,974975,1102066,538768.63,972922.00,1100969.75
543556,975157,1102217,539072.38,973053.00,1101045.00
543784,975271,1102316,539373.63,973183.88,1101119.00
543876,975194,1102249,539671.69,973314.38,1101192.25
543982,975084,1102238,539965.50,973443.25,1101264.62
543327,974530,1101937,540253.50,973568.94,1101335.25
542539,973536,1101255,540531.25,973687.63,1101401.25
540861,972831,1100566,540790.13,973792.50,1101458.37
539389,971931,1100186,541019.50,973877.75,1101503.00
536718,970871,1099597,541207.88,973938.38,1101532.25
535491,970284,1099253,541343.94,973970.38,1101544.50
534142,970012,1099138,541421.00,973972.19,1101539.00
531667,969640,1099102,541433.63,973945.44,1101516.75
530645,969266,1098694,541375.75,973891.88,1101478.75
529858,969041,1098711,541246.44,973811.81,1101425.62
528974,969154,1098737,541048.81,973706.19,1101358.50
527541,968554,1098539,540785.00,973577.00,1101278.87
527225,968474,1098436,540457.31,973426.63,1101188.37
526721,968243,1098254,540070.88,973257.31,1101088.25
526284,968198,1098345,539632.25,973071.50,1100979.62
526017,968026,1098381,539147.88,972871.56,1100864.37
525910,968088,1098387,538624.50,972660.00,1100744.25
524894,968380,1098691,538068.94,972439.69,1100621.00
526251,968392,1098474,537488.69,972213.75,1100495.75
527088,968621,1098566,536894.38,971986.13,1100370.25
527926,968911,1099180,536298.06,971760.69,1100246.50
529809,969692,1099355,535712.38,971541.75,1100127.12
530637,970012,1099488,535150.19,971334.06,1100015.25
531481,970066,1099561,534620.94,971140.63,1099912.62
532192,970655,1099846,534130.00,970962.50,1099819.75
532743,970558,1099809,533681.00,970801.06,1099737.50
533227,970521,1099880,533277.13,970656.38,1099665.37
533490,971090,1100229,532919.75,970528.00,1099602.75
533917,970784,1099891,532608.88,970415.50,1099549.00
534238,970881,1099773,532343.75,970318.75,1099503.25
534347,970938,1099808,532123.25,970237.44,1099465.25
534851,970870,1099935,531944.63,970171.19,1099434.25
535208,970999,1099924,531806.19,970119.50,1099410.37
535054,971052,1099945,531707.00,970080.75,1099393.00
535603,971909,1100587,531645.19,970053.88,1099382.00
536261,971542,1100252,531619.75,970038.94,1099377.50
536635,971624,1100305,531630.69,970036.25,1099379.87
536871,971763,1100277,531676.75,970045.69,1099388.50
537355,972075,1100583,531755.19,970066.88,1099403.25
537766,972002,1100627,531864.19,970099.63,1099424.50
538010,972197,1100557,532002.75,970142.88,1099451.75
538416,972856,1100825,532168.38,970196.38,1099484.25
538677,972466,1100782,532358.38,970260.00,1099521.75
538904,972457,1100694,532571.25,970332.38,1099564.00
538956,972531,1101094,532805.25,970412.00,1099609.50
538804,972631,1100996,533056.44,970497.75,1099658.50
539247,972808,1100971,533321.31,970589.25,1099711.00
539512,972752,1100981,533598.19,970685.81,1099766.62
538922,973376,1101564,533885.19,970786.94,1099825.50
539746,973110,1101158,534179.88,970892.63,1099888.50
540264,973280,1101172,534481.06,971002.50,1099954.25
540326,973422,1101373,534788.38,971115.75,1100021.00
540513,973323,1101261,535100.50,971231.31,1100088.62
540672,973366,1101304,535415.56,971348.50,1100156.87
541120,973338,1101370,535732.69,971466.56,1100225.50
541311,973710,1101510,536050.75,971585.25,1100294.50
541333,973849,1101584,536368.13,971705.13,1100364.25
541662,973927,1101692,536684.38,971826.50,1100434.75
541607,974277,1102057,536999.25,971949.13,1100506.00
541215,973902,1101442,537310.25,972072.50,1100576.87
541105,973457,1101129,537613.88,972194.25,1100645.62
540221,972724,1100809,537906.00,972310.50,1100709.75
537529,971167,1099828,538178.25,972414.56,1100766.00
536200,970426,1099520,538417.69,972498.81,1100810.00
534768,970141,1099273,538613.38,972558.88,1100839.50
530947,969912,1099502,538757.31,972594.38,1100854.50
531087,969263,1099117,538841.75,972605.63,1100855.50
530192,968950,1098812,538861.38,972591.75,1100843.12
529405,968809,1098706,538815.44,972553.13,1100817.62
527686,968403,1098610,538704.38,972491.19,1100779.37
527058,968157,1098375,538527.69,972406.88,1100729.37
526708,967961,1098299,538288.38,972301.50,1100668.25
525458,967959,1098512,537989.88,972177.13,1100597.75
525700,967912,1098389,537635.88,972036.75,1100519.37
525459,967957,1098354,537234.38,971883.00,1100435.00
525338,968027,1098900,536794.00,971718.13,1100345.25
525340,967912,1098554,536321.75,971544.63,1100251.75
525471,967932,1098574,535824.69,971364.75,1100156.50
525907,968114,1098648,535310.75,971181.19,1100061.00
527229,968651,1098945,534788.38,970997.38,1099966.62
527935,968885,1099143,534268.00,970817.38,1099875.75
528671,969159,1099117,533760.81,970644.38,1099789.75
530151,969812,1099566,533276.00,970480.63,1099709.12
530749,969859,1099558,532821.25,970328.38,1099635.00
531096,969948,1099582,532403.00,970189.75,1099568.50
531772,970034,1099573,532024.75,970065.63,1099510.00
532347,970340,1099731,531688.81,969956.19,1099459.00
532514,970304,1099700,531396.38,969861.75,1099415.75
532873,970415,1099845,531146.75,969781.94,1099379.75
533196,970997,1100440,530936.88,969716.88,1099352.12
533930,970725,1100234,530764.88,969667.13,1099333.75
534163,970802,1100122,530633.25,969631.50,1099324.00
534136,970903,1100471,530542.38,969608.63,1099321.75
534889,971304,1100467,530489.88,969598.50,1099326.50
535583,971536,1100486,530475.63,969601.69,1099338.87
535868,971587,1100413,530499.63,969618.38,1099358.00
536139,971751,1100457,530559.75,969648.13,1099382.75
536692,971738,1100687,530653.50,969690.13,1099413.00
536952,971811,1100655,530779.50,969742.88,1099448.37
537031,972228,1100996,530935.63,969804.56,1099488.62
537641,972142,1100971,531119.00,969874.75,1099533.37
537984,972078,1100924,531328.13,969952.88,1099582.75
538016,972370,1101109,531560.88,970038.00,1099636.62
538175,972556,1101331,531812.88,970130.00,1099695.00
538359,972591,1101071,532080.06,970228.69,1099757.75
538621,972710,1101186,532361.06,970333.25,1099823.25
538789,972972,1101365,532654.50,970442.75,1099891.25
539053,972940,1101404,532958.19,970556.63,1099962.50
538888,972864,1101284,533269.75,970674.06,1100035.87
539236,972805,1101516,533586.88,970793.75,1100110.00
539656,973079,1101465,533908.25,970914.81,1100184.62
539732,973076,1101435,534233.38,971037.00,1100259.50
539880,973113,1101479,534560.75,971159.75,1100334.37
540025,973323,1102045,534888.44,971282.88,1100409.75
540168,973436,1101793,535214.75,971406.25,1100486.87
540522,973580,1101586,535539.25,971530.06,1100564.50
540635,973661,1102097,535861.75,971654.25,1100641.25
540601,973934,1101956,536181.06,971779.00,1100717.25
540939,973854,1101831,536496.00,971904.25,1100792.75
541046,973904,1102068,536806.00,972029.25,1100867.75
540591,973591,1101725,537109.63,972153.25,1100941.62
539842,972724,1101120,537402.50,972273.13,1101012.12
538651,972022,1100546,537678.00,972383.13,1101075.12
537142,970980,1099968,537927.75,972477.19,1101127.12
534528,969919,1099484,538140.38,972549.75,1101165.00
533224,969574,1099102,538304.13,972596.13,1101186.50
531976,969140,1099174,538411.50,972614.75,1101191.00
529419,968588,1098944,538458.13,972605.63,1101179.75
528726,968367,1098706,538438.88,972568.75,1101153.50
527958,968292,1098688,538351.88,972505.75,1101112.75
525077,968009,1098797,538198.63,972419.00,1101058.87
525605,967859,1098495,537980.50,972310.63,1100993.37
525417,967623,1098503,537699.44,972182.31,1100917.50
525163,967668,1098681,537361.38,972036.19,1100832.75
524759,967700,1098537,536973.44,971875.25,1100740.75
524833,967776,1098491,536542.50,971702.63,1100643.50
525027,967662,1098665,536076.56,971521.25,1100542.25
525272,968146,1098707,535584.13,971333.25,1100438.87
525666,968113,1098809,535073.38,971141.88,1100335.12
526537,968509,1098979,534554.13,970951.00,1100232.50
527527,969213,1099746,534037.25,970764.25,1100133.00
529051,969361,1099603,533534.38,970585.56,1100039.00
529312,969734,1099782,533055.38,970418.44,1099952.75
530379,969910,1099717,532606.63,970265.50,1099875.00
531482,970319,1100089,532192.13,970128.75,1099806.00
531995,970248,1100056,531815.50,970009.38,1099746.25
532084,970056,1099980,531481.38,969905.88,1099695.87
532422,970589,1100254,531191.25,969816.44,1099653.50
532543,970427,1100029,530943.81,969740.88,1099618.25
533077,970500,1100072,530737.88,969679.19,1099590.00
533367,970612,1100017,530572.69,969630.75,1099568.50
534086,970927,1100507,530447.38,969595.63,1099553.75
534456,971093,1100327,530361.00,969574.06,1099546.50
534757,971130,1100539,530313.75,969565.88,1099546.50
535151,971932,1100655,530304.38,969570.63,1099553.50
535562,971632,1100667,530330.69,969588.25,1099567.37
535931,971584,1100895,530391.75,969618.25,1099588.00
536204,971745,1101072,530485.94,969659.50,1099615.25
536303,972086,1101017,530610.63,969711.56,1099648.25
