6756.000000,2958.000000,1935.000000,1547.000000
6757.000000,2959.000000,1936.000000,1547.000000
6759.000000,2959.000000,1936.000000,1547.000000
6763.000000,2961.000000,1938.000000,1548.000000
6768.000000,2963.000000,1939.000000,1549.000000
6769.000000,2963.000000,1940.000000,1549.000000
6770.000000,2963.000000,1940.000000,1549.000000
6772.000000,2964.000000,1941.000000,1550.000000
6775.000000,2965.000000,1942.000000,1550.000000
6775.000000,2964.000000,1942.000000,1550.000000
6774.000000,2964.000000,1942.000000,1550.000000
6774.000000,2963.000000,1942.000000,1550.000000
6772.000000,2963.000000,1942.000000,1549.000000
6769.000000,2962.000000,1941.000000,1549.000000
6765.000000,2961.000000,1939.000000,1548.000000
6762.000000,2960.000000,1937.000000,1548.000000
6759.000000,2959.000000,1936.000000,1547.000000
6756.000000,2958.000000,1935.000000,1547.000000
6756.000000,2959.000000,1935.000000,1547.000000
6755.000000,2958.000000,1934.000000,1547.000000
6755.000000,2958.000000,1934.000000,1547.000000
6756.000000,2958.000000,1934.000000,1547.000000
6756.000000,2958.000000,1935.000000,1547.000000
6757.000000,2959.000000,1935.000000,1547.000000
6756.000000,2958.000000,1934.000000,1547.000000
6756.000000,2958.000000,1934.000000,1547.000000
6759.000000,2960.000000,1936.000000,1548.000000
6760.000000,2960.000000,1936.000000,1548.000000
6761.000000,2960.000000,1936.000000,1548.000000
6762.000000,2960.000000,1937.000000,1548.000000
6763.000000,2960.000000,1937.000000,1548.000000
6764.000000,2961.000000,1938.000000,1548.000000
6765.000000,2961.000000,1938.000000,1549.000000
6766.000000,2961.000000,1939.000000,1549.000000
6763.000000,2959.000000,1938.000000,1548.000000
6766.000000,2960.000000,1939.000000,1548.000000
6768.000000,2961.000000,1940.000000,1549.000000
6771.000000,2961.000000,1941.000000,1549.000000
6772.000000,2962.000000,1942.000000,1549.000000
6772.000000,2962.000000,1942.000000,1549.000000
6773.000000,2962.000000,1942.000000,1549.000000
6772.000000,2962.000000,1942.000000,1549.000000
6767.000000,2960.000000,1940.000000,1548.000000
6762.000000,2959.000000,1937.000000,1547.000000
6759.000000,2958.000000,1936.000000,1547.000000
6757.000000,2958.000000,1935.000000,1547.000000
6756.000000,2957.000000,1935.000000,1547.000000
6754.000000,2957.000000,1934.000000,1546.000000
6755.000000,2957.000000,1934.000000,1547.000000
6757.000000,2958.000000,1935.000000,1547.000000
6757.000000,2957.000000,1935.000000,1547.000000
6758.000000,2958.000000,1935.000000,1548.000000
6757.000000,2957.000000,1935.000000,1547.000000
6756.000000,2957.000000,1934.000000,1547.000000
6757.000000,2957.000000,1935.000000,1547.000000
6757.000000,2957.000000,1935.000000,1547.000000
6759.000000,2958.000000,1935.000000,1548.000000
6759.000000,2958.000000,1936.000000,1548.000000
6760.000000,2958.000000,1936.000000,1548.000000
6763.000000,2959.000000,1937.000000,1548.000000
6765.000000,2960.000000,1938.000000,1549.000000
6766.000000,2960.000000,1938.000000,1549.000000
6769.000000,2961.000000,1940.000000,1549.000000
6773.000000,2962.000000,1941.000000,1550.000000
6776.000000,2963.000000,1942.000000,1551.000000
6778.000000,2964.000000,1943.000000,1551.000000
6778.000000,2963.000000,1943.000000,1551.000000
6779.000000,2963.000000,1944.000000,1551.000000
6780.000000,2964.000000,1944.000000,1551.000000
6776.000000,2962.000000,1943.000000,1551.000000
6769.000000,2960.000000,1941.000000,1549.000000
6764.000000,2958.000000,1938.000000,1548.000000
6759.000000,2957.000000,1936.000000,1547.000000
6756.000000,2956.000000,1935.000000,1547.000000
6753.000000,2955.000000,1934.000000,1546.000000
6753.000000,2955.000000,1934.000000,1546.000000
6753.000000,2955.000000,1934.000000,1546.000000
6753.000000,2955.000000,1934.000000,1546.000000
6753.000000,2955.000000,1934.000000,1546.000000
6754.000000,2956.000000,1934.000000,1546.000000
6753.000000,2955.000000,1934.000000,1546.000000
6753.000000,2955.000000,1934.000000,1546.000000
6754.000000,2955.000000,1934.000000,1546.000000
6754.000000,2955.000000,1934.000000,1546.000000
6757.000000,2956.000000,1935.000000,1547.000000
6757.000000,2956.000000,1935.000000,1547.000000
6757.000000,2956.000000,1936.000000,1547.000000
6758.000000,2957.000000,1936.000000,1547.000000
6759.000000,2957.000000,1937.000000,1548.000000
6761.000000,2957.000000,1938.000000,1548.000000
6763.000000,2957.000000,1939.000000,1548.000000
6765.000000,2958.000000,1939.000000,1548.000000
6766.000000,2958.000000,1939.000000,1549.000000
6768.000000,2958.000000,1940.000000,1549.000000
6769.000000,2958.000000,1941.000000,1549.000000
6772.000000,2959.000000,1942.000000,1549.000000
6774.000000,2960.000000,1943.000000,1550.000000
6775.000000,2960.000000,1943.000000,1550.000000
6774.000000,2960.000000,1943.000000,1550.000000
6769.000000,2958.000000,1941.000000,1549.000000
6769.000000,2959.000000,1940.000000,1549.000000
6765.000000,2958.000000,1939.000000,1548.000000
6762.000000,2957.000000,1937.000000,1548.000000
6761.000000,2956.000000,1937.000000,1548.000000
6761.000000,2956.000000,1937.000000,1548.000000
6761.000000,2956.000000,1937.000000,1548.000000
6763.000000,2957.000000,1938.000000,1548.000000
6760.000000,2956.000000,1937.000000,1548.000000
6760.000000,2955.000000,1937.000000,1547.000000
6761.000000,2956.000000,1937.000000,1548.000000
6760.000000,2955.000000,1937.000000,1548.000000
6761.000000,2955.000000,1937.000000,1548.000000
6761.000000,2956.000000,1937.000000,1548.000000
6763.000000,2956.000000,1938.000000,1548.000000
6766.000000,2957.000000,1939.000000,1548.000000
6768.000000,2957.000000,1940.000000,1549.000000
6769.000000,2958.000000,1940.000000,1549.000000
6774.000000,2960.000000,1942.000000,1550.000000
6773.000000,2959.000000,1942.000000,1550.000000
6774.000000,2959.000000,1942.000000,1550.000000
6775.000000,2959.000000,1943.000000,1550.000000
6778.000000,2960.000000,1944.000000,1550.000000
6779.000000,2960.000000,1945.000000,1551.000000
6782.000000,2961.000000,1946.000000,1551.000000
6782.000000,2961.000000,1946.000000,1551.000000
6782.000000,2960.000000,1946.000000,1551.000000
6781.000000,2961.000000,1946.000000,1551.000000
6775.000000,2958.000000,1943.000000,1550.000000
6772.000000,2958.000000,1942.000000,1550.000000
6769.000000,2957.000000,1940.000000,1549.000000
6766.000000,2956.000000,1939.000000,1549.000000
6765.000000,2956.000000,1938.000000,1548.000000
6763.000000,2955.000000,1938.000000,1548.000000
6764.000000,2955.000000,1938.000000,1548.000000
6765.000000,2956.000000,1938.000000,1549.000000
6764.000000,2955.000000,1938.000000,1548.000000
6768.000000,2957.000000,1939.000000,1549.000000
6765.000000,2956.000000,1938.000000,1548.000000
6767.000000,2957.000000,1939.000000,1549.000000
6766.000000,2957.000000,1938.000000,1549.000000
6766.000000,2957.000000,1939.000000,1549.000000
6767.000000,2957.000000,1939.000000,1549.000000
6768.000000,2957.000000,1939.000000,1549.000000
6770.000000,2957.000000,1940.000000,1550.000000
6769.000000,2957.000000,1940.000000,1549.000000
6770.000000,2956.000000,1940.000000,1549.000000
6768.000000,2955.000000,1940.000000,1549.000000
6769.000000,2956.000000,1940.000000,1549.000000
6771.000000,2956.000000,1941.000000,1549.000000
6769.000000,2956.000000,1941.000000,1549.000000
6771.000000,2956.000000,1941.000000,1549.000000
6769.000000,2955.000000,1941.000000,1549.000000
6766.000000,2955.000000,1939.000000,1549.000000
6762.000000,2954.000000,1938.000000,1548.000000
6758.000000,2953.000000,1936.000000,1548.000000
6750.000000,2951.000000,1933.000000,1546.000000
6745.000000,2949.000000,1931.000000,1545.000000
6742.000000,2949.000000,1929.000000,1545.000000
6739.000000,2948.000000,1928.000000,1544.000000
6733.000000,2946.000000,1926.000000,1542.000000
6728.000000,2944.000000,1924.000000,1541.000000
6723.000000,2943.000000,1923.000000,1540.000000
6722.000000,2943.000000,1923.000000,1539.000000
6714.000000,2940.000000,1920.000000,1537.000000
6706.000000,2938.000000,1918.000000,1535.000000
6700.000000,2936.000000,1916.000000,1533.000000
6702.000000,2937.000000,1916.000000,1533.000000
6697.000000,2935.000000,1915.000000,1532.000000
6697.000000,2936.000000,1915.000000,1532.000000
6696.000000,2935.000000,1914.000000,1531.000000
6699.000000,2935.000000,1916.000000,1532.000000
6702.000000,2935.000000,1917.000000,1532.000000
6704.000000,2936.000000,1917.000000,1533.000000
6710.000000,2938.000000,1919.000000,1534.000000
6712.000000,2938.000000,1920.000000,1534.000000
6716.000000,2939.000000,1922.000000,1535.000000
6718.000000,2940.000000,1922.000000,1536.000000
6719.000000,2940.000000,1923.000000,1536.000000
6723.000000,2941.000000,1924.000000,1538.000000
6720.000000,2940.000000,1922.000000,1537.000000
6717.000000,2939.000000,1920.000000,1537.000000
6718.000000,2939.000000,1920.000000,1539.000000
6712.000000,2936.000000,1918.000000,1538.000000
6712.000000,2936.000000,1918.000000,1539.000000
6713.000000,2936.000000,1918.000000,1540.000000
6712.000000,2935.000000,1917.000000,1541.000000
6713.000000,2936.000000,1917.000000,1541.000000
6713.000000,2936.000000,1917.000000,1541.000000
6712.000000,2935.000000,1917.000000,1541.000000
6709.000000,2934.000000,1916.000000,1540.000000
6706.000000,2933.000000,1915.000000,1539.000000
6703.000000,2933.000000,1915.000000,1539.000000
6701.000000,2932.000000,1914.000000,1538.000000
6695.000000,2931.000000,1913.000000,1536.000000
6695.000000,2931.000000,1913.000000,1536.000000
6695.000000,2931.000000,1913.000000,1535.000000
6686.000000,2929.000000,1910.000000,1532.000000
6683.000000,2929.000000,1909.000000,1531.000000
6684.000000,2930.000000,1910.000000,1531.000000
6671.000000,2927.000000,1906.000000,1526.000000
6664.000000,2926.000000,1904.000000,1523.000000
6669.000000,2927.000000,1905.000000,1524.000000
6664.000000,2926.000000,1904.000000,1522.000000
6664.000000,2927.000000,1904.000000,1521.000000
6665.000000,2929.000000,1907.000000,1524.000000
6674.000000,2929.000000,1909.000000,1526.000000
6679.000000,2930.000000,1908.000000,1526.000000
6677.000000,2929.000000,1906.000000,1526.000000
6675.000000,2928.000000,1906.000000,1526.000000
6674.000000,2928.000000,1906.000000,1527.000000
6676.000000,2929.000000,1906.000000,1527.000000
6682.000000,2931.000000,1907.000000,1529.000000
6686.000000,2932.000000,1908.000000,1530.000000
6691.000000,2933.000000,1909.000000,1532.000000
6694.000000,2934.000000,1910.000000,1533.000000
6699.000000,2935.000000,1912.000000,1534.000000
6703.000000,2936.000000,1913.000000,1535.000000
6704.000000,2936.000000,1914.000000,1536.000000
6707.000000,2936.000000,1915.000000,1536.000000
6706.000000,2936.000000,1915.000000,1536.000000
6707.000000,2936.000000,1915.000000,1537.000000
6710.000000,2937.000000,1916.000000,1537.000000
6713.000000,2937.000000,1917.000000,1538.000000
6718.000000,2939.000000,1919.000000,1539.000000
6717.000000,2938.000000,1919.000000,1539.000000
6719.000000,2939.000000,1920.000000,1539.000000
6721.000000,2939.000000,1921.000000,1539.000000
6722.000000,2940.000000,1921.000000,1539.000000
6723.000000,2940.000000,1922.000000,1539.000000
6726.000000,2940.000000,1923.000000,1540.000000
6729.000000,2941.000000,1924.000000,1541.000000
6734.000000,2942.000000,1926.000000,1542.000000
6735.000000,2943.000000,1927.000000,1542.000000
6734.000000,2942.000000,1926.000000,1542.000000
6731.000000,2941.000000,1925.000000,1542.000000
6726.000000,2940.000000,1923.000000,1541.000000
6724.000000,2939.000000,1922.000000,1541.000000
6722.000000,2939.000000,1921.000000,1541.000000
6723.000000,2939.000000,1921.000000,1541.000000
6719.000000,2938.000000,1919.000000,1540.000000
6717.000000,2937.000000,1919.000000,1540.000000
6719.000000,2938.000000,1919.000000,1540.000000
6721.000000,2938.000000,1920.000000,1541.000000
6721.000000,2938.000000,1920.000000,1541.000000
6722.000000,2938.000000,1920.000000,1541.000000
6723.000000,2938.000000,1921.000000,1541.000000
6722.000000,2938.000000,1920.000000,1541.000000
6723.000000,2939.000000,1921.000000,1541.000000
6724.000000,2939.000000,1921.000000,1541.000000
6727.000000,2941.000000,1923.000000,1542.000000
6730.000000,2941.000000,1923.000000,1542.000000
6731.000000,2940.000000,1924.000000,1543.000000
6735.000000,2942.000000,1926.000000,1543.000000
6735.000000,2942.000000,1926.000000,1543.000000
6736.000000,2942.000000,1927.000000,1543.000000
6736.000000,2941.000000,1927.000000,1543.000000
6738.000000,2941.000000,1928.000000,1544.000000
6740.000000,2941.000000,1929.000000,1544.000000
6742.000000,2942.000000,1930.000000,1545.000000
6744.000000,2942.000000,1931.000000,1545.000000
6744.000000,2942.000000,1931.000000,1545.000000
6738.000000,2941.000000,1929.000000,1544.000000
6734.000000,2939.000000,1927.000000,1543.000000
6730.000000,2938.000000,1925.000000,1543.000000
6728.000000,2938.000000,1925.000000,1543.000000
6726.000000,2937.000000,1924.000000,1542.000000
6725.000000,2937.000000,1923.000000,1542.000000
6724.000000,2936.000000,1923.000000,1541.000000
6727.000000,2937.000000,1924.000000,1542.000000
6725.000000,2936.000000,1923.000000,1542.000000
6726.000000,2937.000000,1924.000000,1542.000000
6725.000000,2936.000000,1924.000000,1542.000000
6724.000000,2936.000000,1924.000000,1541.000000
6724.000000,2936.000000,1924.000000,1541.000000
6723.000000,2936.000000,1924.000000,1541.000000
6724.000000,2936.000000,1924.000000,1541.000000
6725.000000,2936.000000,1925.000000,1541.000000
6726.000000,2936.000000,1925.000000,1541.000000
6729.000000,2937.000000,1926.000000,1541.000000
6731.000000,2938.000000,1927.000000,1541.000000
6732.000000,2937.000000,1928.000000,1541.000000
6733.000000,2938.000000,1929.000000,1542.000000
6735.000000,2938.000000,1930.000000,1542.000000
6741.000000,2940.000000,1932.000000,1543.000000
6747.000000,2942.000000,1934.000000,1544.000000
6750.000000,2943.000000,1935.000000,1545.000000
6752.000000,2943.000000,1936.000000,1545.000000
6749.000000,2942.000000,1935.000000,1545.000000
6749.000000,2942.000000,1935.000000,1545.000000
6744.000000,2940.000000,1933.000000,1544.000000
6743.000000,2940.000000,1932.000000,1544.000000
6743.000000,2940.000000,1932.000000,1544.000000
6738.000000,2938.000000,1931.000000,1543.000000
6738.000000,2938.000000,1931.000000,1543.000000
6739.000000,2938.000000,1931.000000,1544.000000
6740.000000,2938.000000,1931.000000,1544.000000
6741.000000,2938.000000,1932.000000,1544.000000
6741.000000,2938.000000,1932.000000,1544.000000
6743.000000,2939.000000,1932.000000,1545.000000
6743.000000,2939.000000,1932.000000,1545.000000
6743.000000,2939.000000,1933.000000,1545.000000
6744.000000,2939.000000,1933.000000,1545.000000
6745.000000,2939.000000,1934.000000,1545.000000
6747.000000,2940.000000,1934.000000,1545.000000
6749.000000,2940.000000,1935.000000,1546.000000
6750.000000,2941.000000,1936.000000,1546.000000
6752.000000,2941.000000,1937.000000,1546.000000
6755.000000,2942.000000,1938.000000,1546.000000
6756.000000,2943.000000,1939.000000,1547.000000
6760.000000,2944.000000,1940.000000,1547.000000
6762.000000,2944.000000,1941.000000,1548.000000
6763.000000,2944.000000,1941.000000,1548.000000
6765.000000,2945.000000,1942.000000,1548.000000
6763.000000,2945.000000,1941.000000,1548.000000
6758.000000,2943.000000,1939.000000,1547.000000
6756.000000,2942.000000,1938.000000,1547.000000
6755.000000,2942.000000,1937.000000,1547.000000
6755.000000,2942.000000,1936.000000,1547.000000
6753.000000,2942.000000,1936.000000,1547.000000
6752.000000,2941.000000,1936.000000,1546.000000
6751.000000,2941.000000,1936.000000,1546.000000
6752.000000,2942.000000,1937.000000,1547.000000
6755.000000,2943.000000,1937.000000,1548.000000
6757.000000,2944.000000,1938.000000,1547.000000
6756.000000,2943.000000,1937.000000,1547.000000
6756.000000,2943.000000,1937.000000,1547.000000
6757.000000,2943.000000,1938.000000,1548.000000
6756.000000,2943.000000,1938.000000,1547.000000
6758.000000,2943.000000,1939.000000,1548.000000
6758.000000,2943.000000,1939.000000,1548.000000
6759.000000,2943.000000,1939.000000,1548.000000
6762.000000,2943.000000,1940.000000,1548.000000
6762.000000,2943.000000,1941.000000,1548.000000
6764.000000,2943.000000,1942.000000,1548.000000
6764.000000,2943.000000,1942.000000,1548.000000
6767.000000,2944.000000,1943.000000,1549.000000
6768.000000,2944.000000,1944.000000,1549.000000
6772.000000,2946.000000,1945.000000,1550.000000
6773.000000,2945.000000,1946.000000,1549.000000
6773.000000,2945.000000,1946.000000,1550.000000
6771.000000,2945.000000,1945.000000,1549.000000
6768.000000,2944.000000,1944.000000,1549.000000
6764.000000,2943.000000,1942.000000,1548.000000
6762.000000,2942.000000,1941.000000,1548.000000
6760.000000,2942.000000,1940.000000,1547.000000
6759.000000,2941.000000,1940.000000,1547.000000
6758.000000,2941.000000,1939.000000,1547.000000
6758.000000,2941.000000,1940.000000,1547.000000
6758.000000,2941.000000,1940.000000,1547.000000
6759.000000,2941.000000,1940.000000,1547.000000
6760.000000,2942.000000,1941.000000,1547.000000
6759.000000,2941.000000,1940.000000,1547.000000
6759.000000,2941.000000,1940.000000,1547.000000
6760.000000,2941.000000,1941.000000,1547.000000
6761.000000,2941.000000,1941.000000,1548.000000
6763.000000,2942.000000,1942.000000,1548.000000
6765.000000,2942.000000,1943.000000,1548.000000
6769.000000,2944.000000,1944.000000,1549.000000
6771.000000,2944.000000,1945.000000,1549.000000
6774.000000,2945.000000,1946.000000,1550.000000
6774.000000,2945.000000,1946.000000,1550.000000
6776.000000,2945.000000,1947.000000,1550.000000
6779.000000,2946.000000,1948.000000,1551.000000
6781.000000,2947.000000,1949.000000,1551.000000
6782.000000,2947.000000,1950.000000,1551.000000
6777.000000,2945.000000,1948.000000,1550.000000
6774.000000,2944.000000,1947.000000,1550.000000
6769.000000,2942.000000,1945.000000,1549.000000
6768.000000,2942.000000,1944.000000,1549.000000
6764.000000,2941.000000,1943.000000,1548.000000
6765.000000,2942.000000,1943.000000,1548.000000
6763.000000,2941.000000,1943.000000,1548.000000
6764.000000,2941.000000,1943.000000,1548.000000
6764.000000,2941.000000,1943.000000,1548.000000
6765.000000,2941.000000,1944.000000,1548.000000
6768.000000,2942.000000,1945.000000,1549.000000
6768.000000,2942.000000,1945.000000,1549.000000
6768.000000,2942.000000,1945.000000,1549.000000
6769.000000,2942.000000,1945.000000,1549.000000
6768.000000,2942.000000,1945.000000,1549.000000
6770.000000,2942.000000,1946.000000,1549.000000
6775.000000,2944.000000,1947.000000,1550.000000
6772.000000,2943.000000,1947.000000,1549.000000
6775.000000,2943.000000,1948.000000,1550.000000
6776.000000,2944.000000,1949.000000,1550.000000
6778.000000,2944.000000,1949.000000,1550.000000
6780.000000,2945.000000,1950.000000,1551.000000
6782.000000,2945.000000,1951.000000,1551.000000
6784.000000,2945.000000,1952.000000,1552.000000
6787.000000,2946.000000,1953.000000,1552.000000
6786.000000,2946.000000,1953.000000,1552.000000
6783.000000,2945.000000,1951.000000,1551.000000
6778.000000,2943.000000,1949.000000,1550.000000
6774.000000,2943.000000,1947.000000,1550.000000
6771.000000,2942.000000,1946.000000,1549.000000
6768.000000,2942.000000,1945.000000,1549.000000
6767.000000,2942.000000,1944.000000,1549.000000
6764.000000,2940.000000,1943.000000,1548.000000
6765.000000,2941.000000,1943.000000,1548.000000
6766.000000,2941.000000,1943.000000,1549.000000
6764.000000,2940.000000,1943.000000,1548.000000
6765.000000,2941.000000,1943.000000,1548.000000
6762.000000,2939.000000,1943.000000,1548.000000
6763.000000,2940.000000,1943.000000,1548.000000
6762.000000,2939.000000,1943.000000,1548.000000
6764.000000,2940.000000,1943.000000,1548.000000
6764.000000,2940.000000,1943.000000,1548.000000
6764.000000,2940.000000,1944.000000,1548.000000
6767.000000,2941.000000,1945.000000,1549.000000
6768.000000,2941.000000,1945.000000,1549.000000
6770.000000,2941.000000,1946.000000,1549.000000
6771.000000,2941.000000,1946.000000,1549.000000
6775.000000,2943.000000,1948.000000,1550.000000
6775.000000,2942.000000,1948.000000,1550.000000
6777.000000,2943.000000,1949.000000,1550.000000
6779.000000,2943.000000,1950.000000,1551.000000
6779.000000,2943.000000,1950.000000,1551.000000
6776.000000,2942.000000,1949.000000,1550.000000
6772.000000,2941.000000,1947.000000,1549.000000
6766.000000,2940.000000,1945.000000,1548.000000
6762.000000,2939.000000,1943.000000,1548.000000
6758.000000,2938.000000,1941.000000,1547.000000
6759.000000,2938.000000,1941.000000,1547.000000
6757.000000,2938.000000,1940.000000,1547.000000
6757.000000,2938.000000,1940.000000,1547.000000
6756.000000,2937.000000,1940.000000,1547.000000
6757.000000,2938.000000,1940.000000,1547.000000
6757.000000,2938.000000,1940.000000,1547.000000
6758.000000,2938.000000,1941.000000,1547.000000
6757.000000,2938.000000,1940.000000,1547.000000
6760.000000,2939.000000,1941.000000,1547.000000
6763.000000,2940.000000,1943.000000,1548.000000
6763.000000,2940.000000,1943.000000,1549.000000
6765.000000,2940.000000,1943.000000,1549.000000
6765.000000,2940.000000,1944.000000,1549.000000
6766.000000,2940.000000,1944.000000,1549.000000
6766.000000,2940.000000,1944.000000,1549.000000
6768.000000,2940.000000,1945.000000,1549.000000
6769.000000,2940.000000,1946.000000,1549.000000
6768.000000,2940.000000,1946.000000,1549.000000
6769.000000,2940.000000,1946.000000,1549.000000
6771.000000,2940.000000,1947.000000,1549.000000
6776.000000,2942.000000,1949.000000,1550.000000
6780.000000,2943.000000,1950.000000,1551.000000
6779.000000,2943.000000,1950.000000,1551.000000
6775.000000,2942.000000,1948.000000,1550.000000
6767.000000,2939.000000,1945.000000,1549.000000
6763.000000,2938.000000,1943.000000,1548.000000
6759.000000,2937.000000,1941.000000,1547.000000
6757.000000,2937.000000,1941.000000,1547.000000
6754.000000,2936.000000,1940.000000,1546.000000
6751.000000,2935.000000,1938.000000,1546.000000
6748.000000,2934.000000,1938.000000,1545.000000
6748.000000,2934.000000,1938.000000,1545.000000
6748.000000,2933.000000,1938.000000,1545.000000
6748.000000,2933.000000,1938.000000,1545.000000
6747.000000,2933.000000,1938.000000,1545.000000
6747.000000,2933.000000,1938.000000,1545.000000
6748.000000,2933.000000,1938.000000,1545.000000
6749.000000,2933.000000,1938.000000,1545.000000
6749.000000,2933.000000,1939.000000,1545.000000
6751.000000,2934.000000,1939.000000,1546.000000
6754.000000,2934.000000,1940.000000,1546.000000
6759.000000,2936.000000,1942.000000,1547.000000
6764.000000,2938.000000,1944.000000,1549.000000
6768.000000,2939.000000,1945.000000,1549.000000
6771.000000,2940.000000,1947.000000,1550.000000
6770.000000,2940.000000,1947.000000,1550.000000
6771.000000,2940.000000,1947.000000,1550.000000
6775.000000,2941.000000,1949.000000,1551.000000
6773.000000,2940.000000,1948.000000,1550.000000
6769.000000,2939.000000,1946.000000,1550.000000
6765.000000,2938.000000,1944.000000,1549.000000
6758.000000,2936.000000,1942.000000,1548.000000
6756.000000,2936.000000,1941.000000,1547.000000
6749.000000,2934.000000,1938.000000,1546.000000
6748.000000,2933.000000,1937.000000,1546.000000
6747.000000,2933.000000,1937.000000,1546.000000
6748.000000,2933.000000,1937.000000,1546.000000
6747.000000,2933.000000,1937.000000,1545.000000
6745.000000,2932.000000,1937.000000,1545.000000
6745.000000,2932.000000,1937.000000,1545.000000
6745.000000,2932.000000,1937.000000,1545.000000
6746.000000,2932.000000,1937.000000,1545.000000
6747.000000,2933.000000,1938.000000,1546.000000
6749.000000,2933.000000,1938.000000,1546.000000
6750.000000,2934.000000,1939.000000,1546.000000
6749.000000,2933.000000,1939.000000,1546.000000
6750.000000,2933.000000,1939.000000,1546.000000
6749.000000,2932.000000,1939.000000,1546.000000
6750.000000,2932.000000,1940.000000,1546.000000
6754.000000,2933.000000,1941.000000,1547.000000
6755.000000,2933.000000,1942.000000,1547.000000
6758.000000,2934.000000,1943.000000,1547.000000
6760.000000,2935.000000,1944.000000,1548.000000
6761.000000,2935.000000,1945.000000,1548.000000
6764.000000,2936.000000,1946.000000,1548.000000
6766.000000,2936.000000,1946.000000,1549.000000
6763.000000,2935.000000,1945.000000,1548.000000
6759.000000,2934.000000,1944.000000,1548.000000
6754.000000,2933.000000,1941.000000,1547.000000
6749.000000,2932.000000,1939.000000,1546.000000
6745.000000,2931.000000,1938.000000,1545.000000
6742.000000,2930.000000,1936.000000,1545.000000
6739.000000,2929.000000,1935.000000,1544.000000
6740.000000,2930.000000,1935.000000,1544.000000
6742.000000,2931.000000,1936.000000,1545.000000
6742.000000,2930.000000,1936.000000,1545.000000
6743.000000,2931.000000,1936.000000,1545.000000
6741.000000,2930.000000,1936.000000,1544.000000
6744.000000,2931.000000,1937.000000,1545.000000
6744.000000,2931.000000,1937.000000,1545.000000
6742.000000,2930.000000,1936.000000,1545.000000
6742.000000,2930.000000,1937.000000,1545.000000
6742.000000,2929.000000,1937.000000,1544.000000
6744.000000,2930.000000,1938.000000,1545.000000
6746.000000,2930.000000,1938.000000,1545.000000
6748.000000,2931.000000,1940.000000,1546.000000
6749.000000,2931.000000,1940.000000,1546.000000
6751.000000,2931.000000,1941.000000,1546.000000
6754.000000,2932.000000,1942.000000,1547.000000
6756.000000,2933.000000,1943.000000,1547.000000
6758.000000,2933.000000,1944.000000,1547.000000
6759.000000,2933.000000,1944.000000,1547.000000
6761.000000,2934.000000,1946.000000,1548.000000
6763.000000,2934.000000,1946.000000,1548.000000
6763.000000,2934.000000,1946.000000,1548.000000
6760.000000,2933.000000,1945.000000,1547.000000
6754.000000,2931.000000,1943.000000,1546.000000
6750.000000,2930.000000,1941.000000,1546.000000
6744.000000,2929.000000,1939.000000,1545.000000
6740.000000,2928.000000,1937.000000,1544.000000
6738.000000,2928.000000,1936.000000,1544.000000
6737.000000,2927.000000,1936.000000,1543.000000
6736.000000,2927.000000,1935.000000,1543.000000
6737.000000,2927.000000,1935.000000,1543.000000
6736.000000,2927.000000,1936.000000,1543.000000
6737.000000,2927.000000,1936.000000,1543.000000
6738.000000,2928.000000,1936.000000,1543.000000
6738.000000,2928.000000,1936.000000,1544.000000
6740.000000,2928.000000,1937.000000,1544.000000
6741.000000,2929.000000,1937.000000,1544.000000
6747.000000,2931.000000,1939.000000,1545.000000
6748.000000,2931.000000,1940.000000,1546.000000
6750.000000,2932.000000,1941.000000,1546.000000
6750.000000,2932.000000,1941.000000,1546.000000
6752.000000,2932.000000,1942.000000,1546.000000
6753.000000,2933.000000,1943.000000,1547.000000
6755.000000,2933.000000,1944.000000,1547.000000
6757.000000,2933.000000,1944.000000,1547.000000
6755.000000,2932.000000,1944.000000,1547.000000
6755.000000,2932.000000,1944.000000,1547.000000
6757.000000,2932.000000,1945.000000,1547.000000
6758.000000,2932.000000,1945.000000,1547.000000
6758.000000,2932.000000,1945.000000,1547.000000
6755.000000,2931.000000,1944.000000,1546.000000
6749.000000,2929.000000,1942.000000,1545.000000
6745.000000,2928.000000,1940.000000,1545.000000
6740.000000,2927.000000,1938.000000,1544.000000
6737.000000,2926.000000,1937.000000,1543.000000
6735.000000,2925.000000,1936.000000,1543.000000
6733.000000,2925.000000,1935.000000,1543.000000
6731.000000,2924.000000,1935.000000,1543.000000
6733.000000,2924.000000,1935.000000,1543.000000
6732.000000,2924.000000,1935.000000,1543.000000
6733.000000,2924.000000,1935.000000,1543.000000
6734.000000,2925.000000,1936.000000,1543.000000
6732.000000,2924.000000,1935.000000,1543.000000
6734.000000,2924.000000,1936.000000,1543.000000
6735.000000,2924.000000,1936.000000,1543.000000
6736.000000,2924.000000,1937.000000,1543.000000
6738.000000,2925.000000,1938.000000,1544.000000
6740.000000,2926.000000,1939.000000,1544.000000
6740.000000,2925.000000,1939.000000,1544.000000
6742.000000,2926.000000,1940.000000,1544.000000
6744.000000,2926.000000,1941.000000,1545.000000
6745.000000,2927.000000,1941.000000,1545.000000
6747.000000,2927.000000,1942.000000,1545.000000
6749.000000,2927.000000,1943.000000,1545.000000
6756.000000,2930.000000,1945.000000,1547.000000
6757.000000,2930.000000,1946.000000,1547.000000
6760.000000,2931.000000,1947.000000,1547.000000
6760.000000,2931.000000,1947.000000,1547.000000
6760.000000,2931.000000,1947.000000,1547.000000
6756.000000,2930.000000,1946.000000,1547.000000
6750.000000,2928.000000,1944.000000,1546.000000
6743.000000,2926.000000,1941.000000,1544.000000
6737.000000,2924.000000,1938.000000,1543.000000
6732.000000,2923.000000,1937.000000,1542.000000
6728.000000,2922.000000,1935.000000,1542.000000
6727.000000,2921.000000,1934.000000,1542.000000
6726.000000,2921.000000,1934.000000,1541.000000
6726.000000,2921.000000,1934.000000,1541.000000
6726.000000,2921.000000,1934.000000,1541.000000
6725.000000,2921.000000,1934.000000,1541.000000
6725.000000,2921.000000,1934.000000,1541.000000
6725.000000,2921.000000,1934.000000,1541.000000
6724.000000,2921.000000,1934.000000,1541.000000
6725.000000,2921.000000,1934.000000,1541.000000
6726.000000,2921.000000,1934.000000,1541.000000
6728.000000,2922.000000,1935.000000,1541.000000
6731.000000,2923.000000,1936.000000,1542.000000
6731.000000,2922.000000,1937.000000,1542.000000
6732.000000,2922.000000,1938.000000,1542.000000
6736.000000,2924.000000,1939.000000,1543.000000
6737.000000,2924.000000,1940.000000,1543.000000
6741.000000,2925.000000,1941.000000,1544.000000
6742.000000,2925.000000,1942.000000,1544.000000
6744.000000,2925.000000,1942.000000,1544.000000
6748.000000,2926.000000,1944.000000,1545.000000
6749.000000,2926.000000,1945.000000,1545.000000
6751.000000,2927.000000,1945.000000,1545.000000
6751.000000,2927.000000,1946.000000,1545.000000
6749.000000,2926.000000,1945.000000,1545.000000
6743.000000,2925.000000,1942.000000,1544.000000
6738.000000,2924.000000,1940.000000,1543.000000
6737.000000,2924.000000,1939.000000,1543.000000
6736.000000,2924.000000,1938.000000,1543.000000
6733.000000,2923.000000,1937.000000,1543.000000
6728.000000,2922.000000,1935.000000,1542.000000
6727.000000,2921.000000,1935.000000,1541.000000
6726.000000,2921.000000,1935.000000,1541.000000
6726.000000,2921.000000,1935.000000,1541.000000
6726.000000,2921.000000,1935.000000,1541.000000
6724.000000,2920.000000,1934.000000,1541.000000
6724.000000,2920.000000,1934.000000,1541.000000
6725.000000,2920.000000,1934.000000,1541.000000
6726.000000,2920.000000,1935.000000,1541.000000
6728.000000,2921.000000,1936.000000,1542.000000
6728.000000,2921.000000,1936.000000,1542.000000
6730.000000,2921.000000,1937.000000,1542.000000
6733.000000,2922.000000,1938.000000,1542.000000
6735.000000,2923.000000,1939.000000,1543.000000
6737.000000,2923.000000,1940.000000,1543.000000
6739.000000,2924.000000,1941.000000,1543.000000
6741.000000,2924.000000,1942.000000,1544.000000
6744.000000,2925.000000,1943.000000,1544.000000
6746.000000,2925.000000,1944.000000,1545.000000
6749.000000,2926.000000,1945.000000,1545.000000
6752.000000,2927.000000,1946.000000,1546.000000
6754.000000,2928.000000,1947.000000,1546.000000
6754.000000,2928.000000,1947.000000,1546.000000
6751.000000,2927.000000,1946.000000,1546.000000
6747.000000,2926.000000,1944.000000,1545.000000
6741.000000,2924.000000,1942.000000,1544.000000
6736.000000,2923.000000,1940.000000,1543.000000
6733.000000,2922.000000,1939.000000,1542.000000
6730.000000,2921.000000,1937.000000,1542.000000
6728.000000,2921.000000,1937.000000,1542.000000
6728.000000,2921.000000,1936.000000,1542.000000
6729.000000,2922.000000,1937.000000,1542.000000
6729.000000,2921.000000,1937.000000,1542.000000
6731.000000,2922.000000,1938.000000,1542.000000
6735.000000,2924.000000,1939.000000,1543.000000
6736.000000,2924.000000,1939.000000,1543.000000
6734.000000,2924.000000,1939.000000,1543.000000
6737.000000,2924.000000,1939.000000,1543.000000
6738.000000,2925.000000,1940.000000,1544.000000
6740.000000,2925.000000,1941.000000,1544.000000
6740.000000,2925.000000,1941.000000,1544.000000
6740.000000,2924.000000,1941.000000,1544.000000
6740.000000,2924.000000,1942.000000,1544.000000
6740.000000,2924.000000,1942.000000,1544.000000
6742.000000,2924.000000,1944.000000,1545.000000
6746.000000,2926.000000,1944.000000,1546.000000
6750.000000,2927.000000,1945.000000,1546.000000
6750.000000,2927.000000,1946.000000,1546.000000
6756.000000,2929.000000,1948.000000,1547.000000
6757.000000,2929.000000,1948.000000,1547.000000
6760.000000,2930.000000,1950.000000,1547.000000
6762.000000,2930.000000,1951.000000,1548.000000
6762.000000,2930.000000,1951.000000,1548.000000
6761.000000,2930.000000,1950.000000,1548.000000
6757.000000,2928.000000,1948.000000,1547.000000
6751.000000,2927.000000,1946.000000,1546.000000
6747.000000,2926.000000,1944.000000,1546.000000
6743.000000,2925.000000,1943.000000,1545.000000
6739.000000,2924.000000,1941.000000,1544.000000
6738.000000,2924.000000,1941.000000,1544.000000
6736.000000,2923.000000,1940.000000,1543.000000
6734.000000,2922.000000,1940.000000,1543.000000
6734.000000,2922.000000,1940.000000,1543.000000
6732.000000,2921.000000,1939.000000,1542.000000
6732.000000,2921.000000,1939.000000,1542.000000
6731.000000,2921.000000,1939.000000,1542.000000
6732.000000,2921.000000,1939.000000,1542.000000
6732.000000,2921.000000,1939.000000,1542.000000
6735.000000,2922.000000,1940.000000,1543.000000
6735.000000,2922.000000,1941.000000,1543.000000
6738.000000,2923.000000,1942.000000,1544.000000
6742.000000,2924.000000,1943.000000,1544.000000
6746.000000,2926.000000,1944.000000,1545.000000
6750.000000,2927.000000,1946.000000,1546.000000
6750.000000,2927.000000,1946.000000,1546.000000
6753.000000,2928.000000,1947.000000,1546.000000
6756.000000,2929.000000,1949.000000,1547.000000
6757.000000,2929.000000,1949.000000,1547.000000
6758.000000,2929.000000,1950.000000,1547.000000
6758.000000,2928.000000,1950.000000,1547.000000
6758.000000,2928.000000,1950.000000,1547.000000
6760.000000,2929.000000,1951.000000,1547.000000
6760.000000,2928.000000,1951.000000,1547.000000
6756.000000,2927.000000,1950.000000,1547.000000
6749.000000,2926.000000,1947.000000,1545.000000
6742.000000,2924.000000,1944.000000,1544.000000
6738.000000,2923.000000,1942.000000,1543.000000
6739.000000,2924.000000,1942.000000,1543.000000
6736.000000,2922.000000,1941.000000,1543.000000
6736.000000,2922.000000,1941.000000,1543.000000
6736.000000,2922.000000,1942.000000,1543.000000
6738.000000,2923.000000,1942.000000,1543.000000
6738.000000,2923.000000,1942.000000,1543.000000
6737.000000,2922.000000,1942.000000,1543.000000
6737.000000,2923.000000,1942.000000,1543.000000
6739.000000,2923.000000,1943.000000,1544.000000
6738.000000,2923.000000,1942.000000,1543.000000
6740.000000,2923.000000,1943.000000,1544.000000
6743.000000,2924.000000,1945.000000,1545.000000
6743.000000,2924.000000,1945.000000,1544.000000
6746.000000,2925.000000,1946.000000,1545.000000
6748.000000,2925.000000,1947.000000,1545.000000
6752.000000,2926.000000,1948.000000,1546.000000
6754.000000,2927.000000,1949.000000,1547.000000
6755.000000,2927.000000,1950.000000,1547.000000
6758.000000,2928.000000,1951.000000,1547.000000
6762.000000,2929.000000,1952.000000,1548.000000
6767.000000,2931.000000,1954.000000,1549.000000
6769.000000,2931.000000,1955.000000,1549.000000
6770.000000,2932.000000,1955.000000,1550.000000
6771.000000,2932.000000,1956.000000,1550.000000
6768.000000,2931.000000,1954.000000,1549.000000
6762.000000,2929.000000,1952.000000,1548.000000
6757.000000,2928.000000,1950.000000,1547.000000
6753.000000,2927.000000,1949.000000,1546.000000
6747.000000,2925.000000,1946.000000,1545.000000
6746.000000,2925.000000,1946.000000,1545.000000
6747.000000,2925.000000,1946.000000,1545.000000
6746.000000,2925.000000,1946.000000,1545.000000
6748.000000,2925.000000,1947.000000,1545.000000
6748.000000,2925.000000,1947.000000,1545.000000
6748.000000,2925.000000,1947.000000,1545.000000
6749.000000,2925.000000,1947.000000,1545.000000
6749.000000,2925.000000,1948.000000,1545.000000
6751.000000,2926.000000,1948.000000,1546.000000
6751.000000,2926.000000,1949.000000,1546.000000
6752.000000,2926.000000,1949.000000,1546.000000
6754.000000,2926.000000,1950.000000,1546.000000
6756.000000,2927.000000,1951.000000,1547.000000
6757.000000,2927.000000,1951.000000,1547.000000
6759.000000,2928.000000,1952.000000,1547.000000
6761.000000,2928.000000,1953.000000,1547.000000
6764.000000,2929.000000,1954.000000,1548.000000
6767.000000,2929.000000,1955.000000,1548.000000
6768.000000,2929.000000,1956.000000,1549.000000
6771.000000,2930.000000,1957.000000,1549.000000
6774.000000,2931.000000,1958.000000,1550.000000
6776.000000,2932.000000,1959.000000,1550.000000
6776.000000,2931.000000,1959.000000,1550.000000
6772.000000,2930.000000,1958.000000,1550.000000
6766.000000,2928.000000,1955.000000,1549.000000
6760.000000,2927.000000,1953.000000,1548.000000
6755.000000,2926.000000,1951.000000,1547.000000
6755.000000,2926.000000,1950.000000,1547.000000
6756.000000,2927.000000,1950.000000,1547.000000
6758.000000,2928.000000,1951.000000,1548.000000
6757.000000,2927.000000,1951.000000,1547.000000
6758.000000,2927.000000,1951.000000,1547.000000
6758.000000,2927.000000,1951.000000,1547.000000
6757.000000,2927.000000,1951.000000,1547.000000
6756.000000,2927.000000,1950.000000,1547.000000
6754.000000,2926.000000,1950.000000,1547.000000
6754.000000,2927.000000,1950.000000,1547.000000
6756.000000,2926.000000,1950.000000,1546.000000
6753.000000,2926.000000,1950.000000,1546.000000
6754.000000,2925.000000,1950.000000,1546.000000
6754.000000,2925.000000,1950.000000,1547.000000
6755.000000,2925.000000,1951.000000,1547.000000
6757.000000,2926.000000,1952.000000,1547.000000
6757.000000,2926.000000,1952.000000,1547.000000
6759.000000,2926.000000,1952.000000,1547.000000
6759.000000,2926.000000,1953.000000,1547.000000
6761.000000,2927.000000,1954.000000,1548.000000
6763.000000,2927.000000,1955.000000,1548.000000
6764.000000,2927.000000,1955.000000,1548.000000
6764.000000,2927.000000,1955.000000,1548.000000
6762.000000,2927.000000,1955.000000,1548.000000
6756.000000,2925.000000,1952.000000,1547.000000
6749.000000,2923.000000,1949.000000,1546.000000
6743.000000,2921.000000,1947.000000,1544.000000
6739.000000,2920.000000,1945.000000,1544.000000
6736.000000,2919.000000,1943.000000,1543.000000
6733.000000,2919.000000,1942.000000,1543.000000
6732.000000,2918.000000,1942.000000,1542.000000
6732.000000,2918.000000,1942.000000,1543.000000
6730.000000,2918.000000,1941.000000,1542.000000
6731.000000,2918.000000,1942.000000,1542.000000
6731.000000,2918.000000,1941.000000,1542.000000
6731.000000,2918.000000,1942.000000,1542.000000
6732.000000,2918.000000,1942.000000,1543.000000
6731.000000,2918.000000,1942.000000,1542.000000
6735.000000,2919.000000,1943.000000,1543.000000
6738.000000,2920.000000,1944.000000,1544.000000
6738.000000,2920.000000,1944.000000,1544.000000
6740.000000,2921.000000,1945.000000,1544.000000
6743.000000,2921.000000,1946.000000,1545.000000
6744.000000,2922.000000,1947.000000,1545.000000
6745.000000,2922.000000,1947.000000,1545.000000
6747.000000,2922.000000,1948.000000,1545.000000
6747.000000,2922.000000,1948.000000,1545.000000
6746.000000,2921.000000,1948.000000,1545.000000
6747.000000,2921.000000,1949.000000,1545.000000
6747.000000,2921.000000,1949.000000,1545.000000
6744.000000,2920.000000,1947.000000,1545.000000
6737.000000,2919.000000,1945.000000,1544.000000
6730.000000,2917.000000,1942.000000,1542.000000
6724.000000,2915.000000,1939.000000,1541.000000
6720.000000,2914.000000,1938.000000,1541.000000
6716.000000,2913.000000,1936.000000,1540.000000
6713.000000,2912.000000,1935.000000,1539.000000
6714.000000,2913.000000,1935.000000,1539.000000
6714.000000,2912.000000,1935.000000,1539.000000
6714.000000,2913.000000,1935.000000,1540.000000
6713.000000,2912.000000,1935.000000,1539.000000
6715.000000,2913.000000,1936.000000,1540.000000
6714.000000,2912.000000,1935.000000,1539.000000
6714.000000,2912.000000,1935.000000,1539.000000
6714.000000,2912.000000,1935.000000,1539.000000
6716.000000,2913.000000,1936.000000,1540.000000
6717.000000,2913.000000,1937.000000,1540.000000
6719.000000,2914.000000,1937.000000,1540.000000
6721.000000,2914.000000,1938.000000,1541.000000
6722.000000,2914.000000,1939.000000,1541.000000
6726.000000,2915.000000,1940.000000,1541.000000
6727.000000,2915.000000,1941.000000,1542.000000
6729.000000,2916.000000,1941.000000,1542.000000
6730.000000,2916.000000,1942.000000,1542.000000
6733.000000,2917.000000,1943.000000,1543.000000
6737.000000,2919.000000,1945.000000,1543.000000
6736.000000,2919.000000,1944.000000,1544.000000
6731.000000,2917.000000,1942.000000,1543.000000
6725.000000,2916.000000,1939.000000,1542.000000
6718.000000,2914.000000,1937.000000,1540.000000
6712.000000,2912.000000,1934.000000,1539.000000
6709.000000,2911.000000,1933.000000,1538.000000
6706.000000,2911.000000,1932.000000,1538.000000
6702.000000,2909.000000,1931.000000,1537.000000
6701.000000,2909.000000,1930.000000,1537.000000
6702.000000,2909.000000,1931.000000,1537.000000
6704.000000,2909.000000,1931.000000,1537.000000
6705.000000,2910.000000,1932.000000,1538.000000
6704.000000,2909.000000,1932.000000,1538.000000
6705.000000,2910.000000,1932.000000,1538.000000
6706.000000,2910.000000,1932.000000,1538.000000
6707.000000,2910.000000,1933.000000,1538.000000
6708.000000,2910.000000,1933.000000,1538.000000
6711.000000,2911.000000,1934.000000,1539.000000
6714.000000,2912.000000,1935.000000,1539.000000
6715.000000,2912.000000,1936.000000,1539.000000
6716.000000,2912.000000,1937.000000,1540.000000
6718.000000,2913.000000,1937.000000,1540.000000
6721.000000,2913.000000,1939.000000,1540.000000
6722.000000,2913.000000,1939.000000,1541.000000
6725.000000,2915.000000,1940.000000,1541.000000
6726.000000,2915.000000,1941.000000,1541.000000
6726.000000,2915.000000,1941.000000,1541.000000
6724.000000,2914.000000,1940.000000,1541.000000
6720.000000,2913.000000,1938.000000,1540.000000
6714.000000,2911.000000,1936.000000,1539.000000
6709.000000,2910.000000,1933.000000,1538.000000
6705.000000,2909.000000,1932.000000,1538.000000
6703.000000,2909.000000,1931.000000,1537.000000
6701.000000,2908.000000,1930.000000,1537.000000
6702.000000,2909.000000,1930.000000,1537.000000
6706.000000,2910.000000,1932.000000,1538.000000
6706.000000,2910.000000,1932.000000,1538.000000
6707.000000,2911.000000,1932.000000,1538.000000
6707.000000,2910.000000,1932.000000,1538.000000
6706.000000,2910.000000,1932.000000,1538.000000
6706.000000,2910.000000,1932.000000,1538.000000
6708.000000,2911.000000,1933.000000,1538.000000
6709.000000,2911.000000,1933.000000,1538.000000
6709.000000,2910.000000,1933.000000,1538.000000
6708.000000,2910.000000,1933.000000,1538.000000
6708.000000,2910.000000,1934.000000,1538.000000
6709.000000,2910.000000,1935.000000,1539.000000
6711.000000,2910.000000,1936.000000,1539.000000
6713.000000,2911.000000,1936.000000,1539.000000
6715.000000,2911.000000,1937.000000,1540.000000
6717.000000,2912.000000,1938.000000,1540.000000
6718.000000,2912.000000,1938.000000,1540.000000
6720.000000,2912.000000,1939.000000,1540.000000
6722.000000,2913.000000,1940.000000,1540.000000
6722.000000,2913.000000,1940.000000,1540.000000
6717.000000,2911.000000,1938.000000,1540.000000
6711.000000,2910.000000,1936.000000,1539.000000
6705.000000,2908.000000,1933.000000,1537.000000
6700.000000,2907.000000,1931.000000,1537.000000
6696.000000,2906.000000,1929.000000,1536.000000
6695.000000,2905.000000,1929.000000,1535.000000
6694.000000,2905.000000,1928.000000,1535.000000
6693.000000,2905.000000,1928.000000,1535.000000
6694.000000,2905.000000,1929.000000,1535.000000
6694.000000,2905.000000,1929.000000,1535.000000
6694.000000,2905.000000,1929.000000,1535.000000
6695.000000,2905.000000,1929.000000,1535.000000
6696.000000,2905.000000,1930.000000,1535.000000
6698.000000,2905.000000,1930.000000,1536.000000
6699.000000,2906.000000,1931.000000,1536.000000
6701.000000,2906.000000,1932.000000,1536.000000
6703.000000,2906.000000,1933.000000,1537.000000
6706.000000,2907.000000,1934.000000,1537.000000
6712.000000,2910.000000,1936.000000,1539.000000
6715.000000,2910.000000,1937.000000,1539.000000
6717.000000,2911.000000,1938.000000,1539.000000
6719.000000,2911.000000,1939.000000,1540.000000
6720.000000,2911.000000,1940.000000,1540.000000
6723.000000,2912.000000,1941.000000,1541.000000
6726.000000,2913.000000,1942.000000,1541.000000
6726.000000,2912.000000,1942.000000,1541.000000
6726.000000,2912.000000,1943.000000,1541.000000
6723.000000,2911.000000,1942.000000,1541.000000
6715.000000,2909.000000,1939.000000,1539.000000
6709.000000,2907.000000,1936.000000,1538.000000
6704.000000,2906.000000,1934.000000,1537.000000
6701.000000,2905.000000,1933.000000,1536.000000
6701.000000,2905.000000,1932.000000,1536.000000
6700.000000,2905.000000,1932.000000,1536.000000
6700.000000,2905.000000,1932.000000,1536.000000
6704.000000,2906.000000,1933.000000,1537.000000
6704.000000,2906.000000,1934.000000,1537.000000
6703.000000,2905.000000,1933.000000,1537.000000
6704.000000,2906.000000,1934.000000,1537.000000
6704.000000,2906.000000,1934.000000,1537.000000
6705.000000,2906.000000,1934.000000,1537.000000
6707.000000,2906.000000,1935.000000,1537.000000
6708.000000,2906.000000,1936.000000,1538.000000
6709.000000,2907.000000,1936.000000,1538.000000
6711.000000,2907.000000,1937.000000,1538.000000
6713.000000,2908.000000,1938.000000,1539.000000
6715.000000,2908.000000,1939.000000,1539.000000
6714.000000,2908.000000,1939.000000,1539.000000
6715.000000,2908.000000,1939.000000,1539.000000
6718.000000,2909.000000,1940.000000,1539.000000
6719.000000,2909.000000,1941.000000,1540.000000
6722.000000,2910.000000,1942.000000,1540.000000
6720.000000,2909.000000,1941.000000,1540.000000
6717.000000,2908.000000,1940.000000,1539.000000
6715.000000,2908.000000,1939.000000,1539.000000
6713.000000,2908.000000,1937.000000,1539.000000
6708.000000,2907.000000,1935.000000,1538.000000
6704.000000,2905.000000,1934.000000,1537.000000
6704.000000,2906.000000,1934.000000,1537.000000
6703.000000,2905.000000,1933.000000,1537.000000
6705.000000,2906.000000,1934.000000,1537.000000
6706.000000,2906.000000,1934.000000,1537.000000
6704.000000,2905.000000,1934.000000,1537.000000
6705.000000,2905.000000,1934.000000,1537.000000
6706.000000,2905.000000,1935.000000,1537.000000
6706.000000,2905.000000,1935.000000,1538.000000
6708.000000,2906.000000,1936.000000,1538.000000
6709.000000,2906.000000,1936.000000,1538.000000
6711.000000,2907.000000,1937.000000,1538.000000
6714.000000,2907.000000,1938.000000,1539.000000
6717.000000,2908.000000,1939.000000,1539.000000
6718.000000,2908.000000,1940.000000,1540.000000
6721.000000,2909.000000,1941.000000,1540.000000
6725.000000,2910.000000,1943.000000,1541.000000
6725.000000,2910.000000,1943.000000,1541.000000
6728.000000,2911.000000,1944.000000,1541.000000
6730.000000,2911.000000,1945.000000,1542.000000
6733.000000,2912.000000,1947.000000,1542.000000
6734.000000,2912.000000,1947.000000,1542.000000
6732.000000,2912.000000,1946.000000,1542.000000
6727.000000,2910.000000,1944.000000,1541.000000
6722.000000,2909.000000,1942.000000,1540.000000
6715.000000,2907.000000,1939.000000,1539.000000
6711.000000,2906.000000,1937.000000,1538.000000
6706.000000,2905.000000,1935.000000,1537.000000
6704.000000,2904.000000,1934.000000,1537.000000
6702.000000,2904.000000,1934.000000,1536.000000
6702.000000,2904.000000,1934.000000,1537.000000
6704.000000,2904.000000,1934.000000,1537.000000
6705.000000,2904.000000,1935.000000,1537.000000
6706.000000,2905.000000,1935.000000,1537.000000
6710.000000,2906.000000,1937.000000,1538.000000
6714.000000,2908.000000,1938.000000,1539.000000
6715.000000,2908.000000,1938.000000,1539.000000
6717.000000,2909.000000,1939.000000,1540.000000
6718.000000,2909.000000,1940.000000,1540.000000
6721.000000,2909.000000,1941.000000,1540.000000
6723.000000,2910.000000,1942.000000,1541.000000
6725.000000,2910.000000,1942.000000,1541.000000
6725.000000,2910.000000,1943.000000,1541.000000
6725.000000,2909.000000,1943.000000,1541.000000
6724.000000,2910.000000,1944.000000,1541.000000
6727.000000,2910.000000,1945.000000,1541.000000
6728.000000,2910.000000,1946.000000,1542.000000
6732.000000,2911.000000,1946.000000,1542.000000
6733.000000,2911.000000,1947.000000,1542.000000
6732.000000,2911.000000,1946.000000,1542.000000
6727.000000,2909.000000,1945.000000,1541.000000
6722.000000,2908.000000,1942.000000,1540.000000
6711.000000,2905.000000,1938.000000,1538.000000
6707.000000,2904.000000,1936.000000,1537.000000
6702.000000,2903.000000,1934.000000,1536.000000
6700.000000,2903.000000,1933.000000,1536.000000
6699.000000,2902.000000,1933.000000,1536.000000
6701.000000,2903.000000,1933.000000,1537.000000
6701.000000,2903.000000,1934.000000,1537.000000
6701.000000,2903.000000,1933.000000,1536.000000
6699.000000,2902.000000,1933.000000,1536.000000
6701.000000,2903.000000,1934.000000,1537.000000
6706.000000,2904.000000,1935.000000,1538.000000
6707.000000,2904.000000,1936.000000,1538.000000
6707.000000,2904.000000,1936.000000,1538.000000
6709.000000,2904.000000,1937.000000,1538.000000
6710.000000,2904.000000,1937.000000,1538.000000
6712.000000,2905.000000,1938.000000,1539.000000
6713.000000,2905.000000,1939.000000,1539.000000
6715.000000,2906.000000,1940.000000,1539.000000
6720.000000,2907.000000,1941.000000,1540.000000
6725.000000,2909.000000,1943.000000,1541.000000
6729.000000,2910.000000,1945.000000,1542.000000
6730.000000,2910.000000,1945.000000,1542.000000
6731.000000,2910.000000,1946.000000,1542.000000
6733.000000,2911.000000,1947.000000,1542.000000
6730.000000,2910.000000,1946.000000,1542.000000
6727.000000,2909.000000,1944.000000,1541.000000
6718.000000,2906.000000,1941.000000,1539.000000
6710.000000,2904.000000,1938.000000,1538.000000
6705.000000,2902.000000,1936.000000,1537.000000
6701.000000,2901.000000,1934.000000,1536.000000
6698.000000,2900.000000,1933.000000,1536.000000
6698.000000,2900.000000,1933.000000,1536.000000
6698.000000,2900.000000,1933.000000,1536.000000
6698.000000,2900.000000,1933.000000,1536.000000
6699.000000,2900.000000,1934.000000,1536.000000
6699.000000,2901.000000,1934.000000,1536.000000
6700.000000,2901.000000,1934.000000,1536.000000
6701.000000,2901.000000,1934.000000,1536.000000
6702.000000,2901.000000,1935.000000,1536.000000
6704.000000,2902.000000,1936.000000,1537.000000
6705.000000,2902.000000,1936.000000,1537.000000
6708.000000,2903.000000,1937.000000,1537.000000
6711.000000,2904.000000,1939.000000,1538.000000
6711.000000,2903.000000,1939.000000,1538.000000
6714.000000,2904.000000,1940.000000,1539.000000
6716.000000,2905.000000,1941.000000,1539.000000
6718.000000,2905.000000,1942.000000,1539.000000
6721.000000,2906.000000,1943.000000,1540.000000
6722.000000,2906.000000,1944.000000,1540.000000
6725.000000,2907.000000,1945.000000,1540.000000
6729.000000,2908.000000,1946.000000,1541.000000
6729.000000,2908.000000,1947.000000,1541.000000
6724.000000,2906.000000,1944.000000,1540.000000
6717.000000,2905.000000,1942.000000,1539.000000
6710.000000,2903.000000,1939.000000,1538.000000
6707.000000,2902.000000,1937.000000,1537.000000
6706.000000,2902.000000,1936.000000,1537.000000
6706.000000,2902.000000,1936.000000,1537.000000
6705.000000,2902.000000,1936.000000,1537.000000
6705.000000,2902.000000,1936.000000,1537.000000
6704.000000,2902.000000,1936.000000,1537.000000
6705.000000,2902.000000,1936.000000,1537.000000
6706.000000,2902.000000,1936.000000,1537.000000
6705.000000,2902.000000,1936.000000,1537.000000
6705.000000,2901.000000,1936.000000,1537.000000
6703.000000,2901.000000,1936.000000,1536.000000
6705.000000,2901.000000,1937.000000,1537.000000
6706.000000,2901.000000,1937.000000,1537.000000
6708.000000,2902.000000,1938.000000,1537.000000
6711.000000,2903.000000,1939.000000,1538.000000
6712.000000,2903.000000,1940.000000,1538.000000
6715.000000,2903.000000,1941.000000,1539.000000
6719.000000,2904.000000,1942.000000,1539.000000
6719.000000,2904.000000,1943.000000,1539.000000
6722.000000,2905.000000,1944.000000,1540.000000
6723.000000,2905.000000,1945.000000,1540.000000
6725.000000,2906.000000,1945.000000,1540.000000
6724.000000,2906.000000,1945.000000,1540.000000
6720.000000,2904.000000,1944.000000,1539.000000
6715.000000,2903.000000,1941.000000,1539.000000
6708.000000,2902.000000,1938.000000,1537.000000
6703.000000,2900.000000,1936.000000,1536.000000
6698.000000,2899.000000,1934.000000,1535.000000
6694.000000,2898.000000,1933.000000,1535.000000
6691.000000,2897.000000,1932.000000,1534.000000
6689.000000,2896.000000,1931.000000,1533.000000
6691.000000,2897.000000,1931.000000,1534.000000
6692.000000,2897.000000,1932.000000,1534.000000
6692.000000,2897.000000,1932.000000,1534.000000
6692.000000,2897.000000,1932.000000,1534.000000
6691.000000,2897.000000,1932.000000,1534.000000
6692.000000,2897.000000,1932.000000,1534.000000
6696.000000,2899.000000,1933.000000,1535.000000
6700.000000,2900.000000,1935.000000,1535.000000
6703.000000,2901.000000,1936.000000,1536.000000
6705.000000,2901.000000,1937.000000,1536.000000
6708.000000,2903.000000,1938.000000,1537.000000
6708.000000,2902.000000,1938.000000,1537.000000
6713.000000,2904.000000,1940.000000,1538.000000
6713.000000,2903.000000,1940.000000,1537.000000
6717.000000,2905.000000,1942.000000,1538.000000
6717.000000,2903.000000,1941.000000,1537.000000
6714.000000,2903.000000,1942.000000,1538.000000
6716.000000,2904.000000,1943.000000,1538.000000
6718.000000,2904.000000,1943.000000,1538.000000
6717.000000,2904.000000,1942.000000,1537.000000
6714.000000,2903.000000,1942.000000,1536.000000
6709.000000,2901.000000,1940.000000,1535.000000
6701.000000,2899.000000,1936.000000,1535.000000
6694.000000,2897.000000,1933.000000,1534.000000
6688.000000,2895.000000,1931.000000,1533.000000
6684.000000,2894.000000,1929.000000,1532.000000
6681.000000,2894.000000,1928.000000,1531.000000
6679.000000,2893.000000,1927.000000,1531.000000
6677.000000,2892.000000,1926.000000,1531.000000
6678.000000,2892.000000,1927.000000,1531.000000
6680.000000,2893.000000,1928.000000,1531.000000
6680.000000,2893.000000,1928.000000,1531.000000
6680.000000,2893.000000,1928.000000,1531.000000
6680.000000,2893.000000,1928.000000,1531.000000
6681.000000,2893.000000,1928.000000,1531.000000
6681.000000,2893.000000,1928.000000,1531.000000
6682.000000,2893.000000,1929.000000,1531.000000
6685.000000,2894.000000,1930.000000,1532.000000
6688.000000,2895.000000,1931.000000,1533.000000
6690.000000,2895.000000,1932.000000,1533.000000
6691.000000,2895.000000,1933.000000,1533.000000
6694.000000,2896.000000,1934.000000,1534.000000
6696.000000,2896.000000,1935.000000,1534.000000
6698.000000,2897.000000,1936.000000,1534.000000
6704.000000,2899.000000,1938.000000,1535.000000
6706.000000,2900.000000,1939.000000,1536.000000
6708.000000,2900.000000,1940.000000,1536.000000
6710.000000,2901.000000,1941.000000,1536.000000
6710.000000,2901.000000,1941.000000,1536.000000
6705.000000,2899.000000,1939.000000,1535.000000
6699.000000,2898.000000,1936.000000,1534.000000
6690.000000,2895.000000,1932.000000,1532.000000
6682.000000,2893.000000,1929.000000,1531.000000
6678.000000,2892.000000,1928.000000,1530.000000
6673.000000,2890.000000,1926.000000,1529.000000
6670.000000,2890.000000,1925.000000,1529.000000
6670.000000,2890.000000,1925.000000,1529.000000
6669.000000,2889.000000,1925.000000,1529.000000
6671.000000,2890.000000,1925.000000,1529.000000
6671.000000,2890.000000,1925.000000,1529.000000
6672.000000,2890.000000,1926.000000,1529.000000
6675.000000,2891.000000,1927.000000,1530.000000
6674.000000,2890.000000,1927.000000,1530.000000
6675.000000,2891.000000,1927.000000,1530.000000
6678.000000,2891.000000,1928.000000,1530.000000
6679.000000,2891.000000,1929.000000,1531.000000
6682.000000,2892.000000,1930.000000,1531.000000
6684.000000,2893.000000,1930.000000,1532.000000
6686.000000,2893.000000,1932.000000,1532.000000
6689.000000,2894.000000,1933.000000,1533.000000
6691.000000,2894.000000,1934.000000,1533.000000
6695.000000,2896.000000,1935.000000,1533.000000
6697.000000,2896.000000,1936.000000,1534.000000
6699.000000,2896.000000,1937.000000,1534.000000
6701.000000,2897.000000,1938.000000,1535.000000
6703.000000,2898.000000,1939.000000,1535.000000
6704.000000,2898.000000,1939.000000,1535.000000
6705.000000,2898.000000,1940.000000,1535.000000
6699.000000,2896.000000,1937.000000,1534.000000
6692.000000,2894.000000,1934.000000,1533.000000
6688.000000,2894.000000,1932.000000,1533.000000
6686.000000,2894.000000,1931.000000,1532.000000
6683.000000,2893.000000,1929.000000,1532.000000
6678.000000,2892.000000,1928.000000,1531.000000
6676.000000,2891.000000,1927.000000,1530.000000
6677.000000,2891.000000,1927.000000,1530.000000
6679.000000,2892.000000,1928.000000,1531.000000
6676.000000,2891.000000,1927.000000,1530.000000
6678.000000,2891.000000,1928.000000,1531.000000
6676.000000,2890.000000,1927.000000,1530.000000
6678.000000,2891.000000,1928.000000,1531.000000
6677.000000,2890.000000,1928.000000,1530.000000
6678.000000,2891.000000,1928.000000,1530.000000
6680.000000,2891.000000,1929.000000,1531.000000
6681.000000,2891.000000,1930.000000,1531.000000
6684.000000,2892.000000,1931.000000,1532.000000
6686.000000,2893.000000,1932.000000,1532.000000
6689.000000,2893.000000,1933.000000,1533.000000
6693.000000,2895.000000,1934.000000,1533.000000
6694.000000,2895.000000,1935.000000,1534.000000
6697.000000,2895.000000,1936.000000,1534.000000
6698.000000,2896.000000,1937.000000,1534.000000
6701.000000,2896.000000,1938.000000,1534.000000
6702.000000,2896.000000,1939.000000,1535.000000
6705.000000,2897.000000,1940.000000,1535.000000
6702.000000,2896.000000,1939.000000,1535.000000
6698.000000,2895.000000,1937.000000,1534.000000
6689.000000,2893.000000,1933.000000,1533.000000
6683.000000,2892.000000,1931.000000,1532.000000
6678.000000,2890.000000,1929.000000,1531.000000
6676.000000,2890.000000,1927.000000,1530.000000
6673.000000,2889.000000,1926.000000,1530.000000
6673.000000,2889.000000,1926.000000,1530.000000
6673.000000,2889.000000,1926.000000,1530.000000
6675.000000,2890.000000,1927.000000,1530.000000
6675.000000,2890.000000,1927.000000,1530.000000
6676.000000,2890.000000,1928.000000,1530.000000
6678.000000,2891.000000,1928.000000,1531.000000
6681.000000,2892.000000,1929.000000,1531.000000
6682.000000,2892.000000,1929.000000,1531.000000
6686.000000,2894.000000,1931.000000,1532.000000
6685.000000,2893.000000,1931.000000,1532.000000
6689.000000,2894.000000,1932.000000,1532.000000
6691.000000,2895.000000,1933.000000,1533.000000
6691.000000,2894.000000,1933.000000,1532.000000
6690.000000,2894.000000,1934.000000,1532.000000
6690.000000,2894.000000,1934.000000,1533.000000
6692.000000,2894.000000,1935.000000,1533.000000
6693.000000,2894.000000,1936.000000,1533.000000
6696.000000,2895.000000,1936.000000,1533.000000
6696.000000,2895.000000,1937.000000,1534.000000
6699.000000,2895.000000,1938.000000,1534.000000
6701.000000,2896.000000,1939.000000,1534.000000
6702.000000,2896.000000,1939.000000,1534.000000
6699.000000,2895.000000,1938.000000,1534.000000
6694.000000,2894.000000,1936.000000,1533.000000
6686.000000,2892.000000,1933.000000,1532.000000
6679.000000,2890.000000,1930.000000,1530.000000
6674.000000,2889.000000,1928.000000,1529.000000
6671.000000,2888.000000,1927.000000,1529.000000
6669.000000,2888.000000,1926.000000,1528.000000
6670.000000,2888.000000,1926.000000,1528.000000
6670.000000,2888.000000,1926.000000,1528.000000
6672.000000,2888.000000,1927.000000,1529.000000
6673.000000,2889.000000,1927.000000,1529.000000
6672.000000,2888.000000,1927.000000,1529.000000
6671.000000,2888.000000,1927.000000,1529.000000
6673.000000,2888.000000,1927.000000,1529.000000
6674.000000,2889.000000,1928.000000,1529.000000
6676.000000,2889.000000,1929.000000,1530.000000
6678.000000,2890.000000,1930.000000,1530.000000
6680.000000,2890.000000,1930.000000,1530.000000
6679.000000,2890.000000,1930.000000,1530.000000
6679.000000,2890.000000,1930.000000,1530.000000
6682.000000,2891.000000,1931.000000,1530.000000
6686.000000,2893.000000,1933.000000,1531.000000
6689.000000,2893.000000,1934.000000,1532.000000
6689.000000,2893.000000,1934.000000,1532.000000
6689.000000,2893.000000,1934.000000,1532.000000
6692.000000,2894.000000,1935.000000,1533.000000
6692.000000,2894.000000,1935.000000,1533.000000
6686.000000,2892.000000,1933.000000,1532.000000
6678.000000,2890.000000,1929.000000,1530.000000
6669.000000,2887.000000,1926.000000,1528.000000
6663.000000,2885.000000,1924.000000,1527.000000
6660.000000,2885.000000,1923.000000,1527.000000
6656.000000,2884.000000,1921.000000,1526.000000
6655.000000,2884.000000,1921.000000,1526.000000
6655.000000,2883.000000,1920.000000,1526.000000
6656.000000,2884.000000,1921.000000,1526.000000
6655.000000,2883.000000,1921.000000,1525.000000
6656.000000,2884.000000,1921.000000,1526.000000
6657.000000,2883.000000,1921.000000,1526.000000
6658.000000,2884.000000,1922.000000,1526.000000
6658.000000,2884.000000,1922.000000,1526.000000
6659.000000,2884.000000,1923.000000,1526.000000
6661.000000,2885.000000,1923.000000,1527.000000
6663.000000,2885.000000,1924.000000,1527.000000
6665.000000,2885.000000,1925.000000,1527.000000
6669.000000,2887.000000,1927.000000,1528.000000
6671.000000,2887.000000,1928.000000,1529.000000
6673.000000,2888.000000,1929.000000,1529.000000
6676.000000,2888.000000,1930.000000,1529.000000
6679.000000,2889.000000,1931.000000,1530.000000
6682.000000,2890.000000,1932.000000,1530.000000
6684.000000,2890.000000,1933.000000,1531.000000
6686.000000,2891.000000,1934.000000,1531.000000
6688.000000,2891.000000,1935.000000,1532.000000
6683.000000,2890.000000,1933.000000,1531.000000
6676.000000,2888.000000,1930.000000,1530.000000
6668.000000,2886.000000,1926.000000,1528.000000
6663.000000,2885.000000,1924.000000,1527.000000
6661.000000,2885.000000,1923.000000,1527.000000
6659.000000,2885.000000,1922.000000,1527.000000
6656.000000,2883.000000,1921.000000,1526.000000
6656.000000,2884.000000,1921.000000,1526.000000
6655.000000,2884.000000,1921.000000,1526.000000
6655.000000,2883.000000,1920.000000,1526.000000
6654.000000,2883.000000,1920.000000,1525.000000
6655.000000,2883.000000,1921.000000,1526.000000
6653.000000,2882.000000,1920.000000,1525.000000
6653.000000,2882.000000,1920.000000,1525.000000
6654.000000,2882.000000,1921.000000,1526.000000
6656.000000,2883.000000,1922.000000,1526.000000
6657.000000,2883.000000,1922.000000,1526.000000
6660.000000,2884.000000,1924.000000,1527.000000
6664.000000,2885.000000,1925.000000,1527.000000
6665.000000,2885.000000,1926.000000,1528.000000
6669.000000,2886.000000,1927.000000,1528.000000
6671.000000,2886.000000,1928.000000,1529.000000
6675.000000,2887.000000,1930.000000,1529.000000
6677.000000,2887.000000,1931.000000,1530.000000
6680.000000,2888.000000,1932.000000,1530.000000
6682.000000,2889.000000,1933.000000,1531.000000
6685.000000,2890.000000,1934.000000,1531.000000
6685.000000,2889.000000,1934.000000,1531.000000
6679.000000,2888.000000,1932.000000,1530.000000
6672.000000,2886.000000,1929.000000,1529.000000
6664.000000,2884.000000,1926.000000,1527.000000
6658.000000,2882.000000,1923.000000,1526.000000
6655.000000,2882.000000,1922.000000,1526.000000
6654.000000,2882.000000,1921.000000,1526.000000
6651.000000,2881.000000,1920.000000,1525.000000
6652.000000,2881.000000,1920.000000,1525.000000
6654.000000,2881.000000,1921.000000,1526.000000
6657.000000,2883.000000,1922.000000,1526.000000
6657.000000,2882.000000,1922.000000,1526.000000
6657.000000,2883.000000,1922.000000,1526.000000
6663.000000,2885.000000,1924.000000,1528.000000
6664.000000,2885.000000,1924.000000,1528.000000
6663.000000,2885.000000,1924.000000,1528.000000
6666.000000,2885.000000,1925.000000,1528.000000
6667.000000,2886.000000,1926.000000,1528.000000
6669.000000,2886.000000,1926.000000,1529.000000
6669.000000,2885.000000,1926.000000,1528.000000
6667.000000,2885.000000,1926.000000,1528.000000
6668.000000,2885.000000,1927.000000,1529.000000
6669.000000,2885.000000,1927.000000,1529.000000
6670.000000,2885.000000,1927.000000,1529.000000
6671.000000,2885.000000,1928.000000,1529.000000
6673.000000,2885.000000,1929.000000,1529.000000
6675.000000,2886.000000,1930.000000,1529.000000
6673.000000,2886.000000,1929.000000,1529.000000
6669.000000,2884.000000,1928.000000,1528.000000
6663.000000,2883.000000,1925.000000,1527.000000
6654.000000,2880.000000,1921.000000,1526.000000
6648.000000,2879.000000,1919.000000,1525.000000
6644.000000,2878.000000,1917.000000,1524.000000
6640.000000,2877.000000,1916.000000,1523.000000
6640.000000,2877.000000,1915.000000,1523.000000
6639.000000,2876.000000,1915.000000,1523.000000
6639.000000,2876.000000,1915.000000,1523.000000
6642.000000,2877.000000,1916.000000,1524.000000
6644.000000,2878.000000,1917.000000,1524.000000
6641.000000,2877.000000,1916.000000,1523.000000
6642.000000,2877.000000,1917.000000,1523.000000
6642.000000,2876.000000,1917.000000,1523.000000
6644.000000,2877.000000,1918.000000,1524.000000
6645.000000,2877.000000,1918.000000,1524.000000
6646.000000,2878.000000,1919.000000,1524.000000
6649.000000,2878.000000,1920.000000,1525.000000
6651.000000,2879.000000,1921.000000,1525.000000
6653.000000,2879.000000,1922.000000,1526.000000
6656.000000,2880.000000,1923.000000,1526.000000
6659.000000,2881.000000,1924.000000,1526.000000
6662.000000,2882.000000,1925.000000,1527.000000
6666.000000,2883.000000,1927.000000,1528.000000
6669.000000,2884.000000,1928.000000,1529.000000
6670.000000,2884.000000,1929.000000,1529.000000
6674.000000,2885.000000,1930.000000,1530.000000
6674.000000,2885.000000,1930.000000,1529.000000
6668.000000,2883.000000,1928.000000,1528.000000
6660.000000,2881.000000,1924.000000,1527.000000
6647.000000,2877.000000,1920.000000,1524.000000
6639.000000,2875.000000,1917.000000,1523.000000
6635.000000,2874.000000,1915.000000,1522.000000
6630.000000,2873.000000,1913.000000,1521.000000
6628.000000,2872.000000,1912.000000,1521.000000
6629.000000,2872.000000,1912.000000,1521.000000
6630.000000,2872.000000,1913.000000,1521.000000
6630.000000,2872.000000,1913.000000,1521.000000
6631.000000,2873.000000,1913.000000,1521.000000
6630.000000,2872.000000,1913.000000,1521.000000
6631.000000,2872.000000,1913.000000,1521.000000
6632.000000,2873.000000,1914.000000,1521.000000
6632.000000,2873.000000,1914.000000,1521.000000
6635.000000,2873.000000,1915.000000,1522.000000
6635.000000,2873.000000,1916.000000,1522.000000
6638.000000,2874.000000,1917.000000,1522.000000
6641.000000,2875.000000,1918.000000,1523.000000
6642.000000,2875.000000,1918.000000,1523.000000
6645.000000,2876.000000,1920.000000,1524.000000
6647.000000,2876.000000,1921.000000,1524.000000
6651.000000,2877.000000,1922.000000,1525.000000
6653.000000,2878.000000,1923.000000,1525.000000
6655.000000,2878.000000,1924.000000,1525.000000
6657.000000,2878.000000,1925.000000,1526.000000
6660.000000,2879.000000,1926.000000,1526.000000
6661.000000,2880.000000,1927.000000,1527.000000
6656.000000,2878.000000,1925.000000,1526.000000
6649.000000,2876.000000,1921.000000,1524.000000
6641.000000,2874.000000,1918.000000,1523.000000
6637.000000,2874.000000,1916.000000,1522.000000
6634.000000,2873.000000,1914.000000,1522.000000
6630.000000,2872.000000,1913.000000,1521.000000
6629.000000,2872.000000,1912.000000,1521.000000
6627.000000,2872.000000,1912.000000,1521.000000
6628.000000,2872.000000,1912.000000,1521.000000
6628.000000,2872.000000,1912.000000,1521.000000
6626.000000,2871.000000,1912.000000,1520.000000
6625.000000,2870.000000,1911.000000,1520.000000
6625.000000,2870.000000,1911.000000,1520.000000
6624.000000,2870.000000,1911.000000,1520.000000
6625.000000,2870.000000,1911.000000,1520.000000
6626.000000,2870.000000,1912.000000,1520.000000
6629.000000,2871.000000,1913.000000,1520.000000
6632.000000,2872.000000,1914.000000,1521.000000
6632.000000,2872.000000,1915.000000,1521.000000
6635.000000,2872.000000,1916.000000,1522.000000
6637.000000,2872.000000,1917.000000,1522.000000
6640.000000,2873.000000,1918.000000,1522.000000
6642.000000,2874.000000,1919.000000,1523.000000
6645.000000,2875.000000,1920.000000,1523.000000
6648.000000,2876.000000,1922.000000,1524.000000
6651.000000,2876.000000,1923.000000,1524.000000
6652.000000,2876.000000,1924.000000,1524.000000
6655.000000,2877.000000,1925.000000,1525.000000
6657.000000,2878.000000,1926.000000,1525.000000
6653.000000,2876.000000,1924.000000,1525.000000
6646.000000,2875.000000,1921.000000,1523.000000
6638.000000,2873.000000,1918.000000,1522.000000
6633.000000,2872.000000,1915.000000,1521.000000
6629.000000,2870.000000,1913.000000,1520.000000
6625.000000,2869.000000,1912.000000,1519.000000
6624.000000,2869.000000,1912.000000,1519.000000
6626.000000,2870.000000,1912.000000,1520.000000
6626.000000,2870.000000,1913.000000,1520.000000
6628.000000,2870.000000,1913.000000,1520.000000
6630.000000,2871.000000,1914.000000,1521.000000
6632.000000,2872.000000,1914.000000,1521.000000
6632.000000,2872.000000,1914.000000,1521.000000
6630.000000,2872.000000,1914.000000,1521.000000
6630.000000,2872.000000,1914.000000,1521.000000
6630.000000,2872.000000,1914.000000,1521.000000
6631.000000,2872.000000,1914.000000,1521.000000
6631.000000,2872.000000,1915.000000,1521.000000
6632.000000,2872.000000,1915.000000,1521.000000
6631.000000,2871.000000,1915.000000,1521.000000
6632.000000,2871.000000,1915.000000,1520.000000
6631.000000,2870.000000,1915.000000,1520.000000
6632.000000,2871.000000,1916.000000,1521.000000
6636.000000,2872.000000,1917.000000,1521.000000
6637.000000,2872.000000,1917.000000,1522.000000
6638.000000,2872.000000,1918.000000,1522.000000
6640.000000,2872.000000,1919.000000,1522.000000
6643.000000,2873.000000,1920.000000,1523.000000
6645.000000,2874.000000,1921.000000,1523.000000
6645.000000,2874.000000,1921.000000,1523.000000
6640.000000,2872.000000,1919.000000,1522.000000
6633.000000,2871.000000,1916.000000,1521.000000
6625.000000,2868.000000,1913.000000,1519.000000
6619.000000,2867.000000,1911.000000,1518.000000
6616.000000,2866.000000,1909.000000,1518.000000
6614.000000,2866.000000,1908.000000,1517.000000
6613.000000,2865.000000,1908.000000,1517.000000
6614.000000,2865.000000,1908.000000,1517.000000
6615.000000,2865.000000,1908.000000,1518.000000
6614.000000,2865.000000,1908.000000,1517.000000
6614.000000,2865.000000,1908.000000,1517.000000
6614.000000,2865.000000,1908.000000,1517.000000
6613.000000,2865.000000,1908.000000,1517.000000
6614.000000,2865.000000,1908.000000,1517.000000
6615.000000,2865.000000,1909.000000,1517.000000
6622.000000,2868.000000,1911.000000,1519.000000
6622.000000,2867.000000,1912.000000,1519.000000
6629.000000,2870.000000,1914.000000,1520.000000
6632.000000,2871.000000,1915.000000,1520.000000
6635.000000,2872.000000,1916.000000,1521.000000
6638.000000,2872.000000,1918.000000,1522.000000
6639.000000,2872.000000,1918.000000,1522.000000
6642.000000,2873.000000,1920.000000,1522.000000
6645.000000,2874.000000,1921.000000,1523.000000
6647.000000,2874.000000,1922.000000,1523.000000
6649.000000,2875.000000,1923.000000,1524.000000
6651.000000,2875.000000,1924.000000,1524.000000
6649.000000,2874.000000,1924.000000,1523.000000
6650.000000,2874.000000,1924.000000,1523.000000
6648.000000,2874.000000,1923.000000,1523.000000
6640.000000,2872.000000,1920.000000,1522.000000
6633.000000,2870.000000,1916.000000,1521.000000
6626.000000,2868.000000,1914.000000,1519.000000
6618.000000,2865.000000,1911.000000,1518.000000
6615.000000,2864.000000,1910.000000,1517.000000
6615.000000,2865.000000,1910.000000,1517.000000
6615.000000,2864.000000,1910.000000,1517.000000
6616.000000,2865.000000,1910.000000,1517.000000
6617.000000,2865.000000,1911.000000,1518.000000
6617.000000,2865.000000,1911.000000,1517.000000
6617.000000,2865.000000,1911.000000,1517.000000
6620.000000,2866.000000,1912.000000,1518.000000
6618.000000,2865.000000,1911.000000,1518.000000
6619.000000,2865.000000,1912.000000,1518.000000
6620.000000,2866.000000,1912.000000,1518.000000
6622.000000,2866.000000,1913.000000,1518.000000
6628.000000,2868.000000,1915.000000,1519.000000
6632.000000,2869.000000,1917.000000,1520.000000
6635.000000,2870.000000,1918.000000,1521.000000
6638.000000,2871.000000,1919.000000,1522.000000
6641.000000,2871.000000,1920.000000,1522.000000
6644.000000,2872.000000,1921.000000,1522.000000
6646.000000,2873.000000,1923.000000,1523.000000
6648.000000,2873.000000,1923.000000,1523.000000
6651.000000,2874.000000,1924.000000,1524.000000
6652.000000,2874.000000,1925.000000,1524.000000
6653.000000,2875.000000,1926.000000,1524.000000
6652.000000,2874.000000,1925.000000,1524.000000
6646.000000,2872.000000,1923.000000,1523.000000
6639.000000,2871.000000,1919.000000,1522.000000
6630.000000,2868.000000,1916.000000,1520.000000
6625.000000,2867.000000,1914.000000,1519.000000
6619.000000,2865.000000,1912.000000,1518.000000
6617.000000,2864.000000,1910.000000,1518.000000
6616.000000,2864.000000,1910.000000,1517.000000
6614.000000,2863.000000,1910.000000,1517.000000
6616.000000,2864.000000,1910.000000,1517.000000
6616.000000,2864.000000,1910.000000,1517.000000
6616.000000,2864.000000,1911.000000,1518.000000
6615.000000,2864.000000,1910.000000,1517.000000
6617.000000,2864.000000,1911.000000,1518.000000
6615.000000,2863.000000,1910.000000,1517.000000
6618.000000,2864.000000,1911.000000,1518.000000
6618.000000,2864.000000,1911.000000,1518.000000
6621.000000,2865.000000,1912.000000,1519.000000
6623.000000,2866.000000,1913.000000,1519.000000
6624.000000,2866.000000,1914.000000,1519.000000
6626.000000,2866.000000,1915.000000,1519.000000
6627.000000,2866.000000,1915.000000,1519.000000
6630.000000,2867.000000,1916.000000,1520.000000
6633.000000,2868.000000,1918.000000,1521.000000
6635.000000,2868.000000,1918.000000,1521.000000
6636.000000,2869.000000,1919.000000,1521.000000
6636.000000,2868.000000,1919.000000,1521.000000
6635.000000,2868.000000,1919.000000,1521.000000
6630.000000,2866.000000,1917.000000,1520.000000
6620.000000,2864.000000,1913.000000,1518.000000
6611.000000,2861.000000,1909.000000,1517.000000
6606.000000,2860.000000,1906.000000,1516.000000
6600.000000,2859.000000,1904.000000,1515.000000
6598.000000,2859.000000,1903.000000,1514.000000
6596.000000,2858.000000,1902.000000,1514.000000
6598.000000,2859.000000,1902.000000,1515.000000
6598.000000,2858.000000,1902.000000,1514.000000
6596.000000,2859.000000,1903.000000,1515.000000
6598.000000,2859.000000,1902.000000,1514.000000
6596.000000,2858.000000,1902.000000,1514.000000
6596.000000,2858.000000,1901.000000,1514.000000
6595.000000,2858.000000,1901.000000,1514.000000
6593.000000,2857.000000,1901.000000,1514.000000
6593.000000,2856.000000,1901.000000,1514.000000
6592.000000,2856.000000,1901.000000,1513.000000
6594.000000,2856.000000,1902.000000,1514.000000
6595.000000,2857.000000,1902.000000,1514.000000
6597.000000,2857.000000,1903.000000,1514.000000
6599.000000,2858.000000,1904.000000,1515.000000
6602.000000,2858.000000,1905.000000,1515.000000
6603.000000,2859.000000,1906.000000,1515.000000
6606.000000,2859.000000,1907.000000,1516.000000
6607.000000,2860.000000,1908.000000,1516.000000
6609.000000,2860.000000,1908.000000,1516.000000
6611.000000,2860.000000,1909.000000,1517.000000
6612.000000,2860.000000,1910.000000,1517.000000
6611.000000,2860.000000,1909.000000,1517.000000
6606.000000,2859.000000,1907.000000,1516.000000
6596.000000,2856.000000,1903.000000,1514.000000
6585.000000,2853.000000,1898.000000,1512.000000
6577.000000,2851.000000,1895.000000,1511.000000
6571.000000,2850.000000,1893.000000,1510.000000
6568.000000,2849.000000,1891.000000,1509.000000
6565.000000,2848.000000,1890.000000,1509.000000
6564.000000,2848.000000,1889.000000,1509.000000
6563.000000,2848.000000,1889.000000,1508.000000
6563.000000,2847.000000,1889.000000,1508.000000
6563.000000,2847.000000,1889.000000,1508.000000
6562.000000,2847.000000,1889.000000,1508.000000
6562.000000,2847.000000,1889.000000,1508.000000
6563.000000,2847.000000,1889.000000,1509.000000
6565.000000,2848.000000,1890.000000,1509.000000
6569.000000,2850.000000,1891.000000,1510.000000
6569.000000,2849.000000,1891.000000,1510.000000
6571.000000,2850.000000,1892.000000,1510.000000
6574.000000,2851.000000,1893.000000,1511.000000
6576.000000,2851.000000,1894.000000,1511.000000
6580.000000,2852.000000,1895.000000,1512.000000
6580.000000,2852.000000,1896.000000,1512.000000
6579.000000,2851.000000,1896.000000,1511.000000
6581.000000,2852.000000,1897.000000,1512.000000
6582.000000,2852.000000,1897.000000,1512.000000
6584.000000,2852.000000,1898.000000,1512.000000
6587.000000,2853.000000,1899.000000,1513.000000
6584.000000,2852.000000,1898.000000,1512.000000
6576.000000,2850.000000,1895.000000,1511.000000
6566.000000,2848.000000,1891.000000,1509.000000
6555.000000,2845.000000,1886.000000,1507.000000
6548.000000,2843.000000,1883.000000,1506.000000
6543.000000,2842.000000,1881.000000,1505.000000
6539.000000,2841.000000,1879.000000,1504.000000
6535.000000,2840.000000,1878.000000,1503.000000
6533.000000,2839.000000,1877.000000,1503.000000
6534.000000,2839.000000,1877.000000,1503.000000
6536.000000,2840.000000,1878.000000,1504.000000
6534.000000,2839.000000,1877.000000,1503.000000
6533.000000,2839.000000,1877.000000,1503.000000
6535.000000,2840.000000,1878.000000,1504.000000
6534.000000,2840.000000,1877.000000,1503.000000
6535.000000,2840.000000,1878.000000,1504.000000
6538.000000,2841.000000,1879.000000,1504.000000
6539.000000,2841.000000,1879.000000,1504.000000
6541.000000,2842.000000,1880.000000,1505.000000
6543.000000,2842.000000,1881.000000,1505.000000
6545.000000,2842.000000,1882.000000,1505.000000
6549.000000,2844.000000,1883.000000,1506.000000
6550.000000,2844.000000,1884.000000,1506.000000
6554.000000,2845.000000,1885.000000,1507.000000
6555.000000,2845.000000,1886.000000,1507.000000
6560.000000,2847.000000,1887.000000,1508.000000
6561.000000,2847.000000,1888.000000,1508.000000
6561.000000,2847.000000,1888.000000,1508.000000
6553.000000,2845.000000,1885.000000,1507.000000
6545.000000,2843.000000,1881.000000,1505.000000
6534.000000,2841.000000,1877.000000,1504.000000
6523.000000,2837.000000,1873.000000,1502.000000
6516.000000,2835.000000,1869.000000,1500.000000
6507.000000,2833.000000,1866.000000,1498.000000
6501.000000,2831.000000,1864.000000,1497.000000
6499.000000,2831.000000,1863.000000,1497.000000
6499.000000,2831.000000,1862.000000,1497.000000
6499.000000,2831.000000,1862.000000,1497.000000
6499.000000,2830.000000,1862.000000,1497.000000
6498.000000,2830.000000,1862.000000,1497.000000
6499.000000,2831.000000,1862.000000,1497.000000
6499.000000,2830.000000,1862.000000,1497.000000
6500.000000,2831.000000,1863.000000,1497.000000
6502.000000,2831.000000,1863.000000,1497.000000
6502.000000,2831.000000,1864.000000,1497.000000
6504.000000,2832.000000,1865.000000,1498.000000
6507.000000,2833.000000,1866.000000,1498.000000
6512.000000,2834.000000,1868.000000,1499.000000
6515.000000,2834.000000,1869.000000,1500.000000
6519.000000,2836.000000,1871.000000,1500.000000
6521.000000,2836.000000,1872.000000,1501.000000
6527.000000,2838.000000,1874.000000,1502.000000
6531.000000,2839.000000,1876.000000,1503.000000
6533.000000,2839.000000,1877.000000,1503.000000
6536.000000,2840.000000,1878.000000,1504.000000
6539.000000,2841.000000,1879.000000,1504.000000
6535.000000,2840.000000,1878.000000,1504.000000
6526.000000,2838.000000,1873.000000,1502.000000
6513.000000,2834.000000,1868.000000,1499.000000
6502.000000,2832.000000,1864.000000,1498.000000
6497.000000,2830.000000,1861.000000,1497.000000
6497.000000,2830.000000,1860.000000,1497.000000
6494.000000,2829.000000,1858.000000,1496.000000
6489.000000,2829.000000,1856.000000,1495.000000
6486.000000,2828.000000,1856.000000,1495.000000
6485.000000,2828.000000,1856.000000,1495.000000
6485.000000,2827.000000,1856.000000,1495.000000
6487.000000,2828.000000,1857.000000,1495.000000
6487.000000,2828.000000,1857.000000,1495.000000
6484.000000,2826.000000,1856.000000,1494.000000
6484.000000,2826.000000,1856.000000,1494.000000
6484.000000,2826.000000,1856.000000,1494.000000
6486.000000,2826.000000,1857.000000,1495.000000
6487.000000,2827.000000,1857.000000,1495.000000
6490.000000,2828.000000,1859.000000,1495.000000
6492.000000,2828.000000,1860.000000,1496.000000
6496.000000,2829.000000,1861.000000,1496.000000
6499.000000,2830.000000,1862.000000,1497.000000
6501.000000,2830.000000,1863.000000,1497.000000
6503.000000,2831.000000,1864.000000,1497.000000
6505.000000,2831.000000,1865.000000,1498.000000
6506.000000,2832.000000,1865.000000,1498.000000
6510.000000,2833.000000,1867.000000,1499.000000
6510.000000,2833.000000,1867.000000,1499.000000
6513.000000,2834.000000,1869.000000,1499.000000
6515.000000,2834.000000,1870.000000,1499.000000
6515.000000,2834.000000,1869.000000,1499.000000
6509.000000,2832.000000,1867.000000,1498.000000
6498.000000,2829.000000,1862.000000,1496.000000
6490.000000,2827.000000,1859.000000,1495.000000
6482.000000,2825.000000,1856.000000,1494.000000
6477.000000,2824.000000,1854.000000,1493.000000
6474.000000,2823.000000,1852.000000,1492.000000
6473.000000,2823.000000,1851.000000,1492.000000
6472.000000,2823.000000,1851.000000,1492.000000
6472.000000,2823.000000,1851.000000,1492.000000
6473.000000,2823.000000,1852.000000,1492.000000
6476.000000,2824.000000,1852.000000,1492.000000
6478.000000,2825.000000,1853.000000,1493.000000
6480.000000,2826.000000,1854.000000,1493.000000
6479.000000,2825.000000,1854.000000,1493.000000
6482.000000,2826.000000,1855.000000,1494.000000
6484.000000,2827.000000,1855.000000,1494.000000
6487.000000,2828.000000,1857.000000,1494.000000
6489.000000,2828.000000,1858.000000,1495.000000
6490.000000,2828.000000,1858.000000,1495.000000
6491.000000,2828.000000,1859.000000,1495.000000
6494.000000,2828.000000,1860.000000,1495.000000
6497.000000,2829.000000,1861.000000,1496.000000
6498.000000,2829.000000,1862.000000,1496.000000
6500.000000,2830.000000,1863.000000,1496.000000
6503.000000,2830.000000,1864.000000,1497.000000
6506.000000,2832.000000,1866.000000,1497.000000
6509.000000,2832.000000,1867.000000,1498.000000
6513.000000,2833.000000,1868.000000,1499.000000
6515.000000,2834.000000,1869.000000,1499.000000
6510.000000,2833.000000,1868.000000,1498.000000
6499.000000,2830.000000,1863.000000,1496.000000
6488.000000,2827.000000,1858.000000,1494.000000
6478.000000,2824.000000,1854.000000,1492.000000
6474.000000,2823.000000,1852.000000,1491.000000
6470.000000,2822.000000,1851.000000,1491.000000
6468.000000,2822.000000,1850.000000,1490.000000
6468.000000,2822.000000,1850.000000,1491.000000
6466.000000,2821.000000,1849.000000,1490.000000
6467.000000,2821.000000,1849.000000,1490.000000
6467.000000,2822.000000,1849.000000,1490.000000
6466.000000,2821.000000,1849.000000,1490.000000
6466.000000,2821.000000,1849.000000,1490.000000
6466.000000,2821.000000,1849.000000,1490.000000
6467.000000,2821.000000,1850.000000,1490.000000
6470.000000,2822.000000,1851.000000,1491.000000
6471.000000,2822.000000,1851.000000,1491.000000
6473.000000,2823.000000,1852.000000,1491.000000
6476.000000,2824.000000,1853.000000,1491.000000
6481.000000,2826.000000,1855.000000,1492.000000
6483.000000,2826.000000,1856.000000,1493.000000
6487.000000,2827.000000,1857.000000,1493.000000
6490.000000,2828.000000,1859.000000,1494.000000
6491.000000,2828.000000,1860.000000,1494.000000
6496.000000,2830.000000,1861.000000,1495.000000
6498.000000,2830.000000,1862.000000,1495.000000
6499.000000,2830.000000,1863.000000,1495.000000
6501.000000,2830.000000,1864.000000,1496.000000
6503.000000,2830.000000,1865.000000,1496.000000
6506.000000,2831.000000,1866.000000,1497.000000
6504.000000,2830.000000,1866.000000,1496.000000
6499.000000,2829.000000,1863.000000,1495.000000
6489.000000,2826.000000,1859.000000,1493.000000
6481.000000,2825.000000,1856.000000,1492.000000
6473.000000,2822.000000,1853.000000,1491.000000
6468.000000,2821.000000,1851.000000,1490.000000
6465.000000,2820.000000,1849.000000,1489.000000
6464.000000,2820.000000,1849.000000,1489.000000
6463.000000,2820.000000,1849.000000,1489.000000
6464.000000,2820.000000,1849.000000,1489.000000
6466.000000,2820.000000,1850.000000,1489.000000
6469.000000,2822.000000,1851.000000,1490.000000
6468.000000,2821.000000,1850.000000,1489.000000
6469.000000,2821.000000,1851.000000,1490.000000
6469.000000,2821.000000,1851.000000,1490.000000
6471.000000,2822.000000,1852.000000,1490.000000
6474.000000,2823.000000,1853.000000,1490.000000
6477.000000,2824.000000,1854.000000,1491.000000
6480.000000,2825.000000,1855.000000,1491.000000
6483.000000,2825.000000,1857.000000,1492.000000
6485.000000,2826.000000,1858.000000,1492.000000
6488.000000,2827.000000,1859.000000,1493.000000
6488.000000,2827.000000,1860.000000,1493.000000
6491.000000,2828.000000,1862.000000,1494.000000
6495.000000,2828.000000,1863.000000,1494.000000
6497.000000,2829.000000,1865.000000,1495.000000
6502.000000,2830.000000,1866.000000,1496.000000
6505.000000,2831.000000,1866.000000,1496.000000
6507.000000,2832.000000,1867.000000,1497.000000
6509.000000,2832.000000,1868.000000,1497.000000
6511.000000,2833.000000,1869.000000,1497.000000
6512.000000,2833.000000,1869.000000,1497.000000
6511.000000,2832.000000,1869.000000,1497.000000
6501.000000,2829.000000,1865.000000,1495.000000
6491.000000,2826.000000,1861.000000,1493.000000
6483.000000,2824.000000,1857.000000,1491.000000
6477.000000,2823.000000,1855.000000,1490.000000
6473.000000,2822.000000,1854.000000,1490.000000
6471.000000,2821.000000,1853.000000,1489.000000
6470.000000,2821.000000,1853.000000,1489.000000
6472.000000,2822.000000,1853.000000,1489.000000
6473.000000,2822.000000,1854.000000,1489.000000
6476.000000,2823.000000,1855.000000,1490.000000
6475.000000,2822.000000,1855.000000,1490.000000
6477.000000,2823.000000,1855.000000,1490.000000
6478.000000,2823.000000,1855.000000,1490.000000
6479.000000,2823.000000,1856.000000,1490.000000
6481.000000,2824.000000,1857.000000,1491.000000
6483.000000,2824.000000,1858.000000,1491.000000
6486.000000,2825.000000,1859.000000,1492.000000
6489.000000,2826.000000,1861.000000,1492.000000
6491.000000,2826.000000,1862.000000,1493.000000
6496.000000,2828.000000,1864.000000,1494.000000
6499.000000,2828.000000,1865.000000,1494.000000
6501.000000,2829.000000,1866.000000,1494.000000
6504.000000,2829.000000,1867.000000,1495.000000
6507.000000,2830.000000,1868.000000,1495.000000
6509.000000,2831.000000,1870.000000,1496.000000
6512.000000,2831.000000,1871.000000,1496.000000
6515.000000,2832.000000,1872.000000,1497.000000
6519.000000,2833.000000,1874.000000,1497.000000
6521.000000,2833.000000,1874.000000,1498.000000
6521.000000,2833.000000,1874.000000,1498.000000
6518.000000,2833.000000,1873.000000,1497.000000
6509.000000,2831.000000,1869.000000,1496.000000
6501.000000,2829.000000,1866.000000,1494.000000
6494.000000,2827.000000,1863.000000,1493.000000
6492.000000,2827.000000,1862.000000,1493.000000
6490.000000,2826.000000,1861.000000,1492.000000
6488.000000,2826.000000,1860.000000,1492.000000
6488.000000,2826.000000,1860.000000,1492.000000
6487.000000,2825.000000,1860.000000,1492.000000
6487.000000,2824.000000,1860.000000,1492.000000
6488.000000,2825.000000,1861.000000,1492.000000
6489.000000,2825.000000,1861.000000,1492.000000
6489.000000,2825.000000,1861.000000,1492.000000
6490.000000,2825.000000,1862.000000,1492.000000
6492.000000,2826.000000,1862.000000,1493.000000
6493.000000,2826.000000,1863.000000,1493.000000
6497.000000,2827.000000,1865.000000,1493.000000
6500.000000,2828.000000,1866.000000,1494.000000
6504.000000,2829.000000,1867.000000,1495.000000
6507.000000,2830.000000,1869.000000,1496.000000
6511.000000,2830.000000,1870.000000,1496.000000
6511.000000,2830.000000,1871.000000,1496.000000
6510.000000,2830.000000,1871.000000,1496.000000
6510.000000,2830.000000,1871.000000,1495.000000
6514.000000,2831.000000,1872.000000,1496.000000
6518.000000,2832.000000,1873.000000,1497.000000
6521.000000,2833.000000,1875.000000,1498.000000
6523.000000,2833.000000,1876.000000,1499.000000
6521.000000,2833.000000,1875.000000,1498.000000
6515.000000,2831.000000,1873.000000,1497.000000
6507.000000,2829.000000,1869.000000,1495.000000
6501.000000,2827.000000,1866.000000,1495.000000
6494.000000,2825.000000,1863.000000,1494.000000
6487.000000,2824.000000,1861.000000,1492.000000
6481.000000,2822.000000,1858.000000,1491.000000
6480.000000,2822.000000,1858.000000,1490.000000
6484.000000,2824.000000,1859.000000,1492.000000
6487.000000,2824.000000,1860.000000,1492.000000
6488.000000,2825.000000,1861.000000,1493.000000
6488.000000,2825.000000,1861.000000,1493.000000
6487.000000,2824.000000,1860.000000,1492.000000
6486.000000,2824.000000,1860.000000,1492.000000
6487.000000,2824.000000,1860.000000,1492.000000
6486.000000,2823.000000,1860.000000,1492.000000
6490.000000,2825.000000,1862.000000,1493.000000
6490.000000,2824.000000,1862.000000,1493.000000
6493.000000,2825.000000,1863.000000,1493.000000
6496.000000,2825.000000,1864.000000,1494.000000
6499.000000,2826.000000,1866.000000,1494.000000
6502.000000,2827.000000,1867.000000,1495.000000
6504.000000,2827.000000,1868.000000,1495.000000
6508.000000,2828.000000,1870.000000,1496.000000
6511.000000,2829.000000,1871.000000,1497.000000
6513.000000,2829.000000,1872.000000,1497.000000
6516.000000,2830.000000,1873.000000,1497.000000
6518.000000,2831.000000,1874.000000,1498.000000
6522.000000,2832.000000,1876.000000,1498.000000
6525.000000,2833.000000,1877.000000,1499.000000
6525.000000,2833.000000,1877.000000,1499.000000
6516.000000,2830.000000,1873.000000,1497.000000
6507.000000,2828.000000,1869.000000,1496.000000
6497.000000,2826.000000,1865.000000,1494.000000
6492.000000,2824.000000,1863.000000,1493.000000
6487.000000,2823.000000,1861.000000,1492.000000
6484.000000,2823.000000,1859.000000,1492.000000
6483.000000,2822.000000,1859.000000,1492.000000
6482.000000,2822.000000,1858.000000,1491.000000
6482.000000,2822.000000,1859.000000,1491.000000
6482.000000,2822.000000,1859.000000,1492.000000
6483.000000,2822.000000,1859.000000,1491.000000
6483.000000,2822.000000,1859.000000,1491.000000
6482.000000,2822.000000,1859.000000,1491.000000
6481.000000,2821.000000,1859.000000,1492.000000
6483.000000,2822.000000,1859.000000,1492.000000
6487.000000,2823.000000,1861.000000,1492.000000
6490.000000,2824.000000,1862.000000,1493.000000
6493.000000,2825.000000,1863.000000,1494.000000
6496.000000,2825.000000,1864.000000,1494.000000
6498.000000,2826.000000,1865.000000,1495.000000
6501.000000,2827.000000,1867.000000,1495.000000
6503.000000,2827.000000,1867.000000,1495.000000
6503.000000,2826.000000,1868.000000,1495.000000
6505.000000,2827.000000,1869.000000,1496.000000
6506.000000,2827.000000,1870.000000,1496.000000
6509.000000,2828.000000,1871.000000,1496.000000
6512.000000,2828.000000,1872.000000,1497.000000
6514.000000,2829.000000,1873.000000,1497.000000
6516.000000,2829.000000,1874.000000,1498.000000
6514.000000,2828.000000,1873.000000,1497.000000
6505.000000,2826.000000,1869.000000,1496.000000
6494.000000,2823.000000,1865.000000,1494.000000
6486.000000,2821.000000,1861.000000,1492.000000
6480.000000,2820.000000,1859.000000,1491.000000
6475.000000,2819.000000,1857.000000,1490.000000
6473.000000,2818.000000,1855.000000,1490.000000
6472.000000,2818.000000,1855.000000,1490.000000
6472.000000,2817.000000,1855.000000,1490.000000
6473.000000,2818.000000,1855.000000,1490.000000
6474.000000,2818.000000,1856.000000,1490.000000
6474.000000,2818.000000,1856.000000,1490.000000
6473.000000,2818.000000,1856.000000,1490.000000
6474.000000,2818.000000,1856.000000,1490.000000
6475.000000,2818.000000,1856.000000,1490.000000
6477.000000,2819.000000,1857.000000,1491.000000
6477.000000,2818.000000,1857.000000,1491.000000
6480.000000,2819.000000,1859.000000,1491.000000
6482.000000,2820.000000,1860.000000,1492.000000
6487.000000,2821.000000,1861.000000,1492.000000
6488.000000,2822.000000,1862.000000,1493.000000
6490.000000,2822.000000,1863.000000,1493.000000
6498.000000,2824.000000,1866.000000,1495.000000
6503.000000,2826.000000,1867.000000,1496.000000
6506.000000,2827.000000,1869.000000,1496.000000
6509.000000,2828.000000,1870.000000,1497.000000
6511.000000,2828.000000,1871.000000,1497.000000
6513.000000,2828.000000,1872.000000,1497.000000
6511.000000,2828.000000,1872.000000,1497.000000
6506.000000,2826.000000,1869.000000,1496.000000
6493.000000,2822.000000,1864.000000,1494.000000
6481.000000,2819.000000,1859.000000,1492.000000
6470.000000,2816.000000,1855.000000,1489.000000
6461.000000,2814.000000,1851.000000,1488.000000
6455.000000,2812.000000,1848.000000,1486.000000
6451.000000,2811.000000,1847.000000,1486.000000
6450.000000,2811.000000,1846.000000,1486.000000
6450.000000,2811.000000,1846.000000,1486.000000
6451.000000,2811.000000,1846.000000,1486.000000
6451.000000,2811.000000,1846.000000,1486.000000
6450.000000,2811.000000,1846.000000,1486.000000
6449.000000,2811.000000,1846.000000,1486.000000
6449.000000,2811.000000,1846.000000,1486.000000
6451.000000,2811.000000,1846.000000,1486.000000
6454.000000,2812.000000,1848.000000,1487.000000
6457.000000,2812.000000,1849.000000,1488.000000
6460.000000,2813.000000,1850.000000,1488.000000
6464.000000,2814.000000,1851.000000,1489.000000
6465.000000,2814.000000,1852.000000,1489.000000
6469.000000,2816.000000,1853.000000,1490.000000
6471.000000,2816.000000,1854.000000,1490.000000
6473.000000,2816.000000,1855.000000,1490.000000
6475.000000,2817.000000,1856.000000,1491.000000
6477.000000,2817.000000,1857.000000,1491.000000
6479.000000,2818.000000,1858.000000,1491.000000
6483.000000,2819.000000,1860.000000,1492.000000
6485.000000,2819.000000,1860.000000,1492.000000
6483.000000,2819.000000,1860.000000,1492.000000
6475.000000,2817.000000,1856.000000,1491.000000
6466.000000,2815.000000,1852.000000,1489.000000
6458.000000,2813.000000,1849.000000,1488.000000
6449.000000,2810.000000,1845.000000,1486.000000
6443.000000,2809.000000,1842.000000,1485.000000
6439.000000,2808.000000,1841.000000,1484.000000
6437.000000,2807.000000,1840.000000,1484.000000
6436.000000,2807.000000,1840.000000,1484.000000
6435.000000,2807.000000,1840.000000,1484.000000
6435.000000,2806.000000,1840.000000,1483.000000
6434.000000,2806.000000,1839.000000,1483.000000
6435.000000,2806.000000,1840.000000,1483.000000
6434.000000,2806.000000,1839.000000,1483.000000
6435.000000,2806.000000,1840.000000,1483.000000
6436.000000,2806.000000,1840.000000,1484.000000
6438.000000,2807.000000,1841.000000,1484.000000
6441.000000,2808.000000,1842.000000,1485.000000
6442.000000,2808.000000,1843.000000,1485.000000
6445.000000,2809.000000,1844.000000,1485.000000
6448.000000,2809.000000,1845.000000,1486.000000
6451.000000,2810.000000,1847.000000,1486.000000
6455.000000,2811.000000,1848.000000,1487.000000
6457.000000,2812.000000,1849.000000,1488.000000
6461.000000,2812.000000,1851.000000,1488.000000
6464.000000,2814.000000,1852.000000,1489.000000
6467.000000,2814.000000,1853.000000,1489.000000
6470.000000,2815.000000,1854.000000,1490.000000
6473.000000,2816.000000,1856.000000,1490.000000
6473.000000,2816.000000,1856.000000,1490.000000
6473.000000,2813.000000,1852.000000,1489.000000
6465.000000,2811.000000,1848.000000,1487.000000
6454.000000,2811.000000,1843.000000,1485.000000
6443.000000,2808.000000,1841.000000,1484.000000
6437.000000,2807.000000,1841.000000,1482.000000
6429.000000,2804.000000,1838.000000,1481.000000
6425.000000,2803.000000,1836.000000,1481.000000
6422.000000,2802.000000,1835.000000,1481.000000
6422.000000,2802.000000,1834.000000,1481.000000
6425.000000,2803.000000,1835.000000,1482.000000
6427.000000,2804.000000,1836.000000,1482.000000
6428.000000,2804.000000,1837.000000,1482.000000
6429.000000,2804.000000,1837.000000,1482.000000
6427.000000,2804.000000,1836.000000,1482.000000
6428.000000,2804.000000,1837.000000,1482.000000
6428.000000,2804.000000,1837.000000,1482.000000
6429.000000,2804.000000,1837.000000,1482.000000
6429.000000,2804.000000,1838.000000,1482.000000
6432.000000,2804.000000,1839.000000,1483.000000
6433.000000,2804.000000,1839.000000,1483.000000
6436.000000,2805.000000,1841.000000,1483.000000
6440.000000,2806.000000,1842.000000,1484.000000
6442.000000,2807.000000,1843.000000,1485.000000
6444.000000,2807.000000,1844.000000,1485.000000
6447.000000,2808.000000,1845.000000,1485.000000
6449.000000,2808.000000,1846.000000,1486.000000
6452.000000,2809.000000,1848.000000,1486.000000
6455.000000,2810.000000,1849.000000,1487.000000
6456.000000,2810.000000,1850.000000,1487.000000
6454.000000,2809.000000,1849.000000,1487.000000
6446.000000,2807.000000,1845.000000,1485.000000
6435.000000,2804.000000,1841.000000,1483.000000
6426.000000,2802.000000,1837.000000,1482.000000
6420.000000,2800.000000,1834.000000,1480.000000
6415.000000,2799.000000,1832.000000,1480.000000
6413.000000,2799.000000,1831.000000,1479.000000
6411.000000,2798.000000,1831.000000,1479.000000
6412.000000,2798.000000,1831.000000,1479.000000
6413.000000,2798.000000,1831.000000,1479.000000
6415.000000,2799.000000,1832.000000,1479.000000
6415.000000,2799.000000,1832.000000,1479.000000
6415.000000,2799.000000,1832.000000,1479.000000
6415.000000,2799.000000,1832.000000,1480.000000
6415.000000,2799.000000,1832.000000,1479.000000
6417.000000,2800.000000,1833.000000,1480.000000
6421.000000,2801.000000,1834.000000,1480.000000
6425.000000,2803.000000,1836.000000,1481.000000
6431.000000,2804.000000,1838.000000,1482.000000
6432.000000,2804.000000,1838.000000,1483.000000
6434.000000,2805.000000,1840.000000,1483.000000
6437.000000,2806.000000,1841.000000,1484.000000
6439.000000,2806.000000,1842.000000,1484.000000
6443.000000,2807.000000,1843.000000,1485.000000
6444.000000,2807.000000,1844.000000,1485.000000
6445.000000,2807.000000,1845.000000,1485.000000
6447.000000,2808.000000,1846.000000,1485.000000
6449.000000,2808.000000,1846.000000,1486.000000
6445.000000,2807.000000,1845.000000,1485.000000
6436.000000,2804.000000,1841.000000,1484.000000
6425.000000,2801.000000,1836.000000,1482.000000
6416.000000,2799.000000,1832.000000,1480.000000
6408.000000,2797.000000,1829.000000,1478.000000
6402.000000,2795.000000,1826.000000,1477.000000
6397.000000,2794.000000,1824.000000,1476.000000
6398.000000,2795.000000,1824.000000,1477.000000
6397.000000,2794.000000,1824.000000,1477.000000
6397.000000,2794.000000,1824.000000,1477.000000
6399.000000,2795.000000,1825.000000,1477.000000
6399.000000,2795.000000,1825.000000,1477.000000
6398.000000,2794.000000,1825.000000,1477.000000
6398.000000,2794.000000,1825.000000,1477.000000
6398.000000,2794.000000,1825.000000,1477.000000
6398.000000,2794.000000,1825.000000,1477.000000
6399.000000,2794.000000,1825.000000,1477.000000
6402.000000,2795.000000,1826.000000,1478.000000
6405.000000,2796.000000,1828.000000,1478.000000
6407.000000,2796.000000,1829.000000,1478.000000
6411.000000,2797.000000,1830.000000,1479.000000
6414.000000,2798.000000,1831.000000,1480.000000
6419.000000,2800.000000,1833.000000,1481.000000
6419.000000,2799.000000,1834.000000,1481.000000
6421.000000,2800.000000,1835.000000,1481.000000
6425.000000,2801.000000,1836.000000,1482.000000
6429.000000,2802.000000,1837.000000,1483.000000
6434.000000,2804.000000,1839.000000,1483.000000
6435.000000,2804.000000,1840.000000,1484.000000
6429.000000,2802.000000,1837.000000,1482.000000
6421.000000,2800.000000,1834.000000,1481.000000
6409.000000,2797.000000,1829.000000,1479.000000
6398.000000,2794.000000,1825.000000,1477.000000
6392.000000,2792.000000,1822.000000,1476.000000
6384.000000,2790.000000,1819.000000,1474.000000
6380.000000,2789.000000,1817.000000,1474.000000
6378.000000,2789.000000,1816.000000,1473.000000
6378.000000,2788.000000,1816.000000,1473.000000
6379.000000,2789.000000,1817.000000,1473.000000
6380.000000,2789.000000,1817.000000,1474.000000
6381.000000,2789.000000,1818.000000,1474.000000
6381.000000,2789.000000,1818.000000,1474.000000
6382.000000,2790.000000,1818.000000,1474.000000
6384.000000,2790.000000,1819.000000,1474.000000
6386.000000,2791.000000,1819.000000,1475.000000
6387.000000,2791.000000,1820.000000,1475.000000
6391.000000,2792.000000,1821.000000,1476.000000
6392.000000,2792.000000,1822.000000,1476.000000
6397.000000,2794.000000,1824.000000,1477.000000
6399.000000,2794.000000,1825.000000,1477.000000
6399.000000,2795.000000,1826.000000,1478.000000
6402.000000,2795.000000,1827.000000,1478.000000
6405.000000,2795.000000,1829.000000,1479.000000
6408.000000,2796.000000,1830.000000,1479.000000
6410.000000,2796.000000,1830.000000,1480.000000
6412.000000,2797.000000,1831.000000,1480.000000
6414.000000,2797.000000,1832.000000,1480.000000
6417.000000,2798.000000,1833.000000,1481.000000
6418.000000,2798.000000,1834.000000,1481.000000
6414.000000,2797.000000,1832.000000,1480.000000
6405.000000,2794.000000,1828.000000,1478.000000
6393.000000,2791.000000,1823.000000,1476.000000
6383.000000,2789.000000,1819.000000,1474.000000
6378.000000,2788.000000,1817.000000,1474.000000
6375.000000,2788.000000,1815.000000,1473.000000
6371.000000,2787.000000,1813.000000,1472.000000
6367.000000,2785.000000,1812.000000,1472.000000
6368.000000,2786.000000,1812.000000,1472.000000
6369.000000,2786.000000,1813.000000,1472.000000
6369.000000,2786.000000,1813.000000,1472.000000
6368.000000,2785.000000,1812.000000,1472.000000
6365.000000,2784.000000,1812.000000,1471.000000
6365.000000,2784.000000,1811.000000,1471.000000
6365.000000,2784.000000,1812.000000,1471.000000
6366.000000,2784.000000,1812.000000,1471.000000
6369.000000,2785.000000,1813.000000,1472.000000
6371.000000,2786.000000,1814.000000,1472.000000
6374.000000,2786.000000,1815.000000,1473.000000
6377.000000,2787.000000,1817.000000,1473.000000
6380.000000,2788.000000,1818.000000,1474.000000
6385.000000,2789.000000,1820.000000,1475.000000
6387.000000,2790.000000,1821.000000,1475.000000
6389.000000,2790.000000,1822.000000,1476.000000
6391.000000,2790.000000,1823.000000,1476.000000
6393.000000,2791.000000,1824.000000,1476.000000
6396.000000,2791.000000,1825.000000,1477.000000
6399.000000,2792.000000,1826.000000,1477.000000
6398.000000,2792.000000,1826.000000,1477.000000
6391.000000,2790.000000,1823.000000,1476.000000
6380.000000,2787.000000,1818.000000,1474.000000
6369.000000,2784.000000,1814.000000,1472.000000
6361.000000,2782.000000,1810.000000,1470.000000
6355.000000,2781.000000,1808.000000,1469.000000
6352.000000,2780.000000,1807.000000,1469.000000
6349.000000,2779.000000,1805.000000,1468.000000
6348.000000,2778.000000,1805.000000,1468.000000
6349.000000,2779.000000,1805.000000,1468.000000
6351.000000,2779.000000,1806.000000,1468.000000
6351.000000,2779.000000,1806.000000,1468.000000
6354.000000,2780.000000,1807.000000,1469.000000
6356.000000,2781.000000,1808.000000,1469.000000
6356.000000,2781.000000,1808.000000,1470.000000
6358.000000,2782.000000,1809.000000,1470.000000
6360.000000,2782.000000,1810.000000,1470.000000
6363.000000,2783.000000,1811.000000,1471.000000
6365.000000,2784.000000,1812.000000,1471.000000
6367.000000,2784.000000,1813.000000,1471.000000
6369.000000,2784.000000,1814.000000,1472.000000
6370.000000,2784.000000,1814.000000,1472.000000
6374.000000,2785.000000,1816.000000,1472.000000
6377.000000,2786.000000,1817.000000,1473.000000
6379.000000,2786.000000,1818.000000,1473.000000
6382.000000,2787.000000,1819.000000,1474.000000
6385.000000,2788.000000,1821.000000,1474.000000
6386.000000,2788.000000,1821.000000,1474.000000
6380.000000,2787.000000,1819.000000,1474.000000
6371.000000,2784.000000,1815.000000,1472.000000
6360.000000,2781.000000,1810.000000,1470.000000
6350.000000,2779.000000,1806.000000,1468.000000
6344.000000,2777.000000,1804.000000,1467.000000
6340.000000,2776.000000,1802.000000,1466.000000
6337.000000,2775.000000,1800.000000,1466.000000
6335.000000,2775.000000,1800.000000,1465.000000
6336.000000,2775.000000,1800.000000,1466.000000
6337.000000,2775.000000,1801.000000,1466.000000
6338.000000,2775.000000,1801.000000,1466.000000
6338.000000,2775.000000,1801.000000,1466.000000
6339.000000,2775.000000,1801.000000,1466.000000
6340.000000,2776.000000,1802.000000,1466.000000
6341.000000,2776.000000,1802.000000,1467.000000
6344.000000,2777.000000,1803.000000,1467.000000
6346.000000,2777.000000,1804.000000,1467.000000
6349.000000,2778.000000,1805.000000,1468.000000
6352.000000,2779.000000,1807.000000,1469.000000
6355.000000,2780.000000,1808.000000,1469.000000
6359.000000,2781.000000,1810.000000,1470.000000
6365.000000,2783.000000,1812.000000,1471.000000
6370.000000,2785.000000,1814.000000,1472.000000
6371.000000,2784.000000,1814.000000,1472.000000
6373.000000,2785.000000,1815.000000,1473.000000
6374.000000,2785.000000,1816.000000,1473.000000
6373.000000,2784.000000,1815.000000,1473.000000
6373.000000,2785.000000,1815.000000,1473.000000
6371.000000,2784.000000,1814.000000,1472.000000
6360.000000,2781.000000,1810.000000,1471.000000
6347.000000,2777.000000,1805.000000,1468.000000
6336.000000,2775.000000,1800.000000,1466.000000
6327.000000,2772.000000,1796.000000,1464.000000
6320.000000,2770.000000,1793.000000,1463.000000
6315.000000,2769.000000,1791.000000,1462.000000
6314.000000,2769.000000,1791.000000,1462.000000
6311.000000,2768.000000,1790.000000,1462.000000
6312.000000,2768.000000,1790.000000,1462.000000
6313.000000,2769.000000,1790.000000,1462.000000
6315.000000,2769.000000,1791.000000,1462.000000
6313.000000,2769.000000,1790.000000,1462.000000
6315.000000,2769.000000,1791.000000,1462.000000
6315.000000,2769.000000,1791.000000,1463.000000
6316.000000,2770.000000,1792.000000,1463.000000
6317.000000,2769.000000,1792.000000,1463.000000
6317.000000,2769.000000,1793.000000,1463.000000
6320.000000,2770.000000,1795.000000,1464.000000
6323.000000,2771.000000,1795.000000,1464.000000
6326.000000,2772.000000,1796.000000,1465.000000
6329.000000,2772.000000,1797.000000,1465.000000
6333.000000,2773.000000,1799.000000,1466.000000
6337.000000,2774.000000,1801.000000,1466.000000
6342.000000,2775.000000,1803.000000,1467.000000
6347.000000,2777.000000,1805.000000,1468.000000
6350.000000,2778.000000,1806.000000,1469.000000
6354.000000,2779.000000,1808.000000,1469.000000
6359.000000,2780.000000,1810.000000,1470.000000
6362.000000,2780.000000,1811.000000,1470.000000
6365.000000,2782.000000,1813.000000,1471.000000
6359.000000,2781.000000,1810.000000,1470.000000
6349.000000,2778.000000,1806.000000,1468.000000
6338.000000,2775.000000,1801.000000,1466.000000
6332.000000,2773.000000,1799.000000,1465.000000
6328.000000,2773.000000,1797.000000,1465.000000
6324.000000,2772.000000,1795.000000,1464.000000
6320.000000,2770.000000,1794.000000,1463.000000
6319.000000,2770.000000,1794.000000,1463.000000
6320.000000,2770.000000,1794.000000,1463.000000
6321.000000,2770.000000,1795.000000,1463.000000
6322.000000,2770.000000,1795.000000,1463.000000
6322.000000,2770.000000,1795.000000,1463.000000
6323.000000,2770.000000,1796.000000,1463.000000
6322.000000,2770.000000,1796.000000,1463.000000
6324.000000,2771.000000,1796.000000,1463.000000
6325.000000,2771.000000,1797.000000,1463.000000
6327.000000,2772.000000,1798.000000,1463.000000
6330.000000,2772.000000,1799.000000,1464.000000
6335.000000,2773.000000,1801.000000,1465.000000
6337.000000,2774.000000,1802.000000,1465.000000
6340.000000,2775.000000,1804.000000,1466.000000
6344.000000,2776.000000,1805.000000,1466.000000
6346.000000,2776.000000,1806.000000,1467.000000
6349.000000,2777.000000,1807.000000,1467.000000
6351.000000,2777.000000,1808.000000,1468.000000
6353.000000,2778.000000,1809.000000,1468.000000
6352.000000,2777.000000,1808.000000,1468.000000
6344.000000,2775.000000,1805.000000,1466.000000
6333.000000,2772.000000,1801.000000,1465.000000
6324.000000,2770.000000,1797.000000,1463.000000
6316.000000,2768.000000,1793.000000,1462.000000
6311.000000,2766.000000,1791.000000,1461.000000
6307.000000,2765.000000,1790.000000,1460.000000
6306.000000,2766.000000,1789.000000,1460.000000
6305.000000,2765.000000,1789.000000,1460.000000
6306.000000,2765.000000,1789.000000,1460.000000
6309.000000,2766.000000,1791.000000,1460.000000
6315.000000,2768.000000,1793.000000,1462.000000
6315.000000,2768.000000,1793.000000,1462.000000
6315.000000,2768.000000,1793.000000,1462.000000
6318.000000,2769.000000,1794.000000,1462.000000
6319.000000,2769.000000,1794.000000,1462.000000
6324.000000,2771.000000,1796.000000,1463.000000
6326.000000,2771.000000,1797.000000,1464.000000
6329.000000,2772.000000,1799.000000,1464.000000
6332.000000,2772.000000,1800.000000,1464.000000
6333.000000,2772.000000,1801.000000,1465.000000
6339.000000,2774.000000,1803.000000,1466.000000
6342.000000,2775.000000,1805.000000,1466.000000
6345.000000,2775.000000,1806.000000,1467.000000
6349.000000,2776.000000,1808.000000,1467.000000
6353.000000,2777.000000,1809.000000,1468.000000
6357.000000,2778.000000,1811.000000,1469.000000
6360.000000,2779.000000,1813.000000,1469.000000
6361.000000,2779.000000,1813.000000,1469.000000
6356.000000,2778.000000,1811.000000,1468.000000
6345.000000,2775.000000,1806.000000,1466.000000
6333.000000,2772.000000,1801.000000,1464.000000
6322.000000,2769.000000,1797.000000,1462.000000
6316.000000,2768.000000,1794.000000,1461.000000
6309.000000,2766.000000,1791.000000,1460.000000
6303.000000,2764.000000,1789.000000,1459.000000
6301.000000,2763.000000,1788.000000,1458.000000
6301.000000,2763.000000,1788.000000,1458.000000
6302.000000,2764.000000,1789.000000,1459.000000
6302.000000,2764.000000,1789.000000,1459.000000
6304.000000,2764.000000,1789.000000,1459.000000
6303.000000,2764.000000,1789.000000,1459.000000
6302.000000,2764.000000,1789.000000,1458.000000
6302.000000,2764.000000,1789.000000,1458.000000
6302.000000,2764.000000,1789.000000,1458.000000
6304.000000,2764.000000,1790.000000,1459.000000
6308.000000,2766.000000,1791.000000,1459.000000
6311.000000,2766.000000,1792.000000,1460.000000
6316.000000,2768.000000,1794.000000,1461.000000
6319.000000,2768.000000,1796.000000,1462.000000
6323.000000,2769.000000,1797.000000,1463.000000
6329.000000,2771.000000,1799.000000,1464.000000
6332.000000,2772.000000,1801.000000,1464.000000
6335.000000,2773.000000,1802.000000,1465.000000
6336.000000,2773.000000,1803.000000,1465.000000
6337.000000,2773.000000,1803.000000,1465.000000
6330.000000,2771.000000,1801.000000,1464.000000
6321.000000,2768.000000,1797.000000,1462.000000
6309.000000,2765.000000,1792.000000,1460.000000
6302.000000,2763.000000,1789.000000,1459.000000
6298.000000,2763.000000,1787.000000,1458.000000
6293.000000,2761.000000,1785.000000,1457.000000
6291.000000,2761.000000,1784.000000,1457.000000
6289.000000,2760.000000,1783.000000,1457.000000
6289.000000,2760.000000,1783.000000,1456.000000
6289.000000,2760.000000,1784.000000,1457.000000
6290.000000,2760.000000,1784.000000,1457.000000
6291.000000,2760.000000,1785.000000,1457.000000
6292.000000,2761.000000,1785.000000,1457.000000
6292.000000,2760.000000,1785.000000,1457.000000
6292.000000,2760.000000,1785.000000,1457.000000
6295.000000,2761.000000,1786.000000,1457.000000
6295.000000,2761.000000,1786.000000,1457.000000
6299.000000,2762.000000,1788.000000,1458.000000
6302.000000,2763.000000,1789.000000,1459.000000
6305.000000,2764.000000,1790.000000,1459.000000
6309.000000,2764.000000,1792.000000,1460.000000
6312.000000,2765.000000,1794.000000,1460.000000
6316.000000,2766.000000,1795.000000,1461.000000
6320.000000,2767.000000,1797.000000,1462.000000
6323.000000,2768.000000,1798.000000,1462.000000
6327.000000,2769.000000,1800.000000,1463.000000
6331.000000,2770.000000,1802.000000,1464.000000
6335.000000,2771.000000,1803.000000,1464.000000
6336.000000,2771.000000,1804.000000,1464.000000
6332.000000,2771.000000,1802.000000,1464.000000
6320.000000,2767.000000,1797.000000,1462.000000
6311.000000,2765.000000,1792.000000,1460.000000
6301.000000,2762.000000,1789.000000,1458.000000
6296.000000,2761.000000,1786.000000,1457.000000
6293.000000,2761.000000,1785.000000,1457.000000
6291.000000,2760.000000,1784.000000,1456.000000
6288.000000,2759.000000,1783.000000,1456.000000
6289.000000,2759.000000,1784.000000,1456.000000
6290.000000,2759.000000,1784.000000,1456.000000
6291.000000,2760.000000,1785.000000,1456.000000
6292.000000,2760.000000,1785.000000,1457.000000
6292.000000,2760.000000,1785.000000,1457.000000
6293.000000,2760.000000,1786.000000,1457.000000
6295.000000,2760.000000,1787.000000,1457.000000
6299.000000,2761.000000,1788.000000,1458.000000
6302.000000,2762.000000,1789.000000,1458.000000
6305.000000,2763.000000,1791.000000,1459.000000
6309.000000,2764.000000,1792.000000,1460.000000
6311.000000,2764.000000,1793.000000,1460.000000
6314.000000,2765.000000,1794.000000,1460.000000
6314.000000,2765.000000,1795.000000,1461.000000
6314.000000,2765.000000,1795.000000,1461.000000
6315.000000,2765.000000,1795.000000,1461.000000
6315.000000,2765.000000,1795.000000,1461.000000
6319.000000,2766.000000,1797.000000,1461.000000
6322.000000,2767.000000,1798.000000,1462.000000
6323.000000,2767.000000,1799.000000,1462.000000
6318.000000,2766.000000,1797.000000,1461.000000
6306.000000,2762.000000,1792.000000,1459.000000
6296.000000,2760.000000,1787.000000,1457.000000
6287.000000,2758.000000,1784.000000,1456.000000
6281.000000,2756.000000,1781.000000,1455.000000
6280.000000,2756.000000,1780.000000,1454.000000
6279.000000,2755.000000,1780.000000,1454.000000
6283.000000,2757.000000,1781.000000,1455.000000
6289.000000,2759.000000,1784.000000,1456.000000
6290.000000,2759.000000,1784.000000,1456.000000
6292.000000,2759.000000,1785.000000,1457.000000
6295.000000,2760.000000,1786.000000,1457.000000
6297.000000,2761.000000,1787.000000,1458.000000
6297.000000,2761.000000,1787.000000,1458.000000
6299.000000,2761.000000,1788.000000,1458.000000
6300.000000,2761.000000,1789.000000,1458.000000
6303.000000,2762.000000,1790.000000,1459.000000
6305.000000,2762.000000,1791.000000,1459.000000
6309.000000,2763.000000,1793.000000,1460.000000
6313.000000,2764.000000,1795.000000,1460.000000
6316.000000,2765.000000,1796.000000,1461.000000
6321.000000,2766.000000,1798.000000,1462.000000
6325.000000,2767.000000,1800.000000,1462.000000
6329.000000,2768.000000,1801.000000,1463.000000
6332.000000,2769.000000,1803.000000,1464.000000
6337.000000,2770.000000,1805.000000,1465.000000
6342.000000,2772.000000,1807.000000,1465.000000
6342.000000,2772.000000,1807.000000,1465.000000
6338.000000,2771.000000,1805.000000,1465.000000
6327.000000,2767.000000,1801.000000,1463.000000
6316.000000,2764.000000,1796.000000,1461.000000
6308.000000,2763.000000,1792.000000,1459.000000
6301.000000,2761.000000,1790.000000,1458.000000
6297.000000,2760.000000,1788.000000,1457.000000
6294.000000,2759.000000,1787.000000,1457.000000
6294.000000,2759.000000,1787.000000,1457.000000
6295.000000,2759.000000,1787.000000,1457.000000
6296.000000,2759.000000,1787.000000,1457.000000
6295.000000,2759.000000,1787.000000,1457.000000
6295.000000,2759.000000,1787.000000,1457.000000
6296.000000,2759.000000,1787.000000,1457.000000
6295.000000,2759.000000,1788.000000,1457.000000
6297.000000,2760.000000,1788.000000,1458.000000
6299.000000,2760.000000,1789.000000,1458.000000
6303.000000,2761.000000,1791.000000,1459.000000
6308.000000,2763.000000,1793.000000,1460.000000
6312.000000,2764.000000,1794.000000,1460.000000
6318.000000,2766.000000,1796.000000,1462.000000
6320.000000,2766.000000,1797.000000,1462.000000
6324.000000,2767.000000,1799.000000,1463.000000
6329.000000,2769.000000,1801.000000,1463.000000
6330.000000,2769.000000,1802.000000,1464.000000
6333.000000,2769.000000,1803.000000,1464.000000
6336.000000,2770.000000,1804.000000,1464.000000
6335.000000,2770.000000,1804.000000,1464.000000
6331.000000,2769.000000,1803.000000,1464.000000
6320.000000,2765.000000,1798.000000,1462.000000
6309.000000,2763.000000,1793.000000,1460.000000
6309.000000,2760.000000,1789.000000,1458.000000
6299.000000,2758.000000,1786.000000,1457.000000
6293.000000,2758.000000,1785.000000,1457.000000
6289.000000,2757.000000,1783.000000,1456.000000
6285.000000,2756.000000,1783.000000,1456.000000
6285.000000,2756.000000,1783.000000,1456.000000
6284.000000,2756.000000,1783.000000,1456.000000
6285.000000,2756.000000,1784.000000,1456.000000
6286.000000,2756.000000,1784.000000,1456.000000
6286.000000,2756.000000,1784.000000,1456.000000
6286.000000,2756.000000,1784.000000,1456.000000
6286.000000,2756.000000,1784.000000,1456.000000
6289.000000,2757.000000,1785.000000,1456.000000
6291.000000,2757.000000,1786.000000,1457.000000
6294.000000,2758.000000,1787.000000,1457.000000
6296.000000,2758.000000,1788.000000,1458.000000
6299.000000,2759.000000,1790.000000,1458.000000
6302.000000,2760.000000,1791.000000,1459.000000
6305.000000,2760.000000,1792.000000,1459.000000
6307.000000,2761.000000,1793.000000,1460.000000
6310.000000,2762.000000,1794.000000,1460.000000
6313.000000,2762.000000,1796.000000,1461.000000
6317.000000,2763.000000,1797.000000,1461.000000
6323.000000,2765.000000,1799.000000,1462.000000
6330.000000,2768.000000,1802.000000,1464.000000
6328.000000,2767.000000,1802.000000,1464.000000
6322.000000,2765.000000,1799.000000,1463.000000
6308.000000,2762.000000,1793.000000,1460.000000
6295.000000,2758.000000,1788.000000,1458.000000
6285.000000,2755.000000,1783.000000,1456.000000
6280.000000,2754.000000,1781.000000,1455.000000
6273.000000,2752.000000,1779.000000,1454.000000
6272.000000,2752.000000,1778.000000,1453.000000
6270.000000,2751.000000,1778.000000,1453.000000
6272.000000,2751.000000,1779.000000,1453.000000
6273.000000,2751.000000,1779.000000,1453.000000
6275.000000,2752.000000,1780.000000,1454.000000
6274.000000,2752.000000,1780.000000,1454.000000
6273.000000,2751.000000,1779.000000,1453.000000
6274.000000,2752.000000,1780.000000,1454.000000
6276.000000,2752.000000,1781.000000,1454.000000
6280.000000,2753.000000,1782.000000,1455.000000
6282.000000,2754.000000,1783.000000,1455.000000
6287.000000,2755.000000,1785.000000,1456.000000
6289.000000,2756.000000,1786.000000,1456.000000
6293.000000,2757.000000,1788.000000,1457.000000
6297.000000,2758.000000,1790.000000,1458.000000
6301.000000,2759.000000,1791.000000,1458.000000
6304.000000,2759.000000,1793.000000,1459.000000
6308.000000,2760.000000,1794.000000,1460.000000
6312.000000,2761.000000,1796.000000,1460.000000
6314.000000,2762.000000,1797.000000,1461.000000
6316.000000,2763.000000,1798.000000,1461.000000
6314.000000,2761.000000,1797.000000,1461.000000
6305.000000,2759.000000,1793.000000,1459.000000
6297.000000,2757.000000,1790.000000,1458.000000
6286.000000,2754.000000,1785.000000,1456.000000
6280.000000,2753.000000,1782.000000,1454.000000
6277.000000,2752.000000,1781.000000,1454.000000
6274.000000,2751.000000,1780.000000,1453.000000
6275.000000,2752.000000,1780.000000,1454.000000
6275.000000,2752.000000,1780.000000,1454.000000
6277.000000,2753.000000,1781.000000,1454.000000
6275.000000,2752.000000,1780.000000,1454.000000
6273.000000,2752.000000,1779.000000,1454.000000
6274.000000,2752.000000,1779.000000,1454.000000
6275.000000,2752.000000,1780.000000,1454.000000
6274.000000,2752.000000,1780.000000,1454.000000
6274.000000,2751.000000,1780.000000,1453.000000
6276.000000,2752.000000,1781.000000,1454.000000
6277.000000,2752.000000,1782.000000,1454.000000
6281.000000,2753.000000,1783.000000,1455.000000
6282.000000,2753.000000,1784.000000,1455.000000
6285.000000,2754.000000,1785.000000,1455.000000
6288.000000,2755.000000,1786.000000,1456.000000
6291.000000,2756.000000,1788.000000,1456.000000
6293.000000,2756.000000,1789.000000,1457.000000
6296.000000,2757.000000,1790.000000,1457.000000
6300.000000,2758.000000,1791.000000,1458.000000
6302.000000,2758.000000,1792.000000,1458.000000
6300.000000,2758.000000,1792.000000,1458.000000
6293.000000,2756.000000,1789.000000,1457.000000
6282.000000,2753.000000,1784.000000,1455.000000
6272.000000,2750.000000,1780.000000,1453.000000
6266.000000,2749.000000,1778.000000,1452.000000
6264.000000,2748.000000,1776.000000,1451.000000
6262.000000,2747.000000,1776.000000,1451.000000
6261.000000,2747.000000,1776.000000,1451.000000
6262.000000,2748.000000,1776.000000,1451.000000
6264.000000,2748.000000,1777.000000,1451.000000
6265.000000,2748.000000,1777.000000,1451.000000
6264.000000,2748.000000,1777.000000,1451.000000
6265.000000,2748.000000,1777.000000,1451.000000
6266.000000,2749.000000,1778.000000,1451.000000
6269.000000,2749.000000,1779.000000,1452.000000
6271.000000,2750.000000,1780.000000,1452.000000
6276.000000,2752.000000,1782.000000,1453.000000
6282.000000,2753.000000,1784.000000,1455.000000
6286.000000,2754.000000,1786.000000,1455.000000
6291.000000,2756.000000,1787.000000,1456.000000
6296.000000,2757.000000,1789.000000,1457.000000
