11043.000000,11776.000000,8686.000000,0.000000,21504.000000
11042.000000,11776.000000,8686.000000,0.000000,21504.000000
11039.000000,11771.000000,8682.000000,0.000000,21504.000000
11040.000000,11771.000000,8684.000000,0.000000,21504.000000
11040.000000,11771.000000,8682.000000,0.000000,21504.000000
11039.000000,11771.000000,8683.000000,0.000000,21504.000000
11040.000000,11774.000000,8683.000000,0.000000,21504.000000
11040.000000,11772.000000,8683.000000,0.000000,21504.000000
11041.000000,11775.000000,8685.000000,0.000000,21504.000000
11041.000000,11777.000000,8687.000000,0.000000,21504.000000
11043.000000,11777.000000,8685.000000,0.000000,21504.000000
11044.000000,11776.000000,8685.000000,0.000000,21504.000000
11043.000000,11777.000000,8685.000000,0.000000,21504.000000
11046.000000,11780.000000,8688.000000,0.000000,21504.000000
11045.000000,11780.000000,8688.000000,0.000000,21504.000000
11043.000000,11779.000000,8686.000000,0.000000,21504.000000
11040.000000,11776.000000,8685.000000,0.000000,21504.000000
11038.000000,11772.000000,8683.000000,0.000000,21504.000000
11038.000000,11769.000000,8682.000000,0.000000,21504.000000
11035.000000,11769.000000,8674.000000,0.000000,21504.000000
11027.000000,11759.000000,8674.000000,0.000000,21504.000000
11030.000000,11764.000000,8676.000000,0.000000,21504.000000
11032.000000,11765.000000,8677.000000,0.000000,21504.000000
11035.000000,11768.000000,8678.000000,0.000000,21504.000000
11036.000000,11768.000000,8679.000000,0.000000,21504.000000
11038.000000,11770.000000,8680.000000,0.000000,21504.000000
11037.000000,11772.000000,8682.000000,0.000000,21504.000000
11037.000000,11774.000000,8683.000000,0.000000,21504.000000
11040.000000,11774.000000,8684.000000,0.000000,21504.000000
11040.000000,11777.000000,8684.000000,0.000000,21504.000000
11040.000000,11777.000000,8684.000000,0.000000,21504.000000
11040.000000,11779.000000,8686.000000,0.000000,21504.000000
11041.000000,11780.000000,8686.000000,0.000000,21504.000000
11037.000000,11775.000000,8683.000000,0.000000,21504.000000
11039.000000,11776.000000,8684.000000,0.000000,21504.000000
11038.000000,11774.000000,8682.000000,0.000000,21504.000000
11036.000000,11769.000000,8681.000000,0.000000,21504.000000
11036.000000,11769.000000,8680.000000,0.000000,21504.000000
11035.000000,11767.000000,8680.000000,0.000000,21504.000000
11035.000000,11769.000000,8680.000000,0.000000,21504.000000
11034.000000,11769.000000,8680.000000,0.000000,21504.000000
11034.000000,11768.000000,8679.000000,0.000000,21504.000000
11034.000000,11769.000000,8678.000000,0.000000,21504.000000
11033.000000,11768.000000,8678.000000,0.000000,21504.000000
11032.000000,11768.000000,8678.000000,0.000000,21504.000000
11032.000000,11770.000000,8679.000000,0.000000,21504.000000
11032.000000,11772.000000,8680.000000,0.000000,21504.000000
11035.000000,11772.000000,8680.000000,0.000000,21504.000000
11027.000000,11764.000000,8674.000000,0.000000,21504.000000
11031.000000,11771.000000,8678.000000,0.000000,21504.000000
11034.000000,11776.000000,8682.000000,0.000000,21504.000000
11038.000000,11780.000000,8684.000000,0.000000,21504.000000
11037.000000,11778.000000,8683.000000,0.000000,21504.000000
11036.000000,11774.000000,8681.000000,0.000000,21504.000000
11029.000000,11769.000000,8678.000000,0.000000,21504.000000
11029.000000,11769.000000,8678.000000,0.000000,21504.000000
11031.000000,11769.000000,8678.000000,0.000000,21504.000000
11030.000000,11770.000000,8677.000000,0.000000,21504.000000
11032.000000,11768.000000,8677.000000,0.000000,21504.000000
11030.000000,11768.000000,8675.000000,0.000000,21504.000000
11030.000000,11769.000000,8677.000000,0.000000,21504.000000
11032.000000,11768.000000,8676.000000,0.000000,21504.000000
11031.000000,11768.000000,8676.000000,0.000000,21504.000000
11031.000000,11771.000000,8676.000000,0.000000,21504.000000
11031.000000,11770.000000,8677.000000,0.000000,21504.000000
11031.000000,11770.000000,8679.000000,0.000000,21504.000000
11035.000000,11774.000000,8679.000000,0.000000,21504.000000
11034.000000,11775.000000,8679.000000,0.000000,21504.000000
11035.000000,11775.000000,8681.000000,0.000000,21504.000000
11036.000000,11779.000000,8681.000000,1.000000,21504.000000
11037.000000,11778.000000,8681.000000,1.000000,21504.000000
11036.000000,11774.000000,8680.000000,1.000000,21504.000000
11032.000000,11771.000000,8678.000000,1.000000,21504.000000
11029.000000,11767.000000,8676.000000,1.000000,21504.000000
11027.000000,11766.000000,8676.000000,1.000000,21504.000000
11027.000000,11751.000000,8665.000000,1.000000,21504.000000
11013.000000,11751.000000,8670.000000,1.000000,21504.000000
11021.000000,11759.000000,8670.000000,1.000000,21504.000000
11021.000000,11759.000000,8670.000000,1.000000,21504.000000
11025.000000,11761.000000,8672.000000,1.000000,21504.000000
11024.000000,11763.000000,8672.000000,1.000000,21504.000000
11026.000000,11764.000000,8673.000000,1.000000,21504.000000
11026.000000,11762.000000,8672.000000,1.000000,21504.000000
11027.000000,11766.000000,8673.000000,1.000000,21504.000000
11027.000000,11767.000000,8672.000000,1.000000,21504.000000
11027.000000,11767.000000,8672.000000,1.000000,21504.000000
11027.000000,11767.000000,8672.000000,1.000000,21504.000000
11014.000000,11753.000000,8664.000000,1.000000,21504.000000
11014.000000,11754.000000,8665.000000,1.000000,21504.000000
11011.000000,11750.000000,8663.000000,1.000000,21504.000000
11007.000000,11748.000000,8660.000000,1.000000,21504.000000
11005.000000,11746.000000,8659.000000,1.000000,21504.000000
11003.000000,11742.000000,8657.000000,1.000000,21504.000000
11002.000000,11741.000000,8657.000000,1.000000,21504.000000
11002.000000,11739.000000,8656.000000,1.000000,21504.000000
11000.000000,11739.000000,8656.000000,1.000000,21504.000000
10999.000000,11737.000000,8655.000000,1.000000,21504.000000
11000.000000,11737.000000,8655.000000,1.000000,21504.000000
10998.000000,11735.000000,8654.000000,1.000000,21504.000000
10997.000000,11736.000000,8654.000000,1.000000,21504.000000
10997.000000,11737.000000,8654.000000,1.000000,21504.000000
10999.000000,11739.000000,8654.000000,1.000000,21504.000000
10998.000000,11739.000000,8655.000000,1.000000,21504.000000
10998.000000,11739.000000,8654.000000,1.000000,21504.000000
10998.000000,11739.000000,8654.000000,1.000000,21504.000000
10998.000000,11738.000000,8655.000000,1.000000,21504.000000
11000.000000,11741.000000,8655.000000,1.000000,21504.000000
11000.000000,11743.000000,8656.000000,1.000000,21504.000000
10997.000000,11737.000000,8654.000000,1.000000,21504.000000
10994.000000,11735.000000,8653.000000,1.000000,21504.000000
10991.000000,11729.000000,8649.000000,1.000000,21504.000000
10989.000000,11723.000000,8646.000000,1.000000,21504.000000
10989.000000,11720.000000,8645.000000,1.000000,21504.000000
10987.000000,11720.000000,8643.000000,1.000000,21504.000000
10987.000000,11718.000000,8643.000000,1.000000,21504.000000
10984.000000,11717.000000,8643.000000,1.000000,21504.000000
10981.000000,11714.000000,8642.000000,1.000000,21504.000000
10982.000000,11713.000000,8642.000000,1.000000,21504.000000
10981.000000,11714.000000,8642.000000,1.000000,21504.000000
10981.000000,11713.000000,8642.000000,1.000000,21504.000000
10981.000000,11713.000000,8641.000000,1.000000,21504.000000
10981.000000,11713.000000,8641.000000,1.000000,21504.000000
10980.000000,11713.000000,8643.000000,1.000000,21504.000000
10981.000000,11715.000000,8643.000000,1.000000,21504.000000
10982.000000,11719.000000,8644.000000,1.000000,21504.000000
10984.000000,11722.000000,8644.000000,1.000000,21504.000000
10982.000000,11718.000000,8642.000000,1.000000,21504.000000
10978.000000,11712.000000,8640.000000,1.000000,21504.000000
10974.000000,11708.000000,8639.000000,1.000000,21504.000000
10971.000000,11708.000000,8637.000000,1.000000,21504.000000
10965.000000,11703.000000,8635.000000,1.000000,21504.000000
10965.000000,11703.000000,8633.000000,1.000000,21504.000000
10964.000000,11700.000000,8633.000000,1.000000,21504.000000
10962.000000,11698.000000,8632.000000,1.000000,21504.000000
10962.000000,11698.000000,8632.000000,1.000000,21504.000000
10961.000000,11697.000000,8633.000000,1.000000,21504.000000
10961.000000,11698.000000,8633.000000,1.000000,21504.000000
10964.000000,11698.000000,8633.000000,1.000000,21504.000000
10963.000000,11698.000000,8633.000000,1.000000,21504.000000
10963.000000,11699.000000,8632.000000,1.000000,21504.000000
10963.000000,11699.000000,8633.000000,1.000000,21504.000000
10965.000000,11700.000000,8633.000000,1.000000,21504.000000
10966.000000,11701.000000,8635.000000,1.000000,21504.000000
10967.000000,11702.000000,8637.000000,1.000000,21504.000000
10967.000000,11706.000000,8636.000000,1.000000,21504.000000
10967.000000,11705.000000,8637.000000,1.000000,21504.000000
10964.000000,11700.000000,8632.000000,1.000000,21504.000000
10962.000000,11698.000000,8631.000000,1.000000,21504.000000
10960.000000,11695.000000,8631.000000,1.000000,21504.000000
10960.000000,11694.000000,8630.000000,1.000000,21504.000000
10957.000000,11694.000000,8630.000000,1.000000,21504.000000
10957.000000,11691.000000,8627.000000,1.000000,21504.000000
10956.000000,11690.000000,8627.000000,1.000000,21504.000000
10953.000000,11690.000000,8628.000000,1.000000,21504.000000
10955.000000,11690.000000,8629.000000,1.000000,21504.000000
10954.000000,11689.000000,8628.000000,1.000000,21504.000000
10953.000000,11690.000000,8628.000000,1.000000,21504.000000
10954.000000,11692.000000,8628.000000,1.000000,21504.000000
10954.000000,11693.000000,8628.000000,1.000000,21504.000000
10952.000000,11693.000000,8628.000000,1.000000,21504.000000
10954.000000,11694.000000,8630.000000,1.000000,21504.000000
10954.000000,11695.000000,8630.000000,1.000000,21504.000000
10956.000000,11696.000000,8631.000000,1.000000,21504.000000
10961.000000,11699.000000,8633.000000,1.000000,21504.000000
10959.000000,11700.000000,8633.000000,1.000000,21504.000000
10956.000000,11698.000000,8631.000000,1.000000,21504.000000
10952.000000,11693.000000,8630.000000,1.000000,21504.000000
10952.000000,11690.000000,8628.000000,1.000000,21504.000000
10950.000000,11690.000000,8627.000000,1.000000,21504.000000
10949.000000,11689.000000,8627.000000,1.000000,21504.000000
10945.000000,11687.000000,8627.000000,1.000000,21504.000000
10946.000000,11685.000000,8625.000000,1.000000,21504.000000
10946.000000,11685.000000,8626.000000,1.000000,21504.000000
10945.000000,11684.000000,8625.000000,1.000000,21504.000000
10946.000000,11685.000000,8626.000000,1.000000,21504.000000
10947.000000,11687.000000,8626.000000,1.000000,21504.000000
10947.000000,11690.000000,8628.000000,1.000000,21504.000000
10948.000000,11690.000000,8628.000000,1.000000,21504.000000
10950.000000,11692.000000,8628.000000,1.000000,21504.000000
10952.000000,11694.000000,8629.000000,1.000000,21504.000000
10952.000000,11697.000000,8631.000000,1.000000,21504.000000
10954.000000,11698.000000,8631.000000,1.000000,21504.000000
10955.000000,11698.000000,8631.000000,1.000000,21504.000000
10952.000000,11696.000000,8631.000000,1.000000,21504.000000
10952.000000,11696.000000,8630.000000,1.000000,21504.000000
10948.000000,11691.000000,8628.000000,1.000000,21504.000000
10948.000000,11691.000000,8628.000000,1.000000,21504.000000
10945.000000,11689.000000,8628.000000,1.000000,21504.000000
10943.000000,11688.000000,8626.000000,1.000000,21504.000000
10941.000000,11686.000000,8627.000000,0.000000,21504.000000
10942.000000,11683.000000,8624.000000,0.000000,21504.000000
10942.000000,11683.000000,8624.000000,0.000000,21504.000000
10941.000000,11681.000000,8624.000000,0.000000,21504.000000
10942.000000,11684.000000,8625.000000,0.000000,21504.000000
10943.000000,11687.000000,8627.000000,0.000000,21504.000000
10953.000000,11696.000000,8632.000000,0.000000,21504.000000
10963.000000,11705.000000,8638.000000,0.000000,21504.000000
10962.000000,11707.000000,8638.000000,0.000000,21504.000000
10962.000000,11709.000000,8640.000000,0.000000,21504.000000
10965.000000,11709.000000,8640.000000,0.000000,21504.000000
10967.000000,11711.000000,8640.000000,0.000000,21504.000000
10968.000000,11711.000000,8641.000000,0.000000,21504.000000
10966.000000,11710.000000,8641.000000,0.000000,21504.000000
10961.000000,11706.000000,8639.000000,0.000000,21504.000000
10959.000000,11703.000000,8639.000000,0.000000,21504.000000
10957.000000,11702.000000,8637.000000,0.000000,21504.000000
10955.000000,11697.000000,8635.000000,0.000000,21504.000000
10955.000000,11694.000000,8633.000000,0.000000,21504.000000
10954.000000,11694.000000,8634.000000,0.000000,21504.000000
10953.000000,11694.000000,8634.000000,0.000000,21504.000000
10953.000000,11693.000000,8632.000000,0.000000,21504.000000
10951.000000,11692.000000,8633.000000,0.000000,21504.000000
10954.000000,11693.000000,8633.000000,0.000000,21504.000000
10951.000000,11690.000000,8632.000000,0.000000,21504.000000
10954.000000,11696.000000,8634.000000,0.000000,21504.000000
10953.000000,11696.000000,8634.000000,0.000000,21504.000000
10954.000000,11699.000000,8636.000000,0.000000,21504.000000
10954.000000,11699.000000,8632.000000,0.000000,21504.000000
10948.000000,11694.000000,8632.000000,0.000000,21504.000000
10943.000000,11687.000000,8627.000000,0.000000,21504.000000
10959.000000,11704.000000,8639.000000,0.000000,21504.000000
10958.000000,11705.000000,8639.000000,0.000000,21504.000000
10953.000000,11700.000000,8637.000000,0.000000,21504.000000
10953.000000,11698.000000,8635.000000,0.000000,21504.000000
10949.000000,11691.000000,8632.000000,0.000000,21504.000000
10949.000000,11690.000000,8631.000000,0.000000,21504.000000
10949.000000,11690.000000,8629.000000,0.000000,21504.000000
10945.000000,11686.000000,8629.000000,0.000000,21504.000000
10946.000000,11683.000000,8628.000000,0.000000,21504.000000
10944.000000,11685.000000,8629.000000,0.000000,21504.000000
10944.000000,11683.000000,8628.000000,0.000000,21504.000000
10943.000000,11684.000000,8627.000000,0.000000,21504.000000
10943.000000,11685.000000,8627.000000,0.000000,21504.000000
10944.000000,11685.000000,8627.000000,0.000000,21504.000000
10943.000000,11683.000000,8626.000000,0.000000,21504.000000
10943.000000,11687.000000,8629.000000,0.000000,21504.000000
10944.000000,11687.000000,8629.000000,0.000000,21504.000000
10945.000000,11689.000000,8628.000000,0.000000,21504.000000
10950.000000,11690.000000,8630.000000,0.000000,21504.000000
10948.000000,11689.000000,8629.000000,0.000000,21504.000000
10943.000000,11683.000000,8628.000000,0.000000,21504.000000
10941.000000,11678.000000,8626.000000,0.000000,21504.000000
10938.000000,11672.000000,8624.000000,0.000000,21504.000000
10936.000000,11668.000000,8622.000000,0.000000,21504.000000
10936.000000,11665.000000,8621.000000,0.000000,21504.000000
10934.000000,11665.000000,8621.000000,0.000000,21504.000000
10923.000000,11658.000000,8614.000000,0.000000,21504.000000
10916.000000,11651.000000,8608.000000,0.000000,21504.000000
10934.000000,11665.000000,8620.000000,0.000000,21504.000000
10931.000000,11666.000000,8620.000000,0.000000,21504.000000
10934.000000,11668.000000,8621.000000,0.000000,21504.000000
10936.000000,11669.000000,8621.000000,0.000000,21504.000000
10936.000000,11669.000000,8622.000000,0.000000,21504.000000
10936.000000,11673.000000,8623.000000,0.000000,21504.000000
10938.000000,11673.000000,8624.000000,0.000000,21504.000000
10939.000000,11675.000000,8624.000000,0.000000,21504.000000
10938.000000,11676.000000,8624.000000,0.000000,21504.000000
10940.000000,11680.000000,8625.000000,0.000000,21504.000000
10938.000000,11677.000000,8624.000000,0.000000,21504.000000
10935.000000,11674.000000,8623.000000,0.000000,21504.000000
10934.000000,11669.000000,8620.000000,0.000000,21504.000000
10930.000000,11662.000000,8618.000000,0.000000,21504.000000
10930.000000,11661.000000,8617.000000,0.000000,21504.000000
10929.000000,11661.000000,8615.000000,0.000000,21504.000000
10929.000000,11658.000000,8615.000000,0.000000,21504.000000
10928.000000,11656.000000,8615.000000,0.000000,21504.000000
10928.000000,11658.000000,8617.000000,0.000000,21504.000000
10925.000000,11658.000000,8615.000000,0.000000,21504.000000
10926.000000,11659.000000,8617.000000,0.000000,21504.000000
10930.000000,11664.000000,8620.000000,0.000000,21504.000000
10929.000000,11667.000000,8619.000000,0.000000,21504.000000
10932.000000,11669.000000,8621.000000,0.000000,21504.000000
10932.000000,11669.000000,8623.000000,0.000000,21504.000000
10934.000000,11672.000000,8623.000000,0.000000,21504.000000
10929.000000,11669.000000,8619.000000,0.000000,21504.000000
10920.000000,11662.000000,8612.000000,0.000000,21504.000000
10940.000000,11682.000000,8625.000000,0.000000,21504.000000
10937.000000,11680.000000,8625.000000,0.000000,21504.000000
10939.000000,11682.000000,8626.000000,0.000000,21504.000000
10936.000000,11678.000000,8624.000000,0.000000,21504.000000
10934.000000,11675.000000,8623.000000,0.000000,21504.000000
10934.000000,11675.000000,8622.000000,0.000000,21504.000000
10935.000000,11674.000000,8622.000000,0.000000,21504.000000
10932.000000,11673.000000,8623.000000,0.000000,21504.000000
10932.000000,11673.000000,8623.000000,0.000000,21504.000000
10935.000000,11675.000000,8623.000000,0.000000,21504.000000
10933.000000,11675.000000,8623.000000,0.000000,21504.000000
10933.000000,11675.000000,8623.000000,0.000000,21504.000000
10929.000000,11675.000000,8622.000000,0.000000,21504.000000
10936.000000,11680.000000,8624.000000,0.000000,21504.000000
10936.000000,11682.000000,8625.000000,0.000000,21504.000000
10936.000000,11682.000000,8625.000000,0.000000,21504.000000
10940.000000,11685.000000,8626.000000,0.000000,21504.000000
10940.000000,11688.000000,8627.000000,0.000000,21504.000000
10940.000000,11690.000000,8627.000000,0.000000,21504.000000
10942.000000,11690.000000,8627.000000,0.000000,21504.000000
10941.000000,11689.000000,8627.000000,0.000000,21504.000000
10938.000000,11687.000000,8626.000000,0.000000,21504.000000
10936.000000,11684.000000,8624.000000,0.000000,21504.000000
10936.000000,11683.000000,8624.000000,0.000000,21504.000000
10938.000000,11683.000000,8624.000000,0.000000,21504.000000
10936.000000,11683.000000,8624.000000,0.000000,21504.000000
10931.000000,11679.000000,8621.000000,0.000000,21504.000000
10918.000000,11668.000000,8613.000000,0.000000,21504.000000
10939.000000,11685.000000,8625.000000,0.000000,21504.000000
10940.000000,11685.000000,8625.000000,0.000000,21504.000000
10939.000000,11687.000000,8625.000000,0.000000,21504.000000
10942.000000,11690.000000,8626.000000,0.000000,21504.000000
10942.000000,11693.000000,8627.000000,0.000000,21504.000000
10939.000000,11690.000000,8626.000000,1.000000,21504.000000
10942.000000,11695.000000,8628.000000,1.000000,21504.000000
10942.000000,11695.000000,8628.000000,1.000000,21504.000000
10942.000000,11695.000000,8628.000000,1.000000,21504.000000
10942.000000,11695.000000,8628.000000,1.000000,21504.000000
10943.000000,11697.000000,8631.000000,1.000000,21504.000000
10944.000000,11696.000000,8630.000000,1.000000,21504.000000
10944.000000,11691.000000,8627.000000,1.000000,21504.000000
10941.000000,11691.000000,8627.000000,1.000000,21504.000000
10940.000000,11689.000000,8626.000000,1.000000,21504.000000
10939.000000,11686.000000,8625.000000,1.000000,21504.000000
10936.000000,11684.000000,8624.000000,1.000000,21504.000000
10934.000000,11685.000000,8623.000000,1.000000,21504.000000
10930.000000,11682.000000,8619.000000,1.000000,21504.000000
10933.000000,11685.000000,8621.000000,1.000000,21504.000000
10935.000000,11684.000000,8623.000000,1.000000,21504.000000
10935.000000,11685.000000,8623.000000,1.000000,21504.000000
10935.000000,11685.000000,8622.000000,1.000000,21504.000000
10934.000000,11685.000000,8622.000000,1.000000,21504.000000
10933.000000,11685.000000,8623.000000,1.000000,21504.000000
10936.000000,11685.000000,8623.000000,1.000000,21504.000000
10938.000000,11690.000000,8625.000000,1.000000,21504.000000
10934.000000,11689.000000,8624.000000,1.000000,21504.000000
10927.000000,11681.000000,8620.000000,1.000000,21504.000000
10908.000000,11664.000000,8609.000000,1.000000,21504.000000
10905.000000,11658.000000,8606.000000,1.000000,21504.000000
10905.000000,11658.000000,8603.000000,1.000000,21504.000000
10900.000000,11655.000000,8603.000000,1.000000,21504.000000
10899.000000,11651.000000,8602.000000,1.000000,21504.000000
10896.000000,11647.000000,8600.000000,1.000000,21504.000000
10896.000000,11647.000000,8600.000000,1.000000,21504.000000
10897.000000,11648.000000,8599.000000,1.000000,21504.000000
10896.000000,11647.000000,8598.000000,1.000000,21504.000000
10898.000000,11646.000000,8600.000000,1.000000,21504.000000
10899.000000,11649.000000,8601.000000,1.000000,21504.000000
10899.000000,11650.000000,8601.000000,1.000000,21504.000000
10899.000000,11650.000000,8601.000000,1.000000,21504.000000
10899.000000,11651.000000,8601.000000,1.000000,21504.000000
10899.000000,11650.000000,8601.000000,1.000000,21504.000000
10897.000000,11649.000000,8600.000000,1.000000,21504.000000
10894.000000,11643.000000,8597.000000,1.000000,21504.000000
10887.000000,11636.000000,8593.000000,1.000000,21504.000000
10883.000000,11632.000000,8590.000000,1.000000,21504.000000
10880.000000,11629.000000,8589.000000,1.000000,21504.000000
10880.000000,11627.000000,8587.000000,1.000000,21504.000000
10880.000000,11627.000000,8587.000000,1.000000,21504.000000
10879.000000,11626.000000,8587.000000,1.000000,21504.000000
10879.000000,11623.000000,8585.000000,1.000000,21504.000000
10880.000000,11624.000000,8587.000000,1.000000,21504.000000
10880.000000,11624.000000,8586.000000,1.000000,21504.000000
10880.000000,11625.000000,8585.000000,1.000000,21504.000000
10878.000000,11625.000000,8585.000000,1.000000,21504.000000
10880.000000,11625.000000,8586.000000,1.000000,21504.000000
10880.000000,11626.000000,8586.000000,1.000000,21504.000000
10879.000000,11626.000000,8586.000000,1.000000,21504.000000
10877.000000,11624.000000,8586.000000,1.000000,21504.000000
10874.000000,11618.000000,8584.000000,1.000000,21504.000000
10870.000000,11613.000000,8580.000000,1.000000,21504.000000
10865.000000,11606.000000,8578.000000,1.000000,21504.000000
10857.000000,11603.000000,8575.000000,1.000000,21504.000000
10856.000000,11599.000000,8573.000000,1.000000,21504.000000
10853.000000,11595.000000,8571.000000,1.000000,21504.000000
10853.000000,11592.000000,8569.000000,1.000000,21504.000000
10851.000000,11592.000000,8570.000000,1.000000,21504.000000
10854.000000,11591.000000,8570.000000,1.000000,21504.000000
10852.000000,11592.000000,8569.000000,1.000000,21504.000000
10853.000000,11591.000000,8570.000000,1.000000,21504.000000
10848.000000,11593.000000,8568.000000,1.000000,21504.000000
10850.000000,11592.000000,8568.000000,1.000000,21504.000000
10851.000000,11594.000000,8571.000000,1.000000,21504.000000
10854.000000,11596.000000,8572.000000,1.000000,21504.000000
10855.000000,11599.000000,8573.000000,1.000000,21504.000000
10855.000000,11599.000000,8573.000000,1.000000,21504.000000
10854.000000,11599.000000,8573.000000,1.000000,21504.000000
10849.000000,11594.000000,8569.000000,1.000000,21504.000000
10844.000000,11588.000000,8567.000000,1.000000,21504.000000
10842.000000,11583.000000,8563.000000,1.000000,21504.000000
10836.000000,11576.000000,8560.000000,1.000000,21504.000000
10836.000000,11571.000000,8559.000000,1.000000,21504.000000
10832.000000,11569.000000,8558.000000,1.000000,21504.000000
10833.000000,11568.000000,8557.000000,1.000000,21504.000000
10833.000000,11568.000000,8557.000000,1.000000,21504.000000
10833.000000,11569.000000,8557.000000,1.000000,21504.000000
10832.000000,11571.000000,8558.000000,1.000000,21504.000000
10831.000000,11571.000000,8559.000000,1.000000,21504.000000
10835.000000,11574.000000,8559.000000,1.000000,21504.000000
10835.000000,11574.000000,8560.000000,1.000000,21504.000000
10837.000000,11578.000000,8561.000000,1.000000,21504.000000
10838.000000,11580.000000,8563.000000,1.000000,21504.000000
10841.000000,11585.000000,8565.000000,1.000000,21504.000000
10841.000000,11587.000000,8565.000000,1.000000,21504.000000
10841.000000,11587.000000,8565.000000,1.000000,21504.000000
10840.000000,11587.000000,8566.000000,1.000000,21504.000000
10837.000000,11584.000000,8565.000000,1.000000,21504.000000
10836.000000,11581.000000,8563.000000,1.000000,21504.000000
10832.000000,11576.000000,8561.000000,1.000000,21504.000000
10828.000000,11572.000000,8559.000000,1.000000,21504.000000
10828.000000,11570.000000,8557.000000,1.000000,21504.000000
10828.000000,11571.000000,8558.000000,1.000000,21504.000000
10828.000000,11574.000000,8559.000000,1.000000,21504.000000
10829.000000,11574.000000,8559.000000,1.000000,21504.000000
10831.000000,11573.000000,8559.000000,1.000000,21504.000000
10832.000000,11576.000000,8560.000000,1.000000,21504.000000
10833.000000,11577.000000,8561.000000,1.000000,21504.000000
10837.000000,11582.000000,8563.000000,1.000000,21504.000000
10840.000000,11585.000000,8565.000000,1.000000,21504.000000
10841.000000,11588.000000,8564.000000,1.000000,21504.000000
10843.000000,11591.000000,8566.000000,1.000000,21504.000000
10843.000000,11592.000000,8567.000000,1.000000,21504.000000
10844.000000,11592.000000,8568.000000,1.000000,21504.000000
10845.000000,11595.000000,8568.000000,1.000000,21504.000000
10846.000000,11600.000000,8571.000000,1.000000,21504.000000
10847.000000,11599.000000,8571.000000,1.000000,21504.000000
10847.000000,11597.000000,8569.000000,1.000000,21504.000000
10844.000000,11594.000000,8567.000000,1.000000,21504.000000
10841.000000,11592.000000,8566.000000,1.000000,21504.000000
10840.000000,11590.000000,8565.000000,1.000000,21504.000000
10840.000000,11590.000000,8564.000000,1.000000,21504.000000
10837.000000,11590.000000,8564.000000,1.000000,21504.000000
10838.000000,11590.000000,8564.000000,1.000000,21504.000000
10839.000000,11589.000000,8564.000000,0.000000,21504.000000
10839.000000,11591.000000,8567.000000,0.000000,21504.000000
10844.000000,11594.000000,8567.000000,0.000000,21504.000000
10844.000000,11596.000000,8566.000000,0.000000,21504.000000
10845.000000,11599.000000,8569.000000,0.000000,21504.000000
10852.000000,11603.000000,8571.000000,0.000000,21504.000000
10852.000000,11606.000000,8572.000000,0.000000,21504.000000
10852.000000,11607.000000,8573.000000,0.000000,21504.000000
10853.000000,11609.000000,8575.000000,0.000000,21504.000000
10853.000000,11609.000000,8574.000000,0.000000,21504.000000
10852.000000,11609.000000,8574.000000,0.000000,21504.000000
10850.000000,11608.000000,8574.000000,0.000000,21504.000000
10848.000000,11605.000000,8573.000000,0.000000,21504.000000
10849.000000,11604.000000,8573.000000,0.000000,21504.000000
10862.000000,11617.000000,8583.000000,0.000000,21504.000000
10863.000000,11615.000000,8582.000000,0.000000,21504.000000
10865.000000,11616.000000,8583.000000,0.000000,21504.000000
10845.000000,11601.000000,8572.000000,0.000000,21504.000000
10860.000000,11615.000000,8581.000000,0.000000,21504.000000
10860.000000,11621.000000,8585.000000,0.000000,21504.000000
10869.000000,11621.000000,8585.000000,0.000000,21504.000000
10867.000000,11622.000000,8582.000000,0.000000,21504.000000
10872.000000,11626.000000,8585.000000,0.000000,21504.000000
10875.000000,11630.000000,8588.000000,0.000000,21504.000000
10876.000000,11630.000000,8587.000000,0.000000,21504.000000
10877.000000,11632.000000,8589.000000,0.000000,21504.000000
10878.000000,11634.000000,8591.000000,0.000000,21504.000000
10880.000000,11637.000000,8592.000000,0.000000,21504.000000
10880.000000,11639.000000,8592.000000,0.000000,21504.000000
10880.000000,11639.000000,8592.000000,0.000000,21504.000000
10880.000000,11636.000000,8591.000000,0.000000,21504.000000
10878.000000,11634.000000,8591.000000,0.000000,21504.000000
10871.000000,11627.000000,8587.000000,0.000000,21504.000000
10870.000000,11626.000000,8586.000000,0.000000,21504.000000
10868.000000,11624.000000,8586.000000,0.000000,21504.000000
10869.000000,11623.000000,8585.000000,0.000000,21504.000000
10870.000000,11624.000000,8586.000000,0.000000,21504.000000
10870.000000,11622.000000,8585.000000,0.000000,21504.000000
10870.000000,11622.000000,8584.000000,0.000000,21504.000000
10871.000000,11622.000000,8584.000000,0.000000,21504.000000
10870.000000,11623.000000,8585.000000,0.000000,21504.000000
10869.000000,11624.000000,8584.000000,0.000000,21504.000000
10870.000000,11624.000000,8585.000000,0.000000,21504.000000
10873.000000,11628.000000,8587.000000,0.000000,21504.000000
10876.000000,11630.000000,8588.000000,0.000000,21504.000000
10865.000000,11623.000000,8583.000000,0.000000,21504.000000
10865.000000,11620.000000,8581.000000,0.000000,21504.000000
10862.000000,11620.000000,8590.000000,0.000000,21504.000000
10879.000000,11635.000000,8590.000000,0.000000,21504.000000
10882.000000,11638.000000,8592.000000,0.000000,21504.000000
10879.000000,11635.000000,8591.000000,0.000000,21504.000000
10877.000000,11632.000000,8590.000000,0.000000,21504.000000
10874.000000,11628.000000,8588.000000,0.000000,21504.000000
10869.000000,11622.000000,8584.000000,0.000000,21504.000000
10867.000000,11620.000000,8583.000000,0.000000,21504.000000
10868.000000,11619.000000,8581.000000,0.000000,21504.000000
10868.000000,11619.000000,8580.000000,0.000000,21504.000000
10864.000000,11618.000000,8580.000000,0.000000,21504.000000
10864.000000,11617.000000,8581.000000,0.000000,21504.000000
10860.000000,11613.000000,8579.000000,0.000000,21504.000000
10861.000000,11613.000000,8578.000000,0.000000,21504.000000
10862.000000,11613.000000,8579.000000,0.000000,21504.000000
10863.000000,11613.000000,8579.000000,0.000000,21504.000000
10858.000000,11612.000000,8579.000000,0.000000,21504.000000
10864.000000,11616.000000,8581.000000,0.000000,21504.000000
10864.000000,11615.000000,8581.000000,0.000000,21504.000000
10863.000000,11615.000000,8581.000000,0.000000,21504.000000
10864.000000,11618.000000,8581.000000,0.000000,21504.000000
10862.000000,11616.000000,8580.000000,0.000000,21504.000000
10857.000000,11611.000000,8577.000000,0.000000,21504.000000
10851.000000,11604.000000,8575.000000,0.000000,21504.000000
10849.000000,11600.000000,8572.000000,0.000000,21504.000000
10842.000000,11593.000000,8569.000000,0.000000,21504.000000
10844.000000,11592.000000,8567.000000,0.000000,21504.000000
10844.000000,11573.000000,8554.000000,0.000000,21504.000000
10819.000000,11573.000000,8561.000000,0.000000,21504.000000
10831.000000,11583.000000,8561.000000,0.000000,21504.000000
10837.000000,11587.000000,8565.000000,0.000000,21504.000000
10836.000000,11587.000000,8564.000000,0.000000,21504.000000
10836.000000,11588.000000,8564.000000,0.000000,21504.000000
10834.000000,11589.000000,8565.000000,0.000000,21504.000000
10837.000000,11590.000000,8566.000000,0.000000,21504.000000
10838.000000,11592.000000,8566.000000,0.000000,21504.000000
10838.000000,11593.000000,8568.000000,0.000000,21504.000000
10841.000000,11593.000000,8566.000000,0.000000,21504.000000
10839.000000,11594.000000,8566.000000,0.000000,21504.000000
10843.000000,11598.000000,8570.000000,0.000000,21504.000000
10842.000000,11597.000000,8570.000000,0.000000,21504.000000
10836.000000,11592.000000,8566.000000,0.000000,21504.000000
10832.000000,11587.000000,8563.000000,0.000000,21504.000000
10828.000000,11581.000000,8560.000000,0.000000,21504.000000
10827.000000,11576.000000,8557.000000,0.000000,21504.000000
10827.000000,11573.000000,8557.000000,0.000000,21504.000000
10826.000000,11573.000000,8557.000000,0.000000,21504.000000
10823.000000,11573.000000,8557.000000,0.000000,21504.000000
10824.000000,11571.000000,8556.000000,0.000000,21504.000000
10819.000000,11570.000000,8553.000000,0.000000,21504.000000
10825.000000,11572.000000,8556.000000,0.000000,21504.000000
10825.000000,11574.000000,8557.000000,0.000000,21504.000000
10828.000000,11579.000000,8558.000000,0.000000,21504.000000
10829.000000,11582.000000,8560.000000,0.000000,21504.000000
10830.000000,11585.000000,8562.000000,0.000000,21504.000000
10830.000000,11585.000000,8559.000000,0.000000,21504.000000
10826.000000,11583.000000,8559.000000,0.000000,21504.000000
10815.000000,11577.000000,8554.000000,0.000000,21504.000000
10838.000000,11595.000000,8566.000000,0.000000,21504.000000
10836.000000,11593.000000,8565.000000,0.000000,21504.000000
10837.000000,11592.000000,8566.000000,0.000000,21504.000000
10834.000000,11589.000000,8563.000000,0.000000,21504.000000
10830.000000,11587.000000,8564.000000,0.000000,21504.000000
10827.000000,11583.000000,8560.000000,0.000000,21504.000000
10827.000000,11581.000000,8558.000000,0.000000,21504.000000
10826.000000,11581.000000,8558.000000,0.000000,21504.000000
10827.000000,11581.000000,8559.000000,0.000000,21504.000000
10824.000000,11580.000000,8558.000000,0.000000,21504.000000
10824.000000,11582.000000,8558.000000,0.000000,21504.000000
10824.000000,11582.000000,8559.000000,0.000000,21504.000000
10824.000000,11580.000000,8559.000000,0.000000,21504.000000
10829.000000,11585.000000,8562.000000,0.000000,21504.000000
10832.000000,11588.000000,8563.000000,0.000000,21504.000000
10831.000000,11589.000000,8563.000000,1.000000,21504.000000
10832.000000,11593.000000,8565.000000,1.000000,21504.000000
10832.000000,11594.000000,8565.000000,1.000000,21504.000000
10833.000000,11597.000000,8565.000000,1.000000,21504.000000
10833.000000,11597.000000,8565.000000,1.000000,21504.000000
10834.000000,11597.000000,8565.000000,1.000000,21504.000000
10830.000000,11591.000000,8564.000000,1.000000,21504.000000
10825.000000,11586.000000,8560.000000,1.000000,21504.000000
10827.000000,11587.000000,8560.000000,1.000000,21504.000000
10825.000000,11584.000000,8559.000000,1.000000,21504.000000
10825.000000,11584.000000,8559.000000,1.000000,21504.000000
10803.000000,11571.000000,8549.000000,1.000000,21504.000000
10820.000000,11580.000000,8557.000000,1.000000,21504.000000
10820.000000,11580.000000,8559.000000,1.000000,21504.000000
10827.000000,11583.000000,8559.000000,1.000000,21504.000000
10828.000000,11586.000000,8559.000000,1.000000,21504.000000
10827.000000,11585.000000,8560.000000,1.000000,21504.000000
10829.000000,11589.000000,8561.000000,1.000000,21504.000000
10806.000000,11576.000000,8551.000000,1.000000,21504.000000
10809.000000,11579.000000,8552.000000,1.000000,21504.000000
10810.000000,11580.000000,8552.000000,1.000000,21504.000000
10816.000000,11585.000000,8554.000000,1.000000,21504.000000
10816.000000,11584.000000,8554.000000,1.000000,21504.000000
10814.000000,11584.000000,8555.000000,1.000000,21504.000000
10815.000000,11584.000000,8555.000000,1.000000,21504.000000
10811.000000,11581.000000,8552.000000,1.000000,21504.000000
10806.000000,11576.000000,8550.000000,1.000000,21504.000000
10802.000000,11573.000000,8548.000000,1.000000,21504.000000
10800.000000,11570.000000,8548.000000,1.000000,21504.000000
10801.000000,11568.000000,8547.000000,1.000000,21504.000000
10801.000000,11568.000000,8546.000000,1.000000,21504.000000
10801.000000,11567.000000,8546.000000,1.000000,21504.000000
10797.000000,11567.000000,8546.000000,1.000000,21504.000000
10800.000000,11568.000000,8546.000000,1.000000,21504.000000
10798.000000,11569.000000,8546.000000,1.000000,21504.000000
10799.000000,11569.000000,8546.000000,1.000000,21504.000000
10801.000000,11575.000000,8547.000000,1.000000,21504.000000
10804.000000,11575.000000,8549.000000,1.000000,21504.000000
10805.000000,11580.000000,8550.000000,1.000000,21504.000000
10811.000000,11582.000000,8551.000000,1.000000,21504.000000
10808.000000,11584.000000,8551.000000,1.000000,21504.000000
10808.000000,11584.000000,8552.000000,1.000000,21504.000000
10813.000000,11585.000000,8552.000000,1.000000,21504.000000
10810.000000,11583.000000,8551.000000,1.000000,21504.000000
10806.000000,11580.000000,8550.000000,1.000000,21504.000000
10802.000000,11576.000000,8547.000000,1.000000,21504.000000
10797.000000,11572.000000,8546.000000,1.000000,21504.000000
10797.000000,11569.000000,8545.000000,1.000000,21504.000000
10796.000000,11566.000000,8544.000000,1.000000,21504.000000
10792.000000,11567.000000,8544.000000,1.000000,21504.000000
10792.000000,11567.000000,8543.000000,1.000000,21504.000000
10795.000000,11567.000000,8543.000000,1.000000,21504.000000
10797.000000,11566.000000,8543.000000,1.000000,21504.000000
10796.000000,11568.000000,8544.000000,1.000000,21504.000000
10794.000000,11568.000000,8544.000000,1.000000,21504.000000
10795.000000,11570.000000,8543.000000,1.000000,21504.000000
10798.000000,11572.000000,8544.000000,1.000000,21504.000000
10802.000000,11576.000000,8546.000000,1.000000,21504.000000
10801.000000,11577.000000,8546.000000,1.000000,21504.000000
10801.000000,11573.000000,8546.000000,1.000000,21504.000000
10798.000000,11573.000000,8546.000000,1.000000,21504.000000
10792.000000,11566.000000,8543.000000,1.000000,21504.000000
10788.000000,11563.000000,8540.000000,1.000000,21504.000000
10782.000000,11557.000000,8536.000000,1.000000,21504.000000
10780.000000,11553.000000,8535.000000,1.000000,21504.000000
10782.000000,11551.000000,8533.000000,1.000000,21504.000000
10776.000000,11549.000000,8532.000000,1.000000,21504.000000
10775.000000,11547.000000,8531.000000,1.000000,21504.000000
10775.000000,11547.000000,8531.000000,1.000000,21504.000000
10777.000000,11547.000000,8530.000000,1.000000,21504.000000
10773.000000,11546.000000,8530.000000,1.000000,21504.000000
10777.000000,11548.000000,8531.000000,1.000000,21504.000000
10776.000000,11550.000000,8532.000000,1.000000,21504.000000
10782.000000,11553.000000,8533.000000,1.000000,21504.000000
10783.000000,11557.000000,8536.000000,1.000000,21504.000000
10783.000000,11560.000000,8536.000000,1.000000,21504.000000
10784.000000,11561.000000,8537.000000,1.000000,21504.000000
10784.000000,11555.000000,8535.000000,1.000000,21504.000000
10781.000000,11555.000000,8532.000000,1.000000,21504.000000
10777.000000,11550.000000,8532.000000,1.000000,21504.000000
10773.000000,11546.000000,8530.000000,1.000000,21504.000000
10764.000000,11542.000000,8526.000000,1.000000,21504.000000
10761.000000,11538.000000,8524.000000,1.000000,21504.000000
10759.000000,11538.000000,8524.000000,1.000000,21504.000000
10756.000000,11535.000000,8522.000000,1.000000,21504.000000
10758.000000,11534.000000,8523.000000,1.000000,21504.000000
10759.000000,11537.000000,8522.000000,1.000000,21504.000000
10759.000000,11537.000000,8524.000000,1.000000,21504.000000
10760.000000,11540.000000,8524.000000,1.000000,21504.000000
10761.000000,11540.000000,8525.000000,1.000000,21504.000000
10761.000000,11542.000000,8526.000000,1.000000,21504.000000
10767.000000,11546.000000,8528.000000,1.000000,21504.000000
10772.000000,11550.000000,8530.000000,1.000000,21504.000000
10773.000000,11554.000000,8531.000000,1.000000,21504.000000
10773.000000,11554.000000,8533.000000,1.000000,21504.000000
10775.000000,11556.000000,8533.000000,1.000000,21504.000000
10775.000000,11556.000000,8532.000000,1.000000,21504.000000
10772.000000,11551.000000,8532.000000,1.000000,21504.000000
10767.000000,11548.000000,8529.000000,1.000000,21504.000000
10766.000000,11544.000000,8527.000000,1.000000,21504.000000
10763.000000,11544.000000,8526.000000,1.000000,21504.000000
10765.000000,11544.000000,8526.000000,1.000000,21504.000000
10760.000000,11543.000000,8525.000000,1.000000,21504.000000
10760.000000,11544.000000,8527.000000,1.000000,21504.000000
10761.000000,11544.000000,8527.000000,1.000000,21504.000000
10761.000000,11543.000000,8526.000000,1.000000,21504.000000
10761.000000,11543.000000,8526.000000,1.000000,21504.000000
10767.000000,11548.000000,8528.000000,1.000000,21504.000000
10772.000000,11549.000000,8529.000000,1.000000,21504.000000
10774.000000,11554.000000,8532.000000,1.000000,21504.000000
10777.000000,11556.000000,8534.000000,1.000000,21504.000000
10779.000000,11559.000000,8534.000000,1.000000,21504.000000
10782.000000,11564.000000,8537.000000,1.000000,21504.000000
10783.000000,11565.000000,8538.000000,1.000000,21504.000000
10783.000000,11566.000000,8537.000000,1.000000,21504.000000
10783.000000,11566.000000,8536.000000,1.000000,21504.000000
10779.000000,11562.000000,8536.000000,1.000000,21504.000000
10779.000000,11560.000000,8536.000000,1.000000,21504.000000
10777.000000,11559.000000,8535.000000,1.000000,21504.000000
10777.000000,11559.000000,8535.000000,1.000000,21504.000000
10773.000000,11559.000000,8535.000000,0.000000,21504.000000
10776.000000,11560.000000,8536.000000,0.000000,21504.000000
10775.000000,11559.000000,8535.000000,0.000000,21504.000000
10777.000000,11562.000000,8536.000000,0.000000,21504.000000
10778.000000,11563.000000,8535.000000,0.000000,21504.000000
10782.000000,11564.000000,8536.000000,0.000000,21504.000000
10782.000000,11568.000000,8538.000000,0.000000,21504.000000
10784.000000,11568.000000,8551.000000,0.000000,21504.000000
10810.000000,11587.000000,8551.000000,0.000000,21504.000000
10812.000000,11592.000000,8554.000000,0.000000,21504.000000
10815.000000,11594.000000,8555.000000,0.000000,21504.000000
10817.000000,11596.000000,8556.000000,0.000000,21504.000000
10813.000000,11593.000000,8555.000000,0.000000,21504.000000
10813.000000,11592.000000,8555.000000,0.000000,21504.000000
10807.000000,11586.000000,8552.000000,0.000000,21504.000000
10807.000000,11587.000000,8553.000000,0.000000,21504.000000
10809.000000,11587.000000,8552.000000,0.000000,21504.000000
10807.000000,11586.000000,8552.000000,0.000000,21504.000000
10810.000000,11586.000000,8551.000000,0.000000,21504.000000
10809.000000,11586.000000,8551.000000,0.000000,21504.000000
10812.000000,11586.000000,8552.000000,0.000000,21504.000000
10811.000000,11587.000000,8551.000000,0.000000,21504.000000
10810.000000,11589.000000,8552.000000,0.000000,21504.000000
10812.000000,11593.000000,8553.000000,0.000000,21504.000000
10810.000000,11592.000000,8553.000000,0.000000,21504.000000
10810.000000,11592.000000,8555.000000,0.000000,21504.000000
10817.000000,11595.000000,8555.000000,0.000000,21504.000000
10818.000000,11597.000000,8556.000000,0.000000,21504.000000
10821.000000,11600.000000,8558.000000,0.000000,21504.000000
10819.000000,11603.000000,8559.000000,0.000000,21504.000000
10819.000000,11600.000000,8558.000000,0.000000,21504.000000
10815.000000,11597.000000,8556.000000,0.000000,21504.000000
10796.000000,11583.000000,8547.000000,0.000000,21504.000000
10807.000000,11590.000000,8552.000000,0.000000,21504.000000
10807.000000,11577.000000,8545.000000,0.000000,21504.000000
10792.000000,11577.000000,8545.000000,0.000000,21504.000000
10802.000000,11586.000000,8548.000000,0.000000,21504.000000
10805.000000,11586.000000,8550.000000,0.000000,21504.000000
10804.000000,11584.000000,8549.000000,0.000000,21504.000000
10803.000000,11586.000000,8550.000000,0.000000,21504.000000
10805.000000,11588.000000,8550.000000,0.000000,21504.000000
10805.000000,11590.000000,8550.000000,0.000000,21504.000000
10805.000000,11589.000000,8550.000000,0.000000,21504.000000
10805.000000,11592.000000,8551.000000,0.000000,21504.000000
10810.000000,11592.000000,8551.000000,0.000000,21504.000000
10810.000000,11593.000000,8552.000000,0.000000,21504.000000
10811.000000,11594.000000,8552.000000,0.000000,21504.000000
10814.000000,11597.000000,8554.000000,0.000000,21504.000000
10820.000000,11599.000000,8556.000000,0.000000,21504.000000
10820.000000,11601.000000,8556.000000,0.000000,21504.000000
10819.000000,11603.000000,8557.000000,0.000000,21504.000000
10817.000000,11601.000000,8554.000000,0.000000,21504.000000
10817.000000,11598.000000,8555.000000,0.000000,21504.000000
10815.000000,11598.000000,8552.000000,0.000000,21504.000000
10811.000000,11593.000000,8552.000000,0.000000,21504.000000
10811.000000,11590.000000,8550.000000,0.000000,21504.000000
10811.000000,11590.000000,8550.000000,0.000000,21504.000000
10805.000000,11587.000000,8548.000000,0.000000,21504.000000
10810.000000,11590.000000,8549.000000,0.000000,21504.000000
10810.000000,11591.000000,8549.000000,0.000000,21504.000000
10794.000000,11582.000000,8543.000000,0.000000,21504.000000
10794.000000,11591.000000,8549.000000,0.000000,21504.000000
10808.000000,11591.000000,8543.000000,0.000000,21504.000000
10797.000000,11580.000000,8543.000000,0.000000,21504.000000
10814.000000,11592.000000,8550.000000,0.000000,21504.000000
10815.000000,11595.000000,8550.000000,0.000000,21504.000000
10815.000000,11597.000000,8552.000000,0.000000,21504.000000
10815.000000,11597.000000,8552.000000,0.000000,21504.000000
10818.000000,11599.000000,8554.000000,0.000000,21504.000000
10816.000000,11600.000000,8554.000000,0.000000,21504.000000
10815.000000,11596.000000,8552.000000,0.000000,21504.000000
10815.000000,11596.000000,8551.000000,0.000000,21504.000000
10815.000000,11595.000000,8551.000000,0.000000,21504.000000
10813.000000,11591.000000,8549.000000,0.000000,21504.000000
10813.000000,11590.000000,8548.000000,0.000000,21504.000000
10810.000000,11590.000000,8548.000000,0.000000,21504.000000
10813.000000,11591.000000,8549.000000,0.000000,21504.000000
10811.000000,11591.000000,8548.000000,0.000000,21504.000000
10805.000000,11588.000000,8546.000000,0.000000,21504.000000
10808.000000,11590.000000,8547.000000,0.000000,21504.000000
10808.000000,11590.000000,8548.000000,0.000000,21504.000000
10811.000000,11591.000000,8548.000000,0.000000,21504.000000
10814.000000,11593.000000,8548.000000,0.000000,21504.000000
10816.000000,11595.000000,8550.000000,0.000000,21504.000000
10816.000000,11596.000000,8550.000000,0.000000,21504.000000
10817.000000,11598.000000,8550.000000,0.000000,21504.000000
10817.000000,11600.000000,8551.000000,0.000000,21504.000000
10818.000000,11602.000000,8551.000000,0.000000,21504.000000
10804.000000,11593.000000,8546.000000,0.000000,21504.000000
10804.000000,11598.000000,8549.000000,0.000000,21504.000000
10814.000000,11598.000000,8543.000000,0.000000,21504.000000
10802.000000,11588.000000,8543.000000,0.000000,21504.000000
10811.000000,11595.000000,8548.000000,0.000000,21504.000000
10809.000000,11594.000000,8547.000000,0.000000,21504.000000
10809.000000,11593.000000,8546.000000,0.000000,21504.000000
10810.000000,11593.000000,8548.000000,0.000000,21504.000000
10813.000000,11593.000000,8547.000000,0.000000,21504.000000
10812.000000,11593.000000,8547.000000,0.000000,21504.000000
10812.000000,11594.000000,8547.000000,0.000000,21504.000000
10813.000000,11594.000000,8545.000000,0.000000,21504.000000
10811.000000,11593.000000,8545.000000,0.000000,21504.000000
10814.000000,11598.000000,8548.000000,0.000000,21504.000000
10816.000000,11602.000000,8549.000000,0.000000,21504.000000
10816.000000,11603.000000,8550.000000,0.000000,21504.000000
10818.000000,11605.000000,8551.000000,0.000000,21504.000000
10821.000000,11607.000000,8551.000000,0.000000,21504.000000
10821.000000,11607.000000,8552.000000,0.000000,21504.000000
10821.000000,11607.000000,8552.000000,0.000000,21504.000000
10820.000000,11607.000000,8551.000000,0.000000,21504.000000
10816.000000,11607.000000,8551.000000,0.000000,21504.000000
10813.000000,11600.000000,8548.000000,0.000000,21504.000000
10815.000000,11600.000000,8547.000000,0.000000,21504.000000
10812.000000,11601.000000,8549.000000,0.000000,21504.000000
10811.000000,11603.000000,8550.000000,0.000000,21504.000000
10814.000000,11603.000000,8548.000000,0.000000,21504.000000
10814.000000,11605.000000,8549.000000,0.000000,21504.000000
10807.000000,11601.000000,8545.000000,0.000000,21504.000000
10807.000000,11601.000000,8550.000000,0.000000,21504.000000
10816.000000,11605.000000,8550.000000,0.000000,21504.000000
10802.000000,11598.000000,8544.000000,0.000000,21504.000000
10820.000000,11610.000000,8551.000000,1.000000,21504.000000
10816.000000,11610.000000,8554.000000,1.000000,21504.000000
10823.000000,11616.000000,8554.000000,1.000000,21504.000000
10827.000000,11619.000000,8555.000000,1.000000,21504.000000
10831.000000,11623.000000,8557.000000,1.000000,21504.000000
10833.000000,11625.000000,8558.000000,1.000000,21504.000000
10832.000000,11624.000000,8559.000000,1.000000,21504.000000
10831.000000,11624.000000,8558.000000,1.000000,21504.000000
10832.000000,11623.000000,8558.000000,1.000000,21504.000000
10832.000000,11624.000000,8557.000000,1.000000,21504.000000
10830.000000,11624.000000,8557.000000,1.000000,21504.000000
10828.000000,11622.000000,8557.000000,1.000000,21504.000000
10829.000000,11625.000000,8558.000000,1.000000,21504.000000
10833.000000,11624.000000,8558.000000,1.000000,21504.000000
10834.000000,11625.000000,8559.000000,1.000000,21504.000000
10831.000000,11623.000000,8558.000000,1.000000,21504.000000
10833.000000,11626.000000,8559.000000,1.000000,21504.000000
10836.000000,11628.000000,8560.000000,1.000000,21504.000000
10835.000000,11627.000000,8559.000000,1.000000,21504.000000
10835.000000,11627.000000,8561.000000,1.000000,21504.000000
10838.000000,11629.000000,8561.000000,1.000000,21504.000000
10839.000000,11630.000000,8560.000000,1.000000,21504.000000
10823.000000,11623.000000,8553.000000,1.000000,21504.000000
10818.000000,11619.000000,8550.000000,1.000000,21504.000000
10816.000000,11619.000000,8549.000000,1.000000,21504.000000
10812.000000,11618.000000,8550.000000,1.000000,21504.000000
10817.000000,11616.000000,8549.000000,1.000000,21504.000000
10817.000000,11614.000000,8548.000000,1.000000,21504.000000
10817.000000,11614.000000,8546.000000,1.000000,21504.000000
10812.000000,11611.000000,8546.000000,1.000000,21504.000000
10813.000000,11611.000000,8545.000000,1.000000,21504.000000
10810.000000,11612.000000,8545.000000,1.000000,21504.000000
10811.000000,11610.000000,8544.000000,1.000000,21504.000000
10811.000000,11610.000000,8544.000000,1.000000,21504.000000
10812.000000,11611.000000,8544.000000,1.000000,21504.000000
10809.000000,11609.000000,8544.000000,1.000000,21504.000000
10808.000000,11611.000000,8545.000000,1.000000,21504.000000
10808.000000,11610.000000,8545.000000,1.000000,21504.000000
10810.000000,11610.000000,8545.000000,1.000000,21504.000000
10811.000000,11612.000000,8545.000000,1.000000,21504.000000
10812.000000,11612.000000,8546.000000,1.000000,21504.000000
10813.000000,11613.000000,8546.000000,1.000000,21504.000000
10810.000000,11611.000000,8544.000000,1.000000,21504.000000
10808.000000,11610.000000,8543.000000,1.000000,21504.000000
10804.000000,11605.000000,8541.000000,1.000000,21504.000000
10801.000000,11599.000000,8539.000000,1.000000,21504.000000
10801.000000,11595.000000,8537.000000,1.000000,21504.000000
10795.000000,11595.000000,8534.000000,1.000000,21504.000000
10789.000000,11588.000000,8534.000000,1.000000,21504.000000
10788.000000,11588.000000,8533.000000,1.000000,21504.000000
10784.000000,11584.000000,8530.000000,1.000000,21504.000000
10781.000000,11582.000000,8529.000000,1.000000,21504.000000
10778.000000,11580.000000,8529.000000,1.000000,21504.000000
10778.000000,11578.000000,8528.000000,1.000000,21504.000000
10779.000000,11576.000000,8528.000000,1.000000,21504.000000
10779.000000,11576.000000,8527.000000,1.000000,21504.000000
10775.000000,11576.000000,8528.000000,1.000000,21504.000000
10777.000000,11577.000000,8528.000000,1.000000,21504.000000
10781.000000,11578.000000,8528.000000,1.000000,21504.000000
10782.000000,11579.000000,8529.000000,1.000000,21504.000000
10784.000000,11579.000000,8529.000000,1.000000,21504.000000
10783.000000,11578.000000,8529.000000,1.000000,21504.000000
10772.000000,11573.000000,8526.000000,1.000000,21504.000000
10769.000000,11566.000000,8523.000000,1.000000,21504.000000
10769.000000,11557.000000,8519.000000,1.000000,21504.000000
10759.000000,11557.000000,8514.000000,1.000000,21504.000000
10756.000000,11551.000000,8514.000000,1.000000,21504.000000
10756.000000,11545.000000,8510.000000,1.000000,21504.000000
10756.000000,11539.000000,8505.000000,1.000000,21504.000000
10756.000000,11536.000000,8502.000000,1.000000,21504.000000
10756.000000,11534.000000,8501.000000,1.000000,21504.000000
10756.000000,11532.000000,8499.000000,1.000000,21504.000000
10756.000000,11528.000000,8493.000000,1.000000,21504.000000
10756.000000,11524.000000,8491.000000,1.000000,21504.000000
10756.000000,11524.000000,8492.000000,1.000000,21504.000000
10756.000000,11524.000000,8492.000000,1.000000,21504.000000
10756.000000,11525.000000,8490.000000,1.000000,21504.000000
10756.000000,11525.000000,8491.000000,1.000000,21504.000000
10756.000000,11525.000000,8491.000000,1.000000,21504.000000
10756.000000,11523.000000,8490.000000,1.000000,21504.000000
10756.000000,11518.000000,8485.000000,1.000000,21504.000000
10756.000000,11515.000000,8481.000000,1.000000,21504.000000
10756.000000,11514.000000,8483.000000,1.000000,21504.000000
10756.000000,11513.000000,8484.000000,1.000000,21504.000000
10756.000000,11513.000000,8484.000000,1.000000,21504.000000
10756.000000,11513.000000,8484.000000,1.000000,21504.000000
10756.000000,11513.000000,8485.000000,1.000000,21504.000000
10756.000000,11512.000000,8485.000000,1.000000,21504.000000
10756.000000,11512.000000,8487.000000,1.000000,21504.000000
10756.000000,11513.000000,8485.000000,1.000000,21504.000000
10756.000000,11512.000000,8485.000000,1.000000,21504.000000
10756.000000,11513.000000,8484.000000,1.000000,21504.000000
10756.000000,11513.000000,8485.000000,1.000000,21504.000000
10756.000000,11513.000000,8485.000000,1.000000,21504.000000
10756.000000,11512.000000,8486.000000,1.000000,21504.000000
10756.000000,11513.000000,8485.000000,1.000000,21504.000000
10756.000000,11513.000000,8483.000000,1.000000,21504.000000
10756.000000,11513.000000,8483.000000,1.000000,21504.000000
10756.000000,11512.000000,8486.000000,1.000000,21504.000000
10756.000000,11511.000000,8486.000000,1.000000,21504.000000
10756.000000,11507.000000,8485.000000,1.000000,21504.000000
10756.000000,11502.000000,8482.000000,1.000000,21504.000000
10756.000000,11502.000000,8480.000000,1.000000,21504.000000
10756.000000,11499.000000,8480.000000,1.000000,21504.000000
10756.000000,11495.000000,8478.000000,1.000000,21504.000000
10756.000000,11497.000000,8478.000000,1.000000,21504.000000
10756.000000,11500.000000,8479.000000,1.000000,21504.000000
10756.000000,11502.000000,8480.000000,1.000000,21504.000000
10756.000000,11501.000000,8479.000000,1.000000,21504.000000
10756.000000,11505.000000,8480.000000,1.000000,21504.000000
10756.000000,11508.000000,8482.000000,1.000000,21504.000000
10756.000000,11508.000000,8483.000000,1.000000,21504.000000
10756.000000,11512.000000,8483.000000,1.000000,21504.000000
10756.000000,11513.000000,8483.000000,1.000000,21504.000000
10756.000000,11514.000000,8481.000000,1.000000,21504.000000
10756.000000,11514.000000,8482.000000,1.000000,21504.000000
10756.000000,11514.000000,8482.000000,1.000000,21504.000000
10756.000000,11514.000000,8482.000000,1.000000,21504.000000
10756.000000,11514.000000,8482.000000,1.000000,21504.000000
10756.000000,11512.000000,8481.000000,1.000000,21504.000000
10756.000000,11513.000000,8482.000000,0.000000,21504.000000
10756.000000,11511.000000,8482.000000,0.000000,21504.000000
10756.000000,11511.000000,8482.000000,0.000000,21504.000000
10756.000000,11511.000000,8482.000000,0.000000,21504.000000
10756.000000,11511.000000,8482.000000,0.000000,21504.000000
10756.000000,11512.000000,8483.000000,0.000000,21504.000000
10756.000000,11513.000000,8481.000000,0.000000,21504.000000
10756.000000,11514.000000,8482.000000,0.000000,21504.000000
10756.000000,11515.000000,8480.000000,0.000000,21504.000000
10756.000000,11515.000000,8480.000000,0.000000,21504.000000
10756.000000,11515.000000,8479.000000,0.000000,21504.000000
10756.000000,11515.000000,8480.000000,0.000000,21504.000000
10756.000000,11515.000000,8480.000000,0.000000,21504.000000
10756.000000,11515.000000,8480.000000,0.000000,21504.000000
10756.000000,11517.000000,8480.000000,0.000000,21504.000000
10756.000000,11516.000000,8480.000000,0.000000,21504.000000
10756.000000,11515.000000,8480.000000,0.000000,21504.000000
10756.000000,11515.000000,8479.000000,0.000000,21504.000000
10756.000000,11515.000000,8479.000000,0.000000,21504.000000
10756.000000,11515.000000,8479.000000,0.000000,21504.000000
10756.000000,11516.000000,8479.000000,0.000000,21504.000000
10756.000000,11515.000000,8478.000000,0.000000,21504.000000
10756.000000,11515.000000,8478.000000,0.000000,21504.000000
10756.000000,11515.000000,8478.000000,0.000000,21504.000000
10756.000000,11516.000000,8478.000000,0.000000,21504.000000
10756.000000,11517.000000,8478.000000,0.000000,21504.000000
10756.000000,11517.000000,8479.000000,0.000000,21504.000000
10756.000000,11516.000000,8479.000000,0.000000,21504.000000
10756.000000,11517.000000,8479.000000,0.000000,21504.000000
10756.000000,11519.000000,8480.000000,0.000000,21504.000000
10756.000000,11523.000000,8485.000000,0.000000,21504.000000
10756.000000,11523.000000,8482.000000,0.000000,21504.000000
10756.000000,11520.000000,8482.000000,0.000000,21504.000000
10756.000000,11519.000000,8480.000000,0.000000,21504.000000
10756.000000,11517.000000,8477.000000,0.000000,21504.000000
10756.000000,11517.000000,8479.000000,0.000000,21504.000000
10756.000000,11516.000000,8476.000000,0.000000,21504.000000
10756.000000,11516.000000,8477.000000,0.000000,21504.000000
10756.000000,11516.000000,8477.000000,0.000000,21504.000000
10756.000000,11515.000000,8478.000000,0.000000,21504.000000
10756.000000,11515.000000,8477.000000,0.000000,21504.000000
10756.000000,11515.000000,8477.000000,0.000000,21504.000000
10756.000000,11516.000000,8477.000000,0.000000,21504.000000
10756.000000,11516.000000,8477.000000,0.000000,21504.000000
10756.000000,11516.000000,8477.000000,0.000000,21504.000000
10756.000000,11516.000000,8476.000000,0.000000,21504.000000
10756.000000,11516.000000,8477.000000,0.000000,21504.000000
10756.000000,11516.000000,8476.000000,0.000000,21504.000000
10756.000000,11518.000000,8478.000000,0.000000,21504.000000
10756.000000,11518.000000,8477.000000,0.000000,21504.000000
10756.000000,11515.000000,8477.000000,0.000000,21504.000000
10756.000000,11515.000000,8478.000000,0.000000,21504.000000
10756.000000,11515.000000,8480.000000,0.000000,21504.000000
10756.000000,11514.000000,8480.000000,0.000000,21504.000000
10756.000000,11514.000000,8481.000000,0.000000,21504.000000
10756.000000,11514.000000,8480.000000,0.000000,21504.000000
10756.000000,11514.000000,8481.000000,0.000000,21504.000000
10756.000000,11514.000000,8481.000000,0.000000,21504.000000
10756.000000,11514.000000,8481.000000,0.000000,21504.000000
10756.000000,11514.000000,8481.000000,0.000000,21504.000000
10756.000000,11515.000000,8480.000000,0.000000,21504.000000
10756.000000,11515.000000,8479.000000,0.000000,21504.000000
10756.000000,11515.000000,8478.000000,0.000000,21504.000000
10756.000000,11515.000000,8478.000000,0.000000,21504.000000
10756.000000,11515.000000,8477.000000,0.000000,21504.000000
10756.000000,11516.000000,8477.000000,0.000000,21504.000000
10756.000000,11515.000000,8478.000000,0.000000,21504.000000
10756.000000,11515.000000,8478.000000,0.000000,21504.000000
10756.000000,11515.000000,8478.000000,0.000000,21504.000000
10756.000000,11515.000000,8479.000000,0.000000,21504.000000
10756.000000,11515.000000,8479.000000,0.000000,21504.000000
10756.000000,11515.000000,8478.000000,0.000000,21504.000000
10756.000000,11515.000000,8479.000000,0.000000,21504.000000
10756.000000,11514.000000,8479.000000,0.000000,21504.000000
10756.000000,11515.000000,8479.000000,0.000000,21504.000000
10756.000000,11514.000000,8478.000000,0.000000,21504.000000
10756.000000,11514.000000,8478.000000,0.000000,21504.000000
10756.000000,11514.000000,8479.000000,0.000000,21504.000000
10756.000000,11515.000000,8479.000000,0.000000,21504.000000
10756.000000,11515.000000,8479.000000,0.000000,21504.000000
10756.000000,11515.000000,8479.000000,0.000000,21504.000000
10756.000000,11515.000000,8478.000000,0.000000,21504.000000
10756.000000,11515.000000,8478.000000,0.000000,21504.000000
10756.000000,11515.000000,8477.000000,0.000000,21504.000000
10756.000000,11516.000000,8476.000000,0.000000,21504.000000
10756.000000,11515.000000,8478.000000,0.000000,21504.000000
10756.000000,11515.000000,8477.000000,0.000000,21504.000000
10756.000000,11516.000000,8477.000000,0.000000,21504.000000
10756.000000,11516.000000,8477.000000,0.000000,21504.000000
10756.000000,11516.000000,8477.000000,0.000000,21504.000000
10756.000000,11515.000000,8478.000000,0.000000,21504.000000
10756.000000,11515.000000,8478.000000,0.000000,21504.000000
10756.000000,11515.000000,8479.000000,0.000000,21504.000000
10756.000000,11516.000000,8477.000000,0.000000,21504.000000
10756.000000,11516.000000,8477.000000,0.000000,21504.000000
10756.000000,11516.000000,8477.000000,0.000000,21504.000000
10756.000000,11515.000000,8477.000000,0.000000,21504.000000
10756.000000,11516.000000,8475.000000,0.000000,21504.000000
10756.000000,11516.000000,8476.000000,0.000000,21504.000000
10756.000000,11516.000000,8475.000000,0.000000,21504.000000
10756.000000,11517.000000,8475.000000,0.000000,21504.000000
10756.000000,11517.000000,8474.000000,0.000000,21504.000000
10756.000000,11517.000000,8472.000000,0.000000,21504.000000
10756.000000,11517.000000,8472.000000,0.000000,21504.000000
10756.000000,11517.000000,8472.000000,0.000000,21504.000000
10756.000000,11517.000000,8472.000000,0.000000,21504.000000
10756.000000,11519.000000,8474.000000,0.000000,21504.000000
10756.000000,11517.000000,8473.000000,0.000000,21504.000000
10756.000000,11517.000000,8474.000000,0.000000,21504.000000
10756.000000,11516.000000,8474.000000,0.000000,21504.000000
10756.000000,11517.000000,8474.000000,0.000000,21504.000000
10756.000000,11517.000000,8473.000000,0.000000,21504.000000
10756.000000,11517.000000,8473.000000,0.000000,21504.000000
10756.000000,11517.000000,8473.000000,0.000000,21504.000000
10756.000000,11517.000000,8473.000000,0.000000,21504.000000
10756.000000,11517.000000,8473.000000,0.000000,21504.000000
10756.000000,11518.000000,8471.000000,0.000000,21504.000000
10756.000000,11518.000000,8471.000000,0.000000,21504.000000
10756.000000,11518.000000,8473.000000,0.000000,21504.000000
10756.000000,11517.000000,8472.000000,0.000000,21504.000000
10756.000000,11519.000000,8474.000000,1.000000,21504.000000
10756.000000,11521.000000,8474.000000,1.000000,21504.000000
10756.000000,11521.000000,8473.000000,1.000000,21504.000000
10756.000000,11523.000000,8477.000000,1.000000,21504.000000
10756.000000,11523.000000,8477.000000,1.000000,21504.000000
10756.000000,11522.000000,8474.000000,1.000000,21504.000000
10756.000000,11522.000000,8474.000000,1.000000,21504.000000
10756.000000,11520.000000,8474.000000,1.000000,21504.000000
10756.000000,11519.000000,8471.000000,1.000000,21504.000000
10756.000000,11518.000000,8472.000000,1.000000,21504.000000
10756.000000,11517.000000,8473.000000,1.000000,21504.000000
10756.000000,11517.000000,8473.000000,1.000000,21504.000000
10756.000000,11517.000000,8474.000000,1.000000,21504.000000
10756.000000,11517.000000,8473.000000,1.000000,21504.000000
10756.000000,11517.000000,8473.000000,1.000000,21504.000000
10756.000000,11517.000000,8473.000000,1.000000,21504.000000
10756.000000,11517.000000,8473.000000,1.000000,21504.000000
10756.000000,11517.000000,8473.000000,1.000000,21504.000000
10756.000000,11517.000000,8474.000000,1.000000,21504.000000
10756.000000,11517.000000,8474.000000,1.000000,21504.000000
10756.000000,11517.000000,8472.000000,1.000000,21504.000000
10756.000000,11518.000000,8471.000000,1.000000,21504.000000
10756.000000,11517.000000,8472.000000,1.000000,21504.000000
10756.000000,11517.000000,8472.000000,1.000000,21504.000000
10756.000000,11517.000000,8473.000000,1.000000,21504.000000
10756.000000,11517.000000,8473.000000,1.000000,21504.000000
10756.000000,11516.000000,8475.000000,1.000000,21504.000000
10756.000000,11516.000000,8476.000000,1.000000,21504.000000
10756.000000,11513.000000,8475.000000,1.000000,21504.000000
10756.000000,11509.000000,8474.000000,1.000000,21504.000000
10756.000000,11507.000000,8472.000000,1.000000,21504.000000
10756.000000,11505.000000,8472.000000,1.000000,21504.000000
10756.000000,11500.000000,8469.000000,1.000000,21504.000000
10756.000000,11498.000000,8467.000000,1.000000,21504.000000
10756.000000,11498.000000,8467.000000,1.000000,21504.000000
10756.000000,11497.000000,8468.000000,1.000000,21504.000000
10756.000000,11498.000000,8467.000000,1.000000,21504.000000
10756.000000,11498.000000,8467.000000,1.000000,21504.000000
10756.000000,11499.000000,8468.000000,1.000000,21504.000000
10756.000000,11499.000000,8468.000000,1.000000,21504.000000
10756.000000,11499.000000,8469.000000,1.000000,21504.000000
10756.000000,11501.000000,8470.000000,1.000000,21504.000000
10756.000000,11504.000000,8471.000000,1.000000,21504.000000
10756.000000,11504.000000,8472.000000,1.000000,21504.000000
10756.000000,11504.000000,8472.000000,1.000000,21504.000000
10756.000000,11502.000000,8470.000000,1.000000,21504.000000
10756.000000,11493.000000,8466.000000,1.000000,21504.000000
10756.000000,11486.000000,8462.000000,1.000000,21504.000000
10756.000000,11478.000000,8460.000000,1.000000,21504.000000
10756.000000,11473.000000,8457.000000,1.000000,21504.000000
10756.000000,11468.000000,8455.000000,1.000000,21504.000000
10756.000000,11467.000000,8453.000000,1.000000,21504.000000
10756.000000,11467.000000,8453.000000,1.000000,21504.000000
10756.000000,11464.000000,8453.000000,1.000000,21504.000000
10756.000000,11465.000000,8452.000000,1.000000,21504.000000
10756.000000,11465.000000,8452.000000,1.000000,21504.000000
10756.000000,11465.000000,8452.000000,1.000000,21504.000000
10756.000000,11467.000000,8451.000000,1.000000,21504.000000
10756.000000,11467.000000,8451.000000,1.000000,21504.000000
10756.000000,11469.000000,8453.000000,1.000000,21504.000000
10756.000000,11468.000000,8452.000000,1.000000,21504.000000
10756.000000,11468.000000,8455.000000,1.000000,21504.000000
10756.000000,11472.000000,8455.000000,1.000000,21504.000000
10756.000000,11472.000000,8455.000000,1.000000,21504.000000
10756.000000,11476.000000,8455.000000,1.000000,21504.000000
10756.000000,11469.000000,8454.000000,1.000000,21504.000000
10756.000000,11464.000000,8450.000000,1.000000,21504.000000
10756.000000,11460.000000,8449.000000,1.000000,21504.000000
10756.000000,11455.000000,8447.000000,1.000000,21504.000000
10756.000000,11456.000000,8446.000000,1.000000,21504.000000
10756.000000,11456.000000,8445.000000,1.000000,21504.000000
10756.000000,11454.000000,8445.000000,1.000000,21504.000000
10756.000000,11451.000000,8444.000000,1.000000,21504.000000
10756.000000,11451.000000,8443.000000,1.000000,21504.000000
10756.000000,11450.000000,8443.000000,1.000000,21504.000000
10756.000000,11452.000000,8444.000000,1.000000,21504.000000
10756.000000,11453.000000,8445.000000,1.000000,21504.000000
10756.000000,11456.000000,8447.000000,1.000000,21504.000000
10756.000000,11458.000000,8448.000000,1.000000,21504.000000
10756.000000,11459.000000,8448.000000,1.000000,21504.000000
10756.000000,11459.000000,8448.000000,1.000000,21504.000000
10756.000000,11463.000000,8449.000000,1.000000,21504.000000
10756.000000,11463.000000,8449.000000,1.000000,21504.000000
10756.000000,11463.000000,8449.000000,1.000000,21504.000000
10756.000000,11458.000000,8448.000000,1.000000,21504.000000
10756.000000,11457.000000,8448.000000,1.000000,21504.000000
10756.000000,11455.000000,8446.000000,1.000000,21504.000000
10756.000000,11453.000000,8445.000000,1.000000,21504.000000
10756.000000,11449.000000,8443.000000,1.000000,21504.000000
10756.000000,11449.000000,8443.000000,1.000000,21504.000000
10756.000000,11451.000000,8444.000000,1.000000,21504.000000
10756.000000,11450.000000,8443.000000,1.000000,21504.000000
10756.000000,11452.000000,8443.000000,1.000000,21504.000000
10756.000000,11452.000000,8444.000000,1.000000,21504.000000
10756.000000,11452.000000,8444.000000,1.000000,21504.000000
10756.000000,11456.000000,8447.000000,1.000000,21504.000000
10756.000000,11457.000000,8448.000000,1.000000,21504.000000
10756.000000,11460.000000,8450.000000,1.000000,21504.000000
10756.000000,11460.000000,8451.000000,1.000000,21504.000000
10756.000000,11463.000000,8451.000000,1.000000,21504.000000
10756.000000,11466.000000,8452.000000,1.000000,21504.000000
10756.000000,11468.000000,8452.000000,1.000000,21504.000000
10756.000000,11466.000000,8451.000000,1.000000,21504.000000
10756.000000,11460.000000,8449.000000,1.000000,21504.000000
10756.000000,11457.000000,8446.000000,1.000000,21504.000000
10756.000000,11454.000000,8447.000000,1.000000,21504.000000
10756.000000,11452.000000,8444.000000,1.000000,21504.000000
10756.000000,11452.000000,8444.000000,1.000000,21504.000000
10756.000000,11452.000000,8444.000000,1.000000,21504.000000
10756.000000,11453.000000,8443.000000,1.000000,21504.000000
10756.000000,11452.000000,8444.000000,1.000000,21504.000000
10756.000000,11451.000000,8444.000000,1.000000,21504.000000
10756.000000,11453.000000,8445.000000,1.000000,21504.000000
10756.000000,11455.000000,8445.000000,1.000000,21504.000000
10756.000000,11459.000000,8448.000000,1.000000,21504.000000
10756.000000,11460.000000,8448.000000,1.000000,21504.000000
10756.000000,11460.000000,8448.000000,1.000000,21504.000000
10756.000000,11463.000000,8448.000000,1.000000,21504.000000
10756.000000,11464.000000,8450.000000,1.000000,21504.000000
10756.000000,11469.000000,8452.000000,1.000000,21504.000000
10756.000000,11469.000000,8451.000000,0.000000,21504.000000
10756.000000,11464.000000,8447.000000,0.000000,21504.000000
10756.000000,11464.000000,8447.000000,0.000000,21504.000000
10756.000000,11464.000000,8447.000000,0.000000,21504.000000
10756.000000,11464.000000,8447.000000,0.000000,21504.000000
10756.000000,11464.000000,8447.000000,0.000000,21504.000000
10756.000000,11459.000000,8447.000000,0.000000,21504.000000
10756.000000,11458.000000,8445.000000,0.000000,21504.000000
10756.000000,11460.000000,8448.000000,0.000000,21504.000000
10756.000000,11470.000000,8456.000000,0.000000,21504.000000
10756.000000,11470.000000,8456.000000,0.000000,21504.000000
10756.000000,11469.000000,8456.000000,0.000000,21504.000000
10756.000000,11471.000000,8457.000000,0.000000,21504.000000
10756.000000,11471.000000,8457.000000,0.000000,21504.000000
10756.000000,11474.000000,8457.000000,0.000000,21504.000000
10756.000000,11473.000000,8456.000000,0.000000,21504.000000
10756.000000,11478.000000,8459.000000,0.000000,21504.000000
10756.000000,11480.000000,8460.000000,0.000000,21504.000000
10756.000000,11482.000000,8459.000000,0.000000,21504.000000
10756.000000,11488.000000,8462.000000,0.000000,21504.000000
10756.000000,11489.000000,8463.000000,0.000000,21504.000000
10756.000000,11492.000000,8464.000000,0.000000,21504.000000
10756.000000,11492.000000,8465.000000,0.000000,21504.000000
10756.000000,11489.000000,8465.000000,0.000000,21504.000000
10756.000000,11484.000000,8462.000000,0.000000,21504.000000
10756.000000,11482.000000,8460.000000,0.000000,21504.000000
10756.000000,11475.000000,8457.000000,0.000000,21504.000000
10756.000000,11475.000000,8459.000000,0.000000,21504.000000
10756.000000,11472.000000,8456.000000,0.000000,21504.000000
10756.000000,11472.000000,8456.000000,0.000000,21504.000000
10756.000000,11473.000000,8456.000000,0.000000,21504.000000
10756.000000,11473.000000,8457.000000,0.000000,21504.000000
10756.000000,11474.000000,8457.000000,0.000000,21504.000000
10756.000000,11468.000000,8452.000000,0.000000,21504.000000
10756.000000,11470.000000,8455.000000,0.000000,21504.000000
10756.000000,11476.000000,8459.000000,0.000000,21504.000000
10756.000000,11467.000000,8453.000000,0.000000,21504.000000
10756.000000,11481.000000,8460.000000,0.000000,21504.000000
10756.000000,11484.000000,8461.000000,0.000000,21504.000000
10756.000000,11486.000000,8463.000000,0.000000,21504.000000
10756.000000,11480.000000,8460.000000,0.000000,21504.000000
10756.000000,11480.000000,8460.000000,0.000000,21504.000000
10756.000000,11473.000000,8456.000000,0.000000,21504.000000
10756.000000,11470.000000,8454.000000,0.000000,21504.000000
10756.000000,11467.000000,8453.000000,0.000000,21504.000000
10756.000000,11466.000000,8452.000000,0.000000,21504.000000
10756.000000,11463.000000,8450.000000,0.000000,21504.000000
10756.000000,11459.000000,8449.000000,0.000000,21504.000000
10756.000000,11459.000000,8449.000000,0.000000,21504.000000
10756.000000,11461.000000,8450.000000,0.000000,21504.000000
10756.000000,11461.000000,8450.000000,0.000000,21504.000000
10756.000000,11460.000000,8450.000000,0.000000,21504.000000
10756.000000,11461.000000,8450.000000,0.000000,21504.000000
10756.000000,11464.000000,8452.000000,0.000000,21504.000000
10756.000000,11467.000000,8453.000000,0.000000,21504.000000
10756.000000,11466.000000,8451.000000,0.000000,21504.000000
10756.000000,11470.000000,8453.000000,0.000000,21504.000000
10756.000000,11468.000000,8452.000000,0.000000,21504.000000
10756.000000,11470.000000,8453.000000,0.000000,21504.000000
10756.000000,11470.000000,8451.000000,0.000000,21504.000000
10756.000000,11466.000000,8451.000000,0.000000,21504.000000
10756.000000,11455.000000,8446.000000,0.000000,21504.000000
10756.000000,11453.000000,8445.000000,0.000000,21504.000000
10756.000000,11450.000000,8445.000000,0.000000,21504.000000
10756.000000,11440.000000,8436.000000,0.000000,21504.000000
10756.000000,11445.000000,8442.000000,0.000000,21504.000000
10756.000000,11446.000000,8441.000000,0.000000,21504.000000
10756.000000,11446.000000,8441.000000,0.000000,21504.000000
10756.000000,11446.000000,8441.000000,0.000000,21504.000000
10756.000000,11446.000000,8441.000000,0.000000,21504.000000
10756.000000,11444.000000,8442.000000,0.000000,21504.000000
10756.000000,11444.000000,8440.000000,0.000000,21504.000000
10756.000000,11448.000000,8441.000000,0.000000,21504.000000
10756.000000,11447.000000,8442.000000,0.000000,21504.000000
10756.000000,11448.000000,8442.000000,0.000000,21504.000000
10756.000000,11448.000000,8441.000000,0.000000,21504.000000
10756.000000,11450.000000,8441.000000,0.000000,21504.000000
10756.000000,11451.000000,8443.000000,0.000000,21504.000000
10756.000000,11452.000000,8442.000000,0.000000,21504.000000
10756.000000,11452.000000,8442.000000,0.000000,21504.000000
10756.000000,11448.000000,8441.000000,0.000000,21504.000000
10756.000000,11440.000000,8436.000000,0.000000,21504.000000
10756.000000,11439.000000,8436.000000,0.000000,21504.000000
10756.000000,11434.000000,8434.000000,0.000000,21504.000000
10756.000000,11434.000000,8431.000000,0.000000,21504.000000
10756.000000,11431.000000,8431.000000,0.000000,21504.000000
10756.000000,11429.000000,8433.000000,0.000000,21504.000000
10756.000000,11431.000000,8434.000000,0.000000,21504.000000
10756.000000,11431.000000,8432.000000,0.000000,21504.000000
10756.000000,11431.000000,8432.000000,0.000000,21504.000000
10756.000000,11433.000000,8433.000000,0.000000,21504.000000
10756.000000,11428.000000,8432.000000,0.000000,21504.000000
10756.000000,11428.000000,8430.000000,0.000000,21504.000000
10756.000000,11428.000000,8436.000000,0.000000,21504.000000
10756.000000,11436.000000,8436.000000,0.000000,21504.000000
10756.000000,11430.000000,8429.000000,0.000000,21504.000000
10756.000000,11440.000000,8437.000000,0.000000,21504.000000
10756.000000,11442.000000,8439.000000,0.000000,21504.000000
10756.000000,11441.000000,8437.000000,0.000000,21504.000000
10756.000000,11437.000000,8437.000000,0.000000,21504.000000
10756.000000,11434.000000,8434.000000,0.000000,21504.000000
10756.000000,11429.000000,8432.000000,0.000000,21504.000000
10756.000000,11422.000000,8427.000000,0.000000,21504.000000
10756.000000,11422.000000,8427.000000,0.000000,21504.000000
10756.000000,11423.000000,8430.000000,0.000000,21504.000000
10756.000000,11420.000000,8428.000000,0.000000,21504.000000
10756.000000,11422.000000,8427.000000,0.000000,21504.000000
10756.000000,11423.000000,8428.000000,0.000000,21504.000000
10756.000000,11423.000000,8428.000000,0.000000,21504.000000
10756.000000,11423.000000,8429.000000,0.000000,21504.000000
10756.000000,11426.000000,8431.000000,0.000000,21504.000000
10756.000000,11427.000000,8430.000000,0.000000,21504.000000
10756.000000,11427.000000,8433.000000,0.000000,21504.000000
10756.000000,11430.000000,8433.000000,0.000000,21504.000000
10756.000000,11431.000000,8433.000000,0.000000,21504.000000
10756.000000,11436.000000,8435.000000,0.000000,21504.000000
10756.000000,11437.000000,8436.000000,0.000000,21504.000000
10756.000000,11436.000000,8435.000000,0.000000,21504.000000
10756.000000,11433.000000,8434.000000,0.000000,21504.000000
10756.000000,11428.000000,8430.000000,0.000000,21504.000000
10756.000000,11416.000000,8424.000000,1.000000,21504.000000
10756.000000,11421.000000,8428.000000,1.000000,21504.000000
10756.000000,11411.000000,8422.000000,1.000000,21504.000000
10756.000000,11416.000000,8424.000000,1.000000,21504.000000
10756.000000,11422.000000,8426.000000,1.000000,21504.000000
10756.000000,11422.000000,8426.000000,1.000000,21504.000000
10756.000000,11423.000000,8425.000000,1.000000,21504.000000
10756.000000,11423.000000,8425.000000,1.000000,21504.000000
10756.000000,11424.000000,8428.000000,1.000000,21504.000000
10756.000000,11426.000000,8429.000000,1.000000,21504.000000
10756.000000,11427.000000,8430.000000,1.000000,21504.000000
10756.000000,11430.000000,8432.000000,1.000000,21504.000000
10756.000000,11429.000000,8432.000000,1.000000,21504.000000
10756.000000,11433.000000,8433.000000,1.000000,21504.000000
10756.000000,11433.000000,8424.000000,1.000000,21504.000000
10756.000000,11424.000000,8424.000000,1.000000,21504.000000
10756.000000,11423.000000,8423.000000,1.000000,21504.000000
10756.000000,11420.000000,8423.000000,1.000000,21504.000000
10756.000000,11416.000000,8421.000000,1.000000,21504.000000
10756.000000,11412.000000,8419.000000,1.000000,21504.000000
10756.000000,11407.000000,8417.000000,1.000000,21504.000000
10756.000000,11404.000000,8414.000000,1.000000,21504.000000
10756.000000,11404.000000,8416.000000,1.000000,21504.000000
10756.000000,11404.000000,8416.000000,1.000000,21504.000000
10756.000000,11406.000000,8416.000000,1.000000,21504.000000
10756.000000,11406.000000,8416.000000,1.000000,21504.000000
10756.000000,11406.000000,8415.000000,1.000000,21504.000000
10756.000000,11409.000000,8417.000000,1.000000,21504.000000
10756.000000,11411.000000,8418.000000,1.000000,21504.000000
10756.000000,11413.000000,8418.000000,1.000000,21504.000000
10756.000000,11415.000000,8420.000000,1.000000,21504.000000
10756.000000,11417.000000,8421.000000,1.000000,21504.000000
10756.000000,11420.000000,8420.000000,1.000000,21504.000000
10756.000000,11420.000000,8420.000000,1.000000,21504.000000
10756.000000,11419.000000,8419.000000,1.000000,21504.000000
10756.000000,11415.000000,8419.000000,1.000000,21504.000000
10756.000000,11412.000000,8417.000000,1.000000,21504.000000
10756.000000,11411.000000,8416.000000,1.000000,21504.000000
10756.000000,11408.000000,8414.000000,1.000000,21504.000000
10756.000000,11406.000000,8413.000000,1.000000,21504.000000
10756.000000,11408.000000,8414.000000,1.000000,21504.000000
10756.000000,11408.000000,8414.000000,1.000000,21504.000000
10756.000000,11408.000000,8414.000000,1.000000,21504.000000
10756.000000,11410.000000,8414.000000,1.000000,21504.000000
10756.000000,11409.000000,8415.000000,1.000000,21504.000000
10756.000000,11412.000000,8416.000000,1.000000,21504.000000
10756.000000,11412.000000,8415.000000,1.000000,21504.000000
10756.000000,11415.000000,8418.000000,1.000000,21504.000000
10756.000000,11419.000000,8417.000000,1.000000,21504.000000
10756.000000,11421.000000,8418.000000,1.000000,21504.000000
10756.000000,11422.000000,8419.000000,1.000000,21504.000000
10756.000000,11422.000000,8417.000000,1.000000,21504.000000
10756.000000,11418.000000,8417.000000,1.000000,21504.000000
10756.000000,11413.000000,8414.000000,1.000000,21504.000000
10756.000000,11409.000000,8414.000000,1.000000,21504.000000
10756.000000,11405.000000,8412.000000,1.000000,21504.000000
10756.000000,11405.000000,8411.000000,1.000000,21504.000000
10756.000000,11405.000000,8413.000000,1.000000,21504.000000
10756.000000,11404.000000,8410.000000,1.000000,21504.000000
10756.000000,11406.000000,8411.000000,1.000000,21504.000000
10756.000000,11406.000000,8412.000000,1.000000,21504.000000
10756.000000,11409.000000,8412.000000,1.000000,21504.000000
10756.000000,11410.000000,8412.000000,1.000000,21504.000000
10756.000000,11412.000000,8412.000000,1.000000,21504.000000
10756.000000,11416.000000,8413.000000,1.000000,21504.000000
10756.000000,11416.000000,8414.000000,1.000000,21504.000000
10756.000000,11420.000000,8415.000000,1.000000,21504.000000
10756.000000,11421.000000,8417.000000,1.000000,21504.000000
10756.000000,11415.000000,8415.000000,1.000000,21504.000000
10756.000000,11415.000000,8414.000000,1.000000,21504.000000
10756.000000,11412.000000,8414.000000,1.000000,21504.000000
10756.000000,11408.000000,8410.000000,1.000000,21504.000000
10756.000000,11407.000000,8410.000000,1.000000,21504.000000
10756.000000,11403.000000,8408.000000,1.000000,21504.000000
10756.000000,11404.000000,8409.000000,1.000000,21504.000000
10756.000000,11402.000000,8408.000000,1.000000,21504.000000
10756.000000,11405.000000,8409.000000,1.000000,21504.000000
10756.000000,11407.000000,8407.000000,1.000000,21504.000000
10756.000000,11406.000000,8407.000000,1.000000,21504.000000
10756.000000,11406.000000,8407.000000,1.000000,21504.000000
10756.000000,11407.000000,8408.000000,1.000000,21504.000000
10756.000000,11411.000000,8410.000000,1.000000,21504.000000
10756.000000,11415.000000,8412.000000,1.000000,21504.000000
10756.000000,11416.000000,8413.000000,1.000000,21504.000000
10756.000000,11417.000000,8413.000000,1.000000,21504.000000
10756.000000,11422.000000,8414.000000,1.000000,21504.000000
10756.000000,11422.000000,8414.000000,1.000000,21504.000000
10756.000000,11418.000000,8414.000000,1.000000,21504.000000
10756.000000,11418.000000,8414.000000,1.000000,21504.000000
10756.000000,11415.000000,8412.000000,1.000000,21504.000000
10756.000000,11412.000000,8412.000000,1.000000,21504.000000
10756.000000,11409.000000,8409.000000,1.000000,21504.000000
10756.000000,11410.000000,8410.000000,1.000000,21504.000000
10756.000000,11410.000000,8409.000000,1.000000,21504.000000
10756.000000,11410.000000,8409.000000,1.000000,21504.000000
10756.000000,11411.000000,8410.000000,1.000000,21504.000000
10756.000000,11411.000000,8410.000000,1.000000,21504.000000
10756.000000,11411.000000,8412.000000,1.000000,21504.000000
10756.000000,11412.000000,8412.000000,1.000000,21504.000000
10756.000000,11416.000000,8411.000000,1.000000,21504.000000
10756.000000,11419.000000,8413.000000,1.000000,21504.000000
10756.000000,11421.000000,8413.000000,1.000000,21504.000000
10756.000000,11422.000000,8415.000000,1.000000,21504.000000
10756.000000,11425.000000,8417.000000,1.000000,21504.000000
10756.000000,11428.000000,8418.000000,1.000000,21504.000000
10756.000000,11431.000000,8417.000000,1.000000,21504.000000
10756.000000,11431.000000,8415.000000,1.000000,21504.000000
10756.000000,11428.000000,8415.000000,1.000000,21504.000000
10756.000000,11426.000000,8415.000000,1.000000,21504.000000
10756.000000,11422.000000,8415.000000,1.000000,21504.000000
10756.000000,11421.000000,8414.000000,1.000000,21504.000000
10756.000000,11419.000000,8411.000000,1.000000,21504.000000
10756.000000,11420.000000,8412.000000,1.000000,21504.000000
10756.000000,11418.000000,8412.000000,1.000000,21504.000000
10756.000000,11417.000000,8411.000000,1.000000,21504.000000
10756.000000,11417.000000,8412.000000,1.000000,21504.000000
10756.000000,11420.000000,8412.000000,1.000000,21504.000000
10756.000000,11420.000000,8412.000000,1.000000,21504.000000
10756.000000,11423.000000,8412.000000,1.000000,21504.000000
10756.000000,11425.000000,8414.000000,1.000000,21504.000000
10756.000000,11425.000000,8414.000000,0.000000,21504.000000
10756.000000,11425.000000,8413.000000,0.000000,21504.000000
10756.000000,11432.000000,8416.000000,0.000000,21504.000000
10756.000000,11436.000000,8419.000000,0.000000,21504.000000
10756.000000,11447.000000,8428.000000,0.000000,21504.000000
10756.000000,11444.000000,8425.000000,0.000000,21504.000000
10756.000000,11440.000000,8424.000000,0.000000,21504.000000
10756.000000,11440.000000,8422.000000,0.000000,21504.000000
10756.000000,11436.000000,8422.000000,0.000000,21504.000000
10756.000000,11431.000000,8421.000000,0.000000,21504.000000
10756.000000,11433.000000,8422.000000,0.000000,21504.000000
10756.000000,11427.000000,8418.000000,0.000000,21504.000000
10756.000000,11429.000000,8420.000000,0.000000,21504.000000
10756.000000,11425.000000,8420.000000,0.000000,21504.000000
10756.000000,11427.000000,8418.000000,0.000000,21504.000000
10756.000000,11429.000000,8419.000000,0.000000,21504.000000
10756.000000,11429.000000,8420.000000,0.000000,21504.000000
10756.000000,11429.000000,8420.000000,0.000000,21504.000000
10756.000000,11430.000000,8420.000000,0.000000,21504.000000
10756.000000,11430.000000,8421.000000,0.000000,21504.000000
10756.000000,11429.000000,8420.000000,0.000000,21504.000000
10756.000000,11429.000000,8419.000000,0.000000,21504.000000
10756.000000,11437.000000,8424.000000,0.000000,21504.000000
10756.000000,11427.000000,8418.000000,0.000000,21504.000000
10756.000000,11423.000000,8416.000000,0.000000,21504.000000
10756.000000,11421.000000,8416.000000,0.000000,21504.000000
10756.000000,11421.000000,8413.000000,0.000000,21504.000000
10756.000000,11414.000000,8413.000000,0.000000,21504.000000
10756.000000,11408.000000,8409.000000,0.000000,21504.000000
10756.000000,11406.000000,8410.000000,0.000000,21504.000000
10756.000000,11406.000000,8408.000000,0.000000,21504.000000
10756.000000,11405.000000,8409.000000,0.000000,21504.000000
10756.000000,11399.000000,8406.000000,0.000000,21504.000000
10756.000000,11402.000000,8407.000000,0.000000,21504.000000
10756.000000,11404.000000,8407.000000,0.000000,21504.000000
10756.000000,11404.000000,8409.000000,0.000000,21504.000000
10756.000000,11407.000000,8409.000000,0.000000,21504.000000
10756.000000,11407.000000,8408.000000,0.000000,21504.000000
10756.000000,11411.000000,8410.000000,0.000000,21504.000000
10756.000000,11411.000000,8410.000000,0.000000,21504.000000
10756.000000,11414.000000,8412.000000,0.000000,21504.000000
10756.000000,11416.000000,8411.000000,0.000000,21504.000000
10756.000000,11410.000000,8407.000000,0.000000,21504.000000
10756.000000,11402.000000,8407.000000,0.000000,21504.000000
10756.000000,11402.000000,8405.000000,0.000000,21504.000000
10756.000000,11397.000000,8405.000000,0.000000,21504.000000
10756.000000,11394.000000,8403.000000,0.000000,21504.000000
10756.000000,11389.000000,8400.000000,0.000000,21504.000000
10756.000000,11382.000000,8396.000000,0.000000,21504.000000
10756.000000,11375.000000,8394.000000,0.000000,21504.000000
10756.000000,11379.000000,8397.000000,0.000000,21504.000000
10756.000000,11375.000000,8394.000000,0.000000,21504.000000
10756.000000,11377.000000,8395.000000,0.000000,21504.000000
10756.000000,11382.000000,8397.000000,0.000000,21504.000000
10756.000000,11382.000000,8397.000000,0.000000,21504.000000
10756.000000,11388.000000,8399.000000,0.000000,21504.000000
10756.000000,11390.000000,8400.000000,0.000000,21504.000000
10756.000000,11390.000000,8399.000000,0.000000,21504.000000
10756.000000,11392.000000,8399.000000,0.000000,21504.000000
10756.000000,11394.000000,8400.000000,0.000000,21504.000000
10756.000000,11394.000000,8400.000000,0.000000,21504.000000
10756.000000,11388.000000,8399.000000,0.000000,21504.000000
10756.000000,11383.000000,8396.000000,0.000000,21504.000000
10756.000000,11383.000000,8396.000000,0.000000,21504.000000
10756.000000,11377.000000,8393.000000,0.000000,21504.000000
10756.000000,11381.000000,8395.000000,0.000000,21504.000000
10756.000000,11380.000000,8394.000000,0.000000,21504.000000
10756.000000,11382.000000,8394.000000,0.000000,21504.000000
10756.000000,11383.000000,8395.000000,0.000000,21504.000000
10756.000000,11382.000000,8394.000000,0.000000,21504.000000
10756.000000,11384.000000,8395.000000,0.000000,21504.000000
10756.000000,11385.000000,8395.000000,0.000000,21504.000000
10756.000000,11385.000000,8396.000000,0.000000,21504.000000
10756.000000,11387.000000,8396.000000,0.000000,21504.000000
10756.000000,11391.000000,8396.000000,0.000000,21504.000000
10756.000000,11389.000000,8395.000000,0.000000,21504.000000
10756.000000,11395.000000,8399.000000,0.000000,21504.000000
10756.000000,11385.000000,8393.000000,0.000000,21504.000000
10756.000000,11389.000000,8397.000000,0.000000,21504.000000
10756.000000,11384.000000,8391.000000,0.000000,21504.000000
10756.000000,11378.000000,8387.000000,0.000000,21504.000000
10756.000000,11378.000000,8393.000000,0.000000,21504.000000
10756.000000,11382.000000,8393.000000,0.000000,21504.000000
10756.000000,11381.000000,8389.000000,0.000000,21504.000000
10756.000000,11381.000000,8391.000000,0.000000,21504.000000
10756.000000,11381.000000,8389.000000,0.000000,21504.000000
10756.000000,11386.000000,8390.000000,0.000000,21504.000000
10756.000000,11388.000000,8393.000000,0.000000,21504.000000
10756.000000,11388.000000,8392.000000,0.000000,21504.000000
10756.000000,11393.000000,8393.000000,0.000000,21504.000000
10756.000000,11393.000000,8395.000000,0.000000,21504.000000
10756.000000,11394.000000,8395.000000,0.000000,21504.000000
10756.000000,11397.000000,8396.000000,0.000000,21504.000000
10756.000000,11401.000000,8398.000000,0.000000,21504.000000
10756.000000,11399.000000,8396.000000,0.000000,21504.000000
10756.000000,11395.000000,8396.000000,0.000000,21504.000000
10756.000000,11388.000000,8392.000000,0.000000,21504.000000
10756.000000,11390.000000,8390.000000,0.000000,21504.000000
10756.000000,11391.000000,8392.000000,0.000000,21504.000000
10756.000000,11391.000000,8389.000000,0.000000,21504.000000
10756.000000,11390.000000,8389.000000,0.000000,21504.000000
10756.000000,11392.000000,8392.000000,0.000000,21504.000000
10756.000000,11393.000000,8392.000000,0.000000,21504.000000
10756.000000,11395.000000,8393.000000,0.000000,21504.000000
10756.000000,11396.000000,8393.000000,0.000000,21504.000000
10756.000000,11391.000000,8388.000000,0.000000,21504.000000
10756.000000,11400.000000,8394.000000,0.000000,21504.000000
10756.000000,11401.000000,8396.000000,0.000000,21504.000000
10756.000000,11401.000000,8394.000000,0.000000,21504.000000
10756.000000,11401.000000,8394.000000,0.000000,21504.000000
10756.000000,11410.000000,8402.000000,0.000000,21504.000000
10756.000000,11413.000000,8403.000000,0.000000,21504.000000
10756.000000,11411.000000,8402.000000,0.000000,21504.000000
10756.000000,11409.000000,8398.000000,0.000000,21504.000000
10756.000000,11410.000000,8399.000000,0.000000,21504.000000
10756.000000,11406.000000,8397.000000,0.000000,21504.000000
10756.000000,11405.000000,8398.000000,0.000000,21504.000000
10756.000000,11403.000000,8396.000000,0.000000,21504.000000
10756.000000,11403.000000,8396.000000,0.000000,21504.000000
10756.000000,11406.000000,8398.000000,0.000000,21504.000000
10756.000000,11410.000000,8397.000000,1.000000,21504.000000
10756.000000,11409.000000,8401.000000,1.000000,21504.000000
10756.000000,11413.000000,8401.000000,1.000000,21504.000000
10756.000000,11417.000000,8402.000000,1.000000,21504.000000
10756.000000,11416.000000,8403.000000,1.000000,21504.000000
10756.000000,11420.000000,8403.000000,1.000000,21504.000000
10756.000000,11422.000000,8404.000000,1.000000,21504.000000
10756.000000,11423.000000,8403.000000,1.000000,21504.000000
10756.000000,11427.000000,8406.000000,1.000000,21504.000000
10756.000000,11428.000000,8406.000000,1.000000,21504.000000
10756.000000,11427.000000,8406.000000,1.000000,21504.000000
10756.000000,11427.000000,8406.000000,1.000000,21504.000000
10756.000000,11424.000000,8404.000000,1.000000,21504.000000
10756.000000,11417.000000,8399.000000,1.000000,21504.000000
10756.000000,11423.000000,8402.000000,1.000000,21504.000000
10756.000000,11420.000000,8402.000000,1.000000,21504.000000
10756.000000,11417.000000,8399.000000,1.000000,21504.000000
10756.000000,11422.000000,8403.000000,1.000000,21504.000000
10756.000000,11409.000000,8395.000000,1.000000,21504.000000
10756.000000,11409.000000,8395.000000,1.000000,21504.000000
10756.000000,11409.000000,8391.000000,1.000000,21504.000000
10756.000000,11408.000000,8391.000000,1.000000,21504.000000
10756.000000,11412.000000,8394.000000,1.000000,21504.000000
10756.000000,11409.000000,8393.000000,1.000000,21504.000000
10756.000000,11412.000000,8394.000000,1.000000,21504.000000
10756.000000,11414.000000,8397.000000,1.000000,21504.000000
10756.000000,11414.000000,8397.000000,1.000000,21504.000000
10756.000000,11413.000000,8395.000000,1.000000,21504.000000
10756.000000,11415.000000,8396.000000,1.000000,21504.000000
10756.000000,11415.000000,8393.000000,1.000000,21504.000000
10756.000000,11409.000000,8393.000000,1.000000,21504.000000
10756.000000,11402.000000,8389.000000,1.000000,21504.000000
10756.000000,11402.000000,8390.000000,1.000000,21504.000000
10756.000000,11402.000000,8391.000000,1.000000,21504.000000
10756.000000,11400.000000,8388.000000,1.000000,21504.000000
10756.000000,11400.000000,8388.000000,1.000000,21504.000000
10756.000000,11398.000000,8386.000000,1.000000,21504.000000
10756.000000,11400.000000,8389.000000,1.000000,21504.000000
10756.000000,11400.000000,8386.000000,1.000000,21504.000000
10756.000000,11399.000000,8386.000000,1.000000,21504.000000
10756.000000,11399.000000,8385.000000,1.000000,21504.000000
10756.000000,11399.000000,8388.000000,1.000000,21504.000000
10756.000000,11402.000000,8389.000000,1.000000,21504.000000
10756.000000,11404.000000,8388.000000,1.000000,21504.000000
10756.000000,11404.000000,8389.000000,1.000000,21504.000000
10756.000000,11402.000000,8387.000000,1.000000,21504.000000
10756.000000,11396.000000,8387.000000,1.000000,21504.000000
10756.000000,11396.000000,8384.000000,1.000000,21504.000000
10756.000000,11390.000000,8384.000000,1.000000,21504.000000
10756.000000,11383.000000,8381.000000,1.000000,21504.000000
10756.000000,11377.000000,8381.000000,1.000000,21504.000000
10756.000000,11372.000000,8376.000000,1.000000,21504.000000
10756.000000,11368.000000,8376.000000,1.000000,21504.000000
10756.000000,11366.000000,8376.000000,1.000000,21504.000000
10756.000000,11362.000000,8374.000000,1.000000,21504.000000
10756.000000,11360.000000,8374.000000,1.000000,21504.000000
10756.000000,11360.000000,8373.000000,1.000000,21504.000000
10756.000000,11360.000000,8373.000000,1.000000,21504.000000
10756.000000,11357.000000,8372.000000,1.000000,21504.000000
10756.000000,11359.000000,8374.000000,1.000000,21504.000000
10756.000000,11357.000000,8372.000000,1.000000,21504.000000
10756.000000,11367.000000,8375.000000,1.000000,21504.000000
10756.000000,11383.000000,8380.000000,1.000000,21504.000000
10756.000000,11401.000000,8392.000000,1.000000,21504.000000
10756.000000,11404.000000,8397.000000,1.000000,21504.000000
10756.000000,11398.000000,8396.000000,1.000000,21504.000000
10756.000000,11398.000000,8396.000000,1.000000,21504.000000
10756.000000,11381.000000,8391.000000,1.000000,21504.000000
10756.000000,11363.000000,8385.000000,1.000000,21504.000000
10756.000000,11347.000000,8379.000000,1.000000,21504.000000
10756.000000,11327.000000,8372.000000,1.000000,21504.000000
10756.000000,11315.000000,8363.000000,1.000000,21504.000000
10756.000000,11295.000000,8354.000000,1.000000,21504.000000
10756.000000,11285.000000,8346.000000,1.000000,21504.000000
10756.000000,11279.000000,8345.000000,1.000000,21504.000000
10756.000000,11279.000000,8347.000000,1.000000,21504.000000
10756.000000,11286.000000,8347.000000,1.000000,21504.000000
10756.000000,11291.000000,8352.000000,1.000000,21504.000000
10756.000000,11298.000000,8352.000000,1.000000,21504.000000
10756.000000,11300.000000,8354.000000,1.000000,21504.000000
10756.000000,11306.000000,8356.000000,1.000000,21504.000000
10756.000000,11309.000000,8357.000000,1.000000,21504.000000
10756.000000,11312.000000,8359.000000,1.000000,21504.000000
10756.000000,11314.000000,8359.000000,1.000000,21504.000000
10756.000000,11314.000000,8359.000000,1.000000,21504.000000
10756.000000,11315.000000,8359.000000,1.000000,21504.000000
10756.000000,11316.000000,8359.000000,1.000000,21504.000000
10756.000000,11315.000000,8359.000000,1.000000,21504.000000
10756.000000,11313.000000,8358.000000,1.000000,21504.000000
10756.000000,11306.000000,8355.000000,1.000000,21504.000000
10756.000000,11306.000000,8355.000000,1.000000,21504.000000
10756.000000,11313.000000,8359.000000,1.000000,21504.000000
10756.000000,11313.000000,8361.000000,1.000000,21504.000000
10756.000000,11313.000000,8365.000000,1.000000,21504.000000
10756.000000,11322.000000,8365.000000,1.000000,21504.000000
10756.000000,11327.000000,8368.000000,1.000000,21504.000000
10756.000000,11329.000000,8370.000000,1.000000,21504.000000
10756.000000,11331.000000,8368.000000,1.000000,21504.000000
10756.000000,11330.000000,8367.000000,1.000000,21504.000000
10756.000000,11325.000000,8364.000000,1.000000,21504.000000
10756.000000,11330.000000,8364.000000,1.000000,21504.000000
10756.000000,11331.000000,8361.000000,1.000000,21504.000000
10756.000000,11331.000000,8361.000000,1.000000,21504.000000
10756.000000,11335.000000,8361.000000,1.000000,21504.000000
10756.000000,11345.000000,8364.000000,1.000000,21504.000000
10756.000000,11355.000000,8368.000000,1.000000,21504.000000
10756.000000,11358.000000,8369.000000,1.000000,21504.000000
10756.000000,11363.000000,8372.000000,1.000000,21504.000000
10756.000000,11364.000000,8372.000000,1.000000,21504.000000
10756.000000,11360.000000,8372.000000,1.000000,21504.000000
10756.000000,11358.000000,8372.000000,1.000000,21504.000000
10756.000000,11360.000000,8372.000000,1.000000,21504.000000
10756.000000,11360.000000,8372.000000,1.000000,21504.000000
10756.000000,11357.000000,8371.000000,1.000000,21504.000000
10756.000000,11359.000000,8373.000000,1.000000,21504.000000
10756.000000,11357.000000,8372.000000,1.000000,21504.000000
10756.000000,11359.000000,8370.000000,1.000000,21504.000000
10756.000000,11362.000000,8371.000000,1.000000,21504.000000
10756.000000,11362.000000,8370.000000,1.000000,21504.000000
10756.000000,11364.000000,8373.000000,1.000000,21504.000000
10756.000000,11366.000000,8374.000000,0.000000,21504.000000
10756.000000,11371.000000,8376.000000,0.000000,21504.000000
10756.000000,11376.000000,8376.000000,0.000000,21504.000000
10756.000000,11380.000000,8377.000000,0.000000,21504.000000
10756.000000,11380.000000,8377.000000,0.000000,21504.000000
10756.000000,11381.000000,8377.000000,0.000000,21504.000000
10756.000000,11377.000000,8377.000000,0.000000,21504.000000
10756.000000,11369.000000,8373.000000,0.000000,21504.000000
10756.000000,11383.000000,8377.000000,0.000000,21504.000000
10756.000000,11376.000000,8374.000000,0.000000,21504.000000
10756.000000,11395.000000,8384.000000,0.000000,21504.000000
10756.000000,11396.000000,8385.000000,0.000000,21504.000000
10756.000000,11393.000000,8381.000000,0.000000,21504.000000
10756.000000,11393.000000,8382.000000,0.000000,21504.000000
10756.000000,11394.000000,8382.000000,0.000000,21504.000000
10756.000000,11392.000000,8381.000000,0.000000,21504.000000
10756.000000,11397.000000,8384.000000,0.000000,21504.000000
10756.000000,11397.000000,8383.000000,0.000000,21504.000000
10756.000000,11395.000000,8383.000000,0.000000,21504.000000
10756.000000,11395.000000,8383.000000,0.000000,21504.000000
10756.000000,11397.000000,8385.000000,0.000000,21504.000000
10756.000000,11394.000000,8384.000000,0.000000,21504.000000
10756.000000,11394.000000,8384.000000,0.000000,21504.000000
10756.000000,11398.000000,8384.000000,0.000000,21504.000000
10756.000000,11393.000000,8383.000000,0.000000,21504.000000
10756.000000,11384.000000,8378.000000,0.000000,21504.000000
10756.000000,11376.000000,8376.000000,0.000000,21504.000000
10756.000000,11367.000000,8374.000000,0.000000,21504.000000
10756.000000,11361.000000,8373.000000,0.000000,21504.000000
10756.000000,11356.000000,8372.000000,0.000000,21504.000000
10756.000000,11353.000000,8370.000000,0.000000,21504.000000
10756.000000,11348.000000,8370.000000,0.000000,21504.000000
10756.000000,11348.000000,8370.000000,0.000000,21504.000000
10756.000000,11344.000000,8368.000000,0.000000,21504.000000
10756.000000,11330.000000,8360.000000,0.000000,21504.000000
10756.000000,11335.000000,8365.000000,0.000000,21504.000000
10756.000000,11330.000000,8362.000000,0.000000,21504.000000
10756.000000,11324.000000,8357.000000,0.000000,21504.000000
10756.000000,11333.000000,8363.000000,0.000000,21504.000000
10756.000000,11331.000000,8362.000000,0.000000,21504.000000
10756.000000,11334.000000,8363.000000,0.000000,21504.000000
10756.000000,11334.000000,8363.000000,0.000000,21504.000000
10756.000000,11335.000000,8363.000000,0.000000,21504.000000
10756.000000,11333.000000,8363.000000,0.000000,21504.000000
10756.000000,11324.000000,8360.000000,0.000000,21504.000000
10756.000000,11315.000000,8355.000000,0.000000,21504.000000
10756.000000,11305.000000,8351.000000,0.000000,21504.000000
10756.000000,11290.000000,8347.000000,0.000000,21504.000000
10756.000000,11286.000000,8345.000000,0.000000,21504.000000
10756.000000,11283.000000,8343.000000,0.000000,21504.000000
10756.000000,11283.000000,8340.000000,0.000000,21504.000000
10756.000000,11276.000000,8340.000000,0.000000,21504.000000
10756.000000,11273.000000,8340.000000,0.000000,21504.000000
10756.000000,11269.000000,8337.000000,0.000000,21504.000000
10756.000000,11268.000000,8336.000000,0.000000,21504.000000
10756.000000,11267.000000,8338.000000,0.000000,21504.000000
10756.000000,11268.000000,8338.000000,0.000000,21504.000000
10756.000000,11266.000000,8335.000000,0.000000,21504.000000
10756.000000,11270.000000,8338.000000,0.000000,21504.000000
10756.000000,11270.000000,8339.000000,0.000000,21504.000000
10756.000000,11271.000000,8339.000000,0.000000,21504.000000
10756.000000,11272.000000,8337.000000,0.000000,21504.000000
10756.000000,11255.000000,8329.000000,0.000000,21504.000000
10756.000000,11260.000000,8335.000000,0.000000,21504.000000
10756.000000,11251.000000,8330.000000,0.000000,21504.000000
10752.000000,11230.000000,8318.000000,0.000000,21504.000000
10756.000000,11235.000000,8318.000000,0.000000,21504.000000
10754.000000,11223.000000,8315.000000,0.000000,21504.000000
10754.000000,11223.000000,8313.000000,0.000000,21504.000000
10746.000000,11219.000000,8313.000000,0.000000,21504.000000
10755.000000,11221.000000,8315.000000,0.000000,21504.000000
10755.000000,11224.000000,8314.000000,0.000000,21504.000000
10756.000000,11232.000000,8318.000000,0.000000,21504.000000
10756.000000,11238.000000,8323.000000,0.000000,21504.000000
10756.000000,11243.000000,8328.000000,0.000000,21504.000000
10756.000000,11247.000000,8331.000000,0.000000,21504.000000
10756.000000,11247.000000,8334.000000,0.000000,21504.000000
10756.000000,11247.000000,8333.000000,0.000000,21504.000000
10756.000000,11246.000000,8333.000000,0.000000,21504.000000
10742.000000,11228.000000,8323.000000,0.000000,21504.000000
10719.000000,11214.000000,8313.000000,0.000000,21504.000000
10707.000000,11207.000000,8312.000000,0.000000,21504.000000
10723.000000,11213.000000,8316.000000,0.000000,21504.000000
10738.000000,11216.000000,8321.000000,0.000000,21504.000000
10740.000000,11214.000000,8319.000000,0.000000,21504.000000
10743.000000,11213.000000,8320.000000,0.000000,21504.000000
10743.000000,11208.000000,8317.000000,0.000000,21504.000000
10741.000000,11208.000000,8317.000000,0.000000,21504.000000
10742.000000,11208.000000,8318.000000,0.000000,21504.000000
10739.000000,11209.000000,8318.000000,0.000000,21504.000000
10717.000000,11202.000000,8311.000000,0.000000,21504.000000
10736.000000,11210.000000,8317.000000,0.000000,21504.000000
10740.000000,11212.000000,8319.000000,0.000000,21504.000000
10727.000000,11207.000000,8315.000000,0.000000,21504.000000
10750.000000,11216.000000,8322.000000,0.000000,21504.000000
10750.000000,11217.000000,8322.000000,0.000000,21504.000000
10751.000000,11217.000000,8323.000000,0.000000,21504.000000
10747.000000,11217.000000,8323.000000,0.000000,21504.000000
10753.000000,11223.000000,8328.000000,0.000000,21504.000000
10755.000000,11229.000000,8334.000000,0.000000,21504.000000
10733.000000,11219.000000,8333.000000,0.000000,21504.000000
10896.000000,11567.000000,8590.000000,0.000000,21504.000000
11775.000000,12595.000000,9250.000000,0.000000,21504.000000
11672.000000,12400.000000,9063.000000,0.000000,21504.000000
11672.000000,11971.000000,8726.000000,0.000000,21504.000000
11364.000000,11971.000000,8556.000000,0.000000,21504.000000
11214.000000,11761.000000,8556.000000,0.000000,21504.000000
11191.000000,11728.000000,8528.000000,0.000000,21504.000000
11157.000000,11762.000000,8565.000000,0.000000,21504.000000
11132.000000,11759.000000,8573.000000,0.000000,21504.000000
11106.000000,11739.000000,8565.000000,0.000000,21504.000000
11058.000000,11709.000000,8539.000000,0.000000,21504.000000
10992.000000,11652.000000,8505.000000,0.000000,21504.000000
10930.000000,11611.000000,8479.000000,0.000000,21504.000000
10930.000000,11611.000000,8463.000000,0.000000,21504.000000
10901.000000,11589.000000,8463.000000,0.000000,21504.000000
10901.000000,11592.000000,8466.000000,0.000000,21504.000000
10905.000000,11594.000000,8466.000000,0.000000,21504.000000
10890.000000,11578.000000,8455.000000,0.000000,21504.000000
10894.000000,11581.000000,8458.000000,0.000000,21504.000000
10887.000000,11567.000000,8452.000000,1.000000,21504.000000
10870.000000,11545.000000,8434.000000,1.000000,21504.000000
10869.000000,11538.000000,8429.000000,1.000000,21504.000000
10865.000000,11536.000000,8429.000000,1.000000,21504.000000
10862.000000,11533.000000,8426.000000,1.000000,21504.000000
10861.000000,11533.000000,8426.000000,1.000000,21504.000000
10861.000000,11532.000000,8428.000000,1.000000,21504.000000
10858.000000,11532.000000,8428.000000,1.000000,21504.000000
10856.000000,11532.000000,8428.000000,1.000000,21504.000000
10854.000000,11532.000000,8428.000000,1.000000,21504.000000
10852.000000,11533.000000,8426.000000,1.000000,21504.000000
10849.000000,11533.000000,8425.000000,1.000000,21504.000000
10828.000000,11533.000000,8425.000000,1.000000,21504.000000
10826.000000,11532.000000,8426.000000,1.000000,21504.000000
10821.000000,11533.000000,8426.000000,1.000000,21504.000000
10821.000000,11529.000000,8426.000000,1.000000,21504.000000
10817.000000,11529.000000,8422.000000,1.000000,21504.000000
10806.000000,11522.000000,8422.000000,1.000000,21504.000000
10794.000000,11513.000000,8416.000000,1.000000,21504.000000
10787.000000,11507.000000,8412.000000,1.000000,21504.000000
10780.000000,11502.000000,8410.000000,1.000000,21504.000000
10775.000000,11501.000000,8410.000000,1.000000,21504.000000
10770.000000,11498.000000,8408.000000,1.000000,21504.000000
10766.000000,11497.000000,8407.000000,1.000000,21504.000000
10764.000000,11496.000000,8407.000000,1.000000,21504.000000
10764.000000,11496.000000,8406.000000,1.000000,21504.000000
10762.000000,11497.000000,8406.000000,1.000000,21504.000000
10767.000000,11499.000000,8408.000000,1.000000,21504.000000
10764.000000,11502.000000,8408.000000,1.000000,21504.000000
10766.000000,11505.000000,8410.000000,1.000000,21504.000000
10768.000000,11508.000000,8410.000000,1.000000,21504.000000
10760.000000,11503.000000,8409.000000,1.000000,21504.000000
10757.000000,11495.000000,8404.000000,1.000000,21504.000000
10756.000000,11487.000000,8399.000000,1.000000,21504.000000
10756.000000,11481.000000,8395.000000,1.000000,21504.000000
10756.000000,11481.000000,8395.000000,1.000000,21504.000000
10756.000000,11481.000000,8394.000000,1.000000,21504.000000
10756.000000,11479.000000,8392.000000,1.000000,21504.000000
10756.000000,11479.000000,8392.000000,1.000000,21504.000000
10756.000000,11480.000000,8393.000000,1.000000,21504.000000
10756.000000,11481.000000,8393.000000,1.000000,21504.000000
10756.000000,11482.000000,8393.000000,1.000000,21504.000000
10756.000000,11486.000000,8396.000000,1.000000,21504.000000
10756.000000,11486.000000,8396.000000,1.000000,21504.000000
10756.000000,11486.000000,8396.000000,1.000000,21504.000000
10756.000000,11490.000000,8397.000000,1.000000,21504.000000
10756.000000,11490.000000,8396.000000,1.000000,21504.000000
10756.000000,11492.000000,8398.000000,1.000000,21504.000000
10756.000000,11487.000000,8394.000000,1.000000,21504.000000
10756.000000,11485.000000,8392.000000,1.000000,21504.000000
10756.000000,11478.000000,8388.000000,1.000000,21504.000000
10756.000000,11476.000000,8387.000000,1.000000,21504.000000
10756.000000,11473.000000,8386.000000,1.000000,21504.000000
10756.000000,11473.000000,8386.000000,1.000000,21504.000000
10756.000000,11472.000000,8386.000000,1.000000,21504.000000
10756.000000,11474.000000,8386.000000,1.000000,21504.000000
10756.000000,11474.000000,8385.000000,1.000000,21504.000000
10756.000000,11474.000000,8385.000000,1.000000,21504.000000
10756.000000,11474.000000,8385.000000,1.000000,21504.000000
10756.000000,11478.000000,8388.000000,1.000000,21504.000000
10756.000000,11480.000000,8387.000000,1.000000,21504.000000
10756.000000,11484.000000,8388.000000,1.000000,21504.000000
10756.000000,11484.000000,8388.000000,1.000000,21504.000000
10756.000000,11485.000000,8388.000000,1.000000,21504.000000
10756.000000,11487.000000,8389.000000,1.000000,21504.000000
10756.000000,11482.000000,8388.000000,1.000000,21504.000000
10756.000000,11479.000000,8385.000000,1.000000,21504.000000
10756.000000,11472.000000,8382.000000,1.000000,21504.000000
10756.000000,11468.000000,8379.000000,1.000000,21504.000000
10756.000000,11463.000000,8376.000000,1.000000,21504.000000
10756.000000,11463.000000,8374.000000,1.000000,21504.000000
10756.000000,11463.000000,8375.000000,1.000000,21504.000000
10756.000000,11464.000000,8375.000000,1.000000,21504.000000
10756.000000,11463.000000,8374.000000,1.000000,21504.000000
10756.000000,11461.000000,8373.000000,1.000000,21504.000000
10756.000000,11460.000000,8373.000000,1.000000,21504.000000
10756.000000,11460.000000,8373.000000,1.000000,21504.000000
10756.000000,11461.000000,8373.000000,1.000000,21504.000000
10756.000000,11464.000000,8374.000000,1.000000,21504.000000
10756.000000,11465.000000,8375.000000,1.000000,21504.000000
10756.000000,11465.000000,8377.000000,1.000000,21504.000000
10756.000000,11466.000000,8377.000000,1.000000,21504.000000
10756.000000,11464.000000,8373.000000,1.000000,21504.000000
10756.000000,11455.000000,8369.000000,1.000000,21504.000000
10756.000000,11447.000000,8363.000000,1.000000,21504.000000
10756.000000,11442.000000,8361.000000,1.000000,21504.000000
10756.000000,11438.000000,8359.000000,1.000000,21504.000000
10756.000000,11434.000000,8357.000000,1.000000,21504.000000
10756.000000,11431.000000,8356.000000,1.000000,21504.000000
10756.000000,11431.000000,8355.000000,1.000000,21504.000000
10756.000000,11431.000000,8355.000000,1.000000,21504.000000
10756.000000,11431.000000,8354.000000,1.000000,21504.000000
10756.000000,11431.000000,8354.000000,1.000000,21504.000000
10756.000000,11432.000000,8354.000000,1.000000,21504.000000
10756.000000,11431.000000,8355.000000,1.000000,21504.000000
10756.000000,11431.000000,8356.000000,1.000000,21504.000000
10756.000000,11434.000000,8355.000000,1.000000,21504.000000
10756.000000,11434.000000,8355.000000,1.000000,21504.000000
10756.000000,11425.000000,8350.000000,1.000000,21504.000000
10756.000000,11425.000000,8363.000000,1.000000,21504.000000
10756.000000,11442.000000,8363.000000,1.000000,21504.000000
10756.000000,11457.000000,8380.000000,1.000000,21504.000000
10756.000000,11458.000000,8385.000000,1.000000,21504.000000
10756.000000,11454.000000,8384.000000,1.000000,21504.000000
11107.000000,11756.000000,8614.000000,1.000000,21504.000000
11309.000000,11817.000000,8630.000000,1.000000,21504.000000
11351.000000,11693.000000,8628.000000,1.000000,21504.000000
11351.000000,11322.000000,8339.000000,1.000000,21504.000000
11012.000000,11322.000000,8167.000000,1.000000,21504.000000
10791.000000,11151.000000,8167.000000,1.000000,21504.000000
10735.000000,11022.000000,8082.000000,1.000000,21504.000000
10756.000000,11206.000000,8173.000000,1.000000,21504.000000
10642.000000,11049.000000,8087.000000,1.000000,21504.000000
10402.000000,10847.000000,7990.000000,1.000000,21504.000000
10283.000000,10756.000000,7918.000000,1.000000,21504.000000
10262.000000,10756.000000,7906.000000,1.000000,21504.000000
10262.000000,10756.000000,7925.000000,1.000000,21504.000000
10288.000000,10756.000000,7968.000000,1.000000,21504.000000
10357.000000,10810.000000,7968.000000,1.000000,21504.000000
10375.000000,10816.000000,7973.000000,1.000000,21504.000000
10372.000000,10811.000000,7972.000000,0.000000,21504.000000
10367.000000,10811.000000,7969.000000,0.000000,21504.000000
10382.000000,10824.000000,7976.000000,0.000000,21504.000000
10381.000000,10820.000000,7975.000000,0.000000,21504.000000
10378.000000,10820.000000,7975.000000,0.000000,21504.000000
10377.000000,10817.000000,7974.000000,0.000000,21504.000000
10377.000000,10818.000000,7974.000000,0.000000,21504.000000
10377.000000,10822.000000,7975.000000,0.000000,21504.000000
10374.000000,10820.000000,7973.000000,0.000000,21504.000000
10374.000000,10825.000000,7975.000000,0.000000,21504.000000
10375.000000,10825.000000,7974.000000,0.000000,21504.000000
10376.000000,10825.000000,7974.000000,0.000000,21504.000000
10376.000000,10831.000000,7975.000000,0.000000,21504.000000
10369.000000,10823.000000,7973.000000,0.000000,21504.000000
10368.000000,10814.000000,7972.000000,0.000000,21504.000000
10364.000000,10805.000000,7970.000000,0.000000,21504.000000
10357.000000,10798.000000,7968.000000,0.000000,21504.000000
10355.000000,10792.000000,7965.000000,0.000000,21504.000000
10355.000000,10767.000000,7956.000000,0.000000,21504.000000
10346.000000,10767.000000,7962.000000,0.000000,21504.000000
10353.000000,10783.000000,7962.000000,0.000000,21504.000000
10353.000000,10787.000000,7964.000000,0.000000,21504.000000
10350.000000,10780.000000,7961.000000,0.000000,21504.000000
10346.000000,10776.000000,7958.000000,0.000000,21504.000000
10352.000000,10794.000000,7965.000000,0.000000,21504.000000
10352.000000,10798.000000,7965.000000,0.000000,21504.000000
10352.000000,10802.000000,7965.000000,0.000000,21504.000000
10354.000000,10807.000000,7967.000000,0.000000,21504.000000
10354.000000,10807.000000,7967.000000,0.000000,21504.000000
10355.000000,10809.000000,7967.000000,0.000000,21504.000000
10350.000000,10810.000000,7966.000000,0.000000,21504.000000
10352.000000,10809.000000,7967.000000,0.000000,21504.000000
10349.000000,10800.000000,7964.000000,0.000000,21504.000000
10346.000000,10792.000000,7962.000000,0.000000,21504.000000
10344.000000,10783.000000,7958.000000,0.000000,21504.000000
10343.000000,10779.000000,7958.000000,0.000000,21504.000000
10343.000000,10774.000000,7957.000000,0.000000,21504.000000
10343.000000,10774.000000,7955.000000,0.000000,21504.000000
10341.000000,10774.000000,7955.000000,0.000000,21504.000000
10341.000000,10775.000000,7956.000000,0.000000,21504.000000
10340.000000,10774.000000,7955.000000,0.000000,21504.000000
10339.000000,10775.000000,7955.000000,0.000000,21504.000000
10342.000000,10782.000000,7956.000000,0.000000,21504.000000
10343.000000,10784.000000,7958.000000,0.000000,21504.000000
10342.000000,10790.000000,7959.000000,0.000000,21504.000000
10342.000000,10795.000000,7961.000000,0.000000,21504.000000
10342.000000,10783.000000,7954.000000,0.000000,21504.000000
10335.000000,10783.000000,7954.000000,0.000000,21504.000000
10342.000000,10802.000000,7962.000000,0.000000,21504.000000
10339.000000,10797.000000,7961.000000,0.000000,21504.000000
10335.000000,10784.000000,7955.000000,0.000000,21504.000000
10325.000000,10763.000000,7947.000000,0.000000,21504.000000
10328.000000,10760.000000,7949.000000,0.000000,21504.000000
10328.000000,10757.000000,7947.000000,0.000000,21504.000000
10324.000000,10756.000000,7945.000000,0.000000,21504.000000
10324.000000,10756.000000,7944.000000,0.000000,21504.000000
10324.000000,10756.000000,7943.000000,0.000000,21504.000000
10324.000000,10756.000000,7943.000000,0.000000,21504.000000
10322.000000,10756.000000,7943.000000,0.000000,21504.000000
10324.000000,10756.000000,7945.000000,0.000000,21504.000000
10324.000000,10756.000000,7946.000000,0.000000,21504.000000
10325.000000,10758.000000,7948.000000,0.000000,21504.000000
10326.000000,10763.000000,7949.000000,0.000000,21504.000000
10329.000000,10770.000000,7952.000000,0.000000,21504.000000
10329.000000,10778.000000,7953.000000,0.000000,21504.000000
10331.000000,10778.000000,7953.000000,0.000000,21504.000000
10331.000000,10784.000000,7953.000000,0.000000,21504.000000
10331.000000,10784.000000,7954.000000,0.000000,21504.000000
10327.000000,10775.000000,7952.000000,0.000000,21504.000000
10325.000000,10761.000000,7949.000000,0.000000,21504.000000
10319.000000,10756.000000,7944.000000,0.000000,21504.000000
10318.000000,10756.000000,7940.000000,0.000000,21504.000000
10313.000000,10756.000000,7936.000000,0.000000,21504.000000
10313.000000,10756.000000,7936.000000,0.000000,21504.000000
10313.000000,10756.000000,7929.000000,0.000000,21504.000000
10305.000000,10756.000000,7929.000000,0.000000,21504.000000
10313.000000,10756.000000,7937.000000,0.000000,21504.000000
10313.000000,10756.000000,7937.000000,0.000000,21504.000000
10312.000000,10756.000000,7935.000000,0.000000,21504.000000
10307.000000,10756.000000,7932.000000,0.000000,21504.000000
10314.000000,10756.000000,7938.000000,0.000000,21504.000000
10313.000000,10756.000000,7938.000000,0.000000,21504.000000
10312.000000,10756.000000,7938.000000,0.000000,21504.000000
10312.000000,10756.000000,7942.000000,0.000000,21504.000000
10315.000000,10756.000000,7942.000000,0.000000,21504.000000
10317.000000,10759.000000,7946.000000,0.000000,21504.000000
10318.000000,10764.000000,7946.000000,0.000000,21504.000000
10316.000000,10759.000000,7945.000000,0.000000,21504.000000
10310.000000,10756.000000,7939.000000,0.000000,21504.000000
10308.000000,10756.000000,7935.000000,0.000000,21504.000000
10305.000000,10756.000000,7932.000000,0.000000,21504.000000
10302.000000,10756.000000,7930.000000,0.000000,21504.000000
10302.000000,10756.000000,7928.000000,0.000000,21504.000000
10300.000000,10756.000000,7928.000000,0.000000,21504.000000
10299.000000,10756.000000,7927.000000,0.000000,21504.000000
10301.000000,10756.000000,7929.000000,0.000000,21504.000000
10299.000000,10756.000000,7928.000000,0.000000,21504.000000
10301.000000,10756.000000,7931.000000,0.000000,21504.000000
10301.000000,10756.000000,7930.000000,0.000000,21504.000000
10302.000000,10756.000000,7931.000000,0.000000,21504.000000
10304.000000,10756.000000,7932.000000,0.000000,21504.000000
10304.000000,10756.000000,7933.000000,0.000000,21504.000000
10301.000000,10756.000000,7928.000000,0.000000,21504.000000
10296.000000,10756.000000,7928.000000,0.000000,21504.000000
10303.000000,10756.000000,7934.000000,0.000000,21504.000000
10308.000000,10756.000000,7937.000000,0.000000,21504.000000
10306.000000,10756.000000,7938.000000,0.000000,21504.000000
10300.000000,10756.000000,7932.000000,0.000000,21504.000000
10303.000000,10756.000000,7934.000000,0.000000,21504.000000
10299.000000,10756.000000,7932.000000,0.000000,21504.000000
10299.000000,10756.000000,7930.000000,0.000000,21504.000000
10298.000000,10756.000000,7929.000000,0.000000,21504.000000
10296.000000,10756.000000,7929.000000,0.000000,21504.000000
10294.000000,10756.000000,7927.000000,0.000000,21504.000000
10294.000000,10756.000000,7928.000000,0.000000,21504.000000
10292.000000,10756.000000,7925.000000,0.000000,21504.000000
10294.000000,10756.000000,7929.000000,0.000000,21504.000000
10293.000000,10756.000000,7928.000000,0.000000,21504.000000
10293.000000,10756.000000,7929.000000,0.000000,21504.000000
10294.000000,10756.000000,7930.000000,0.000000,21504.000000
10296.000000,10756.000000,7930.000000,1.000000,21504.000000
10297.000000,10756.000000,7932.000000,1.000000,21504.000000
10299.000000,10756.000000,7933.000000,1.000000,21504.000000
10299.000000,10756.000000,7933.000000,1.000000,21504.000000
10300.000000,10756.000000,7933.000000,1.000000,21504.000000
10298.000000,10756.000000,7935.000000,1.000000,21504.000000
10301.000000,10756.000000,7937.000000,1.000000,21504.000000
10298.000000,10756.000000,7934.000000,1.000000,21504.000000
10295.000000,10756.000000,7933.000000,1.000000,21504.000000
10293.000000,10756.000000,7932.000000,1.000000,21504.000000
10284.000000,10756.000000,7924.000000,1.000000,21504.000000
