4304,4372,4372,1460,888,576
4300,4372,4372,1464,888,576
4300,4376,4372,1460,888,576
4300,4376,4372,1460,888,576
4300,4380,4376,1460,888,576
4304,4380,4380,1464,888,576
4304,4384,4380,1460,888,576
4308,4392,4384,1460,888,576
4308,4392,4384,1464,888,576
4308,4392,4384,1464,888,576
4304,4388,4380,1460,888,576
4304,4388,4380,1464,888,576
4300,4384,4380,1460,888,576
4296,4376,4372,1460,888,576
4296,4376,4372,1460,888,576
4296,4372,4368,1460,888,576
4296,4368,4368,1460,888,576
4296,4368,4368,1460,888,576
4296,4364,4364,1460,888,576
4296,4364,4364,1464,888,576
4296,4360,4364,1460,888,576
4292,4360,4360,1460,888,576
4292,4360,4360,1460,888,576
4292,4356,4360,1460,888,576
4292,4356,4360,1460,888,576
4292,4356,4360,1460,888,576
4292,4360,4360,1460,884,576
4292,4356,4356,1460,884,576
4292,4356,4356,1460,888,576
4292,4356,4360,1464,888,576
4292,4356,4356,1464,888,576
4288,4356,4356,1460,888,576
4288,4356,4356,1464,888,576
4292,4360,4360,1460,888,576
4292,4360,4360,1464,888,576
4292,4360,4360,1464,888,576
4292,4364,4360,1460,888,576
4292,4364,4364,1460,888,576
4296,4368,4368,1464,888,576
4292,4368,4364,1460,888,576
4296,4372,4368,1460,888,576
4296,4372,4368,1460,888,576
4296,4372,4372,1460,888,576
4296,4376,4372,1460,888,576
4292,4376,4368,1460,888,576
4300,4380,4376,1460,888,576
4296,4380,4376,1460,888,576
4300,4384,4376,1460,888,576
4300,4384,4376,1464,888,576
4300,4388,4380,1464,888,576
4300,4388,4380,1460,888,576
4296,4388,4376,1460,888,576
4296,4380,4376,1464,888,576
4292,4376,4372,1464,888,576
4292,4372,4368,1460,888,576
4292,4372,4368,1460,888,576
4292,4368,4364,1460,888,576
4292,4368,4364,1460,888,576
4292,4364,4364,1460,888,576
4288,4360,4360,1460,888,576
4288,4360,4360,1460,888,576
4292,4364,4360,1464,888,576
4284,4356,4356,1460,888,576
4284,4356,4356,1460,888,576
4284,4356,4356,1460,888,576
4288,4360,4360,1460,888,576
4288,4360,4360,1460,888,576
4288,4360,4360,1460,888,576
4288,4360,4360,1464,888,576
4284,4356,4356,1460,888,576
4288,4356,4356,1460,888,576
4288,4360,4360,1460,888,576
4288,4360,4360,1460,888,576
4288,4364,4364,1460,888,576
4292,4368,4368,1460,888,576
4292,4368,4364,1460,888,576
4288,4368,4364,1460,888,576
4288,4368,4364,1460,888,576
4288,4368,4364,1460,888,576
4292,4372,4368,1460,888,576
4288,4372,4368,1460,888,576
4288,4376,4368,1460,888,576
4292,4380,4372,1460,888,576
4292,4380,4372,1460,888,576
4292,4380,4372,1464,888,576
4292,4384,4376,1464,888,576
4292,4384,4372,1464,888,576
4292,4384,4376,1464,888,576
4292,4384,4376,1464,888,576
4292,4384,4376,1464,888,576
4292,4380,4372,1464,888,576
4288,4376,4368,1464,888,576
4288,4372,4368,1464,888,576
4284,4368,4364,1464,888,576
4284,4364,4360,1460,888,576
4284,4364,4360,1464,888,576
4284,4360,4360,1460,888,576
4284,4360,4356,1460,888,576
4284,4356,4356,1460,888,576
4280,4352,4356,1464,888,576
4284,4356,4356,1464,888,576
4280,4352,4356,1460,888,576
4280,4352,4352,1460,888,576
4280,4352,4352,1460,888,576
4280,4352,4352,1460,888,576
4280,4352,4352,1460,888,576
4280,4352,4352,1460,888,576
4276,4352,4352,1460,888,576
4280,4352,4352,1460,888,576
4276,4352,4352,1460,888,576
4280,4356,4356,1460,888,576
4280,4356,4356,1460,888,576
4284,4360,4360,1460,888,576
4284,4360,4360,1460,888,576
4284,4364,4360,1460,888,576
4284,4364,4360,1464,888,576
4288,4368,4364,1464,888,576
4288,4372,4364,1460,888,576
4288,4372,4364,1460,888,576
4288,4372,4368,1460,888,576
4288,4376,4368,1460,888,576
4284,4372,4364,1460,888,576
4288,4376,4372,1464,888,576
4288,4380,4372,1460,888,576
4288,4380,4372,1460,888,576
4288,4380,4372,1464,888,576
4288,4384,4376,1460,888,576
4288,4384,4376,1464,888,576
4288,4384,4372,1460,888,576
4288,4380,4372,1460,888,576
4284,4376,4368,1464,888,576
4284,4372,4364,1464,888,576
4280,4364,4360,1464,888,576
4280,4360,4356,1464,888,576
4280,4356,4356,1464,888,576
4280,4356,4352,1460,888,576
4276,4348,4348,1460,888,576
4280,4348,4352,1460,888,576
4276,4344,4348,1464,888,576
4272,4340,4340,1460,888,576
4272,4340,4344,1460,888,576
4272,4340,4344,1460,888,576
4272,4336,4340,1460,888,576
4272,4336,4340,1460,888,576
4272,4336,4340,1460,888,576
4272,4336,4340,1460,888,576
4272,4336,4344,1460,888,576
4276,4340,4344,1464,888,576
4276,4336,4344,1460,888,576
4276,4340,4344,1460,888,576
4276,4340,4344,1460,888,576
4272,4340,4344,1460,888,576
4272,4340,4344,1460,888,576
4276,4340,4344,1460,888,576
4276,4344,4348,1460,888,576
4276,4344,4348,1460,888,576
4276,4348,4348,1460,888,576
4276,4348,4348,1460,888,576
4280,4352,4352,1460,888,576
4280,4352,4352,1460,888,576
4280,4356,4356,1460,888,576
4280,4356,4356,1460,888,576
4276,4352,4352,1460,888,576
4280,4356,4352,1460,888,576
4276,4356,4356,1460,888,576
4276,4360,4352,1460,888,576
4280,4360,4356,1460,888,576
4280,4360,4360,1460,888,576
4280,4360,4356,1460,888,576
4280,4360,4356,1460,888,576
4276,4352,4352,1460,888,576
4272,4348,4348,1460,888,576
4272,4344,4344,1460,888,576
4272,4340,4344,1460,888,576
4272,4340,4344,1460,888,576
4272,4336,4340,1460,888,576
4272,4332,4340,1460,888,576
4272,4332,4340,1460,888,576
4268,4328,4336,1460,888,576
4272,4332,4340,1460,888,576
4272,4328,4336,1460,884,576
4272,4328,4336,1460,888,576
4272,4328,4336,1460,888,576
4272,4328,4336,1460,888,576
4272,4332,4336,1460,888,576
4268,4328,4336,1460,884,576
4268,4328,4332,1460,884,576
4268,4328,4336,1460,884,576
4268,4328,4336,1460,884,576
4272,4332,4340,1460,888,576
4272,4336,4340,1460,888,576
4272,4336,4340,1460,888,576
4272,4336,4340,1460,884,576
4272,4340,4344,1460,888,576
4272,4340,4344,1460,884,576
4272,4344,4344,1460,884,576
4272,4344,4344,1460,888,576
4276,4344,4348,1460,888,576
4272,4348,4344,1460,888,576
4276,4348,4348,1460,888,576
4276,4352,4352,1460,888,576
4276,4352,4352,1460,888,576
4272,4352,4352,1460,888,576
4276,4356,4352,1460,888,576
4276,4356,4352,1460,888,576
4276,4352,4352,1460,888,576
4272,4348,4348,1460,888,576
4272,4344,4344,1460,888,576
4268,4336,4340,1460,888,576
4264,4328,4336,1460,888,576
4264,4328,4332,1460,888,576
4264,4320,4328,1460,888,576
4260,4320,4324,1460,884,576
4260,4316,4324,1460,884,576
4260,4316,4324,1460,884,576
4264,4316,4324,1460,884,576
4260,4316,4324,1460,884,576
4260,4316,4324,1460,884,576
4264,4316,4324,1460,884,576
4264,4316,4324,1460,884,576
4260,4312,4320,1460,888,576
4260,4312,4320,1460,888,576
4260,4316,4324,1460,884,576
4260,4316,4324,1460,884,576
4264,4320,4328,1460,884,576
4264,4316,4324,1460,884,576
4264,4320,4328,1460,884,576
4264,4320,4328,1460,884,576
4264,4324,4328,1460,884,576
4264,4324,4332,1460,884,576
4264,4328,4332,1460,884,576
4268,4332,4332,1460,884,576
4264,4332,4336,1460,888,576
4268,4336,4336,1460,888,576
4268,4336,4340,1460,888,576
4268,4336,4336,1460,888,576
4268,4340,4340,1460,888,576
4268,4340,4340,1460,888,576
4268,4344,4344,1460,888,576
4268,4348,4344,1460,888,576
4272,4352,4348,1460,888,576
4268,4348,4348,1460,888,576
4268,4348,4344,1460,888,576
4268,4344,4340,1460,888,576
4264,4340,4340,1460,888,576
4264,4332,4332,1460,888,576
4264,4328,4332,1460,888,576
4264,4324,4328,1460,888,576
4260,4320,4324,1460,888,576
4260,4316,4324,1460,884,576
4256,4308,4316,1460,884,576
4256,4308,4320,1460,884,576
4256,4304,4316,1460,884,576
4256,4304,4316,1460,884,576
4256,4304,4316,1460,884,576
4256,4304,4316,1460,884,576
4256,4304,4316,1460,884,576
4260,4304,4316,1460,884,576
4256,4304,4316,1460,884,576
4256,4300,4312,1460,884,576
4256,4300,4312,1460,884,576
4256,4300,4312,1460,884,576
4256,4300,4312,1460,884,576
4256,4304,4316,1460,884,576
4256,4304,4312,1460,884,576
4256,4304,4312,1460,884,576
4256,4304,4316,1460,884,576
4260,4308,4316,1460,884,576
4256,4308,4316,1460,884,576
4260,4312,4320,1460,884,576
4260,4312,4324,1460,884,576
4260,4316,4324,1460,884,576
4264,4320,4324,1460,888,576
4260,4320,4324,1460,888,576
4260,4320,4324,1460,884,576
4264,4324,4328,1460,888,576
4264,4328,4328,1460,888,576
4264,4324,4328,1460,888,576
4264,4328,4332,1460,884,576
4264,4328,4328,1460,888,576
4264,4328,4328,1460,888,576
4260,4324,4324,1460,884,576
4256,4312,4320,1460,884,576
4256,4308,4316,1460,884,576
4248,4300,4308,1460,884,576
4252,4300,4312,1460,884,576
4252,4296,4308,1460,884,576
4252,4292,4308,1460,884,576
4252,4292,4308,1460,884,576
4252,4292,4304,1460,884,576
4252,4292,4308,1460,884,576
4252,4288,4304,1460,884,576
4252,4292,4304,1460,884,576
4252,4292,4304,1460,884,576
4252,4292,4304,1460,884,576
4252,4292,4308,1456,884,572
4252,4292,4304,1456,884,576
4252,4292,4308,1460,884,576
4252,4292,4308,1460,884,576
4256,4296,4308,1460,884,576
4252,4296,4308,1456,884,576
4252,4296,4312,1460,884,576
4256,4300,4312,1460,884,576
4256,4300,4312,1456,884,576
4256,4304,4312,1456,884,576
4256,4304,4316,1460,884,576
4260,4308,4320,1460,884,576
4256,4308,4316,1460,884,576
4256,4312,4316,1460,884,576
4256,4312,4320,1460,884,576
4256,4316,4320,1460,888,576
4260,4320,4324,1460,888,576
4260,4320,4324,1460,884,576
4260,4320,4324,1460,888,576
4260,4320,4324,1460,888,576
4260,4324,4324,1460,884,576
4260,4320,4324,1460,884,576
4256,4312,4320,1460,888,576
4252,4308,4312,1460,884,576
4252,4304,4312,1460,888,576
4252,4296,4308,1460,884,576
4248,4288,4304,1460,884,576
4244,4284,4300,1460,884,576
4244,4280,4296,1460,884,576
4244,4280,4296,1460,884,576
4244,4280,4296,1460,884,576
4244,4280,4296,1460,884,576
4240,4276,4292,1460,884,576
4244,4280,4296,1460,884,576
4244,4280,4296,1460,884,572
4244,4280,4296,1460,884,576
4244,4280,4296,1456,884,572
4244,4280,4296,1460,884,576
4244,4280,4296,1456,884,572
4248,4280,4300,1456,884,572
4248,4284,4300,1456,884,572
4244,4284,4300,1460,884,576
4244,4284,4300,1460,884,576
4248,4288,4304,1456,884,572
4248,4288,4300,1460,884,572
4248,4292,4304,1460,884,572
4248,4296,4308,1460,884,576
4252,4296,4308,1460,884,576
4252,4300,4308,1460,884,576
4252,4300,4312,1460,884,576
4252,4304,4312,1460,884,576
4252,4304,4312,1460,884,576
4252,4304,4312,1460,884,576
4252,4308,4316,1460,884,576
4252,4312,4312,1460,884,576
4252,4312,4316,1460,884,576
4252,4316,4316,1460,884,576
4252,4316,4316,1460,884,576
4252,4316,4316,1460,884,576
4256,4312,4320,1460,884,576
4252,4304,4312,1460,884,576
4248,4300,4308,1460,884,576
4248,4292,4304,1460,884,576
4248,4288,4300,1460,884,576
4248,4284,4300,1460,884,576
4244,4280,4296,1460,884,576
4244,4276,4292,1460,884,576
4240,4272,4292,1460,884,576
4240,4272,4288,1460,884,576
4240,4268,4288,1460,884,576
4240,4272,4288,1460,884,576
4240,4268,4288,1460,884,576
4236,4268,4284,1460,884,576
4236,4268,4284,1460,884,576
4236,4268,4284,1460,884,576
4240,4268,4284,1460,884,576
4236,4264,4284,1456,884,572
4236,4268,4284,1456,884,572
4240,4268,4284,1456,884,572
4240,4268,4288,1456,884,572
4240,4272,4288,1456,884,572
4240,4272,4288,1460,884,576
4240,4276,4288,1456,884,572
4236,4276,4288,1456,884,576
4240,4276,4292,1460,884,576
4240,4276,4292,1460,884,576
4240,4284,4296,1460,884,576
4240,4284,4296,1460,884,576
4240,4284,4296,1456,884,572
4248,4292,4304,1460,884,576
4248,4296,4304,1456,884,572
4244,4296,4304,1456,884,576
4248,4296,4308,1456,884,572
4248,4300,4304,1456,884,576
4248,4300,4304,1456,884,572
4248,4300,4304,1456,884,572
4244,4292,4304,1460,884,576
4240,4288,4296,1456,884,576
4240,4284,4296,1460,884,576
4240,4280,4292,1460,884,576
4236,4276,4288,1456,884,572
4236,4276,4288,1460,884,576
4236,4272,4288,1456,884,572
4236,4268,4288,1456,884,572
4236,4268,4284,1456,884,572
4236,4268,4284,1456,884,572
4232,4264,4284,1456,884,572
4240,4272,4288,1460,884,572
4236,4268,4284,1456,884,572
4236,4268,4284,1456,884,572
4232,4268,4284,1460,884,572
4236,4268,4284,1456,884,572
4236,4268,4284,1456,884,572
4236,4272,4288,1456,884,572
4236,4272,4284,1456,884,572
4236,4268,4284,1456,884,572
4236,4272,4288,1456,884,572
4236,4272,4288,1456,884,572
4236,4272,4288,1456,884,572
4236,4276,4288,1456,884,572
4240,4284,4292,1456,884,572
4236,4284,4292,1456,884,572
4236,4284,4292,1456,884,572
4240,4288,4296,1456,884,572
4240,4292,4296,1456,884,572
4240,4292,4300,1456,884,572
4240,4296,4300,1456,884,572
4240,4296,4300,1456,884,572
4244,4300,4308,1456,884,572
4244,4300,4308,1456,884,572
4244,4304,4308,1456,884,572
4244,4300,4304,1456,884,572
4240,4296,4300,1456,884,572
4236,4288,4296,1456,884,572
4236,4280,4292,1456,884,572
4232,4276,4288,1456,884,572
4232,4272,4284,1456,884,572
4232,4272,4284,1456,884,572
4232,4268,4284,1460,884,572
4232,4268,4280,1456,884,572
4232,4264,4280,1456,884,572
4232,4264,4280,1456,884,572
4232,4264,4280,1456,884,572
4232,4268,4284,1456,884,572
4232,4268,4284,1456,884,572
4236,4268,4284,1456,884,572
4236,4268,4284,1460,884,572
4236,4268,4284,1456,884,572
4236,4272,4288,1456,884,572
4236,4272,4284,1456,884,572
4236,4272,4288,1456,884,572
4236,4272,4288,1456,884,572
4236,4276,4288,1456,884,572
4240,4280,4292,1456,884,572
4236,4280,4292,1456,884,572
4236,4284,4292,1456,884,572
4240,4284,4292,1456,884,572
4236,4284,4296,1456,884,572
4240,4288,4296,1456,884,572
4240,4292,4300,1456,884,572
4240,4292,4300,1456,884,572
4244,4300,4304,1456,884,572
4244,4300,4304,1456,884,572
4244,4300,4304,1460,884,576
4240,4304,4304,1460,884,572
4244,4308,4308,1460,884,576
4244,4308,4308,1456,884,572
4244,4308,4312,1456,884,572
4244,4312,4312,1456,884,572
4244,4308,4308,1456,884,572
4240,4300,4304,1456,884,572
4236,4296,4300,1460,884,576
4236,4288,4292,1460,884,576
4232,4280,4288,1460,884,576
4232,4276,4288,1456,884,572
4224,4268,4280,1456,884,572
4224,4268,4280,1456,884,572
4228,4268,4276,1460,884,576
4224,4264,4276,1456,884,572
4228,4264,4276,1456,884,572
4224,4260,4276,1456,884,572
4224,4264,4276,1456,884,572
4224,4260,4272,1456,884,572
4224,4260,4272,1456,884,572
4224,4264,4276,1456,884,572
4224,4260,4272,1456,884,572
4224,4264,4276,1456,884,572
4224,4264,4280,1456,884,572
4224,4264,4276,1456,884,572
4228,4268,4280,1456,884,572
4228,4272,4280,1456,884,572
4228,4272,4280,1456,884,572
4228,4276,4284,1456,884,572
4232,4276,4288,1456,884,572
4232,4280,4288,1460,884,576
4232,4284,4292,1456,884,572
4232,4284,4288,1460,884,576
4232,4284,4292,1456,884,572
4232,4288,4292,1456,884,572
4236,4292,4296,1456,884,572
4232,4292,4296,1456,884,572
4232,4296,4296,1456,884,572
4236,4296,4300,1456,884,572
4236,4300,4300,1460,884,576
4236,4304,4304,1456,884,576
4236,4304,4304,1460,884,576
4232,4300,4300,1460,884,576
4232,4296,4296,1460,884,576
4232,4292,4296,1460,884,576
4228,4288,4292,1460,884,576
4228,4284,4288,1460,884,576
4228,4284,4288,1460,884,576
4228,4280,4288,1456,884,576
4228,4280,4284,1456,884,572
4228,4276,4284,1460,884,576
4228,4276,4284,1456,884,576
4228,4280,4284,1456,884,572
4228,4276,4288,1456,884,572
4228,4276,4284,1456,884,572
4228,4280,4288,1456,884,572
4228,4280,4288,1456,884,572
4232,4284,4288,1456,884,572
4228,4280,4288,1456,884,572
4228,4284,4288,1456,884,572
4228,4280,4288,1456,884,572
4228,4280,4288,1456,884,572
4228,4284,4292,1456,884,572
4228,4284,4292,1460,884,576
4228,4288,4292,1460,884,576
4228,4288,4292,1456,884,572
4232,4296,4296,1456,884,572
4232,4296,4300,1456,884,572
4232,4300,4300,1456,884,576
4232,4300,4300,1456,884,572
4232,4304,4300,1456,884,576
4232,4304,4304,1456,884,576
4232,4308,4304,1456,884,572
4236,4312,4308,1456,884,576
4236,4312,4304,1460,884,576
4232,4312,4308,1460,884,576
4236,4316,4308,1460,884,576
4232,4312,4304,1456,884,576
4232,4312,4308,1460,884,576
4232,4308,4304,1456,884,576
4228,4304,4300,1460,884,576
4228,4300,4296,1460,884,576
4224,4296,4292,1460,884,576
4228,4292,4296,1460,884,576
4224,4292,4292,1456,884,576
4224,4288,4288,1456,884,576
4224,4288,4288,1456,884,576
4224,4284,4288,1456,884,572
4224,4284,4288,1456,884,576
4224,4284,4288,1456,884,576
4224,4284,4288,1456,884,576
4224,4284,4288,1456,884,576
4224,4288,4288,1456,884,576
4224,4288,4292,1456,884,576
4224,4288,4288,1456,884,572
4224,4288,4288,1456,884,576
4224,4288,4288,1456,884,576
4224,4288,4288,1456,884,572
4224,4292,4292,1456,884,576
4224,4292,4292,1460,884,576
4228,4296,4296,1460,884,576
4228,4296,4296,1460,884,576
4228,4300,4296,1456,884,576
4228,4304,4300,1460,884,576
4228,4304,4300,1456,884,576
4232,4308,4304,1456,884,576
4228,4308,4304,1456,884,572
4228,4312,4304,1460,884,576
4232,4316,4308,1460,884,576
4232,4316,4308,1460,884,576
4232,4320,4308,1456,884,576
4232,4320,4312,1460,884,576
4232,4324,4312,1456,884,576
4236,4328,4312,1460,884,576
4236,4328,4316,1456,884,576
4232,4324,4312,1460,884,576
4228,4320,4308,1460,884,576
4228,4316,4304,1460,884,576
4228,4312,4304,1460,884,576
4224,4304,4300,1460,884,576
4220,4300,4296,1460,884,576
4220,4296,4292,1460,884,576
4220,4292,4288,1456,884,576
4220,4292,4288,1460,884,576
4216,4288,4288,1456,884,576
4216,4288,4288,1456,884,576
4220,4288,4288,1456,884,576
4220,4288,4288,1460,884,576
4220,4288,4288,1456,884,576
4220,4288,4288,1456,884,576
4220,4288,4288,1456,884,576
4220,4288,4288,1456,884,576
4220,4288,4288,1460,884,576
4220,4288,4288,1456,884,576
4220,4288,4288,1456,884,576
4220,4288,4284,1456,884,576
4220,4288,4288,1460,884,576
4216,4288,4284,1460,884,576
4220,4292,4292,1456,884,576
4220,4292,4292,1456,884,576
4220,4296,4292,1456,884,576
4220,4296,4292,1456,884,576
4224,4300,4296,1460,888,576
4220,4300,4296,1460,888,576
4224,4304,4296,1460,884,576
4224,4308,4300,1460,884,576
4224,4308,4300,1460,884,576
4224,4308,4300,1460,884,576
4228,4312,4304,1460,884,576
4228,4316,4304,1460,888,576
4228,4320,4308,1460,888,576
4228,4316,4308,1460,888,576
4228,4316,4308,1460,888,576
4224,4316,4304,1460,888,576
4224,4312,4300,1460,888,576
4224,4308,4300,1460,888,576
4220,4300,4296,1460,888,576
4220,4300,4292,1460,888,576
4220,4296,4292,1460,888,576
4220,4296,4292,1460,888,576
4216,4292,4284,1460,888,576
4220,4292,4288,1460,884,576
4216,4284,4284,1460,888,576
4216,4284,4284,1460,888,576
4220,4288,4288,1460,888,576
4216,4288,4288,1460,888,576
4216,4284,4284,1460,884,576
4216,4284,4284,1460,884,576
4216,4288,4284,1460,884,576
4216,4284,4284,1456,884,576
4216,4288,4284,1460,884,576
4220,4288,4288,1460,884,576
4216,4288,4284,1460,884,576
4220,4292,4288,1460,884,576
4220,4292,4288,1460,888,576
4220,4292,4292,1460,884,576
4220,4296,4292,1460,888,576
4220,4300,4292,1460,888,576
4224,4300,4296,1460,884,576
4220,4300,4296,1460,884,576
4224,4304,4296,1460,884,576
4224,4308,4300,1460,884,576
4224,4308,4300,1460,888,576
4220,4308,4300,1460,888,576
4224,4308,4300,1460,888,576
4224,4312,4304,1460,888,576
4224,4316,4304,1460,888,576
4224,4312,4304,1460,888,576
4220,4312,4300,1460,888,576
4220,4308,4300,1460,888,576
4220,4304,4296,1460,888,576
4216,4300,4292,1460,888,576
4216,4292,4288,1460,888,576
4212,4288,4284,1460,884,576
4212,4284,4280,1460,884,576
4212,4284,4280,1460,884,576
4212,4280,4280,1456,884,576
4208,4276,4276,1456,884,576
4212,4280,4280,1456,884,576
4212,4276,4280,1460,884,576
4212,4276,4276,1460,884,576
4208,4276,4276,1456,884,576
4208,4276,4276,1456,884,576
4212,4276,4276,1460,884,576
4208,4276,4276,1460,884,576
4208,4276,4276,1460,884,576
4208,4276,4276,1460,884,576
4212,4276,4276,1456,884,576
4212,4280,4280,1456,884,576
4212,4280,4280,1456,884,576
4208,4276,4276,1460,884,576
4212,4280,4280,1460,884,576
4212,4280,4280,1460,884,576
4212,4284,4280,1460,884,576
4208,4284,4280,1460,884,576
4212,4284,4280,1460,884,576
4216,4292,4288,1460,884,576
4216,4292,4284,1460,884,576
4216,4296,4288,1460,884,576
4216,4296,4288,1460,884,576
4216,4296,4292,1460,888,576
4216,4296,4288,1460,884,576
4216,4300,4292,1460,888,576
4216,4300,4292,1460,888,576
4216,4300,4292,1460,888,576
4216,4300,4292,1460,884,576
4212,4292,4284,1460,888,576
4212,4288,4280,1460,888,576
4208,4280,4280,1460,888,576
4208,4276,4276,1460,884,576
4204,4268,4272,1460,884,576
4204,4268,4268,1456,884,576
4204,4264,4264,1460,884,576
4204,4264,4268,1460,884,576
4200,4256,4264,1460,884,576
4200,4256,4260,1456,884,576
4204,4256,4260,1460,884,576
4200,4256,4260,1460,884,576
4200,4252,4260,1460,884,576
4204,4256,4260,1456,884,576
4200,4252,4260,1460,884,576
4200,4252,4260,1460,884,576
4200,4252,4256,1460,884,576
4200,4252,4260,1456,884,576
4204,4252,4260,1460,884,576
4196,4248,4256,1456,884,576
4200,4252,4260,1456,884,576
4200,4256,4260,1456,884,576
4200,4256,4260,1456,884,576
4200,4256,4260,1460,884,576
4204,4256,4260,1460,884,576
4200,4256,4260,1456,884,576
4204,4264,4264,1456,884,576
4204,4264,4264,1460,884,576
4204,4264,4264,1460,884,576
4200,4264,4264,1456,884,576
4200,4264,4264,1460,884,576
4204,4268,4264,1460,884,576
4204,4268,4268,1460,884,576
4204,4268,4268,1460,884,576
4204,4272,4268,1460,884,576
4204,4272,4268,1460,884,576
4204,4272,4272,1456,884,576
4204,4268,4268,1460,884,576
4200,4260,4260,1460,884,576
4200,4256,4256,1460,884,576
4196,4248,4252,1456,884,576
4192,4240,4248,1456,884,576
4192,4236,4244,1460,884,576
4192,4236,4244,1456,884,576
4192,4228,4240,1460,884,576
4188,4228,4240,1456,884,576
4188,4224,4240,1456,884,576
4192,4228,4240,1456,884,576
4192,4228,4240,1460,884,576
4192,4224,4240,1456,884,576
4188,4224,4236,1460,884,576
4188,4224,4236,1460,884,576
4188,4224,4236,1460,884,576
4188,4224,4236,1456,884,576
4192,4224,4236,1456,884,576
4188,4224,4236,1456,884,576
4192,4224,4236,1456,884,576
4192,4228,4240,1456,884,576
4192,4228,4240,1456,884,576
4196,4232,4244,1456,884,576
4196,4232,4244,1456,884,576
4192,4232,4244,1456,884,576
4192,4236,4244,1456,884,576
4196,4240,4248,1456,884,576
4196,4240,4248,1456,884,576
4196,4244,4248,1456,884,576
4196,4244,4252,1456,884,576
4200,4248,4256,1456,884,576
4196,4248,4256,1456,884,576
4196,4248,4256,1456,884,576
4196,4252,4256,1456,884,576
4196,4248,4256,1456,884,576
4196,4248,4252,1460,884,576
4192,4244,4248,1456,884,576
4192,4236,4244,1456,884,576
4192,4232,4244,1456,884,576
4192,4228,4240,1456,884,576
4188,4224,4236,1456,884,576
4188,4220,4232,1456,884,576
4192,4220,4236,1456,884,572
4188,4216,4232,1456,884,576
4188,4216,4232,1456,884,576
4188,4212,4232,1460,884,576
4184,4212,4228,1456,884,576
4188,4216,4232,1456,884,576
4188,4216,4232,1456,884,576
4188,4212,4228,1456,884,576
4188,4216,4232,1456,884,576
4184,4212,4228,1456,884,576
4188,4216,4232,1456,884,572
4188,4216,4228,1456,884,572
4188,4216,4232,1456,884,576
4188,4216,4232,1456,884,576
4188,4220,4232,1456,884,572
4188,4220,4236,1456,884,572
4188,4220,4236,1456,884,572
4188,4224,4236,1456,884,572
4192,4228,4240,1456,884,572
4192,4232,4240,1456,884,572
4192,4232,4244,1456,884,572
4192,4232,4244,1456,884,572
4196,4236,4244,1456,884,572
4196,4240,4248,1456,884,576
4196,4240,4248,1456,884,572
4196,4244,4248,1456,884,572
4196,4244,4248,1456,884,572
4196,4240,4248,1456,884,572
4196,4240,4248,1456,884,572
4192,4236,4244,1456,884,576
4188,4228,4240,1456,884,572
4188,4224,4232,1456,884,576
4188,4216,4232,1456,884,576
4184,4212,4228,1456,884,572
4184,4208,4228,1456,884,572
4184,4208,4224,1456,884,572
4180,4200,4220,1456,884,572
4180,4200,4216,1456,884,572
4180,4200,4220,1456,880,572
4180,4196,4216,1456,880,572
4180,4196,4216,1456,880,572
4180,4196,4216,1456,880,572
4176,4196,4212,1456,880,572
4176,4196,4216,1456,880,572
4180,4196,4216,1456,884,572
4180,4196,4216,1456,884,572
4180,4200,4216,1456,880,572
4180,4200,4220,1456,884,572
4180,4200,4216,1456,884,572
4180,4200,4220,1456,884,572
4180,4204,4220,1456,884,572
4184,4208,4224,1456,884,572
4184,4208,4224,1456,884,572
4184,4208,4224,1456,884,572
4184,4212,4224,1456,884,572
4184,4212,4228,1456,884,572
4184,4212,4224,1456,884,572
4184,4212,4228,1456,884,572
4184,4216,4228,1456,884,572
4184,4216,4228,1456,884,572
4184,4220,4232,1456,884,576
4188,4224,4232,1456,884,576
4188,4224,4232,1456,884,572
4188,4228,4236,1456,884,572
4188,4228,4236,1456,884,572
4188,4228,4236,1456,884,576
4188,4224,4232,1456,884,572
4184,4220,4228,1456,884,572
4180,4212,4224,1456,884,572
4180,4204,4220,1456,884,572
4176,4196,4216,1456,884,572
4172,4192,4208,1456,884,572
4172,4188,4204,1456,884,572
4172,4184,4204,1456,884,572
4168,4180,4204,1456,884,572
4172,4184,4204,1456,884,572
4172,4180,4204,1456,884,572
4172,4184,4204,1456,884,572
4168,4180,4204,1456,884,572
4172,4180,4204,1456,884,572
4168,4180,4200,1456,884,572
4172,4180,4200,1456,884,572
4172,4180,4204,1456,884,572
4172,4180,4204,1456,884,572
4172,4180,4204,1456,884,572
4172,4184,4204,1456,884,572
4172,4184,4204,1456,884,572
4172,4184,4204,1456,884,572
4172,4188,4208,1456,884,572
4172,4188,4208,1456,884,572
4172,4188,4208,1456,884,572
4176,4192,4212,1456,884,572
4176,4196,4212,1456,884,572
4176,4200,4216,1456,880,572
4180,4200,4216,1456,884,572
4180,4204,4220,1456,884,572
4180,4204,4220,1456,884,572
4184,4212,4224,1456,884,572
4180,4212,4224,1456,884,572
4184,4216,4228,1456,884,572
4180,4216,4224,1456,884,572
4180,4212,4224,1456,884,572
4180,4212,4224,1456,884,572
4176,4208,4220,1456,884,576
4176,4204,4216,1456,884,572
4176,4200,4216,1456,884,572
4172,4192,4212,1456,884,572
4172,4192,4208,1456,884,572
4172,4188,4204,1456,884,572
4172,4184,4204,1456,884,572
4168,4180,4200,1456,884,572
4168,4180,4200,1456,884,572
4168,4180,4200,1456,884,572
4168,4180,4200,1456,880,572
4172,4180,4204,1456,880,572
4172,4180,4204,1456,884,572
4172,4184,4204,1456,884,572
4176,4188,4208,1456,880,572
4172,4188,4204,1456,880,572
4172,4188,4208,1456,880,572
4172,4188,4204,1456,880,572
4172,4188,4208,1456,884,572
4176,4192,4212,1456,884,572
4176,4192,4212,1456,880,572
4176,4196,4212,1456,880,572
4176,4196,4212,1456,880,572
4176,4200,4216,1456,884,572
4176,4200,4216,1456,880,572
4176,4204,4216,1456,880,572
4180,4208,4220,1456,880,572
4176,4208,4220,1456,884,572
4180,4212,4220,1456,884,572
4180,4212,4224,1456,884,572
4180,4216,4224,1456,884,572
4180,4216,4224,1456,884,572
4184,4224,4228,1456,884,572
4180,4220,4228,1456,884,572
4180,4224,4228,1456,884,572
4180,4224,4228,1456,884,572
4180,4224,4228,1456,884,572
4180,4220,4224,1456,884,572
4172,4208,4216,1456,884,572
4176,4204,4220,1456,884,572
4176,4200,4216,1456,884,572
4172,4196,4212,1456,884,572
4172,4192,4208,1456,884,572
4172,4192,4208,1456,884,572
4172,4188,4208,1456,884,572
4168,4188,4204,1456,884,572
4168,4184,4204,1456,884,572
4168,4184,4204,1456,884,572
4168,4184,4204,1456,884,572
4172,4188,4208,1456,884,572
4168,4184,4204,1456,884,572
4168,4188,4204,1456,884,572
4172,4188,4204,1456,884,572
4168,4188,4204,1456,884,572
4168,4188,4208,1456,884,572
4168,4188,4204,1456,884,572
4168,4192,4208,1456,884,572
4172,4192,4208,1456,884,572
4172,4196,4212,1456,884,572
4172,4196,4212,1456,884,572
4172,4200,4212,1456,884,572
4172,4200,4212,1456,884,572
4172,4204,4212,1456,884,572
4172,4204,4216,1456,884,572
4172,4204,4216,1456,884,572
4172,4208,4216,1456,884,576
4176,4212,4220,1456,884,572
4176,4212,4220,1456,884,572
4176,4216,4220,1456,884,572
4176,4216,4224,1456,884,576
4180,4220,4228,1456,884,572
4176,4220,4224,1456,884,572
4180,4224,4228,1456,884,572
4176,4224,4228,1456,884,576
4180,4228,4232,1456,884,576
4180,4224,4228,1456,884,576
4176,4224,4228,1460,884,576
4176,4216,4224,1456,884,576
4172,4212,4220,1460,884,576
4172,4208,4216,1456,884,576
4172,4204,4216,1456,884,576
4172,4200,4212,1456,884,576
4168,4196,4212,1460,884,576
4168,4196,4204,1456,884,576
4168,4196,4208,1456,884,576
4168,4192,4204,1456,884,576
4168,4192,4204,1456,884,576
4164,4188,4204,1456,884,576
4164,4192,4204,1456,884,576
4168,4192,4204,1456,884,576
4168,4192,4204,1456,884,576
4168,4196,4208,1456,884,576
4168,4192,4204,1456,884,572
4172,4196,4208,1456,884,576
4168,4196,4208,1456,884,572
4168,4200,4212,1456,884,572
4168,4200,4212,1456,884,576
4176,4204,4216,1456,884,572
4172,4204,4212,1456,884,572
4172,4204,4216,1456,884,576
4172,4208,4216,1456,884,576
4172,4212,4220,1456,884,576
4172,4212,4220,1456,884,576
4172,4216,4220,1456,884,576
4172,4216,4220,1456,884,576
4176,4220,4224,1456,884,576
4176,4224,4228,1456,884,576
4176,4224,4228,1456,884,576
4180,4228,4232,1460,884,576
4180,4232,4232,1460,884,576
4180,4236,4232,1456,884,576
4184,4240,4240,1460,884,576
4180,4240,4240,1456,884,576
4180,4236,4236,1456,884,576
4180,4236,4236,1456,884,576
4176,4228,4228,1456,884,576
4172,4220,4224,1456,884,576
4172,4220,4224,1456,884,576
4172,4216,4220,1456,884,576
4172,4216,4220,1456,884,576
4172,4212,4216,1456,884,576
4172,4208,4216,1456,884,576
4172,4208,4216,1456,884,576
4172,4208,4216,1456,884,576
4168,4208,4216,1456,884,576
4168,4208,4216,1456,884,576
4168,4208,4216,1456,884,576
4168,4208,4216,1456,884,576
4168,4208,4216,1456,884,576
4172,4212,4216,1456,884,576
4168,4208,4216,1456,884,572
4168,4208,4216,1456,884,576
4168,4212,4216,1456,884,576
4172,4216,4220,1456,884,576
4172,4216,4220,1456,884,576
4172,4220,4224,1456,884,576
4172,4220,4224,1456,884,576
4172,4224,4224,1456,884,576
4176,4228,4228,1456,884,576
4172,4228,4228,1456,884,576
4172,4228,4228,1456,884,576
4176,4232,4232,1456,884,576
4176,4236,4232,1456,884,576
4176,4240,4236,1456,884,576
4180,4244,4236,1456,884,576
4180,4244,4240,1456,884,576
4180,4248,4240,1456,884,576
4180,4248,4244,1456,884,576
4180,4252,4244,1456,884,576
4180,4252,4244,1456,884,576
4180,4252,4244,1456,884,576
4184,4252,4248,1456,884,576
4180,4252,4244,1456,884,576
4176,4244,4240,1460,888,576
4176,4240,4236,1456,888,576
4176,4236,4232,1456,884,576
4176,4232,4232,1456,884,576
4172,4228,4228,1456,884,576
4172,4228,4228,1456,884,576
4172,4224,4224,1456,884,576
4168,4220,4224,1456,884,576
4168,4220,4220,1456,884,576
4168,4220,4224,1456,884,576
4172,4220,4224,1456,884,576
4168,4220,4220,1456,884,576
4172,4224,4224,1456,884,576
4172,4220,4224,1456,884,576
4172,4224,4224,1456,884,576
4172,4224,4224,1456,884,576
4168,4220,4224,1456,884,576
4172,4220,4224,1456,884,576
4168,4224,4224,1456,884,576
4172,4224,4224,1456,884,576
4172,4224,4228,1456,884,576
4172,4228,4228,1456,884,576
4172,4228,4228,1456,884,576
4172,4232,4228,1456,884,576
4172,4232,4232,1456,884,576
4172,4236,4232,1456,888,576
4176,4236,4232,1460,888,576
4172,4240,4232,1456,884,576
4172,4236,4232,1456,884,576
4172,4240,4236,1456,888,576
4176,4244,4236,1456,888,576
4176,4244,4240,1456,888,576
4176,4248,4240,1456,888,576
4176,4252,4240,1456,888,576
4180,4252,4244,1456,888,576
4180,4256,4244,1460,888,576
4176,4256,4244,1460,888,576
4180,4256,4248,1460,888,576
4176,4256,4244,1460,888,576
4176,4252,4244,1460,888,576
4176,4248,4240,1460,888,576
4172,4244,4236,1460,888,576
4172,4244,4236,1456,888,576
4168,4236,4232,1456,888,576
4168,4232,4228,1460,888,576
4168,4232,4228,1460,888,576
4168,4232,4228,1460,888,576
4168,4228,4224,1460,888,576
4168,4228,4224,1456,888,576
4164,4224,4224,1460,888,576
4164,4224,4224,1456,888,576
4164,4224,4220,1456,888,576
4168,4224,4224,1456,888,576
4168,4228,4228,1456,888,576
4168,4228,4224,1456,888,576
4168,4228,4224,1460,888,576
4168,4232,4228,1456,888,576
4168,4228,4228,1456,888,576
4168,4232,4228,1456,888,576
4168,4232,4228,1456,888,576
4168,4236,4232,1456,888,576
4172,4236,4232,1456,888,576
4172,4240,4236,1456,888,576
4172,4244,4236,1456,888,576
4176,4244,4236,1456,888,576
4176,4248,4240,1456,888,576
4176,4252,4240,1456,884,576
4176,4252,4244,1456,888,576
4176,4252,4244,1456,888,576
4176,4256,4248,1456,888,576
4176,4260,4248,1456,888,576
4176,4260,4248,1456,888,576
4176,4260,4248,1456,888,576
4180,4264,4252,1456,888,576
4180,4268,4252,1456,888,576
4180,4268,4252,1456,888,576
4180,4268,4252,1456,888,576
4176,4264,4252,1456,888,576
4176,4256,4244,1456,888,576
4176,4252,4244,1456,888,576
4172,4252,4240,1460,888,576
4172,4248,4240,1456,888,576
4172,4244,4240,1456,888,576
4172,4244,4236,1460,888,576
4172,4244,4236,1460,888,576
4172,4240,4236,1456,888,576
4168,4240,4232,1456,888,576
4168,4236,4232,1456,888,576
4168,4236,4232,1456,888,576
4168,4236,4232,1456,888,576
4172,4240,4232,1456,888,576
4172,4240,4232,1456,888,576
4172,4240,4236,1456,888,576
4168,4236,4232,1456,888,576
4168,4240,4232,1456,888,576
4168,4240,4236,1456,888,576
4168,4240,4236,1456,888,576
4168,4244,4236,1456,888,576
4172,4248,4240,1456,888,576
4172,4248,4240,1456,888,576
4172,4252,4240,1456,888,576
4172,4252,4244,1456,888,576
4172,4252,4240,1456,888,576
4172,4256,4244,1456,888,576
4172,4260,4244,1456,888,576
4176,4260,4248,1456,888,576
4176,4264,4248,1456,888,576
4176,4268,4252,1456,888,576
4176,4268,4252,1456,888,576
4176,4272,4252,1460,888,576
4180,4272,4256,1456,888,576
4180,4276,4260,1456,888,576
4180,4276,4256,1456,888,576
4180,4280,4260,1456,888,576
4180,4280,4260,1456,888,576
4176,4272,4256,1456,888,576
4176,4268,4252,1456,888,576
4172,4264,4248,1456,888,576
4172,4256,4244,1456,888,576
4168,4252,4240,1460,888,576
4168,4248,4240,1456,888,576
4168,4244,4236,1456,888,576
4164,4240,4232,1456,888,576
4168,4240,4236,1456,888,576
4168,4244,4236,1456,888,576
4168,4240,4236,1456,888,576
4168,4240,4232,1456,888,576
4168,4240,4232,1456,888,576
4168,4240,4232,1456,888,576
4168,4240,4232,1456,888,576
4168,4236,4232,1456,888,576
4164,4236,4232,1456,888,576
4168,4236,4232,1456,888,576
4168,4236,4232,1456,884,576
4168,4240,4236,1456,888,576
4168,4236,4232,1456,888,576
4164,4240,4232,1456,888,576
4168,4240,4236,1456,888,576
4168,4244,4236,1456,888,576
4168,4244,4236,1456,888,576
4168,4248,4236,1456,888,576
4168,4248,4240,1456,888,576
4168,4248,4240,1456,888,576
4168,4252,4240,1456,888,576
4168,4252,4240,1456,888,576
4172,4256,4244,1456,888,576
4172,4256,4244,1456,888,576
4172,4260,4248,1456,888,576
4172,4260,4248,1456,888,576
4172,4260,4248,1456,888,576
4176,4264,4252,1456,888,576
4176,4268,4248,1456,888,576
4176,4268,4252,1460,888,576
4172,4264,4248,1456,888,576
4172,4260,4248,1460,888,576
4168,4252,4240,1456,888,576
4168,4252,4240,1456,888,576
4168,4248,4236,1456,888,576
4168,4244,4236,1456,888,576
4164,4240,4232,1456,888,576
4168,4240,4232,1456,888,576
4164,4236,4228,1456,888,576
4164,4232,4228,1456,888,576
4160,4232,4224,1456,888,576
4164,4232,4224,1456,888,576
4164,4232,4228,1456,888,576
4160,4228,4224,1456,888,576
4164,4232,4228,1456,888,576
4164,4232,4224,1456,888,576
4164,4232,4228,1456,888,576
4164,4232,4224,1456,888,576
4164,4232,4228,1456,888,576
4164,4236,4228,1456,888,576
4160,4232,4228,1456,884,576
4164,4236,4232,1456,888,576
4168,4240,4232,1456,888,576
4168,4240,4232,1456,884,576
4164,4240,4232,1456,884,576
4168,4244,4236,1456,884,576
4168,4248,4236,1456,884,576
4168,4248,4240,1456,884,576
4172,4252,4240,1456,884,576
4172,4256,4244,1456,884,576
4172,4256,4240,1456,888,576
4172,4256,4244,1456,884,576
4172,4260,4248,1456,888,576
4172,4260,4248,1456,884,576
4172,4260,4248,1456,888,576
4172,4260,4248,1456,888,576
4172,4256,4244,1456,888,576
4168,4252,4240,1456,888,576
4168,4244,4236,1456,888,576
4164,4240,4232,1456,888,576
4164,4236,4228,1456,888,576
4164,4232,4228,1456,884,576
4160,4228,4224,1456,884,576
4160,4224,4220,1456,884,576
4160,4224,4224,1456,884,576
4160,4220,4220,1456,884,576
4160,4224,4220,1456,884,576
4160,4220,4220,1456,884,576
4160,4224,4220,1456,884,576
4160,4220,4220,1456,884,576
4160,4224,4224,1456,884,576
4160,4220,4220,1456,884,576
4160,4224,4224,1456,884,576
4160,4224,4224,1456,884,576
4160,4224,4224,1456,884,576
4160,4228,4224,1456,884,576
4160,4224,4224,1456,884,576
4164,4232,4228,1456,884,576
4164,4232,4228,1456,884,576
4164,4236,4232,1456,884,576
4164,4236,4232,1456,884,576
4168,4240,4236,1456,884,576
4168,4244,4236,1456,884,576
4168,4244,4240,1456,884,576
4168,4244,4240,1456,884,576
4168,4248,4236,1456,884,576
4168,4248,4240,1456,884,576
4172,4252,4240,1456,884,576
4168,4252,4240,1456,884,576
4168,4252,4240,1456,884,576
4168,4256,4244,1456,884,576
4168,4252,4240,1456,884,576
4168,4252,4240,1456,884,576
4164,4244,4232,1456,884,576
4160,4236,4228,1456,884,576
4160,4232,4228,1456,884,576
4160,4228,4224,1456,884,576
4156,4220,4220,1456,884,576
4156,4216,4212,1456,884,576
4156,4212,4216,1456,884,576
4156,4208,4212,1456,884,576
4152,4204,4208,1456,884,576
4152,4204,4208,1456,884,576
4156,4204,4208,1456,884,576
4152,4204,4208,1456,884,576
4152,4204,4208,1456,884,576
4156,4204,4208,1456,884,576
4152,4204,4208,1456,884,576
4152,4200,4204,1456,884,576
4156,4204,4208,1456,884,576
4156,4204,4208,1456,884,576
4156,4204,4208,1456,884,576
4156,4208,4208,1456,884,576
4156,4208,4212,1456,884,576
4156,4208,4212,1456,884,576
4156,4212,4212,1456,884,576
4160,4216,4216,1456,884,576
4160,4216,4216,1456,884,576
4160,4216,4220,1456,884,576
4164,4224,4224,1456,884,576
4164,4224,4224,1456,884,576
4164,4224,4224,1456,884,576
4164,4228,4228,1456,884,576
4164,4228,4224,1456,884,576
4164,4228,4224,1456,884,576
4164,4232,4228,1456,884,576
4168,4236,4232,1456,884,576
4168,4240,4232,1456,884,576
4168,4236,4232,1456,884,576
4168,4232,4232,1456,884,576
4164,4228,4224,1456,884,576
4164,4224,4224,1456,884,576
4160,4216,4220,1456,884,576
4160,4212,4216,1456,884,576
4156,4208,4212,1456,884,576
4152,4200,4208,1456,884,576
4152,4200,4204,1456,884,576
4152,4196,4204,1456,884,576
4156,4200,4204,1456,884,576
4152,4196,4204,1456,884,576
4156,4200,4208,1456,884,576
4156,4200,4208,1456,884,576
4156,4200,4208,1456,884,576
4156,4204,4208,1456,884,576
4156,4204,4208,1456,884,576
4156,4200,4208,1456,884,576
4156,4204,4208,1456,884,576
4160,4208,4212,1456,884,576
4160,4208,4212,1456,884,576
4160,4208,4212,1456,884,576
4160,4208,4212,1456,884,576
4160,4212,4216,1456,884,576
4160,4212,4216,1456,884,576
4160,4216,4216,1456,884,576
4164,4220,4220,1456,884,576
4164,4224,4224,1456,884,576
4164,4224,4224,1456,884,576
4164,4228,4224,1456,884,576
4168,4232,4228,1456,884,576
4164,4228,4228,1456,884,576
4164,4232,4228,1456,884,576
4168,4236,4232,1456,884,576
4168,4236,4232,1456,884,576
4168,4236,4232,1456,884,576
4168,4232,4228,1456,884,576
4164,4228,4224,1456,884,576
4164,4220,4224,1456,884,576
4164,4216,4220,1456,884,576
4160,4212,4216,1456,884,576
4156,4204,4212,1456,884,576
4156,4204,4208,1456,884,576
4156,4200,4204,1456,884,576
4156,4196,4204,1456,884,572
4156,4196,4208,1456,884,572
4160,4200,4208,1456,884,572
4156,4196,4208,1456,884,576
4156,4200,4208,1456,884,572
4156,4196,4204,1456,884,576
4156,4200,4208,1456,884,572
4156,4200,4204,1456,884,572
4156,4200,4208,1456,884,572
4160,4200,4208,1456,884,576
4160,4204,4212,1456,884,576
4160,4204,4212,1456,884,576
4160,4208,4216,1456,884,576
4160,4208,4212,1456,884,576
4160,4208,4212,1456,884,576
4164,4212,4216,1456,884,576
4164,4216,4220,1456,884,576
4164,4220,4220,1456,884,576
4164,4220,4220,1456,884,576
4164,4220,4224,1456,884,576
4168,4224,4224,1460,884,576
4168,4228,4228,1456,884,576
4172,4236,4232,1456,884,576
4172,4236,4232,1456,884,576
4172,4236,4232,1456,884,576
4172,4240,4236,1456,884,576
4172,4240,4236,1460,884,576
4172,4240,4236,1460,884,576
4172,4240,4236,1460,884,576
4168,4232,4232,1460,884,576
4164,4224,4224,1456,884,576
4164,4220,4220,1456,884,576
4164,4216,4220,1456,884,576
4160,4212,4216,1456,884,576
4160,4208,4216,1456,884,576
4156,4204,4212,1456,884,576
4160,4200,4208,1456,884,576
4156,4200,4208,1456,884,576
4156,4196,4204,1456,884,576
4156,4196,4204,1456,884,576
4160,4196,4204,1456,884,576
4156,4192,4204,1456,884,576
4156,4196,4204,1456,884,576
4160,4196,4208,1456,884,576
4156,4192,4204,1456,884,576
4156,4196,4204,1456,884,576
4156,4196,4204,1456,884,576
4156,4196,4204,1456,884,572
4160,4200,4208,1456,884,572
4160,4200,4208,1456,884,572
4160,4204,4208,1456,884,572
4160,4204,4212,1456,884,572
4160,4204,4208,1456,884,576
4160,4204,4212,1456,884,572
4160,4208,4212,1456,884,576
4164,4212,4216,1456,884,576
4164,4212,4216,1456,884,576
4164,4216,4220,1456,884,576
4164,4220,4220,1456,884,576
4168,4224,4224,1456,884,576
4164,4220,4220,1456,884,576
4168,4224,4224,1460,884,576
4168,4228,4224,1460,884,576
4168,4228,4228,1460,884,576
4168,4228,4224,1460,884,576
4168,4232,4228,1460,884,576
4168,4228,4228,1456,884,576
4164,4224,4220,1456,884,576
4164,4220,4220,1456,884,576
4164,4216,4216,1456,884,576
4160,4212,4216,1456,884,576
4160,4208,4212,1456,884,576
4160,4204,4208,1456,884,576
4160,4204,4208,1456,884,576
4156,4200,4204,1456,884,576
4156,4196,4204,1456,884,576
4156,4196,4204,1456,884,572
4156,4196,4204,1456,884,576
4156,4196,4204,1456,884,572
4160,4200,4208,1456,884,576
4160,4200,4208,1456,884,576
4160,4200,4208,1456,884,572
4160,4200,4208,1456,884,572
4160,4204,4208,1456,884,572
4160,4204,4212,1456,884,572
4164,4208,4212,1456,884,572
4160,4208,4212,1456,884,572
4164,4212,4216,1456,884,572
4164,4212,4216,1456,884,572
4164,4216,4220,1456,884,572
4168,4220,4220,1456,884,576
4168,4224,4224,1456,884,572
4168,4224,4224,1456,884,572
4168,4228,4228,1456,884,572
4168,4232,4228,1456,884,576
4172,4236,4232,1456,884,572
4172,4236,4232,1456,884,572
4172,4240,4236,1456,884,572
4172,4240,4236,1456,884,576
4172,4244,4236,1456,884,576
4172,4244,4236,1456,884,576
4172,4244,4240,1460,884,576
4172,4240,4236,1456,884,576
4168,4240,4232,1460,884,576
4168,4232,4232,1456,884,576
4164,4228,4224,1460,884,576
4164,4224,4224,1456,884,576
4160,4216,4216,1456,884,576
4160,4216,4216,1456,884,576
4160,4212,4212,1456,884,572
4160,4212,4212,1456,884,572
4160,4212,4212,1456,884,576
4164,4212,4216,1456,884,572
4160,4212,4216,1456,884,572
4164,4212,4216,1456,884,572
4160,4212,4216,1456,884,572
4160,4212,4216,1456,884,576
4160,4216,4216,1456,884,572
4164,4216,4216,1460,884,576
4164,4216,4216,1456,884,572
4164,4220,4220,1456,884,572
4164,4220,4220,1460,884,576
4164,4224,4224,1460,884,576
4164,4224,4224,1456,884,576
4164,4224,4224,1456,884,576
4164,4228,4224,1456,884,576
4168,4232,4228,1460,884,576
4168,4236,4232,1456,884,576
4168,4236,4232,1456,884,576
4172,4244,4236,1456,884,572
4172,4244,4236,1456,884,572
4172,4248,4240,1456,884,576
4172,4248,4240,1456,884,576
4172,4252,4240,1456,884,576
4172,4252,4244,1456,884,576
4172,4252,4240,1456,884,576
4172,4256,4244,1456,884,576
4176,4260,4248,1460,884,576
4172,4260,4244,1456,884,576
4172,4260,4248,1460,884,576
4172,4260,4244,1460,884,576
4168,4252,4240,1460,884,576
4168,4248,4236,1460,884,576
4168,4244,4236,1460,884,576
4164,4240,4232,1460,884,576
4164,4236,4228,1456,884,576
4164,4232,4228,1456,884,576
4164,4228,4224,1456,884,576
4164,4232,4224,1456,884,576
4164,4228,4224,1460,884,576
4160,4228,4220,1456,884,572
4164,4224,4224,1460,884,576
4160,4228,4224,1460,884,576
4160,4224,4220,1456,884,576
4164,4228,4224,1460,884,576
4164,4228,4228,1460,884,576
4160,4228,4220,1460,884,576
4164,4228,4224,1460,884,576
4164,4228,4224,1460,884,576
4164,4232,4224,1460,884,576
4164,4232,4224,1456,884,576
4160,4232,4228,1460,884,576
4160,4232,4228,1460,884,576
4164,4236,4228,1460,884,576
4164,4240,4228,1460,884,576
4164,4240,4232,1460,884,576
4164,4244,4236,1460,884,576
4168,4248,4240,1460,884,576
4168,4248,4240,1460,884,576
4172,4256,4244,1460,884,576
4168,4252,4240,1460,884,576
4168,4256,4240,1460,884,576
4168,4256,4244,1460,884,576
4176,4264,4248,1460,884,576
4176,4264,4248,1460,884,576
4176,4268,4248,1460,884,576
4172,4268,4248,1460,888,576
4176,4272,4252,1460,888,576
4172,4272,4252,1460,888,576
4172,4268,4248,1460,888,576
4172,4264,4248,1460,888,576
4172,4264,4244,1460,888,576
4168,4256,4240,1460,888,576
4168,4252,4240,1460,888,576
4164,4252,4236,1460,888,576
4164,4248,4236,1460,888,576
4164,4248,4236,1460,888,576
4164,4244,4232,1460,884,576
4164,4244,4232,1460,888,576
4164,4248,4236,1460,884,576
4164,4248,4236,1460,884,576
4168,4252,4236,1460,884,576
4168,4252,4236,1460,884,576
4168,4252,4236,1460,884,576
4168,4252,4240,1460,884,576
4164,4252,4236,1460,884,576
4168,4256,4240,1460,884,576
4168,4256,4240,1460,888,576
4168,4256,4240,1460,888,576
4172,4260,4244,1460,884,576
4168,4260,4244,1460,884,576
4172,4264,4248,1460,888,576
4168,4264,4244,1460,888,576
4172,4268,4252,1460,888,576
4172,4268,4248,1460,888,576
4172,4272,4252,1460,888,576
4172,4276,4256,1460,888,576
4176,4280,4256,1460,884,576
4176,4280,4256,1460,888,576
4176,4284,4260,1460,888,576
4176,4288,4260,1460,888,576
4176,4288,4264,1460,888,576
4176,4292,4264,1460,888,576
4176,4292,4264,1460,888,576
4180,4296,4264,1460,888,576
4176,4292,4264,1460,888,576
4176,4292,4264,1460,888,576
4176,4288,4260,1460,888,576
4176,4284,4260,1460,888,576
4172,4280,4256,1460,888,576
4172,4276,4252,1460,888,576
4172,4276,4252,1460,888,576
4168,4272,4252,1460,888,576
4168,4268,4248,1460,888,576
4168,4268,4248,1460,888,576
4172,4268,4248,1460,888,576
4168,4268,4244,1460,888,576
4168,4268,4244,1460,888,576
4168,4268,4248,1460,888,576
4168,4268,4248,1460,888,576
4168,4268,4248,1460,888,576
4168,4268,4248,1460,888,576
4172,4272,4252,1460,888,576
4168,4272,4252,1460,888,576
4172,4272,4252,1460,888,576
4168,4272,4252,1460,888,576
4172,4276,4256,1460,888,576
4172,4280,4256,1460,888,576
4176,4284,4260,1460,884,576
4172,4284,4260,1460,888,576
4176,4284,4260,1460,888,576
4176,4288,4260,1460,888,576
4176,4292,4264,1460,888,576
4176,4292,4264,1460,888,576
4176,4292,4264,1460,888,576
4176,4296,4264,1460,888,576
4176,4296,4268,1460,888,576
4176,4296,4264,1460,888,576
4176,4300,4268,1460,888,576
4176,4300,4268,1460,888,576
4176,4304,4272,1460,888,576
4176,4304,4272,1460,888,576
4180,4304,4272,1460,888,576
4180,4308,4272,1460,888,576
4176,4304,4272,1460,888,576
4176,4300,4268,1460,888,576
4172,4296,4264,1460,888,576
4168,4288,4260,1460,888,576
4168,4288,4260,1460,888,576
4168,4280,4256,1460,888,576
4168,4280,4252,1460,888,576
4164,4276,4248,1460,888,576
4168,4276,4248,1460,888,576
4164,4272,4248,1460,888,576
4164,4272,4248,1460,888,576
4164,4272,4248,1460,888,576
4164,4268,4244,1460,888,576
4164,4268,4244,1460,888,576
4164,4268,4248,1460,888,576
4164,4268,4248,1460,888,576
4164,4268,4244,1460,888,576
4160,4264,4244,1460,888,576
4160,4264,4244,1460,888,576
4164,4268,4244,1460,888,576
4160,4264,4244,1460,888,576
4164,4268,4244,1460,888,576
4160,4268,4244,1460,888,576
4160,4268,4244,1460,888,576
4164,4272,4244,1460,888,576
4164,4272,4248,1460,888,576
4164,4272,4248,1460,888,576
4164,4276,4248,1460,888,576
4164,4276,4248,1460,888,576
4164,4276,4248,1460,888,576
4164,4280,4252,1460,888,576
4168,4284,4252,1460,888,576
4164,4284,4256,1460,888,576
4164,4284,4252,1460,888,576
4168,4288,4256,1460,888,576
4168,4292,4260,1460,888,576
4168,4292,4260,1460,888,576
4172,4292,4260,1460,888,576
4168,4292,4260,1460,888,576
4168,4288,4256,1460,888,576
4168,4284,4256,1460,888,576
4164,4280,4252,1460,888,576
4164,4280,4252,1460,888,576
4164,4276,4252,1460,888,576
4164,4272,4248,1460,888,576
4160,4268,4244,1460,888,576
4160,4268,4244,1460,888,576
4160,4268,4244,1460,888,576
4160,4268,4244,1460,888,576
4160,4268,4244,1460,888,576
4164,4272,4244,1460,888,576
4160,4268,4244,1460,888,576
4160,4268,4244,1460,888,576
4160,4268,4244,1460,888,576
4160,4268,4244,1460,888,576
4160,4268,4248,1460,888,576
4160,4268,4244,1460,888,576
4160,4268,4244,1460,888,576
4160,4268,4244,1460,888,576
4160,4268,4244,1460,888,576
4160,4272,4244,1460,888,576
4164,4276,4248,1460,888,576
4164,4276,4252,1460,888,576
4164,4276,4248,1460,888,576
4164,4280,4252,1460,888,576
4164,4284,4252,1460,888,576
4168,4288,4256,1460,888,576
4164,4288,4256,1460,888,576
4168,4288,4260,1460,888,576
4168,4292,4260,1460,888,576
4168,4296,4260,1460,888,576
4168,4296,4260,1460,888,576
4168,4296,4264,1460,888,576
4172,4300,4268,1460,888,576
4172,4300,4268,1460,888,576
4168,4296,4264,1460,888,576
4168,4292,4260,1460,888,576
4164,4284,4256,1460,888,576
4164,4280,4252,1460,888,576
4164,4276,4252,1460,888,576
4160,4272,4248,1460,888,576
4160,4268,4244,1460,888,576
4160,4268,4240,1460,888,576
4156,4260,4240,1460,888,576
4160,4264,4240,1460,888,576
4160,4264,4240,1460,888,576
4160,4264,4240,1460,888,576
4156,4260,4240,1460,888,576
4164,4264,4244,1460,888,576
4160,4260,4240,1460,888,576
4156,4260,4236,1460,888,576
4160,4260,4240,1460,888,576
4160,4260,4240,1460,888,576
4164,4264,4244,1460,888,576
4160,4264,4240,1460,888,576
4164,4264,4244,1460,888,576
4160,4260,4240,1460,888,576
4160,4264,4244,1460,888,576
4160,4264,4244,1460,888,576
4164,4268,4248,1460,888,576
4160,4268,4244,1460,888,576
4164,4272,4244,1460,888,576
4164,4272,4248,1460,888,576
4164,4272,4248,1460,888,576
4164,4276,4252,1460,888,576
4164,4280,4252,1460,888,576
4164,4280,4252,1460,888,576
4168,4284,4256,1460,888,576
4168,4284,4256,1460,888,576
4172,4288,4260,1460,888,576
4172,4292,4264,1460,888,576
4172,4292,4260,1460,888,576
4172,4292,4260,1460,888,576
4168,4288,4256,1460,888,576
4164,4280,4252,1460,888,576
4164,4272,4248,1460,888,576
4160,4268,4244,1460,888,576
4156,4260,4236,1460,888,576
4156,4256,4236,1460,888,576
4156,4252,4232,1460,888,576
4156,4248,4232,1460,888,576
4156,4248,4228,1460,888,576
4152,4244,4228,1460,888,576
4152,4240,4224,1460,888,576
4152,4240,4224,1460,888,576
4152,4236,4220,1460,888,576
4152,4240,4224,1460,888,576
4152,4236,4224,1460,888,576
4152,4236,4220,1460,888,576
4152,4236,4224,1460,888,576
4152,4236,4220,1460,888,576
4152,4236,4220,1460,888,576
4152,4232,4220,1460,888,576
4152,4232,4220,1460,888,576
4152,4236,4224,1460,888,576
4152,4236,4224,1460,888,576
4152,4236,4220,1460,888,576
4156,4240,4228,1460,888,576
4152,4240,4224,1460,888,576
4156,4244,4232,1460,888,576
4160,4248,4232,1460,888,576
4160,4248,4232,1460,888,576
4160,4252,4232,1460,888,576
4156,4248,4232,1460,888,576
4160,4252,4232,1460,888,576
4160,4256,4236,1460,888,576
4160,4256,4236,1460,888,576
4160,4256,4236,1460,888,576
4160,4256,4236,1460,888,576
4160,4260,4236,1460,888,576
4160,4260,4236,1460,888,576
4160,4256,4236,1460,888,576
4156,4252,4232,1460,888,576
4152,4244,4228,1460,888,576
4156,4240,4228,1460,888,576
4152,4236,4220,1460,888,576
4152,4232,4220,1460,888,576
4152,4228,4216,1460,888,576
4152,4228,4216,1460,888,576
4152,4224,4216,1460,888,576
4152,4224,4216,1460,888,576
4152,4228,4216,1460,888,576
4152,4228,4216,1460,888,576
4152,4224,4216,1460,888,576
4156,4228,4220,1460,888,576
4152,4224,4216,1460,888,576
4148,4224,4216,1460,888,576
4152,4224,4212,1460,888,576
4152,4224,4216,1460,888,576
4152,4228,4216,1460,888,576
4152,4228,4216,1460,888,576
4152,4224,4216,1460,888,576
4152,4228,4216,1460,888,576
4152,4228,4220,1460,888,576
4156,4232,4224,1460,888,576
4156,4236,4220,1460,888,576
4156,4236,4224,1460,888,576
4160,4240,4228,1460,888,576
4160,4244,4228,1460,888,576
4160,4244,4228,1460,888,576
4156,4244,4228,1460,888,576
4160,4244,4232,1460,888,576
4160,4248,4232,1460,888,576
4160,4248,4232,1460,888,576
4160,4252,4236,1460,888,576
4160,4252,4236,1460,888,576
4160,4252,4236,1460,888,576
4160,4252,4232,1460,888,576
4160,4248,4228,1460,888,576
4156,4240,4224,1460,888,576
4152,4232,4220,1460,888,576
4156,4228,4220,1460,888,576
4152,4224,4216,1460,888,576
4152,4220,4212,1460,888,576
4152,4216,4208,1460,888,576
4148,4212,4204,1460,888,576
4144,4208,4200,1460,888,576
4148,4208,4204,1460,888,576
4152,4208,4208,1460,888,576
4152,4208,4204,1460,888,576
4152,4208,4208,1460,888,576
4148,4208,4204,1460,888,576
4152,4208,4204,1460,888,576
4152,4208,4204,1460,888,576
4152,4208,4204,1460,888,576
4152,4208,4204,1460,888,576
4148,4208,4204,1460,888,576
4148,4208,4204,1460,888,576
4152,4208,4208,1460,888,576
4156,4216,4208,1460,888,576
4152,4216,4208,1456,888,576
4156,4216,4212,1456,888,576
4156,4220,4212,1460,888,576
4156,4220,4212,1460,888,576
4156,4224,4216,1460,888,576
4156,4224,4216,1460,888,576
4156,4224,4216,1460,888,576
4156,4228,4216,1460,888,576
4156,4228,4220,1460,888,576
4160,4232,4220,1460,888,576
4156,4232,4220,1460,888,576
4156,4232,4220,1460,888,576
4156,4232,4220,1460,888,576
4160,4236,4224,1460,888,576
4160,4236,4224,1460,888,576
4160,4236,4224,1460,888,576
4156,4232,4220,1460,888,576
4156,4228,4216,1460,888,576
4152,4216,4212,1460,888,576
4148,4212,4204,1460,888,576
4148,4208,4204,1460,888,576
4148,4200,4200,1460,888,576
4148,4196,4196,1460,888,576
4144,4192,4192,1460,888,576
4144,4192,4192,1460,888,576
4148,4192,4192,1460,888,576
4148,4188,4192,1460,888,576
4144,4188,4188,1460,888,576
4144,4184,4188,1460,888,576
4148,4188,4192,1460,888,576
4148,4188,4192,1460,888,576
4148,4188,4192,1460,888,576
4148,4188,4192,1460,888,576
4144,4184,4188,1460,888,576
4148,4188,4192,1460,888,576
4148,4188,4192,1460,888,576
4148,4188,4192,1460,888,576
4148,4188,4192,1460,888,576
4148,4192,4196,1460,888,576
4148,4192,4192,1460,888,576
4152,4196,4196,1460,888,576
4152,4196,4196,1460,888,576
4152,4200,4200,1460,888,576
4156,4204,4204,1460,888,576
4152,4204,4200,1460,888,576
4156,4208,4204,1460,888,576
4156,4208,4204,1460,888,576
4156,4208,4204,1460,888,576
4156,4212,4208,1460,888,576
4156,4212,4208,1460,888,576
4156,4212,4208,1460,888,576
4156,4216,4208,1460,888,576
4160,4220,4212,1460,888,576
4156,4216,4212,1460,888,576
4152,4208,4208,1460,888,576
4152,4204,4200,1460,888,576
4152,4200,4200,1460,888,576
4148,4192,4192,1460,888,576
4148,4188,4192,1460,888,576
4148,4188,4188,1460,888,576
4144,4184,4188,1460,888,576
4148,4184,4188,1460,888,576
4148,4184,4188,1460,888,576
4144,4180,4184,1460,888,576
4144,4180,4184,1456,888,576
4144,4180,4184,1460,888,576
4148,4180,4188,1460,888,576
4148,4180,4184,1460,888,576
4144,4180,4184,1460,888,576
4148,4180,4184,1460,888,576
4148,4180,4184,1460,888,576
4144,4180,4184,1460,888,576
4152,4184,4188,1456,888,576
4148,4184,4188,1460,888,576
4148,4188,4188,1456,888,576
4152,4188,4192,1460,888,576
4152,4192,4196,1456,888,576
4152,4192,4196,1456,888,576
4152,4192,4196,1460,888,576
4156,4200,4200,1460,888,576
4156,4200,4200,1460,888,576
4156,4200,4204,1460,888,576
4156,4200,4200,1460,888,576
4160,4208,4204,1460,888,576
4160,4208,4204,1460,888,576
4156,4208,4208,1460,888,576
4156,4212,4208,1460,888,576
4156,4212,4208,1460,888,576
4156,4212,4208,1460,888,576
4156,4212,4208,1460,888,576
4152,4208,4204,1460,888,576
4152,4200,4196,1460,888,576
4152,4196,4196,1460,888,576
4148,4188,4192,1460,888,576
4148,4184,4188,1460,888,576
4148,4180,4184,1460,888,576
4148,4176,4184,1460,888,576
4144,4172,4180,1460,888,576
4148,4172,4180,1460,888,576
4144,4168,4176,1460,888,576
4148,4168,4180,1460,888,576
4144,4164,4176,1460,888,576
4148,4172,4180,1460,888,576
4144,4168,4176,1460,888,576
4144,4164,4176,1460,884,576
4144,4164,4176,1456,884,576
4144,4168,4176,1456,884,576
4144,4168,4180,1456,884,576
4148,4168,4180,1456,884,576
4148,4168,4180,1456,884,576
4144,4168,4180,1460,888,576
4148,4172,4180,1456,884,576
4148,4172,4180,1456,884,576
4148,4176,4184,1456,884,576
4148,4180,4184,1460,888,576
4148,4180,4184,1456,884,576
4152,4180,4188,1460,888,576
4152,4184,4188,1460,888,576
4152,4184,4192,1460,888,576
4156,4188,4192,1460,888,576
4156,4192,4196,1460,888,576
4156,4192,4196,1460,888,576
4156,4192,4196,1456,888,576
4152,4192,4192,1460,888,576
4152,4192,4196,1456,888,576
4152,4196,4196,1460,888,576
4156,4200,4200,1460,888,576
4156,4200,4200,1460,888,576
4156,4200,4200,1460,888,576
4156,4192,4192,1460,888,576
4152,4188,4188,1460,888,576
4148,4180,4184,1460,888,576
4148,4176,4180,1460,888,576
4144,4168,4176,1460,888,576
4144,4164,4172,1460,888,576
4140,4160,4172,1460,888,576
4140,4156,4168,1460,888,576
4140,4152,4164,1456,888,576
4140,4152,4168,1456,884,576
4140,4148,4164,1460,888,576
4140,4148,4164,1456,884,576
4140,4148,4164,1456,884,576
4140,4148,4164,1456,884,576
4140,4148,4164,1456,884,576
4140,4148,4164,1456,884,576
4144,4148,4164,1456,884,576
4140,4148,4164,1456,884,576
4144,4152,4164,1456,884,576
4144,4152,4164,1456,884,576
4144,4152,4168,1456,884,576
4144,4152,4168,1456,884,576
4144,4156,4172,1456,884,576
4144,4156,4172,1456,884,576
4144,4160,4172,1460,888,576
4144,4160,4172,1460,888,576
4148,4164,4176,1456,884,576
4148,4168,4176,1456,884,576
4148,4168,4180,1456,884,576
4148,4168,4180,1456,884,576
4152,4176,4180,1456,888,576
4148,4176,4180,1456,884,576
4152,4176,4184,1456,888,576
4152,4180,4184,1460,888,576
4152,4180,4188,1460,888,576
4152,4184,4188,1460,888,576
4152,4184,4188,1460,888,576
4152,4180,4184,1460,888,576
4148,4172,4180,1460,888,576
4148,4168,4176,1460,888,576
4144,4160,4172,1460,888,576
4148,4160,4172,1460,888,576
4144,4152,4168,1460,888,576
4144,4148,4164,1460,888,576
4140,4148,4164,1456,884,576
4144,4148,4164,1456,884,576
4140,4144,4160,1460,884,576
4140,4144,4160,1456,884,576
4140,4144,4160,1456,884,576
4140,4144,4160,1456,884,576
4140,4140,4160,1456,884,576
4140,4144,4160,1460,884,576
4140,4140,4160,1456,884,576
4140,4144,4160,1460,884,576
4140,4144,4160,1456,884,576
4144,4148,4164,1456,884,576
4144,4148,4164,1460,888,576
4140,4148,4164,1456,884,576
4144,4148,4164,1460,888,576
4148,4152,4168,1460,884,576
4148,4156,4168,1456,884,576
4148,4156,4172,1456,884,576
4144,4156,4172,1460,884,576
4148,4160,4172,1456,884,576
4148,4164,4172,1460,884,576
4152,4168,4180,1456,884,576
4152,4168,4180,1456,884,576
4152,4172,4180,1456,884,576
4152,4172,4180,1460,888,576
4152,4176,4184,1460,888,576
4152,4176,4184,1456,884,576
4156,4180,4188,1460,888,576
4152,4180,4184,1456,884,576
4152,4180,4184,1456,884,576
4152,4176,4184,1456,884,576
4148,4168,4176,1456,884,576
4148,4160,4172,1456,888,576
4144,4156,4168,1456,884,576
4144,4152,4164,1456,884,576
4140,4144,4160,1456,884,576
4140,4140,4156,1460,888,576
4140,4140,4156,1460,884,576
4140,4136,4156,1456,884,576
4136,4128,4152,1456,884,576
4140,4128,4152,1456,884,576
4140,4128,4152,1456,884,576
4136,4128,4148,1456,884,576
4140,4128,4152,1456,884,576
4140,4128,4152,1456,884,576
4140,4128,4152,1456,884,576
4140,4128,4152,1456,884,576
4140,4128,4152,1456,884,576
4140,4128,4152,1456,884,576
4140,4132,4152,1456,884,576
4140,4132,4152,1456,884,576
4140,4136,4156,1456,884,576
4144,4140,4160,1456,884,576
4144,4140,4160,1456,884,576
4144,4140,4156,1456,884,576
4144,4144,4160,1456,884,576
4144,4144,4160,1456,884,576
4144,4148,4164,1456,884,576
4144,4148,4164,1456,884,576
4148,4152,4168,1456,884,576
4144,4152,4164,1456,884,576
4148,4156,4168,1456,884,576
4148,4156,4168,1456,884,576
4148,4160,4172,1456,884,576
4148,4160,4172,1460,884,576
4148,4164,4176,1456,884,576
4148,4164,4176,1456,884,576
4152,4168,4176,1460,888,576
4148,4164,4176,1456,884,576
4148,4164,4176,1460,888,576
4148,4160,4172,1460,888,576
4140,4148,4164,1460,888,576
4140,4140,4156,1456,884,576
4140,4140,4156,1456,884,576
4140,4136,4152,1456,884,576
4140,4128,4152,1456,884,576
4140,4128,4148,1456,884,576
4140,4124,4148,1456,884,576
4140,4124,4144,1456,884,576
4136,4124,4144,1456,884,576
4136,4124,4140,1456,884,576
4136,4124,4140,1456,884,576
4136,4124,4144,1456,884,576
4136,4124,4140,1456,884,576
4136,4124,4144,1456,884,576
4140,4124,4144,1456,884,576
4140,4124,4144,1456,884,576
4140,4124,4148,1456,884,576
4140,4124,4148,1456,884,576
4140,4124,4148,1456,884,576
4140,4124,4148,1456,884,576
4144,4128,4152,1460,884,576
4140,4132,4152,1456,884,576
4140,4132,4152,1456,884,576
4144,4136,4156,1456,884,576
4144,4136,4156,1456,884,576
4148,4140,4160,1456,884,576
4144,4144,4160,1456,884,576
4148,4148,4164,1456,884,576
4148,4148,4164,1456,884,576
4148,4152,4168,1456,884,576
4152,4156,4168,1456,884,576
4148,4156,4168,1456,884,576
4152,4160,4172,1460,888,576
4152,4164,4176,1456,884,576
4152,4164,4172,1456,884,576
4152,4160,4172,1456,884,576
4148,4156,4168,1460,884,576
4148,4148,4164,1460,888,576
4144,4140,4160,1460,884,576
4144,4136,4156,1456,884,576
4140,4132,4152,1456,884,576
4140,4128,4152,1456,884,576
4140,4128,4148,1456,884,576
4140,4124,4148,1456,884,576
4140,4124,4148,1456,884,576
4140,4124,4148,1456,884,576
4140,4124,4148,1456,884,576
4140,4124,4148,1456,884,576
4140,4124,4148,1456,884,576
4140,4124,4148,1456,884,576
4144,4128,4148,1456,884,576
4140,4124,4148,1456,884,576
4140,4124,4144,1456,884,576
4140,4128,4148,1456,884,576
4144,4128,4152,1456,884,576
4140,4128,4148,1456,884,576
4140,4132,4152,1456,884,576
4144,4136,4156,1456,884,576
4144,4136,4156,1456,884,576
4144,4140,4160,1456,884,576
4148,4144,4160,1456,884,576
4148,4144,4164,1456,884,576
4148,4148,4164,1456,884,576
4148,4152,4168,1456,884,576
4152,4156,4168,1456,884,576
4148,4156,4168,1456,884,576
4148,4156,4168,1460,888,576
4148,4160,4172,1460,884,576
4152,4164,4176,1456,884,576
4152,4164,4176,1460,888,576
4152,4164,4176,1456,884,576
4152,4168,4176,1456,884,576
4152,4168,4176,1456,884,576
4148,4164,4172,1460,888,576
4148,4160,4172,1456,884,576
4144,4152,4164,1456,884,576
4144,4144,4160,1456,884,576
4140,4136,4156,1456,884,576
4144,4136,4156,1456,884,576
4140,4132,4152,1456,884,576
4140,4128,4152,1460,884,576
4140,4128,4152,1460,884,576
4136,4124,4144,1460,884,576
4140,4124,4148,1460,884,576
4140,4124,4144,1460,884,576
4140,4124,4148,1460,884,576
4136,4124,4148,1456,884,576
4136,4124,4144,1456,884,576
4136,4124,4148,1456,884,576
4136,4124,4144,1456,884,576
4136,4124,4144,1460,884,576
4140,4124,4148,1460,884,576
4136,4124,4148,1460,884,576
4140,4128,4148,1460,884,576
4140,4132,4152,1460,884,576
4144,4136,4156,1460,884,576
4144,4140,4156,1460,884,576
4144,4136,4156,1460,884,576
4144,4140,4160,1456,884,576
4144,4144,4160,1460,884,576
4144,4144,4160,1456,884,576
4144,4148,4164,1456,884,576
4148,4152,4164,1460,884,576
4148,4152,4168,1460,884,576
4148,4152,4168,1460,884,576
4144,4152,4164,1460,888,576
4148,4156,4168,1460,888,576
4148,4160,4172,1460,888,576
4148,4164,4172,1460,888,576
4148,4164,4172,1460,888,576
4148,4164,4168,1460,888,576
4144,4160,4172,1460,888,576
4144,4160,4168,1460,888,576
4144,4156,4164,1460,888,576
4140,4148,4160,1460,888,576
4136,4140,4156,1460,884,576
4136,4136,4152,1460,884,576
4136,4132,4148,1460,888,576
4132,4124,4148,1460,888,576
4132,4124,4144,1460,888,576
4132,4124,4144,1460,888,576
4136,4124,4144,1460,888,576
4132,4124,4144,1456,884,576
4132,4124,4144,1456,884,576
4132,4124,4144,1456,884,576
4132,4124,4140,1460,884,576
4132,4124,4144,1456,884,576
4128,4124,4140,1456,884,576
4132,4124,4144,1456,884,576
4136,4124,4148,1456,884,576
4132,4124,4144,1460,884,576
4132,4124,4148,1460,884,576
4136,4128,4148,1456,884,576
4136,4136,4152,1456,884,576
4140,4136,4152,1456,884,576
4140,4140,4156,1456,884,576
4136,4140,4156,1456,884,576
4140,4144,4156,1456,884,576
4140,4148,4160,1456,884,576
4140,4148,4160,1456,884,576
4140,4152,4164,1456,884,576
4144,4152,4164,1456,884,576
4140,4156,4164,1456,884,576
4144,4160,4168,1456,884,576
4144,4160,4168,1456,884,576
4144,4164,4172,1460,884,576
4144,4164,4172,1456,884,576
4144,4168,4172,1460,888,576
4144,4164,4172,1460,884,576
4140,4160,4168,1460,888,576
4140,4156,4164,1460,888,576
4136,4148,4160,1456,884,576
4136,4144,4156,1456,884,576
4136,4140,4156,1456,884,576
4136,4136,4152,1456,884,576
4132,4132,4152,1456,884,576
4132,4132,4148,1456,884,576
4132,4132,4148,1460,884,576
4132,4132,4148,1456,884,576
4132,4128,4148,1456,884,576
4136,4132,4152,1456,884,576
4136,4132,4152,1456,884,576
4136,4136,4152,1456,884,576
4136,4132,4152,1456,884,576
4132,4132,4148,1456,884,576
4136,4140,4156,1456,884,576
4140,4140,4156,1456,884,576
4136,4140,4156,1456,884,576
4136,4140,4156,1456,884,576
4136,4140,4156,1456,884,576
4136,4144,4156,1456,884,576
4136,4148,4160,1456,884,576
4136,4148,4160,1456,884,576
4140,4152,4164,1456,884,576
4140,4152,4164,1456,884,576
4140,4156,4164,1460,884,576
4140,4156,4164,1456,884,576
4140,4156,4164,1456,884,576
4140,4164,4168,1456,884,576
4140,4160,4168,1456,884,576
4144,4168,4172,1456,884,576
4140,4168,4172,1456,884,576
4144,4172,4176,1456,884,576
4144,4176,4176,1460,888,576
4144,4180,4180,1460,888,576
4144,4180,4180,1456,884,576
4140,4176,4176,1460,888,576
4140,4172,4172,1460,888,576
4140,4168,4172,1456,884,576
4136,4164,4168,1460,888,576
4136,4156,4164,1460,888,576
4132,4148,4156,1460,884,576
4132,4148,4160,1456,884,576
4132,4144,4152,1460,884,576
4128,4140,4152,1460,888,576
4128,4140,4152,1456,884,576
4132,4140,4152,1460,884,576
4128,4136,4148,1460,884,576
4128,4136,4148,1456,884,576
4128,4136,4148,1460,884,576
4128,4136,4148,1460,884,576
4128,4136,4152,1456,884,576
4128,4136,4152,1460,884,576
4128,4140,4152,1456,884,576
4128,4140,4152,1456,884,576
4128,4140,4152,1456,884,576
4128,4144,4152,1456,884,576
4132,4144,4156,1456,884,576
4132,4148,4160,1456,884,576
4132,4148,4160,1460,884,576
4136,4152,4160,1460,884,576
4132,4152,4160,1456,884,576
4136,4156,4164,1456,884,576
4136,4160,4168,1456,884,576
4136,4164,4168,1456,884,576
4136,4164,4168,1456,884,576
4140,4168,4172,1456,884,576
4140,4168,4172,1456,884,576
4136,4168,4172,1456,884,576
4140,4172,4172,1460,884,576
4140,4172,4172,1460,888,576
4140,4176,4176,1456,884,576
4140,4176,4176,1460,888,576
4136,4172,4176,1460,884,576
4136,4172,4172,1460,888,576
4136,4168,4168,1460,888,576
4132,4160,4164,1460,884,576
4132,4160,4160,1460,888,576
4128,4152,4160,1456,884,576
4132,4148,4156,1460,884,576
4132,4148,4156,1456,884,576
4132,4148,4156,1456,884,576
4132,4144,4156,1456,884,576
4128,4144,4152,1456,884,576
4128,4144,4152,1456,884,576
4128,4144,4156,1456,884,576
4128,4144,4156,1456,884,576
4128,4148,4156,1456,884,576
4128,4144,4156,1456,884,576
4132,4148,4160,1456,884,576
4132,4148,4160,1460,888,576
4132,4148,4156,1456,884,576
4132,4148,4160,1456,884,576
4132,4152,4160,1460,884,576
4132,4152,4160,1460,884,576
4128,4152,4156,1460,884,576
4128,4152,4156,1456,884,576
4132,4156,4164,1456,884,576
4132,4160,4164,1456,884,576
4132,4160,4164,1456,884,576
4136,4168,4172,1456,884,576
4136,4168,4172,1456,884,576
4136,4172,4176,1456,884,576
4136,4176,4176,1456,884,576
4136,4176,4176,1456,884,576
4136,4180,4176,1456,884,576
4140,4184,4180,1456,884,576
4140,4184,4180,1456,884,576
4136,4184,4180,1456,884,576
4136,4180,4180,1456,884,576
4136,4176,4176,1460,884,576
4132,4168,4172,1456,884,576
4132,4168,4168,1456,884,576
4128,4164,4168,1456,884,576
4132,4160,4164,1456,884,576
4128,4156,4164,1456,884,576
4128,4152,4160,1456,884,576
4128,4152,4160,1456,884,576
4128,4152,4160,1456,884,576
4128,4152,4160,1456,884,576
4128,4152,4160,1456,884,576
4132,4156,4164,1456,884,576
4132,4156,4164,1456,884,576
4128,4156,4164,1456,884,576
4132,4156,4164,1456,884,576
4132,4160,4164,1456,884,576
4132,4156,4164,1456,884,576
4128,4156,4164,1456,884,576
4132,4160,4164,1456,884,576
4132,4164,4168,1456,884,576
4136,4168,4172,1456,884,576
4132,4168,4168,1456,884,576
4132,4168,4172,1456,884,576
4136,4172,4176,1456,884,576
4132,4172,4172,1456,884,576
4132,4176,4176,1456,884,576
4136,4180,4180,1456,884,576
4136,4180,4180,1456,884,576
4136,4184,4180,1456,884,576
4136,4184,4184,1456,884,576
4140,4192,4188,1456,884,576
4140,4192,4188,1456,884,576
4140,4192,4188,1456,884,576
4140,4196,4188,1460,884,576
4144,4200,4192,1460,884,576
4144,4200,4192,1460,884,576
4140,4196,4192,1460,884,576
4140,4192,4184,1460,884,576
4140,4184,4184,1460,884,576
4132,4176,4176,1456,884,576
4132,4172,4176,1456,884,576
4128,4164,4168,1460,884,576
4128,4164,4164,1456,884,576
4124,4156,4160,1456,884,576
4124,4156,4164,1456,884,576
4124,4156,4160,1456,884,576
4124,4156,4160,1456,884,576
4124,4152,4160,1460,884,576
4124,4152,4160,1460,884,576
4124,4152,4160,1456,884,576
4124,4156,4164,1456,884,576
4128,4156,4160,1456,884,576
4124,4156,4164,1456,884,576
4128,4160,4164,1456,884,576
4124,4160,4164,1456,884,576
4128,4160,4164,1456,884,576
4128,4164,4168,1456,884,576
4132,4164,4168,1456,884,576
4128,4164,4168,1456,884,576
4128,4168,4172,1456,884,576
4132,4168,4172,1456,884,576
4132,4172,4172,1456,884,576
4132,4176,4172,1460,884,576
4132,4176,4176,1460,884,576
4132,4176,4176,1460,884,576
4136,4180,4180,1456,884,576
4140,4188,4188,1456,884,576
4136,4188,4184,1456,884,576
4136,4188,4184,1456,884,576
4140,4192,4188,1456,884,576
4140,4192,4188,1456,884,576
4140,4196,4192,1456,884,576
4140,4196,4188,1456,884,576
4140,4196,4188,1460,884,576
4136,4192,4188,1456,884,576
4136,4188,4184,1456,884,576
4132,4184,4180,1456,884,576
4132,4176,4176,1460,884,576
4132,4176,4176,1460,884,576
4128,4168,4172,1460,884,576
4128,4168,4168,1456,884,576
4124,4164,4168,1456,884,576
4128,4164,4168,1456,884,576
4128,4164,4168,1456,884,576
4128,4164,4164,1456,884,576
4128,4164,4168,1456,884,576
4128,4168,4168,1456,884,576
4128,4168,4172,1456,884,576
4132,4172,4172,1456,884,576
4132,4172,4172,1456,884,576
4132,4172,4176,1456,884,576
4128,4172,4172,1456,884,576
4132,4172,4176,1456,884,576
4128,4172,4172,1456,884,576
4128,4172,4172,1456,884,576
4132,4172,4172,1456,884,576
4132,4176,4176,1456,884,576
4132,4180,4176,1456,884,576
4136,4184,4180,1456,884,576
4132,4184,4180,1456,884,576
4136,4184,4180,1456,884,576
4136,4188,4184,1460,884,576
4136,4192,4184,1456,884,576
4136,4192,4188,1456,884,576
4136,4192,4188,1456,884,576
4136,4196,4188,1456,884,576
4136,4200,4192,1456,884,576
4136,4200,4192,1456,884,576
4136,4204,4192,1460,884,576
4136,4200,4192,1456,884,576
4136,4196,4188,1460,884,576
4136,4192,4188,1456,884,576
4132,4184,4180,1456,884,576
4128,4180,4176,1456,884,576
4128,4180,4176,1456,884,576
4128,4176,4172,1456,884,576
4128,4172,4172,1456,884,576
4128,4172,4172,1456,884,576
4128,4168,4168,1456,884,576
4128,4172,4172,1456,884,576
4128,4168,4168,1456,884,576
4128,4168,4168,1456,884,576
4128,4168,4168,1456,884,576
4128,4168,4168,1456,884,576
4128,4172,4172,1456,884,576
4128,4168,4172,1456,884,576
4128,4168,4172,1456,884,576
4132,4176,4176,1456,884,576
4132,4176,4176,1456,884,576
4132,4176,4176,1456,884,576
4132,4180,4180,1456,884,576
4132,4180,4180,1456,884,576
4132,4184,4184,1456,884,576
4132,4188,4184,1456,884,576
4132,4188,4184,1456,884,576
4132,4188,4184,1456,884,576
4132,4192,4184,1456,884,576
4136,4192,4188,1456,884,576
4136,4200,4192,1456,884,576
4136,4200,4192,1456,884,576
4136,4200,4192,1456,884,576
4136,4204,4192,1456,884,576
4136,4204,4196,1456,884,576
4136,4204,4196,1456,884,576
4136,4208,4196,1456,884,576
4140,4208,4196,1456,884,576
4136,4204,4192,1456,884,576
4136,4200,4192,1456,884,576
4128,4192,4184,1456,884,576
4128,4188,4184,1456,884,576
4128,4180,4176,1456,884,576
4128,4180,4176,1456,884,576
4124,4172,4172,1456,884,576
4124,4168,4172,1456,884,576
4128,4172,4172,1456,884,576
4128,4172,4172,1456,884,576
4124,4168,4168,1456,884,576
4124,4168,4168,1456,884,576
4124,4168,4168,1456,884,576
4128,4168,4172,1456,884,576
4128,4168,4172,1456,884,576
4124,4168,4172,1456,884,576
4124,4164,4168,1456,884,576
4124,4168,4168,1456,884,576
4128,4168,4172,1456,884,576
4128,4172,4172,1456,884,576
4124,4168,4172,1456,884,576
4128,4176,4176,1456,884,576
4128,4172,4172,1456,884,576
4124,4172,4172,1456,884,576
4128,4176,4176,1456,884,576
4128,4180,4176,1456,884,576
4128,4180,4180,1456,884,576
4132,4184,4184,1456,884,576
4132,4188,4184,1456,884,576
4132,4188,4184,1456,884,576
4132,4188,4184,1460,884,576
4128,4188,4180,1456,884,576
4128,4188,4184,1456,884,576
4132,4192,4188,1456,884,576
4128,4192,4184,1460,884,576
4132,4196,4188,1456,884,576
4132,4200,4192,1460,884,576
4132,4200,4192,1456,884,576
4132,4200,4192,1456,884,576
4132,4196,4188,1456,884,576
4128,4188,4180,1456,884,576
4124,4184,4176,1456,884,576
4124,4176,4176,1456,884,576
4124,4176,4172,1456,884,576
4124,4172,4172,1456,884,576
4124,4172,4172,1456,884,576
4124,4172,4172,1456,884,576
4124,4172,4172,1456,884,576
4124,4168,4168,1456,884,576
4124,4168,4168,1456,884,576
4124,4172,4172,1456,884,576
4124,4172,4172,1456,884,576
4124,4172,4172,1456,884,576
4124,4172,4172,1456,884,576
4124,4172,4172,1456,884,576
4124,4172,4172,1456,884,576
4124,4172,4172,1456,884,576
4124,4176,4176,1456,884,576
4124,4176,4176,1456,884,576
4124,4180,4176,1456,884,576
4128,4180,4180,1456,884,576
4128,4184,4180,1456,884,576
4132,4188,4184,1456,884,576
4132,4192,4188,1456,884,576
4136,4196,4192,1456,884,576
4136,4196,4192,1456,884,576
4132,4196,4188,1456,884,576
4132,4196,4188,1460,884,576
4132,4200,4192,1456,884,576
4132,4200,4192,1456,884,576
4136,4204,4196,1456,884,576
4136,4204,4196,1456,884,576
4136,4208,4196,1456,884,576
4132,4204,4192,1456,884,576
4132,4208,4196,1456,884,576
4132,4200,4192,1456,884,576
4132,4196,4188,1456,884,576
4128,4192,4184,1456,884,576
4124,4184,4180,1456,884,576
4124,4180,4176,1456,884,576
4124,4180,4176,1456,884,576
4124,4176,4176,1456,884,576
4124,4172,4172,1456,884,576
4124,4172,4172,1456,884,576
4124,4172,4172,1456,884,576
4124,4168,4172,1456,884,576
4124,4168,4172,1456,884,576
4124,4168,4168,1456,884,576
4124,4172,4172,1456,884,576
4124,4172,4172,1456,884,576
4124,4172,4172,1456,884,576
4124,4172,4172,1456,884,576
4124,4172,4172,1456,884,576
4124,4172,4172,1456,884,576
4124,4172,4172,1456,884,576
4124,4176,4172,1456,884,576
4124,4176,4176,1456,884,576
4124,4180,4180,1456,884,576
4124,4184,4180,1456,884,576
4124,4184,4180,1456,884,576
4128,4188,4184,1460,884,576
4128,4192,4184,1456,884,576
4128,4192,4188,1456,884,576
4128,4196,4188,1460,884,576
4132,4196,4192,1456,884,576
4128,4200,4192,1460,884,576
4132,4200,4192,1460,884,576
4132,4204,4192,1460,884,576
4132,4204,4196,1460,884,576
4132,4208,4196,1460,884,576
4132,4212,4196,1460,884,576
4136,4212,4204,1460,884,576
4132,4212,4200,1460,884,576
4132,4208,4196,1460,884,576
4132,4204,4192,1460,884,576
4128,4200,4192,1460,884,576
4128,4196,4184,1460,884,576
4124,4188,4180,1460,884,576
4124,4180,4176,1460,884,576
4124,4180,4176,1460,884,576
4120,4176,4172,1460,884,576
4120,4172,4172,1460,884,576
4124,4172,4172,1460,884,576
4120,4172,4172,1460,884,576
4120,4168,4172,1460,884,576
4120,4168,4172,1456,884,576
4120,4168,4168,1456,884,576
4120,4168,4168,1456,884,576
4120,4168,4168,1460,884,576
4120,4168,4168,1460,884,576
4116,4168,4168,1456,884,576
4120,4168,4168,1456,884,576
4120,4172,4172,1456,884,576
4120,4172,4168,1456,884,576
4120,4172,4172,1456,884,576
4120,4172,4172,1456,884,576
4120,4176,4172,1456,884,576
4120,4176,4172,1460,884,576
4124,4180,4176,1460,884,576
4124,4184,4180,1460,884,576
4124,4188,4184,1460,884,576
4124,4188,4184,1460,884,576
4128,4192,4188,1456,884,576
4124,4192,4184,1460,884,576
4124,4196,4188,1456,884,576
4124,4196,4188,1460,884,576
4128,4196,4188,1460,884,576
4128,4200,4192,1460,884,576
4132,4204,4192,1460,884,576
4132,4204,4196,1460,884,576
4128,4204,4192,1460,884,576
4128,4204,4192,1460,888,576
4124,4204,4192,1460,888,576
4124,4200,4188,1460,884,576
4124,4192,4184,1460,888,576
4124,4188,4180,1460,884,576
4120,4184,4180,1460,888,576
4120,4180,4176,1460,884,576
4120,4180,4176,1460,888,576
4120,4176,4172,1460,884,576
4124,4176,4176,1460,884,576
4120,4176,4172,1460,884,576
4120,4172,4172,1460,884,576
4124,4176,4176,1460,884,576
4120,4176,4172,1456,884,576
4124,4176,4176,1456,884,576
4124,4176,4176,1460,884,576
4124,4180,4176,1460,884,576
4124,4180,4176,1460,884,576
4124,4180,4176,1460,884,576
4124,4184,4180,1460,884,576
4124,4184,4180,1456,884,576
4124,4188,4184,1456,884,576
4124,4184,4180,1456,884,576
4128,4192,4184,1460,888,576
4124,4188,4184,1456,884,576
4128,4192,4188,1460,884,576
4128,4196,4188,1456,884,576
4128,4196,4188,1456,884,576
4128,4200,4192,1456,884,576
4128,4200,4192,1460,884,576
4128,4204,4192,1460,884,576
4128,4204,4196,1460,884,576
4128,4204,4192,1456,884,576
4128,4208,4196,1456,884,576
4132,4212,4200,1456,884,576
4128,4212,4196,1460,884,576
4132,4216,4200,1456,884,576
4132,4212,4196,1456,884,576
4132,4212,4200,1456,884,576
4128,4208,4196,1456,884,576
4124,4200,4192,1460,884,576
4128,4196,4188,1460,884,576
4124,4188,4184,1456,884,576
4124,4184,4180,1456,884,576
4120,4180,4176,1456,884,576
4120,4180,4176,1456,884,576
4120,4172,4172,1456,884,576
4120,4172,4172,1456,884,576
4116,4172,4172,1456,884,576
4116,4172,4168,1456,884,576
4120,4172,4172,1456,884,576
4116,4172,4172,1456,884,576
4116,4172,4172,1456,884,576
4120,4172,4172,1456,884,576
4120,4172,4172,1456,884,576
4116,4172,4168,1456,884,576
4120,4176,4172,1456,884,576
4120,4176,4176,1456,884,576
4120,4176,4176,1456,884,576
4120,4180,4176,1456,884,576
4124,4184,4180,1456,884,576
4124,4184,4180,1456,884,576
4124,4188,4180,1456,884,576
4124,4188,4184,1456,884,576
4124,4192,4184,1456,884,576
4128,4196,4188,1456,884,576
4128,4196,4192,1456,884,576
4128,4200,4192,1456,884,576
4128,4200,4192,1456,884,576
4128,4200,4192,1456,884,576
4128,4204,4192,1456,884,576
4128,4204,4196,1456,884,576
4128,4208,4196,1460,884,576
4128,4208,4196,1456,884,576
4128,4208,4196,1456,884,576
4128,4208,4196,1460,884,576
4128,4208,4196,1460,888,576
4124,4200,4192,1460,888,576
4124,4192,4184,1460,884,576
4120,4184,4180,1456,884,576
4116,4176,4172,1456,884,576
4116,4176,4172,1460,884,576
4120,4172,4172,1456,884,576
4116,4168,4168,1456,884,576
4112,4164,4164,1456,884,576
4112,4160,4164,1456,884,576
4116,4160,4164,1456,884,576
4112,4156,4160,1456,884,576
4116,4160,4160,1456,884,576
4112,4156,4160,1456,884,576
4116,4160,4160,1456,884,576
4112,4156,4160,1456,884,576
4112,4156,4160,1456,884,576
4112,4156,4160,1460,884,576
4112,4156,4160,1460,884,576
4112,4156,4160,1456,884,576
4112,4156,4160,1460,884,576
4112,4160,4160,1460,884,576
4116,4160,4164,1456,884,576
4116,4160,4164,1456,884,576
4120,4168,4168,1460,884,576
4120,4168,4172,1460,884,576
4120,4172,4172,1460,884,576
4120,4172,4172,1460,884,576
4120,4176,4176,1456,884,576
4120,4172,4172,1456,884,576
4120,4176,4176,1460,884,576
4120,4176,4172,1460,888,576
4120,4180,4176,1460,884,576
4124,4180,4180,1460,884,576
4120,4180,4176,1460,884,576
4124,4184,4180,1460,888,576
4124,4188,4180,1460,888,576
4124,4188,4180,1460,888,576
4120,4184,4180,1460,888,576
4120,4180,4176,1460,888,576
4120,4176,4172,1460,884,576
4116,4168,4168,1460,888,576
4116,4164,4164,1460,884,576
4108,4152,4156,1460,884,576
4112,4152,4160,1460,884,576
4112,4152,4156,1456,884,576
4112,4152,4156,1456,884,576
4112,4152,4156,1460,884,576
4112,4152,4156,1456,884,576
4112,4148,4156,1460,884,576
4112,4148,4156,1456,884,576
4112,4148,4156,1456,884,576
4112,4148,4156,1456,884,576
4112,4148,4156,1456,884,576
4112,4148,4156,1456,884,576
4112,4148,4156,1456,884,576
4116,4152,4160,1460,884,576
4116,4152,4160,1456,884,576
4116,4152,4160,1456,884,576
4116,4152,4160,1456,884,576
4116,4156,4164,1456,884,576
4116,4160,4164,1456,884,576
4116,4160,4164,1456,884,576
4116,4160,4164,1456,884,576
4116,4160,4164,1456,884,576
4120,4168,4168,1460,884,576
4120,4168,4168,1456,884,576
4120,4172,4172,1456,884,576
4124,4172,4176,1456,884,576
4124,4176,4176,1456,884,576
4124,4176,4176,1456,884,576
4124,4180,4180,1456,884,576
4124,4184,4180,1456,884,576
4124,4180,4180,1460,884,576
4124,4180,4176,1460,884,576
4120,4176,4176,1460,884,576
4120,4168,4172,1460,888,576
4116,4164,4164,1456,884,576
4116,4156,4160,1456,884,576
4112,4148,4156,1456,884,576
4112,4144,4152,1456,884,576
4112,4140,4152,1456,884,576
4108,4136,4148,1456,884,576
4108,4132,4144,1456,884,576
4108,4128,4144,1456,884,576
4108,4128,4144,1456,884,576
4108,4128,4144,1456,884,576
4108,4132,4144,1456,884,576
4108,4128,4144,1456,884,576
4108,4128,4144,1456,884,576
4108,4128,4144,1456,884,576
4108,4128,4140,1456,884,576
4108,4128,4144,1456,884,572
4112,4136,4148,1456,884,576
4112,4136,4148,1456,884,576
4112,4136,4152,1456,884,576
4112,4140,4152,1456,884,576
4116,4140,4152,1456,884,576
4116,4144,4156,1456,884,576
4116,4144,4156,1456,884,576
4116,4148,4156,1456,884,576
4116,4148,4156,1456,884,576
4116,4152,4160,1456,884,576
4116,4156,4160,1456,884,576
4120,4156,4164,1456,884,576
4120,4160,4164,1456,884,576
4120,4160,4164,1456,884,576
4120,4164,4168,1456,884,576
4124,4168,4168,1456,884,576
4124,4172,4172,1456,884,576
4124,4176,4176,1456,884,576
4124,4172,4172,1456,884,576
4124,4172,4172,1456,884,576
4120,4168,4168,1456,884,576
4116,4156,4164,1460,884,576
4112,4148,4156,1456,884,576
4112,4144,4152,1456,884,576
4112,4140,4152,1456,884,576
4108,4132,4144,1456,884,576
4108,4124,4140,1456,884,576
4108,4124,4140,1456,884,576
4108,4124,4132,1456,884,576
4104,4124,4132,1456,884,576
4104,4124,4128,1456,884,576
4108,4124,4136,1456,884,576
4108,4124,4132,1456,884,576
4108,4124,4136,1456,884,576
4108,4124,4132,1456,884,576
4108,4124,4132,1456,884,576
4108,4124,4128,1456,884,576
4108,4124,4132,1456,884,576
4108,4124,4132,1456,884,576
4108,4124,4136,1456,884,576
4112,4124,4136,1456,884,576
4112,4124,4140,1456,884,576
4112,4124,4136,1456,884,576
4112,4124,4140,1456,884,576
4112,4128,4144,1456,884,576
4112,4128,4144,1456,884,576
4116,4132,4148,1456,884,576
4116,4136,4148,1456,884,576
4116,4136,4148,1456,884,576
4116,4136,4148,1456,884,576
4116,4140,4152,1456,884,576
4120,4144,4156,1456,884,576
4120,4148,4160,1456,884,576
4120,4148,4160,1456,884,576
4120,4152,4160,1456,884,576
4120,4152,4160,1456,884,576
4120,4156,4164,1456,884,576
4120,4152,4164,1456,884,576
4120,4152,4160,1460,884,576
4116,4148,4156,1460,884,576
4116,4140,4152,1456,884,576
4112,4132,4148,1460,884,576
4116,4128,4144,1456,884,576
4112,4124,4140,1456,884,576
4108,4124,4136,1460,884,576
4108,4124,4132,1456,884,576
4112,4124,4136,1456,884,576
4108,4124,4132,1456,884,576
4108,4120,4128,1456,884,576
4108,4120,4128,1456,884,576
4108,4120,4128,1456,884,576
4108,4116,4124,1456,884,576
4108,4120,4124,1456,884,576
4108,4120,4128,1456,884,576
4108,4120,4128,1456,884,576
4108,4124,4128,1456,884,576
4108,4124,4132,1456,884,576
4108,4124,4132,1456,884,576
4112,4124,4132,1456,884,576
4112,4124,4136,1456,884,576
4112,4124,4140,1456,884,576
4116,4124,4144,1456,884,576
4112,4124,4144,1456,884,576
4112,4124,4144,1456,884,576
4116,4132,4148,1456,884,576
4116,4136,4148,1456,884,576
4120,4140,4152,1456,884,576
4120,4140,4152,1456,884,576
4120,4144,4156,1456,884,576
4120,4144,4156,1456,884,576
4120,4148,4156,1456,884,576
4120,4148,4160,1456,884,576
4124,4152,4160,1456,884,576
4124,4152,4164,1456,884,576
4120,4152,4160,1456,884,576
4116,4144,4156,1456,884,576
4116,4136,4152,1456,884,576
4112,4128,4144,1456,884,576
4112,4124,4140,1456,884,576
4112,4124,4136,1456,884,576
4108,4120,4124,1460,884,576
4108,4116,4124,1456,884,576
4108,4112,4124,1456,884,576
4108,4108,4124,1456,884,572
4112,4112,4124,1456,884,572
4108,4108,4124,1456,884,576
4112,4108,4124,1456,884,572
4108,4108,4124,1456,884,572
4108,4108,4124,1456,884,572
4108,4108,4124,1456,884,572
4108,4108,4124,1456,884,572
4108,4108,4124,1456,884,572
4108,4108,4124,1456,884,576
4108,4108,4124,1456,880,572
4112,4116,4124,1456,880,572
4112,4116,4128,1456,884,572
4112,4116,4128,1456,884,572
4112,4124,4136,1456,884,572
4112,4124,4136,1456,884,572
4116,4124,4140,1456,884,576
4116,4124,4140,1456,884,572
4116,4124,4144,1456,884,572
4112,4124,4140,1456,884,576
4116,4124,4144,1456,884,572
4116,4128,4148,1456,884,572
4116,4128,4144,1456,884,572
4116,4132,4148,1456,884,576
4116,4132,4148,1456,884,576
4116,4136,4152,1456,884,576
4120,4140,4152,1456,884,576
4120,4144,4156,1456,884,576
4120,4144,4156,1456,884,576
4120,4144,4156,1456,884,576
4116,4136,4152,1456,884,576
4116,4128,4148,1456,884,576
4112,4124,4136,1456,884,576
4112,4124,4132,1456,884,576
4108,4112,4124,1456,884,576
4108,4108,4124,1456,884,576
4108,4104,4124,1456,884,572
4104,4100,4124,1456,884,576
4108,4100,4124,1456,884,572
4104,4096,4124,1456,884,572
4104,4096,4124,1456,884,572
4104,4096,4124,1456,880,572
4104,4096,4124,1456,880,572
4104,4096,4124,1456,880,572
4104,4096,4124,1456,880,572
4104,4096,4124,1456,884,572
4108,4096,4124,1456,880,572
4104,4096,4124,1456,884,572
4108,4096,4124,1456,880,572
4108,4100,4124,1456,880,572
4108,4100,4124,1456,884,576
4108,4104,4124,1456,880,572
4108,4104,4124,1456,880,572
4108,4108,4124,1456,884,572
4108,4108,4124,1456,884,572
4108,4112,4124,1456,880,572
4116,4116,4128,1456,884,572
4112,4120,4124,1456,884,576
4112,4120,4128,1456,884,576
4112,4124,4128,1456,884,576
4116,4124,4136,1456,884,576
4112,4124,4136,1456,884,576
4116,4124,4140,1456,884,572
4116,4124,4140,1456,884,576
4116,4124,4144,1456,884,576
4116,4128,4144,1456,884,576
4116,4128,4144,1456,884,576
4116,4124,4144,1456,884,576
4112,4124,4136,1456,884,576
4108,4124,4128,1456,884,576
4108,4116,4124,1456,884,576
4112,4112,4124,1456,884,576
4108,4108,4124,1456,884,576
4108,4104,4124,1456,884,576
4108,4100,4124,1456,884,576
4108,4096,4124,1456,884,576
4104,4096,4124,1456,884,576
4104,4096,4124,1456,884,572
4104,4096,4124,1456,884,576
4104,4096,4124,1456,884,576
4108,4096,4124,1456,884,572
4108,4100,4124,1456,884,576
4108,4100,4124,1456,884,576
4108,4100,4124,1456,884,572
4108,4100,4124,1456,884,572
4108,4104,4124,1456,884,572
4112,4104,4124,1456,884,576
4112,4104,4124,1456,884,572
4108,4104,4124,1456,880,572
4112,4108,4124,1456,884,576
4112,4112,4124,1456,884,576
4112,4116,4124,1456,884,576
4112,4116,4124,1456,884,576
4112,4116,4124,1456,884,572
4112,4124,4132,1456,884,576
4112,4124,4136,1456,884,576
4112,4124,4136,1456,884,576
4112,4124,4136,1456,884,576
4116,4124,4140,1456,884,576
4112,4124,4140,1456,884,576
4116,4124,4140,1456,884,576
4116,4128,4144,1456,884,576
4116,4128,4144,1456,884,576
4116,4128,4144,1456,884,576
4112,4124,4140,1456,884,576
4112,4124,4136,1456,884,576
4108,4124,4124,1456,884,576
4104,4112,4124,1456,884,576
4104,4104,4124,1456,884,576
4104,4100,4124,1456,884,576
4104,4100,4124,1456,884,576
4104,4096,4124,1456,884,576
4104,4092,4124,1456,884,576
4104,4092,4124,1456,884,576
4100,4088,4124,1456,884,572
4104,4092,4124,1456,884,572
4100,4088,4124,1456,884,576
4104,4092,4124,1456,884,576
4104,4092,4124,1456,884,576
4104,4092,4124,1456,884,572
4104,4092,4124,1456,884,576
4104,4096,4124,1456,884,572
4104,4096,4124,1456,884,572
4104,4096,4124,1456,884,572
4108,4100,4124,1456,880,572
4108,4100,4124,1456,884,572
4108,4100,4124,1456,884,576
4108,4104,4124,1456,884,576
4108,4108,4124,1456,880,572
4104,4108,4124,1456,880,572
4108,4112,4124,1456,884,576
4108,4116,4124,1456,880,572
4112,4120,4124,1456,880,572
4112,4124,4136,1456,884,572
4112,4124,4128,1456,884,572
4112,4124,4136,1456,884,576
4112,4124,4136,1456,884,572
4112,4124,4136,1456,884,576
4116,4124,4140,1456,884,572
4116,4128,4144,1456,884,576
4116,4132,4148,1456,884,576
4116,4132,4148,1456,884,576
4116,4132,4148,1456,884,576
4116,4128,4144,1456,884,576
4112,4124,4136,1456,884,576
4112,4124,4132,1456,884,576
4108,4116,4124,1456,884,576
4104,4104,4124,1456,884,576
4104,4100,4124,1456,884,576
4104,4096,4124,1456,884,572
4100,4092,4124,1456,884,576
4104,4092,4124,1456,884,572
4104,4092,4124,1456,884,572
4104,4092,4124,1456,884,576
4104,4088,4124,1456,884,576
4104,4088,4124,1456,880,572
4104,4092,4124,1456,884,572
4108,4092,4124,1456,884,572
4108,4092,4124,1456,880,572
4104,4092,4124,1456,884,576
4104,4092,4124,1456,884,572
4104,4092,4124,1456,880,572
4104,4092,4124,1456,880,572
4104,4092,4124,1456,884,576
4104,4096,4124,1456,880,572
4104,4096,4124,1456,884,576
4104,4096,4124,1456,880,572
4108,4104,4124,1456,884,572
4108,4104,4124,1456,884,576
4108,4108,4124,1456,884,576
4112,4112,4124,1456,884,576
4112,4112,4124,1456,884,576
4112,4116,4124,1456,884,576
4116,4124,4132,1456,884,576
4112,4124,4132,1456,884,576
4112,4124,4136,1456,884,576
4112,4124,4136,1456,884,576
4112,4124,4132,1456,884,576
4116,4124,4136,1456,884,576
4116,4124,4140,1456,884,576
4116,4124,4140,1456,884,576
4112,4124,4136,1456,884,576
4112,4124,4132,1456,884,576
4108,4120,4124,1456,884,576
4108,4112,4124,1456,884,576
4108,4108,4124,1456,884,576
4104,4100,4124,1456,884,576
4104,4096,4124,1456,884,576
4104,4092,4124,1456,884,576
4104,4092,4124,1456,884,576
4104,4088,4124,1456,884,576
4104,4092,4124,1456,884,576
4100,4088,4124,1456,884,572
4104,4088,4124,1456,884,576
4104,4092,4124,1456,884,576
4104,4092,4124,1456,884,576
4104,4092,4124,1456,884,576
4104,4092,4124,1456,884,576
4108,4096,4124,1456,884,576
4104,4096,4124,1456,884,576
4108,4096,4124,1456,880,572
4108,4100,4124,1456,884,576
4108,4100,4124,1456,884,576
4108,4100,4124,1456,884,576
4108,4104,4124,1456,884,576
4108,4108,4124,1456,884,576
4108,4108,4124,1456,884,576
4112,4112,4124,1456,884,576
4112,4116,4128,1456,884,576
4112,4124,4132,1456,884,572
4112,4124,4132,1456,884,572
4112,4124,4132,1456,884,576
4116,4124,4136,1456,884,576
4116,4124,4140,1456,884,576
4116,4124,4140,1456,884,576
4120,4128,4148,1456,884,576
4116,4124,4140,1456,884,576
4116,4124,4144,1456,884,576
4112,4124,4136,1456,884,576
4112,4124,4128,1456,884,576
4108,4112,4124,1456,884,576
4108,4108,4124,1456,884,576
4104,4100,4124,1456,884,576
4104,4096,4124,1456,884,576
4104,4096,4124,1456,880,572
4104,4092,4124,1456,884,572
4104,4088,4124,1456,880,572
4104,4088,4124,1456,880,572
4104,4088,4124,1456,880,572
4104,4088,4124,1456,880,572
4100,4084,4124,1456,884,572
4104,4088,4124,1456,880,572
4104,4088,4124,1456,880,572
4104,4088,4124,1456,880,572
4104,4092,4124,1456,880,572
4104,4092,4124,1456,880,572
4104,4092,4124,1456,880,572
4108,4096,4124,1456,880,572
4104,4092,4124,1456,884,576
4108,4096,4124,1456,880,572
4108,4100,4124,1456,884,572
4108,4100,4124,1456,880,572
4112,4104,4124,1456,880,572
4112,4108,4124,1456,880,572
4112,4108,4124,1456,884,576
4112,4112,4124,1456,884,576
4112,4116,4124,1456,880,572
4112,4120,4128,1456,880,572
4112,4120,4128,1456,884,576
4112,4124,4128,1456,884,572
4112,4124,4132,1456,884,572
4116,4124,4136,1456,884,576
4116,4124,4140,1456,884,576
4112,4124,4136,1456,884,576
4116,4124,4140,1456,884,576
4116,4124,4140,1456,884,576
4112,4124,4132,1456,884,576
4108,4112,4124,1456,884,576
4108,4108,4124,1456,884,576
4108,4104,4124,1456,884,576
4104,4096,4124,1456,884,576
4100,4088,4124,1456,884,572
4100,4084,4120,1456,880,572
4104,4084,4124,1456,884,576
4100,4080,4116,1456,880,572
4100,4076,4116,1456,880,572
4100,4076,4116,1456,884,572
4100,4076,4112,1456,880,572
4100,4076,4116,1456,884,576
4096,4076,4112,1456,880,572
4100,4076,4112,1456,880,572
4100,4076,4116,1456,880,572
4100,4080,4120,1456,880,572
4100,4080,4116,1456,880,572
4100,4080,4116,1456,880,572
4104,4084,4124,1456,880,572
4104,4084,4124,1456,880,572
4104,4084,4124,1456,880,572
4104,4088,4124,1456,880,572
4104,4088,4124,1456,880,572
4108,4092,4124,1456,884,576
4104,4092,4124,1456,880,572
4104,4092,4124,1456,880,572
4108,4096,4124,1456,880,572
4108,4096,4124,1456,884,576
4108,4100,4124,1456,880,572
4108,4104,4124,1456,880,572
4108,4104,4124,1456,884,576
4108,4108,4124,1456,884,576
4112,4108,4124,1456,884,576
4112,4112,4124,1456,884,576
4112,4116,4128,1456,884,576
4112,4116,4128,1456,884,576
4112,4116,4124,1456,884,576
4108,4112,4124,1456,884,576
4108,4104,4124,1456,884,576
4108,4100,4124,1456,884,572
4100,4088,4124,1456,884,576
4100,4084,4120,1456,884,576
4096,4080,4116,1456,884,576
4096,4076,4112,1456,880,572
4096,4072,4108,1456,884,576
4096,4072,4108,1456,884,576
4096,4072,4108,1456,884,576
4100,4072,4112,1456,880,576
4096,4072,4108,1456,880,572
4100,4072,4112,1456,880,572
4100,4076,4112,1456,880,572
4096,4072,4108,1456,880,572
4100,4072,4112,1456,880,572
4100,4076,4112,1456,880,572
4100,4076,4116,1456,880,576
4100,4076,4116,1456,880,572
4100,4080,4116,1456,880,572
4100,4080,4120,1456,884,576
4100,4080,4116,1456,880,572
4104,4088,4124,1456,880,572
4104,4092,4124,1456,884,576
4104,4092,4124,1456,884,576
4108,4092,4124,1456,884,576
4108,4096,4124,1456,884,576
4108,4096,4124,1456,884,576
4108,4100,4124,1456,884,576
4108,4104,4124,1456,884,576
4108,4108,4124,1456,884,576
4112,4112,4128,1456,884,576
4112,4112,4124,1456,884,576
4112,4112,4124,1456,884,576
4112,4116,4124,1456,884,576
4112,4116,4124,1456,884,576
4112,4112,4124,1456,884,576
4108,4108,4124,1456,884,576
4104,4100,4124,1456,884,576
4104,4096,4124,1456,884,576
4104,4092,4124,1456,884,576
4104,4088,4124,1456,880,576
4100,4084,4120,1456,880,572
4100,4084,4120,1456,884,576
4100,4080,4120,1456,884,576
4100,4080,4120,1456,880,572
4100,4080,4116,1456,880,572
4100,4080,4120,1456,880,572
4100,4080,4116,1456,880,572
4100,4080,4120,1456,880,572
4100,4080,4116,1456,884,576
4100,4080,4116,1456,880,572
4100,4080,4120,1456,880,572
4100,4084,4124,1456,880,572
4104,4088,4124,1456,880,572
4104,4092,4124,1456,880,576
4104,4088,4124,1456,880,572
4104,4092,4124,1456,880,572
4108,4096,4124,1456,880,572
4104,4096,4124,1456,880,572
4104,4100,4124,1456,880,572
4108,4100,4124,1456,880,572
4108,4104,4124,1456,880,572
4108,4108,4124,1456,880,572
4108,4108,4124,1456,880,572
4112,4116,4128,1456,880,572
4112,4116,4128,1456,884,572
4112,4124,4128,1456,884,572
4112,4124,4132,1456,884,572
4112,4124,4136,1456,880,572
4116,4124,4136,1456,884,576
4112,4124,4136,1456,884,576
4116,4124,4136,1456,884,572
4112,4124,4132,1456,884,572
4108,4112,4124,1456,880,572
4104,4104,4124,1456,884,572
4104,4096,4124,1456,880,572
4104,4092,4124,1456,880,572
4100,4088,4124,1456,880,572
4104,4088,4124,1456,880,572
4104,4084,4124,1456,880,572
4100,4084,4120,1456,880,572
4100,4084,4120,1456,880,572
4100,4080,4120,1456,880,572
4100,4084,4124,1456,880,572
4100,4084,4120,1456,880,572
4100,4084,4124,1456,880,572
4104,4088,4124,1456,880,572
4104,4084,4124,1456,880,572
4104,4088,4124,1456,880,572
4104,4088,4124,1456,880,572
4104,4088,4124,1456,880,572
4104,4092,4124,1456,880,572
4104,4092,4124,1456,880,572
4108,4096,4124,1456,880,572
4108,4096,4124,1456,880,572
4104,4096,4124,1456,880,572
4104,4100,4124,1456,880,572
4104,4100,4124,1456,880,572
4108,4104,4124,1456,880,572
4112,4108,4124,1456,880,572
4108,4112,4124,1456,880,572
4112,4116,4128,1456,880,572
4112,4120,4128,1456,880,572
4112,4120,4132,1456,880,572
4112,4124,4136,1456,880,572
4116,4124,4140,1456,880,572
4112,4124,4136,1456,880,572
4116,4124,4144,1456,884,572
4116,4124,4140,1456,884,572
4112,4124,4136,1456,884,576
4112,4124,4132,1456,884,572
4108,4116,4124,1456,884,576
4108,4112,4124,1456,884,572
4108,4108,4124,1456,880,572
4104,4100,4124,1456,880,572
4104,4096,4124,1456,880,572
4104,4092,4124,1456,880,572
4100,4088,4124,1456,880,572
4104,4088,4124,1456,880,572
4100,4084,4120,1456,880,572
4096,4084,4120,1456,880,572
4096,4084,4120,1456,880,572
4100,4088,4124,1456,880,572
4100,4084,4120,1456,880,572
4100,4088,4124,1456,880,572
4100,4088,4124,1456,880,572
4100,4084,4124,1456,880,572
4100,4088,4124,1456,880,572
4100,4088,4124,1456,880,572
4104,4092,4124,1456,880,572
4104,4096,4124,1456,884,576
4104,4096,4124,1456,880,572
4104,4096,4124,1456,880,572
4108,4100,4124,1456,880,572
4108,4104,4124,1456,880,572
4108,4104,4124,1456,880,572
4108,4108,4124,1456,884,576
4108,4108,4124,1456,884,576
4108,4112,4124,1456,884,576
4108,4116,4124,1456,884,576
4108,4120,4124,1456,884,576
4112,4120,4128,1456,884,576
4108,4124,4128,1456,884,576
4112,4124,4132,1456,884,576
4112,4124,4136,1456,884,576
4112,4124,4136,1456,884,576
4116,4124,4140,1456,884,576
4112,4124,4140,1456,884,576
4108,4124,4132,1456,884,576
4108,4120,4124,1456,884,576
4104,4112,4124,1456,884,576
4104,4108,4124,1456,884,576
4104,4104,4124,1456,884,576
4104,4100,4124,1456,884,576
4100,4100,4124,1456,884,576
4100,4096,4124,1456,884,576
4104,4100,4124,1456,880,572
4104,4100,4124,1456,880,572
4104,4100,4124,1456,880,572
4104,4100,4124,1456,880,572
4104,4100,4124,1456,880,572
4104,4100,4124,1456,880,572
4108,4104,4124,1456,884,576
4104,4104,4124,1456,884,576
4104,4104,4124,1456,880,572
4104,4104,4124,1456,880,572
4108,4108,4124,1456,880,572
4104,4104,4124,1456,880,572
4104,4112,4124,1456,880,572
4104,4112,4124,1456,880,572
4108,4120,4128,1456,880,572
4108,4120,4128,1456,884,572
4112,4124,4136,1456,880,572
4108,4124,4128,1456,884,572
4108,4124,4136,1456,884,576
4108,4124,4136,1456,884,572
4112,4124,4140,1456,884,572
4112,4128,4144,1456,884,576
4116,4132,4148,1456,884,576
4116,4136,4148,1456,884,576
4116,4136,4148,1456,884,572
4116,4140,4148,1456,884,576
4116,4136,4148,1456,884,576
4116,4140,4148,1456,884,576
4112,4132,4144,1456,884,572
4112,4124,4140,1456,884,576
4108,4124,4128,1456,884,572
4104,4120,4124,1456,884,576
4104,4116,4124,1456,884,576
4104,4112,4124,1456,880,572
4100,4104,4124,1456,884,576
4100,4104,4124,1456,884,576
4100,4100,4124,1456,880,572
4100,4104,4124,1456,880,572
4100,4104,4124,1456,880,572
4100,4104,4124,1456,880,572
4100,4104,4124,1456,880,572
4104,4104,4124,1456,884,572
4104,4108,4124,1456,880,572
4104,4108,4124,1456,880,572
4104,4112,4124,1456,880,572
4108,4112,4124,1456,880,572
4108,4116,4124,1456,884,572
4108,4116,4124,1456,880,572
4108,4120,4128,1456,880,572
4108,4124,4128,1456,880,572
4108,4124,4128,1456,880,572
4112,4124,4136,1456,884,576
4108,4124,4132,1456,884,576
4112,4124,4140,1456,884,576
4112,4124,4140,1456,884,572
4112,4132,4144,1456,884,576
4112,4132,4144,1456,884,572
4116,4136,4148,1456,884,576
4112,4132,4144,1456,884,576
4112,4140,4148,1456,884,576
4112,4136,4148,1456,884,576
4116,4144,4152,1456,884,576
4116,4148,4156,1456,884,576
4116,4148,4156,1456,884,576
4116,4148,4156,1456,884,576
4116,4148,4156,1456,884,576
4112,4144,4152,1456,884,576
4112,4136,4148,1456,884,576
4108,4132,4144,1456,884,576
4108,4124,4140,1456,884,572
4104,4124,4128,1456,884,572
4104,4124,4128,1456,884,572
4104,4120,4124,1456,884,572
4104,4116,4124,1456,884,576
4104,4112,4124,1456,884,576
4104,4112,4124,1456,884,576
4104,4112,4124,1456,884,572
4104,4112,4124,1456,880,572
4100,4112,4124,1456,880,572
4100,4108,4124,1456,880,572
4100,4112,4124,1456,880,572
4100,4108,4124,1456,880,572
4104,4112,4124,1456,880,572
4104,4112,4124,1456,880,572
4104,4116,4124,1456,884,576
4104,4116,4124,1456,884,576
4104,4120,4128,1456,884,576
4108,4124,4128,1456,884,572
4104,4124,4128,1456,884,572
4108,4124,4128,1456,884,576
4104,4124,4132,1456,884,576
4108,4124,4136,1456,884,576
4104,4124,4128,1456,884,576
4108,4124,4140,1456,884,576
4108,4124,4140,1456,884,576
4108,4128,4140,1456,884,576
4108,4132,4144,1456,884,576
4108,4136,4144,1456,884,576
4108,4136,4144,1456,884,576
4108,4136,4148,1456,884,576
4112,4140,4148,1456,884,576
4112,4144,4148,1456,884,576
4112,4144,4152,1456,884,576
4112,4148,4152,1456,884,576
4112,4144,4152,1456,884,576
4112,4144,4152,1456,884,576
4108,4132,4144,1456,884,576
4104,4132,4140,1456,884,576
4104,4124,4132,1456,884,576
4104,4124,4132,1456,884,576
4104,4124,4124,1456,884,576
4100,4124,4124,1456,884,576
4100,4120,4124,1456,884,576
4100,4120,4124,1456,884,576
4100,4116,4124,1456,884,576
4100,4120,4124,1456,884,572
4100,4116,4124,1456,884,576
4100,4116,4124,1456,884,576
4100,4116,4124,1456,884,576
4100,4120,4124,1456,884,576
4100,4116,4124,1456,884,576
4100,4116,4124,1456,884,576
4100,4116,4124,1456,884,576
4096,4116,4124,1456,884,572
4100,4124,4124,1456,884,572
4100,4124,4128,1456,884,576
4104,4124,4132,1456,884,576
4100,4124,4128,1456,884,576
4104,4124,4136,1456,884,576
4104,4128,4140,1456,884,572
4104,4128,4140,1456,884,576
4104,4132,4144,1456,884,576
4108,4136,4148,1456,884,572
4108,4140,4148,1456,884,576
4108,4140,4148,1456,884,572
4108,4144,4148,1456,884,576
4108,4144,4152,1456,884,576
4108,4148,4152,1456,884,572
4112,4152,4156,1456,884,576
4112,4152,4156,1456,884,576
4108,4148,4152,1456,884,576
4108,4148,4152,1456,884,576
4108,4144,4148,1456,884,576
4104,4132,4140,1456,884,576
4104,4128,4140,1456,884,576
4100,4124,4128,1456,884,576
4096,4124,4124,1456,884,576
4096,4124,4124,1456,884,572
4096,4120,4124,1456,884,576
4096,4116,4124,1456,884,576
4096,4116,4124,1456,884,576
4096,4116,4124,1456,884,572
4100,4120,4124,1456,884,576
4100,4124,4124,1456,880,572
4100,4120,4124,1456,880,572
4096,4116,4124,1456,880,572
4096,4116,4124,1456,884,572
4096,4116,4124,1456,884,572
4100,4120,4124,1456,884,572
4100,4124,4124,1456,884,576
4104,4124,4124,1456,884,576
4104,4124,4136,1456,884,576
4100,4124,4128,1456,884,576
4100,4124,4132,1456,884,576
4100,4124,4136,1456,884,576
4104,4128,4140,1456,884,576
4104,4128,4136,1456,884,576
4104,4132,4140,1456,884,576
4104,4136,4144,1456,884,576
4108,4136,4148,1456,884,576
4104,4140,4148,1456,884,576
4104,4140,4148,1456,884,576
4108,4144,4152,1456,884,576
4108,4148,4152,1456,884,576
4108,4148,4156,1456,884,576
4108,4148,4152,1456,884,576
4108,4152,4156,1456,884,576
4112,4152,4156,1456,884,576
4108,4148,4152,1456,884,576
4104,4144,4148,1456,884,576
4104,4136,4140,1456,884,576
4100,4128,4136,1456,884,576
4100,4124,4128,1456,884,576
4096,4124,4124,1456,884,572
4096,4120,4124,1456,884,576
4092,4112,4124,1456,884,576
4096,4116,4124,1456,884,576
4096,4112,4124,1456,884,576
4092,4108,4124,1456,884,576
4096,4108,4124,1456,884,576
4096,4108,4124,1456,884,572
4096,4112,4124,1456,884,576
4096,4108,4124,1456,884,576
4092,4108,4124,1456,884,572
4096,4108,4124,1456,884,576
4096,4108,4124,1456,884,576
4096,4108,4124,1456,884,576
4096,4112,4124,1456,884,576
4096,4112,4124,1456,884,576
4100,4116,4124,1456,884,576
4100,4124,4124,1456,884,576
4100,4120,4124,1456,884,576
4100,4124,4124,1456,884,576
4100,4124,4124,1456,884,576
4104,4124,4128,1456,884,576
4100,4124,4128,1456,884,576
4100,4124,4136,1456,884,576
4104,4124,4136,1456,884,576
4104,4128,4140,1456,884,576
4108,4132,4140,1456,884,576
4104,4132,4140,1456,884,576
4108,4136,4148,1456,884,576
4108,4136,4144,1456,884,576
4108,4140,4148,1456,884,576
4108,4140,4148,1456,884,576
4108,4144,4148,1456,884,576
4108,4140,4148,1456,884,576
4104,4136,4144,1456,884,576
4104,4128,4140,1456,884,576
4100,4124,4132,1456,884,576
4100,4124,4124,1456,884,576
4096,4116,4124,1456,884,576
4096,4112,4124,1456,884,576
4096,4108,4124,1456,884,576
4096,4108,4124,1456,884,576
4096,4104,4124,1456,884,576
4096,4104,4124,1456,884,576
4096,4104,4124,1456,884,576
4096,4104,4124,1456,884,576
4096,4104,4124,1456,884,576
4092,4100,4124,1456,884,576
4096,4104,4124,1456,884,576
4092,4100,4124,1456,884,576
4096,4104,4124,1456,884,576
4096,4104,4124,1456,884,576
4096,4104,4124,1456,884,576
4096,4108,4124,1456,884,576
4100,4112,4124,1456,884,576
4096,4112,4124,1456,884,576
4100,4116,4124,1456,884,576
4100,4116,4124,1456,884,576
4100,4124,4124,1456,884,576
4100,4124,4124,1456,884,576
4104,4124,4132,1456,884,576
4104,4124,4132,1456,884,576
4104,4124,4132,1456,884,576
4104,4124,4132,1456,884,576
4104,4124,4136,1456,884,576
4108,4132,4144,1456,884,576
4108,4136,4144,1456,884,576
4108,4140,4148,1456,884,576
4112,4144,4152,1456,884,576
4108,4140,4148,1456,884,576
4108,4140,4148,1456,884,576
4108,4132,4144,1456,884,576
4104,4124,4136,1456,884,576
4100,4124,4128,1456,884,576
4100,4124,4124,1456,884,576
4100,4120,4124,1456,884,576
4100,4116,4124,1456,884,576
4100,4116,4124,1456,884,576
4100,4116,4124,1456,884,576
4100,4112,4124,1456,884,576
4096,4108,4124,1456,884,572
4096,4108,4124,1452,880,572
4100,4108,4124,1452,880,572
4096,4112,4124,1456,884,576
4100,4112,4124,1456,884,576
4100,4112,4124,1456,884,576
4100,4112,4124,1456,884,576
4096,4112,4124,1456,884,576
4100,4116,4124,1456,884,576
4096,4116,4124,1456,884,576
4100,4116,4124,1456,884,576
4100,4120,4124,1452,880,572
4100,4124,4124,1456,884,576
4104,4124,4128,1456,884,576
4100,4124,4128,1452,880,572
4104,4124,4136,1452,884,572
4104,4124,4136,1452,880,572
4104,4128,4140,1456,884,576
4104,4132,4140,1456,884,576
4108,4136,4144,1456,884,576
4108,4140,4148,1456,884,576
4108,4140,4148,1456,884,572
4112,4144,4152,1452,884,572
4112,4148,4152,1452,884,576
4108,4148,4152,1456,884,576
4112,4148,4156,1456,884,576
4112,4148,4152,1456,884,576
4108,4144,4148,1456,884,576
4104,4136,4144,1456,884,576
4104,4128,4136,1456,884,576
4100,4124,4132,1456,884,576
4100,4124,4124,1456,884,576
4100,4124,4124,1456,884,576
4096,4116,4124,1456,884,576
4096,4112,4124,1452,884,572
4096,4112,4124,1456,884,576
4096,4108,4124,1452,880,572
4096,4108,4124,1456,884,576
4096,4108,4124,1452,880,576
4100,4112,4124,1456,884,576
4100,4112,4124,1456,884,576
4100,4116,4124,1456,884,576
4100,4112,4124,1456,884,576
4100,4112,4124,1456,884,576
4100,4116,4124,1452,880,572
4100,4116,4124,1456,884,572
4100,4120,4124,1452,880,572
4100,4120,4124,1456,884,576
4104,4124,4128,1456,884,576
4104,4124,4132,1452,880,572
4104,4124,4128,1452,880,572
4104,4124,4136,1456,884,576
4104,4124,4136,1456,884,576
4108,4128,4140,1456,884,576
4108,4132,4140,1456,884,576
4108,4132,4144,1456,884,576
4108,4136,4144,1456,884,576
4108,4140,4148,1456,884,576
4108,4140,4144,1456,884,576
4108,4140,4148,1456,884,576
4112,4144,4152,1456,884,576
4112,4148,4152,1456,884,576
4112,4148,4152,1456,884,576
4112,4148,4152,1456,884,576
4112,4148,4152,1456,884,576
4108,4140,4144,1456,884,576
4104,4132,4140,1456,884,576
4104,4132,4140,1456,884,576
4100,4124,4128,1456,884,576
4100,4124,4124,1456,884,576
4100,4120,4124,1456,884,576
4100,4116,4124,1456,884,576
4100,4116,4124,1456,884,576
4100,4112,4124,1456,884,576
4096,4108,4124,1456,884,576
4096,4108,4124,1456,884,576
4096,4108,4124,1456,884,576
4096,4112,4124,1456,884,576
4100,4112,4124,1456,884,576
4100,4112,4124,1456,884,576
4100,4112,4124,1456,884,576
4100,4112,4124,1456,884,576
4096,4112,4124,1456,884,576
4100,4116,4124,1456,884,576
4100,4116,4124,1456,884,576
4100,4116,4124,1456,884,576
4100,4120,4124,1456,884,576
4100,4120,4124,1456,884,576
4100,4124,4124,1456,884,576
4100,4124,4128,1456,884,576
4100,4124,4128,1456,884,576
4104,4124,4132,1456,884,576
4108,4128,4140,1456,884,576
4104,4124,4136,1456,884,576
4108,4132,4144,1456,884,576
4104,4132,4144,1456,884,576
4108,4136,4144,1456,884,576
4108,4136,4144,1456,884,576
4108,4140,4144,1456,884,576
4108,4144,4148,1456,884,576
4108,4144,4148,1456,884,576
4108,4140,4144,1456,884,576
4104,4136,4144,1456,884,576
4104,4128,4136,1456,884,576
4104,4124,4132,1456,884,576
4100,4124,4124,1456,884,576
4100,4124,4124,1456,884,576
4100,4124,4124,1456,884,576
4096,4116,4124,1456,884,576
4096,4116,4124,1456,884,576
4096,4116,4124,1456,884,576
4100,4120,4124,1456,884,576
4100,4124,4124,1456,884,576
4100,4120,4124,1456,884,576
4100,4124,4124,1456,884,576
4100,4120,4124,1456,884,576
4100,4124,4124,1456,884,576
4100,4120,4124,1456,884,576
4096,4116,4124,1456,884,576
4100,4120,4124,1456,884,576
4100,4124,4124,1452,884,576
4100,4124,4124,1452,884,576
4104,4124,4128,1452,884,576
4104,4124,4132,1456,884,576
4108,4128,4140,1456,884,576
4108,4132,4140,1456,884,576
4104,4128,4136,1456,884,576
4108,4136,4144,1456,884,576
4108,4136,4144,1456,884,576
4108,4136,4144,1456,884,576
4108,4140,4148,1456,884,576
4108,4144,4148,1456,884,576
4108,4144,4152,1456,884,576
4108,4148,4152,1456,884,576
4112,4152,4156,1456,884,576
4112,4152,4156,1456,884,576
4112,4152,4152,1456,884,576
4112,4148,4156,1456,884,576
4108,4144,4148,1456,884,576
4108,4144,4148,1456,884,576
4108,4136,4140,1456,884,576
4100,4124,4132,1456,884,576
4100,4124,4124,1456,884,576
4100,4124,4124,1456,884,576
4100,4124,4124,1456,884,576
4100,4120,4124,1456,884,576
4100,4120,4124,1456,884,576
4096,4116,4124,1456,884,576
4100,4116,4124,1456,884,576
4100,4116,4124,1456,884,576
4100,4116,4124,1456,884,576
4100,4116,4124,1456,884,576
4100,4116,4124,1456,884,576
4100,4116,4124,1456,884,576
4100,4116,4124,1456,884,576
4100,4120,4124,1456,884,576
4100,4120,4124,1456,884,576
4100,4124,4124,1456,884,576
4100,4124,4124,1456,884,576
4100,4124,4124,1456,884,576
4100,4124,4124,1456,884,576
4100,4124,4128,1456,884,576
4104,4124,4132,1456,884,576
4104,4124,4136,1456,884,576
4104,4128,4136,1456,884,576
4104,4132,4140,1456,884,576
4104,4132,4140,1456,884,576
4104,4132,4140,1456,884,576
4104,4136,4144,1456,884,576
4108,4140,4144,1456,884,576
4108,4140,4144,1456,884,576
4108,4144,4148,1456,884,576
4108,4144,4148,1456,884,576
4108,4148,4152,1456,884,576
4108,4148,4152,1456,884,576
4108,4148,4148,1456,884,576
4108,4144,4148,1456,884,576
4104,4132,4136,1456,884,576
4100,4128,4136,1456,884,576
4100,4124,4128,1456,884,576
4096,4124,4124,1456,884,576
4096,4116,4124,1456,884,576
4096,4112,4124,1456,884,576
4096,4112,4124,1456,884,576
4096,4112,4124,1456,884,576
4096,4108,4124,1456,884,576
4096,4108,4124,1456,884,576
4096,4108,4124,1456,884,576
4092,4108,4124,1456,884,576
4100,4112,4124,1456,884,576
4092,4108,4124,1456,884,576
4096,4112,4124,1456,884,576
4096,4108,4124,1456,884,576
4096,4112,4124,1456,884,576
4096,4112,4124,1456,884,576
4096,4116,4124,1456,884,576
4100,4120,4124,1456,884,576
4100,4120,4124,1456,884,576
4100,4124,4124,1456,884,576
4100,4124,4124,1456,884,576
4104,4124,4128,1456,884,576
4104,4124,4132,1456,884,576
4104,4124,4132,1456,884,576
4104,4128,4136,1456,884,576
4104,4128,4136,1456,884,576
4108,4136,4144,1456,884,576
4108,4136,4144,1456,884,576
4108,4140,4144,1456,884,576
4108,4140,4148,1456,884,576
4108,4144,4148,1456,884,576
4112,4148,4152,1456,884,576
4112,4148,4148,1456,884,576
4108,4148,4152,1456,884,576
4108,4140,4148,1456,884,576
4108,4136,4144,1456,884,576
4104,4132,4140,1456,884,576
4100,4124,4128,1456,884,576
4100,4124,4124,1456,884,576
4100,4124,4124,1456,884,576
4100,4124,4124,1456,884,576
4100,4124,4124,1456,884,576
4100,4116,4124,1456,884,576
4100,4120,4124,1456,884,576
4100,4120,4124,1456,884,576
4100,4120,4124,1456,884,576
4100,4120,4124,1456,884,576
4100,4120,4124,1456,884,576
4100,4120,4124,1456,884,576
4100,4120,4124,1456,884,576
4104,4120,4124,1456,884,576
4100,4120,4124,1452,884,576
4104,4124,4124,1456,884,576
4104,4124,4128,1456,884,576
4104,4124,4132,1456,884,576
4104,4124,4128,1456,884,576
4108,4124,4132,1456,884,576
4104,4124,4136,1456,884,576
4104,4124,4128,1456,884,576
4108,4132,4140,1452,884,576
4108,4132,4140,1456,884,576
4108,4136,4144,1456,884,576
4108,4140,4144,1456,884,576
4108,4140,4144,1456,884,576
4108,4140,4148,1456,884,576
4112,4144,4148,1456,884,576
4112,4148,4152,1456,884,576
4112,4148,4152,1456,884,576
4108,4148,4148,1456,884,576
4108,4144,4148,1456,884,576
4108,4144,4148,1456,884,576
4108,4136,4140,1456,884,576
4104,4132,4140,1456,884,576
4104,4124,4132,1456,884,576
4100,4124,4124,1456,884,576
4100,4124,4124,1456,884,576
4100,4116,4124,1456,884,576
4100,4112,4124,1456,884,576
4096,4108,4124,1456,884,576
4100,4108,4124,1456,884,576
4100,4108,4124,1456,884,576
4100,4108,4124,1456,884,576
4096,4104,4124,1456,884,576
4100,4108,4124,1456,884,576
4100,4108,4124,1456,884,576
4100,4108,4124,1456,884,576
4100,4108,4124,1456,884,576
4100,4108,4124,1456,884,576
4100,4108,4124,1456,884,576
4100,4108,4124,1456,884,576
4100,4108,4124,1456,884,576
4100,4112,4124,1452,884,576
4100,4112,4124,1456,884,576
4104,4120,4124,1456,884,576
4104,4124,4128,1456,884,576
4104,4124,4128,1456,884,576
4104,4124,4124,1456,884,576
4104,4124,4128,1456,884,576
4104,4124,4124,1456,884,576
4104,4124,4124,1456,884,576
4104,4124,4132,1456,884,576
4108,4124,4136,1456,884,576
4108,4128,4140,1456,884,576
4112,4136,4144,1456,884,576
4108,4136,4144,1456,884,576
4108,4136,4140,1456,884,576
4108,4136,4144,1456,884,576
4108,4136,4144,1456,884,576
4108,4132,4140,1456,884,576
4104,4124,4132,1456,884,576
4100,4124,4128,1456,884,576
4100,4120,4124,1456,884,576
4100,4116,4124,1456,884,576
4096,4108,4124,1456,884,576
4096,4100,4124,1456,884,576
4092,4096,4124,1456,884,576
4096,4096,4124,1456,884,576
4092,4092,4120,1456,884,576
4092,4092,4120,1456,884,576
4092,4092,4120,1456,884,576
4096,4092,4124,1456,884,576
4096,4092,4124,1456,884,576
4092,4092,4120,1456,884,576
4092,4092,4120,1456,884,576
4092,4092,4120,1456,884,576
4096,4096,4124,1456,884,576
4096,4096,4124,1456,884,576
4092,4092,4124,1456,884,576
4092,4096,4120,1456,884,576
4096,4096,4124,1456,884,576
4096,4100,4124,1456,884,576
4096,4100,4124,1456,884,576
4096,4104,4124,1456,884,576
4100,4104,4124,1456,884,576
4100,4108,4124,1456,884,576
4100,4112,4124,1456,884,576
4100,4112,4124,1456,884,576
4100,4116,4124,1456,884,576
4104,4120,4124,1456,884,576
4100,4120,4124,1456,884,576
4108,4124,4128,1456,884,576
4104,4124,4124,1456,884,576
4104,4124,4132,1456,884,576
4108,4124,4132,1456,884,576
4104,4124,4124,1456,884,576
4104,4124,4128,1456,884,576
4104,4124,4124,1456,884,576
4100,4120,4124,1456,884,576
4100,4112,4124,1456,884,576
4096,4100,4124,1456,884,576
4096,4096,4124,1456,884,576
4092,4092,4124,1456,884,576
4092,4088,4116,1456,884,576
4092,4092,4120,1456,884,576
4096,4088,4120,1456,884,576
4092,4088,4120,1456,884,576
4092,4088,4116,1456,884,576
4092,4088,4116,1452,884,576
4096,4088,4120,1452,884,576
4096,4092,4124,1456,884,576
4096,4092,4124,1456,884,576
4096,4092,4120,1456,884,576
4096,4088,4120,1456,884,576
4096,4088,4120,1456,884,576
4100,4092,4124,1456,884,576
4096,4092,4120,1456,884,576
4096,4092,4124,1456,884,576
4096,4096,4124,1456,884,576
4100,4096,4124,1456,884,576
4100,4100,4124,1456,884,576
4100,4100,4124,1456,884,576
4100,4104,4124,1456,884,576
4100,4108,4124,1456,884,576
4100,4108,4124,1456,884,576
4100,4108,4124,1456,884,576
4104,4112,4124,1456,884,576
4104,4116,4124,1456,884,576
4100,4116,4124,1456,884,576
4104,4120,4124,1456,884,576
4100,4116,4124,1456,884,576
4100,4120,4124,1456,884,576
4100,4120,4124,1456,884,576
4104,4116,4124,1456,884,576
4100,4108,4124,1456,884,576
4096,4100,4124,1456,884,576
4092,4092,4120,1456,884,576
4092,4084,4112,1456,884,576
4092,4084,4112,1456,884,576
4092,4076,4108,1456,884,576
4092,4076,4108,1456,884,576
4088,4068,4104,1456,884,576
4092,4072,4104,1456,884,576
4092,4068,4104,1456,884,576
4092,4072,4104,1456,884,576
4088,4068,4100,1456,884,576
4092,4068,4104,1456,884,576
4092,4068,4104,1452,884,576
4092,4068,4104,1456,884,576
4092,4068,4104,1456,884,576
4092,4068,4104,1452,884,576
4092,4072,4104,1452,884,576
4092,4072,4104,1452,884,576
4096,4072,4108,1456,884,576
4092,4072,4104,1456,884,576
4092,4072,4108,1456,884,576
4092,4076,4108,1456,884,576
4096,4080,4112,1452,884,576
4096,4080,4112,1456,884,576
4096,4084,4116,1456,884,576
4096,4084,4116,1456,884,576
4096,4088,4120,1452,884,576
4096,4088,4120,1452,884,576
4100,4092,4124,1456,884,576
4096,4092,4120,1456,884,576
4100,4096,4124,1456,884,576
4100,4096,4124,1456,884,576
4100,4100,4124,1456,884,576
4100,4100,4124,1456,884,576
4100,4100,4124,1456,884,576
4100,4100,4124,1456,884,576
4096,4092,4120,1456,884,576
4096,4088,4120,1456,884,576
4096,4080,4112,1456,884,576
4092,4072,4104,1456,884,576
4092,4064,4100,1456,884,576
4088,4060,4096,1452,884,576
4084,4056,4092,1452,884,576
4088,4052,4092,1456,884,576
4088,4052,4092,1452,884,576
4084,4048,4088,1456,884,576
4088,4052,4088,1452,880,576
4088,4052,4088,1456,884,576
4088,4048,4088,1456,884,576
4084,4048,4088,1456,884,576
4088,4048,4088,1456,884,576
4084,4048,4088,1452,880,576
4084,4048,4088,1452,880,576
4088,4052,4088,1456,880,576
4088,4048,4088,1452,880,576
4088,4048,4088,1452,880,576
4088,4052,4092,1452,880,576
4088,4052,4092,1452,880,576
4088,4052,4092,1452,880,576
4088,4060,4096,1456,884,576
4088,4056,4092,1452,880,576
4088,4060,4096,1452,880,576
4092,4064,4100,1452,884,576
4092,4068,4100,1452,880,576
4092,4068,4104,1452,880,576
4092,4068,4100,1452,880,576
4096,4072,4104,1452,880,576
4096,4076,4108,1452,884,576
4096,4076,4108,1452,880,576
4096,4076,4108,1452,884,576
4096,4084,4112,1452,880,576
4096,4084,4112,1452,884,576
4100,4084,4116,1452,884,576
4096,4080,4112,1452,884,576
4096,4072,4104,1456,884,576
4092,4064,4100,1456,884,576
4092,4060,4096,1456,884,576
4092,4056,4092,1452,880,576
4088,4048,4088,1452,880,576
4084,4044,4088,1452,880,576
4088,4044,4084,1452,880,576
4084,4044,4084,1452,880,572
4084,4040,4080,1452,880,572
4084,4040,4080,1452,880,572
4084,4040,4084,1452,880,576
4088,4044,4084,1452,880,572
4088,4044,4084,1452,880,572
4088,4044,4088,1452,880,572
4084,4044,4084,1452,880,572
4088,4044,4088,1452,880,572
4088,4044,4084,1452,880,572
4088,4044,4088,1452,880,572
4088,4044,4084,1452,880,572
4092,4048,4088,1452,880,572
4088,4048,4088,1452,880,572
4092,4052,4092,1452,880,572
4092,4056,4092,1456,880,576
4092,4056,4092,1452,880,576
4092,4056,4096,1452,880,576
4092,4060,4100,1452,880,576
4096,4068,4104,1452,880,576
4100,4068,4108,1452,880,576
4096,4068,4104,1452,880,572
4096,4072,4104,1452,880,572
4100,4076,4108,1452,880,576
4100,4076,4108,1452,880,572
4100,4080,4112,1452,880,572
4100,4080,4112,1452,880,572
4100,4080,4112,1452,880,576
4096,4076,4108,1456,880,576
4096,4072,4104,1452,880,576
4096,4064,4096,1456,880,576
4092,4056,4092,1452,880,572
4088,4044,4084,1452,880,572
4084,4040,4084,1452,880,572
4084,4032,4080,1452,880,572
4088,4032,4080,1452,880,572
4084,4032,4076,1452,880,572
4084,4028,4076,1452,880,572
4084,4028,4076,1452,880,572
4084,4028,4076,1452,880,572
4088,4028,4076,1452,880,572
4088,4032,4080,1452,880,572
4088,4032,4076,1452,880,572
4088,4032,4080,1452,880,572
4092,4032,4080,1452,880,572
4088,4032,4080,1452,880,572
4088,4032,4080,1452,880,572
4088,4032,4080,1452,880,572
4088,4032,4080,1452,880,572
4088,4036,4080,1452,880,572
4092,4040,4084,1452,880,572
4092,4040,4084,1452,880,572
4096,4044,4088,1452,880,572
4096,4048,4088,1452,880,572
4096,4048,4092,1452,880,572
4096,4048,4092,1452,880,572
4096,4052,4092,1452,880,572
4100,4056,4096,1452,880,572
4096,4056,4096,1452,880,572
4100,4056,4096,1452,880,572
4100,4060,4100,1452,880,572
4100,4060,4100,1452,880,572
4096,4060,4100,1452,880,572
4100,4064,4100,1452,880,572
4100,4068,4104,1452,880,572
4104,4068,4108,1456,880,576
4100,4064,4104,1452,880,572
4096,4060,4096,1452,880,572
4096,4052,4092,1452,880,572
4092,4044,4088,1452,880,572
4088,4036,4080,1452,880,572
4088,4028,4076,1452,880,572
4088,4024,4076,1452,880,572
4084,4020,4068,1452,880,572
4084,4016,4068,1452,880,572
4084,4016,4068,1452,880,572
4088,4016,4068,1452,880,572
4084,4012,4064,1456,880,576
4084,4012,4064,1452,880,572
4084,4012,4068,1452,880,572
4084,4016,4068,1452,880,572
4084,4012,4064,1452,880,572
4088,4016,4068,1452,880,572
4088,4016,4068,1452,880,572
4088,4016,4068,1452,880,572
4088,4016,4068,1452,880,572
4084,4016,4068,1452,880,572
4088,4020,4072,1452,880,572
4088,4020,4072,1452,880,572
4088,4024,4072,1452,880,572
4092,4024,4076,1452,880,572
4092,4028,4076,1452,880,572
4092,4028,4076,1452,880,572
4096,4036,4084,1452,880,572
4096,4036,4084,1452,880,572
4092,4036,4084,1456,880,572
4096,4040,4084,1452,880,572
4096,4044,4084,1456,880,572
4096,4044,4088,1456,880,572
4096,4044,4088,1452,880,572
4096,4048,4088,1452,880,572
4100,4052,4092,1456,880,576
4096,4052,4092,1456,880,572
4096,4052,4092,1456,880,572
4096,4052,4092,1456,880,572
4096,4048,4088,1456,880,576
4096,4040,4084,1456,880,572
4092,4036,4080,1452,880,572
4088,4028,4076,1452,880,572
4088,4024,4072,1452,880,572
4092,4024,4072,1452,880,572
4092,4020,4072,1452,880,572
4088,4016,4068,1452,880,572
4088,4016,4068,1452,880,572
4088,4016,4068,1452,880,572
4088,4016,4068,1456,880,572
4088,4020,4068,1452,880,572
4088,4016,4068,1452,880,572
4092,4020,4072,1452,880,572
4088,4016,4068,1452,880,572
4088,4016,4068,1452,880,572
4092,4020,4072,1452,880,572
4088,4020,4068,1452,880,572
4088,4020,4072,1452,880,572
4088,4016,4068,1452,880,572
4088,4024,4072,1452,880,572
4092,4024,4076,1452,880,572
4092,4028,4072,1452,880,572
4092,4032,4080,1452,880,572
4096,4032,4080,1452,880,572
4092,4036,4080,1452,880,572
4092,4036,4084,1452,880,572
4096,4040,4080,1456,880,572
4096,4044,4084,1452,880,572
4096,4040,4084,1452,880,572
4100,4048,4088,1452,880,572
4096,4048,4092,1456,880,572
4096,4048,4088,1452,880,572
4096,4052,4092,1452,880,572
4100,4052,4092,1456,880,572
4100,4056,4096,1456,880,572
4096,4052,4092,1456,880,572
4096,4048,4088,1456,880,572
4096,4040,4084,1456,880,572
4092,4032,4076,1456,880,572
4088,4024,4072,1452,880,572
4088,4020,4068,1452,880,572
4088,4016,4068,1456,880,572
4088,4016,4068,1456,880,572
4088,4012,4064,1452,880,572
4084,4008,4064,1452,880,572
4088,4012,4064,1456,880,572
4088,4008,4064,1456,880,572
4088,4012,4064,1456,880,572
4088,4012,4064,1456,880,572
4088,4012,4064,1452,880,572
4088,4008,4064,1456,880,572
4084,4008,4064,1456,880,572
4088,4012,4064,1456,880,572
4088,4012,4064,1456,880,572
4088,4012,4068,1456,880,572
4088,4016,4068,1456,880,572
4092,4020,4072,1452,880,572
4092,4020,4072,1452,880,572
4092,4024,4072,1456,880,572
4092,4024,4072,1456,880,572
4092,4024,4072,1456,880,572
4092,4028,4076,1452,880,572
4092,4028,4076,1456,880,572
4092,4028,4076,1456,880,572
4092,4032,4080,1456,880,572
4092,4036,4080,1456,880,572
4092,4040,4080,1456,880,572
4092,4040,4084,1456,880,572
4096,4044,4088,1456,880,572
4100,4048,4092,1456,880,572
4100,4052,4092,1456,880,572
4096,4052,4092,1456,880,572
4096,4048,4088,1456,880,572
4096,4048,4088,1456,880,572
4092,4040,4080,1456,880,572
4092,4032,4080,1456,880,572
4088,4024,4072,1456,880,572
4084,4016,4068,1456,880,572
4088,4016,4064,1456,880,572
4084,4008,4060,1456,880,572
4080,4004,4060,1456,880,572
4084,4008,4060,1456,880,572
4084,4004,4060,1456,880,572
4084,4004,4060,1456,880,572
4084,4004,4060,1452,880,572
4080,4000,4056,1452,880,572
4080,4000,4056,1452,880,572
4084,4004,4056,1452,880,572
4084,4004,4056,1452,880,572
4080,4004,4056,1456,880,572
4080,4000,4056,1456,880,572
4084,4004,4060,1456,880,572
4084,4004,4060,1456,880,572
4084,4008,4060,1456,880,572
4084,4008,4064,1456,880,572
4084,4012,4064,1456,880,572
4084,4012,4064,1452,880,572
4084,4016,4064,1452,880,572
4084,4016,4068,1456,880,572
4084,4020,4068,1456,880,572
4084,4020,4068,1456,880,572
4088,4024,4072,1456,880,572
4088,4028,4072,1456,880,572
4088,4028,4072,1456,880,572
4092,4032,4080,1456,880,572
4092,4032,4076,1456,880,572
4092,4036,4080,1456,880,572
4092,4036,4080,1456,880,572
4092,4040,4084,1456,880,572
4092,4040,4084,1456,880,572
4092,4040,4080,1456,880,572
4092,4036,4080,1456,880,572
4088,4028,4076,1456,880,572
4088,4024,4072,1456,880,572
4084,4016,4064,1456,880,572
4084,4016,4064,1456,880,572
4084,4012,4064,1456,880,572
4084,4008,4060,1456,880,572
4080,4004,4060,1456,880,572
4080,4004,4056,1456,880,572
4084,4008,4060,1456,880,572
4080,4008,4060,1456,880,572
4080,4008,4060,1456,880,572
4080,4008,4060,1456,880,572
4080,4008,4060,1456,880,572
4084,4008,4064,1456,880,572
4080,4008,4060,1456,880,572
4080,4008,4060,1456,880,572
4080,4008,4060,1452,880,572
4080,4008,4060,1452,876,572
4084,4012,4060,1452,876,572
4084,4012,4064,1452,876,572
4084,4016,4064,1452,876,572
4084,4020,4068,1456,880,572
4088,4024,4072,1452,876,572
4088,4024,4072,1452,876,572
4088,4028,4076,1452,876,572
4088,4028,4072,1452,876,572
4092,4032,4076,1456,880,572
4092,4032,4080,1452,876,572
4092,4036,4080,1452,880,572
4092,4040,4084,1456,880,572
4092,4040,4084,1456,880,572
4092,4044,4084,1452,880,572
4092,4044,4088,1456,880,572
4096,4048,4088,1452,880,572
4092,4048,4088,1456,880,572
4092,4044,4084,1452,880,572
4088,4036,4080,1452,880,572
4088,4032,4076,1452,880,572
4084,4024,4072,1456,880,572
4084,4020,4068,1452,880,572
4080,4012,4064,1456,880,572
4080,4012,4060,1456,880,572
4076,4008,4056,1452,876,572
4080,4008,4060,1456,880,572
4076,4004,4056,1456,876,572
4076,4000,4052,1456,876,572
4080,4004,4056,1452,876,572
