5296,5644,5532,1024,620,384
5296,5644,5532,1024,620,384
5300,5644,5536,1024,620,384
5296,5640,5528,1024,620,384
5296,5640,5532,1024,620,388
5296,5640,5532,1024,620,384
5296,5640,5532,1024,620,384
5296,5640,5528,1024,620,384
5296,5636,5528,1024,620,384
5292,5632,5524,1024,620,384
5292,5632,5524,1024,620,384
5292,5636,5524,1024,620,384
5292,5632,5524,1024,620,384
5292,5636,5528,1024,620,384
5296,5640,5528,1024,620,384
5296,5640,5532,1024,620,384
5296,5640,5528,1024,620,384
5296,5640,5532,1024,620,384
5296,5640,5532,1024,620,384
5300,5644,5536,1024,620,384
5300,5648,5536,1024,620,388
5296,5648,5536,1024,620,384
5300,5652,5540,1024,620,384
5300,5652,5540,1024,620,388
5300,5656,5544,1024,620,384
5300,5652,5540,1024,620,384
5304,5660,5544,1024,620,384
5304,5664,5548,1024,620,384
5304,5664,5548,1024,620,384
5300,5664,5548,1024,620,384
5300,5664,5548,1024,620,384
5304,5668,5552,1024,620,384
5308,5676,5556,1024,620,388
5308,5676,5556,1024,620,384
5308,5676,5556,1024,620,384
5304,5664,5548,1024,620,384
5304,5664,5548,1024,620,384
5304,5664,5548,1024,620,384
5300,5660,5544,1024,620,384
5300,5656,5540,1024,620,384
5300,5656,5540,1024,620,388
5300,5652,5540,1024,620,384
5304,5660,5544,1024,620,384
5304,5656,5544,1024,620,384
5300,5652,5536,1024,620,384
5300,5652,5540,1024,620,384
5300,5652,5540,1024,620,384
5300,5656,5540,1024,620,384
5304,5656,5544,1024,620,388
5296,5648,5536,1024,620,388
5300,5652,5540,1024,620,388
5300,5652,5540,1024,620,384
5300,5652,5536,1024,620,384
5300,5652,5540,1024,620,384
5296,5652,5536,1024,620,384
5296,5652,5536,1024,620,384
5300,5656,5540,1024,620,384
5300,5660,5544,1024,620,388
5300,5656,5544,1024,620,384
5300,5660,5540,1024,620,384
5300,5660,5540,1024,620,388
5300,5664,5544,1024,620,384
5308,5672,5552,1024,620,384
5308,5672,5556,1024,620,388
5304,5672,5552,1024,620,384
5304,5672,5552,1024,620,384
5304,5672,5552,1024,620,388
5304,5676,5556,1024,620,384
5308,5676,5556,1024,620,388
5304,5676,5556,1024,620,384
5304,5672,5552,1024,620,384
5304,5672,5552,1024,620,384
5300,5664,5548,1024,620,384
5300,5660,5544,1024,620,384
5304,5664,5548,1024,620,384
5300,5660,5544,1024,620,388
5300,5656,5540,1024,620,384
5296,5656,5536,1024,620,384
5296,5652,5536,1024,620,384
5296,5652,5532,1024,620,384
5296,5652,5536,1024,620,388
5292,5648,5532,1024,620,384
5292,5648,5532,1024,620,384
5292,5644,5528,1024,620,384
5292,5644,5528,1024,620,384
5292,5644,5528,1024,620,384
5292,5644,5528,1024,620,384
5292,5648,5532,1024,620,384
5292,5644,5528,1024,620,388
5288,5644,5524,1024,620,384
5292,5648,5532,1024,620,384
5292,5648,5532,1024,620,384
5292,5648,5532,1024,620,388
5292,5652,5532,1024,620,384
5296,5652,5536,1024,620,388
5296,5656,5540,1024,620,384
5296,5656,5536,1024,620,384
5296,5656,5540,1024,620,384
5296,5660,5540,1024,620,388
5300,5664,5544,1024,620,384
5300,5664,5544,1024,620,384
5300,5672,5552,1024,620,384
5300,5672,5552,1024,620,388
5304,5676,5556,1024,620,384
5300,5668,5544,1024,620,384
5300,5668,5548,1024,620,384
5300,5660,5544,1024,620,384
5296,5656,5540,1024,620,384
5296,5656,5536,1024,620,384
5296,5652,5536,1024,620,384
5296,5652,5536,1024,620,384
5296,5652,5536,1024,620,388
5296,5652,5536,1024,620,384
5296,5648,5536,1024,620,384
5296,5648,5536,1024,620,384
5296,5648,5536,1024,620,384
5292,5644,5528,1024,620,384
5292,5644,5532,1024,620,388
5292,5644,5532,1024,620,388
5292,5644,5528,1024,620,388
5296,5648,5532,1024,620,384
5296,5648,5532,1024,620,384
5296,5652,5536,1024,620,384
5292,5644,5532,1024,620,384
5296,5648,5536,1024,620,384
5296,5652,5532,1024,620,388
5300,5656,5536,1024,620,388
5300,5660,5544,1024,620,384
5300,5656,5540,1024,620,384
5304,5664,5544,1024,620,388
5300,5660,5544,1024,620,388
5300,5664,5544,1024,620,388
5300,5664,5544,1024,620,388
5300,5664,5544,1024,620,388
5304,5672,5548,1024,620,388
5304,5668,5552,1024,620,388
5304,5672,5552,1024,620,388
5304,5672,5552,1024,620,388
5304,5676,5556,1024,620,388
5304,5676,5556,1024,620,388
5304,5680,5556,1024,620,388
5304,5676,5556,1024,620,388
5308,5676,5556,1024,620,388
5304,5672,5552,1024,620,388
5304,5668,5548,1024,620,388
5300,5664,5544,1024,620,388
5300,5660,5540,1024,620,388
5296,5656,5540,1024,620,388
5296,5656,5536,1024,620,388
5296,5656,5536,1024,620,388
5296,5652,5540,1024,620,388
5300,5652,5536,1024,620,388
5296,5648,5536,1024,620,388
5300,5656,5540,1024,620,388
5296,5652,5536,1024,620,388
5296,5652,5536,1024,620,388
5296,5652,5536,1024,620,388
5296,5648,5532,1024,620,388
5292,5644,5532,1024,620,388
5292,5644,5528,1024,620,388
5296,5648,5532,1024,620,384
5300,5652,5540,1024,620,388
5296,5652,5536,1024,620,388
5296,5652,5536,1024,620,388
5296,5652,5536,1024,620,388
5296,5656,5536,1024,620,384
5300,5656,5540,1024,620,388
5300,5660,5544,1024,620,384
5300,5660,5540,1024,620,388
5300,5664,5544,1024,620,388
5300,5664,5548,1024,620,388
5300,5664,5548,1024,620,388
5300,5668,5548,1024,620,384
5296,5664,5544,1024,620,384
5300,5668,5548,1024,620,384
5300,5668,5548,1024,620,384
5300,5672,5548,1024,620,388
5304,5672,5552,1024,620,388
5304,5672,5552,1024,620,388
5300,5672,5552,1024,620,384
5300,5668,5548,1024,620,384
5300,5664,5548,1024,620,384
5296,5660,5544,1024,620,384
5296,5656,5540,1024,620,384
5296,5652,5536,1024,620,388
5300,5656,5540,1024,620,384
5296,5652,5536,1024,620,388
5292,5648,5532,1024,620,384
5292,5648,5528,1024,620,384
5296,5648,5536,1024,620,384
5296,5652,5536,1024,620,384
5296,5648,5536,1024,620,384
5296,5644,5528,1024,620,388
5292,5644,5532,1024,620,384
5292,5640,5528,1024,620,384
5296,5648,5536,1024,620,388
5292,5636,5524,1024,620,388
5292,5644,5532,1024,620,384
5296,5644,5532,1024,620,384
5296,5648,5536,1024,620,384
5292,5644,5532,1024,620,384
5292,5644,5528,1024,620,384
5296,5648,5532,1024,620,388
5292,5644,5528,1024,620,384
5296,5648,5532,1024,620,384
5296,5648,5536,1024,620,384
5296,5652,5536,1024,620,384
5292,5644,5528,1024,620,384
5296,5652,5536,1024,620,384
5292,5648,5532,1024,620,384
5292,5648,5532,1024,620,384
5292,5648,5532,1024,620,388
5296,5652,5536,1024,620,384
5292,5648,5532,1024,620,388
5296,5648,5532,1024,620,384
5292,5636,5524,1024,620,384
5288,5632,5516,1024,620,388
5284,5628,5516,1024,620,384
5284,5624,5512,1024,620,384
5284,5620,5508,1024,620,384
5284,5620,5512,1024,620,384
5280,5616,5508,1024,620,384
5284,5616,5508,1024,620,384
5280,5616,5508,1024,620,384
5280,5612,5500,1024,620,384
5276,5608,5500,1024,620,384
5280,5612,5504,1024,620,384
5280,5612,5504,1024,620,384
5280,5612,5500,1024,620,384
5280,5612,5504,1024,620,384
5284,5612,5508,1024,620,384
5280,5612,5504,1024,620,384
5280,5612,5504,1024,620,384
5280,5612,5508,1024,620,384
5280,5612,5504,1024,620,384
5280,5616,5504,1024,620,384
5276,5612,5500,1024,620,384
5280,5616,5504,1024,620,384
5280,5612,5504,1024,620,384
5284,5620,5508,1024,620,384
5284,5620,5516,1024,620,384
5284,5624,5512,1024,620,384
5284,5624,5516,1024,620,384
5284,5624,5512,1024,620,384
5288,5628,5516,1024,620,384
5284,5624,5516,1024,620,384
5288,5628,5520,1024,620,384
5284,5624,5512,1024,620,388
5284,5620,5512,1024,620,384
5280,5612,5504,1024,620,384
5280,5608,5504,1024,620,384
5284,5608,5504,1024,620,384
5280,5604,5500,1024,620,384
5272,5596,5484,1024,620,388
5272,5592,5484,1024,620,388
5272,5592,5484,1024,620,384
5272,5592,5484,1024,620,384
5276,5592,5488,1024,620,384
5272,5592,5488,1024,620,384
5272,5588,5484,1024,620,384
5276,5592,5484,1024,620,384
5276,5588,5484,1024,620,384
5276,5592,5484,1024,620,384
5276,5592,5484,1024,620,384
5272,5588,5484,1024,620,384
5276,5592,5484,1024,620,384
5272,5584,5480,1024,620,384
5272,5588,5480,1024,620,384
5276,5592,5488,1024,620,384
5276,5592,5488,1024,620,384
5276,5592,5488,1024,620,384
5276,5592,5488,1024,620,384
5280,5600,5492,1024,620,384
5280,5600,5496,1024,620,384
5276,5600,5492,1024,620,384
5276,5600,5496,1024,620,388
5280,5604,5496,1024,620,384
5280,5608,5500,1024,620,384
5280,5608,5504,1024,620,384
5276,5608,5500,1024,620,384
5284,5616,5508,1024,620,384
5288,5620,5512,1024,620,384
5288,5620,5512,1024,620,384
5288,5620,5512,1024,620,384
5288,5620,5512,1024,620,384
5284,5608,5508,1024,620,384
5284,5608,5504,1024,620,384
5280,5604,5496,1024,620,388
5280,5596,5496,1024,620,384
5280,5596,5496,1024,620,384
5280,5592,5488,1024,620,384
5280,5592,5488,1024,620,384
5276,5588,5488,1024,620,384
5276,5588,5488,1024,620,384
5280,5588,5484,1024,620,388
5280,5588,5488,1024,620,384
5272,5580,5480,1024,620,384
5272,5580,5484,1024,620,384
5272,5580,5484,1024,620,384
5272,5580,5480,1024,620,384
5272,5584,5484,1024,620,384
5272,5580,5480,1024,620,384
5276,5584,5484,1024,620,384
5272,5584,5480,1024,620,384
5272,5584,5480,1024,620,384
5272,5584,5480,1024,620,384
5272,5584,5480,1024,620,384
5276,5588,5484,1024,620,384
5276,5592,5484,1024,620,384
5276,5592,5484,1024,620,384
5280,5596,5492,1024,620,384
5276,5596,5492,1024,620,384
5280,5600,5496,1024,620,384
5280,5596,5492,1024,620,384
5280,5600,5492,1024,620,384
5284,5608,5500,1024,620,384
5280,5604,5500,1024,620,384
5280,5604,5496,1024,620,384
5280,5600,5496,1024,620,384
5276,5596,5492,1024,620,384
5272,5588,5484,1024,620,384
5272,5584,5480,1024,620,384
5268,5580,5480,1024,620,384
5268,5576,5480,1024,620,384
5268,5576,5480,1024,620,384
5268,5572,5476,1024,620,384
5268,5572,5480,1024,620,384
5264,5564,5472,1024,620,384
5264,5568,5476,1024,620,384
5264,5564,5472,1024,620,384
5264,5564,5472,1024,620,384
5264,5560,5468,1024,620,384
5260,5560,5468,1024,620,384
5264,5560,5472,1024,620,384
5260,5560,5472,1024,620,384
5260,5556,5464,1024,620,384
5264,5560,5468,1024,620,384
5264,5560,5468,1024,620,384
5264,5564,5472,1024,620,384
5264,5564,5472,1024,620,384
5264,5564,5472,1024,620,384
5268,5568,5476,1024,620,384
5264,5568,5472,1024,620,384
5264,5568,5476,1024,620,384
5268,5572,5480,1024,620,384
5268,5572,5480,1024,620,384
5264,5576,5480,1024,620,384
5264,5572,5480,1024,620,384
5268,5580,5480,1024,620,384
5272,5584,5480,1024,620,384
5272,5584,5480,1024,620,384
5272,5584,5480,1024,620,384
5268,5580,5480,1024,620,384
5264,5572,5476,1024,620,384
5268,5572,5476,1024,620,384
5264,5564,5472,1024,620,384
5260,5556,5464,1024,620,384
5260,5556,5464,1024,620,384
5256,5552,5460,1024,620,384
5260,5552,5460,1024,620,384
5256,5548,5460,1024,620,384
5260,5548,5460,1024,620,384
5256,5544,5456,1024,620,384
5256,5548,5460,1024,620,384
5260,5548,5460,1024,620,384
5256,5548,5456,1024,620,384
5256,5544,5456,1024,620,384
5256,5548,5460,1024,620,384
5256,5548,5460,1024,620,384
5256,5544,5460,1024,620,384
5256,5544,5456,1024,620,384
5260,5552,5464,1024,620,384
5260,5552,5464,1024,620,384
5260,5552,5464,1024,620,384
5260,5552,5464,1024,620,384
5260,5556,5464,1024,620,384
5260,5556,5464,1024,620,384
5260,5560,5464,1024,620,384
5264,5564,5476,1024,620,384
5264,5564,5472,1024,620,384
5268,5572,5480,1024,620,384
5268,5576,5480,1024,620,384
5268,5576,5480,1024,620,384
5272,5580,5480,1024,620,384
5268,5580,5480,1024,620,384
5268,5580,5480,1024,620,384
5268,5580,5480,1024,620,384
5268,5580,5480,1024,620,384
5264,5576,5476,1024,620,384
5264,5572,5480,1024,620,384
5268,5572,5480,1024,620,384
5264,5568,5476,1024,620,384
5264,5560,5472,1024,620,384
5260,5556,5464,1024,620,384
5260,5556,5464,1024,620,384
5260,5552,5460,1024,620,384
5256,5548,5460,1024,620,384
5256,5548,5460,1024,620,384
5256,5548,5456,1024,620,384
5260,5548,5460,1024,620,384
5256,5544,5456,1024,620,384
5252,5544,5456,1024,620,384
5256,5548,5460,1024,620,384
5260,5552,5464,1024,620,384
5260,5552,5460,1024,620,384
5260,5552,5464,1024,620,384
5260,5548,5460,1024,620,384
5256,5548,5456,1024,620,384
5256,5548,5460,1024,620,384
5256,5548,5460,1024,620,384
5256,5548,5460,1024,620,384
5256,5556,5464,1024,620,384
5256,5552,5460,1024,620,384
5256,5556,5464,1024,620,384
5256,5556,5464,1024,620,384
5256,5560,5464,1024,620,384
5256,5560,5464,1024,620,384
5256,5560,5464,1024,620,384
5260,5564,5472,1024,620,384
5260,5568,5472,1024,620,384
5264,5572,5476,1024,620,384
5260,5572,5476,1024,620,384
5268,5580,5480,1024,620,384
5264,5576,5480,1024,620,384
5268,5580,5480,1024,620,384
5264,5576,5480,1024,616,384
5264,5572,5476,1024,620,384
5264,5572,5480,1024,620,384
5260,5560,5468,1024,620,384
5256,5556,5464,1024,620,384
5256,5556,5464,1024,620,384
5256,5556,5464,1024,620,384
5256,5552,5464,1024,620,384
5252,5548,5456,1024,620,384
5256,5548,5460,1024,620,384
5256,5548,5460,1024,620,384
5256,5548,5460,1024,620,384
5252,5548,5456,1024,620,384
5252,5548,5456,1024,620,384
5256,5548,5460,1024,620,384
5256,5548,5456,1024,620,384
5252,5544,5456,1024,620,384
5252,5544,5456,1024,620,384
5252,5544,5456,1024,620,384
5252,5548,5456,1024,620,384
5252,5548,5456,1024,620,384
5256,5548,5460,1024,620,384
5252,5548,5456,1024,620,384
5256,5552,5464,1024,620,384
5252,5548,5460,1024,620,384
5256,5552,5460,1024,620,384
5252,5548,5456,1024,620,384
5260,5560,5468,1024,620,384
5252,5552,5460,1024,620,384
5256,5560,5468,1024,620,384
5256,5560,5468,1024,620,384
5260,5564,5468,1024,620,384
5256,5560,5464,1024,620,384
5256,5560,5468,1024,616,384
5256,5556,5464,1024,620,384
5252,5552,5460,1024,620,384
5256,5552,5460,1024,620,384
5252,5544,5452,1020,616,384
5252,5540,5452,1024,616,384
5244,5532,5444,1024,616,384
5248,5532,5444,1024,620,384
5244,5528,5440,1024,616,384
5244,5524,5436,1024,616,384
5240,5524,5436,1020,616,384
5240,5520,5436,1024,616,384
5240,5520,5436,1024,616,384
5240,5516,5432,1024,616,384
5240,5520,5432,1024,616,384
5236,5516,5432,1020,616,384
5240,5520,5436,1020,616,384
5244,5524,5440,1024,616,384
5240,5520,5436,1024,616,384
5244,5524,5436,1024,616,384
5244,5524,5440,1024,616,384
5240,5520,5436,1024,616,384
5240,5524,5436,1024,616,384
5244,5524,5436,1024,620,384
5244,5528,5440,1024,616,384
5244,5528,5440,1024,620,384
5244,5528,5440,1024,620,384
5244,5532,5444,1024,616,384
5244,5532,5444,1024,616,384
5244,5532,5444,1024,616,384
5248,5536,5448,1024,616,384
5248,5544,5452,1024,620,384
5248,5540,5448,1024,616,384
5244,5540,5448,1020,616,384
5252,5544,5456,1024,616,384
5248,5540,5452,1020,616,384
5248,5536,5448,1024,616,384
5244,5532,5444,1020,616,384
5244,5528,5440,1020,616,384
5240,5520,5436,1024,616,384
5236,5512,5432,1020,616,384
5240,5516,5432,1020,616,384
5240,5512,5428,1024,616,384
5240,5516,5432,1020,616,384
5236,5508,5428,1024,616,384
5240,5508,5428,1020,616,384
5240,5512,5432,1024,616,384
5236,5508,5428,1020,616,384
5236,5504,5424,1024,616,384
5236,5508,5428,1020,616,384
5240,5508,5428,1020,616,384
5240,5512,5432,1020,616,384
5236,5504,5424,1020,616,384
5240,5508,5428,1020,616,384
5236,5508,5428,1020,616,384
5240,5512,5432,1024,616,384
5240,5512,5432,1024,616,384
5240,5516,5436,1020,616,384
5244,5520,5436,1020,616,384
5244,5524,5440,1020,616,384
5240,5520,5440,1024,616,384
5240,5520,5432,1020,616,384
5240,5520,5436,1024,616,384
5240,5524,5436,1024,616,384
5244,5528,5444,1020,616,384
5244,5532,5444,1024,616,384
5244,5532,5444,1020,616,384
5248,5540,5448,1024,616,384
5248,5540,5452,1020,616,384
5248,5544,5452,1024,616,384
5256,5552,5460,1020,616,384
5252,5548,5456,1020,616,384
5248,5540,5452,1020,616,384
5248,5540,5448,1024,616,384
5248,5532,5448,1024,616,384
5248,5528,5444,1020,616,384
5244,5524,5440,1024,616,384
5244,5524,5440,1024,616,384
5244,5520,5440,1020,616,384
5244,5520,5436,1020,616,384
5240,5512,5432,1020,616,384
5240,5516,5432,1020,616,384
5240,5512,5432,1020,616,384
5240,5512,5428,1020,616,384
5244,5516,5436,1020,616,384
5240,5508,5432,1020,616,384
5240,5512,5432,1020,616,384
5240,5508,5432,1020,616,384
5236,5508,5428,1020,616,384
5236,5504,5424,1020,616,384
5236,5508,5428,1020,616,384
5240,5512,5432,1020,616,384
5240,5512,5432,1020,616,384
5240,5512,5432,1020,616,384
5236,5508,5428,1024,616,384
5240,5516,5432,1020,616,384
5240,5516,5436,1024,620,384
5240,5516,5436,1024,616,384
5244,5520,5440,1024,616,384
5240,5516,5436,1020,616,384
5244,5524,5440,1020,616,384
5240,5524,5440,1020,616,384
5240,5524,5436,1020,616,384
5240,5524,5440,1020,616,384
5240,5524,5440,1020,616,384
5240,5528,5440,1024,616,384
5236,5516,5432,1020,616,384
5236,5516,5428,1020,616,384
5232,5504,5424,1020,616,384
5236,5508,5428,1020,616,384
5236,5504,5424,1024,616,384
5232,5496,5420,1020,616,384
5232,5492,5416,1024,616,384
5228,5492,5416,1020,616,384
5224,5492,5408,1020,616,384
5228,5492,5412,1020,616,384
5228,5492,5412,1024,616,384
5228,5492,5412,1020,616,384
5228,5492,5408,1024,616,384
5228,5492,5408,1020,616,384
5228,5488,5408,1020,616,384
5224,5488,5404,1020,616,384
5224,5492,5404,1024,616,384
5228,5488,5408,1020,616,384
5224,5488,5408,1024,616,384
5224,5488,5408,1024,620,384
5228,5492,5408,1024,616,384
5228,5492,5412,1024,616,384
5228,5492,5412,1024,616,384
5228,5492,5416,1020,616,384
5228,5492,5416,1020,616,384
5228,5492,5412,1020,616,384
5228,5492,5416,1020,616,384
5232,5492,5420,1020,616,384
5232,5500,5424,1024,616,384
5232,5496,5420,1024,616,384
5228,5492,5416,1020,616,384
5232,5500,5420,1020,616,384
5228,5496,5420,1020,616,384
5228,5492,5416,1020,616,384
5232,5500,5420,1024,616,384
5232,5496,5420,1024,616,384
5232,5492,5416,1020,616,384
5228,5492,5412,1020,616,384
5228,5492,5412,1020,616,384
5224,5488,5408,1020,616,384
5228,5488,5404,1020,616,384
5224,5484,5404,1020,616,384
5220,5476,5400,1020,616,384
5220,5472,5396,1020,616,384
5220,5472,5396,1020,616,384
5220,5476,5400,1020,616,384
5224,5476,5400,1020,616,384
5220,5476,5400,1020,616,384
5224,5476,5400,1024,616,384
5224,5476,5400,1024,616,384
5220,5472,5396,1024,616,384
5220,5472,5396,1020,616,384
5224,5476,5400,1020,616,384
5220,5476,5396,1020,616,384
5224,5480,5400,1020,616,384
5224,5480,5400,1024,616,384
5224,5480,5400,1020,616,384
5224,5484,5404,1020,616,384
5224,5484,5404,1020,616,384
5224,5488,5408,1020,616,384
5228,5492,5412,1020,616,384
5224,5492,5408,1020,616,384
5224,5488,5408,1020,616,384
5224,5492,5412,1024,616,384
5228,5492,5416,1024,620,384
5228,5492,5416,1020,616,384
5228,5496,5416,1020,616,384
5232,5504,5424,1020,616,384
5232,5500,5420,1024,616,384
5232,5500,5420,1024,616,384
5232,5496,5420,1024,616,384
5228,5492,5416,1024,616,384
5232,5492,5416,1024,616,384
5224,5492,5408,1024,616,384
5228,5492,5408,1020,616,384
5224,5480,5404,1020,616,384
5220,5476,5400,1024,616,384
5220,5476,5396,1020,616,384
5220,5476,5400,1020,616,384
5224,5480,5400,1020,616,384
5220,5476,5400,1020,616,384
5220,5472,5396,1020,616,384
5216,5472,5396,1020,616,384
5220,5472,5396,1024,620,384
5220,5472,5396,1024,616,384
5216,5468,5392,1024,616,384
5216,5468,5392,1024,616,384
5220,5472,5396,1024,616,384
5220,5476,5396,1024,616,384
5224,5480,5404,1024,616,384
5220,5480,5400,1020,616,384
5220,5480,5400,1024,616,384
5224,5484,5404,1024,616,384
5224,5484,5404,1020,616,384
5224,5488,5404,1024,616,384
5224,5488,5404,1024,616,384
5224,5492,5404,1024,616,384
5224,5492,5408,1024,616,384
5228,5492,5412,1024,616,384
5228,5492,5416,1024,620,384
5228,5492,5416,1024,616,384
5232,5492,5416,1024,616,384
5232,5496,5420,1020,616,384
5228,5496,5416,1020,616,384
5228,5492,5416,1024,616,384
5228,5496,5416,1024,620,384
5228,5492,5412,1024,620,384
5224,5492,5412,1024,616,384
5224,5488,5404,1024,620,384
5220,5484,5404,1024,620,384
5220,5480,5396,1024,620,384
5220,5480,5396,1024,616,384
5220,5476,5396,1024,616,384
5216,5472,5392,1024,616,384
5216,5468,5392,1024,616,384
5216,5472,5392,1024,616,384
5212,5468,5388,1024,616,384
5212,5464,5388,1024,620,384
5212,5468,5388,1024,616,384
5212,5464,5388,1024,616,384
5212,5464,5388,1024,616,384
5216,5468,5388,1024,616,384
5212,5464,5388,1024,620,384
5212,5468,5388,1024,620,384
5216,5468,5392,1024,616,384
5212,5468,5388,1024,616,384
5212,5468,5392,1024,620,384
5212,5468,5388,1024,620,384
5216,5472,5392,1024,620,384
5216,5476,5396,1024,620,384
5216,5476,5396,1024,620,384
5216,5476,5396,1024,620,384
5220,5480,5400,1024,620,384
5216,5480,5396,1024,620,384
5220,5484,5400,1024,616,384
5220,5488,5404,1024,620,384
5220,5488,5404,1024,620,384
5216,5484,5400,1024,620,384
5216,5480,5400,1024,620,384
5216,5476,5396,1024,620,384
5216,5472,5392,1024,616,384
5216,5468,5388,1024,620,384
5212,5464,5384,1024,620,384
5212,5460,5384,1024,620,384
5204,5452,5376,1024,620,384
5204,5448,5376,1024,620,384
5204,5444,5372,1024,616,384
5204,5444,5372,1024,620,384
5204,5444,5372,1024,620,384
5204,5444,5372,1024,620,384
5204,5444,5372,1024,616,384
5200,5440,5368,1024,616,384
5204,5444,5368,1024,616,384
5204,5444,5368,1024,620,384
5204,5444,5368,1024,620,384
5200,5440,5368,1024,620,384
5204,5444,5368,1024,616,384
5204,5448,5376,1024,616,384
5204,5448,5372,1020,616,384
5204,5448,5376,1024,616,384
5208,5456,5380,1024,620,384
5208,5456,5380,1024,616,384
5208,5460,5380,1024,620,384
5208,5456,5380,1024,620,384
5208,5460,5380,1024,620,384
5212,5468,5388,1024,620,384
5208,5464,5384,1024,620,384
5212,5468,5388,1024,616,384
5212,5472,5392,1024,616,384
5216,5476,5396,1024,616,384
5220,5480,5396,1024,620,384
5220,5480,5400,1024,620,384
5216,5472,5396,1024,620,384
5216,5472,5392,1024,620,384
5212,5464,5384,1024,616,384
5212,5460,5384,1024,620,384
5208,5456,5380,1024,616,384
5208,5452,5376,1024,620,384
5204,5448,5372,1024,620,384
5204,5448,5372,1020,616,384
5208,5448,5376,1020,616,384
5208,5448,5376,1020,616,384
5208,5448,5376,1020,616,384
5204,5448,5372,1020,616,384
5204,5448,5372,1024,620,384
5204,5444,5372,1020,616,384
5204,5444,5372,1020,616,384
5204,5444,5372,1020,616,384
5208,5448,5376,1020,616,384
5208,5456,5380,1020,616,384
5208,5452,5376,1020,616,384
5208,5452,5376,1020,616,384
5208,5456,5380,1020,616,384
5208,5456,5380,1020,616,384
5208,5460,5384,1024,620,384
5212,5464,5384,1020,616,384
5212,5464,5384,1020,616,384
5212,5468,5388,1024,620,384
5216,5472,5388,1024,620,384
5216,5476,5396,1020,616,384
5216,5476,5396,1020,616,384
5216,5476,5392,1020,616,384
5216,5480,5396,1020,616,384
5216,5484,5400,1020,616,384
5220,5488,5404,1020,616,384
5220,5488,5400,1020,616,384
5216,5480,5400,1024,620,384
5212,5476,5392,1024,620,384
5212,5468,5388,1024,620,384
5212,5468,5384,1024,620,384
5208,5464,5384,1020,616,384
5208,5460,5380,1020,616,384
5208,5456,5380,1020,616,384
5208,5456,5380,1024,620,384
5208,5452,5376,1020,616,384
5204,5452,5376,1024,620,384
5204,5452,5376,1020,620,384
5204,5452,5376,1024,620,384
5204,5448,5372,1024,620,384
5204,5448,5372,1020,620,384
5204,5448,5372,1024,620,384
5204,5448,5372,1020,616,384
5204,5452,5376,1020,616,384
5204,5448,5372,1020,616,384
5204,5452,5376,1020,616,384
5204,5452,5372,1020,616,384
5204,5456,5376,1020,616,384
5204,5456,5380,1020,616,384
5204,5456,5376,1020,616,384
5204,5460,5380,1020,616,384
5204,5460,5380,1024,620,384
5204,5464,5380,1020,620,384
5208,5464,5384,1024,620,384
5212,5472,5392,1024,620,384
5212,5476,5392,1024,620,384
5212,5476,5392,1024,620,384
5212,5476,5392,1020,620,384
5208,5476,5388,1020,620,384
5212,5484,5396,1024,620,384
5212,5488,5396,1024,620,384
5212,5484,5396,1024,620,384
5216,5488,5396,1024,620,384
5212,5480,5396,1024,620,384
5212,5476,5392,1024,620,384
5208,5472,5388,1024,620,384
5208,5468,5384,1024,620,384
5204,5460,5380,1020,620,384
5204,5460,5376,1024,620,384
5204,5456,5376,1024,620,384
5200,5456,5376,1020,620,384
5200,5452,5372,1020,620,384
5200,5456,5376,1020,620,384
5200,5456,5376,1020,620,384
5204,5456,5376,1024,620,384
5200,5456,5376,1024,620,384
5200,5456,5376,1020,620,384
5200,5456,5372,1020,620,384
5200,5456,5376,1024,620,384
5200,5452,5372,1020,620,384
5204,5460,5376,1020,620,384
5204,5464,5380,1020,620,384
5200,5460,5376,1020,620,384
5204,5464,5380,1024,620,384
5204,5464,5380,1024,620,384
5208,5468,5384,1024,620,384
5204,5468,5384,1024,620,384
5208,5472,5388,1024,620,384
5208,5476,5388,1020,620,384
5212,5480,5392,1020,620,384
5208,5476,5388,1024,620,384
5208,5480,5388,1020,620,384
5208,5484,5396,1024,620,384
5212,5488,5396,1024,620,384
5212,5492,5396,1024,620,384
5212,5492,5400,1020,620,384
5212,5488,5396,1024,620,384
5212,5492,5400,1024,620,384
5208,5484,5392,1020,620,384
5208,5476,5388,1024,620,384
5204,5472,5388,1020,620,384
5204,5468,5384,1024,620,384
5204,5468,5380,1024,620,384
5204,5468,5380,1024,620,384
5204,5468,5380,1024,620,384
5200,5464,5376,1020,620,384
5204,5468,5380,1020,620,384
5204,5468,5380,1020,620,384
5200,5464,5380,1020,620,384
5204,5468,5380,1024,620,384
5204,5468,5380,1024,620,384
5204,5468,5384,1024,620,384
5208,5476,5388,1024,620,384
5204,5472,5384,1024,620,384
5208,5476,5392,1020,620,384
5204,5476,5388,1024,620,384
5208,5480,5388,1020,620,384
5208,5480,5388,1020,620,384
5208,5484,5396,1020,620,384
5212,5488,5396,1024,620,384
5208,5488,5396,1024,620,384
5208,5488,5396,1024,620,384
5216,5492,5408,1020,620,384
5212,5492,5404,1024,620,384
5212,5492,5400,1020,620,384
5212,5492,5404,1020,620,384
5216,5500,5408,1024,620,384
5216,5504,5412,1024,620,384
5220,5508,5416,1024,620,384
5224,5516,5420,1024,620,384
5220,5516,5420,1020,620,384
5220,5516,5420,1020,620,384
5224,5512,5420,1024,620,384
5224,5516,5420,1024,620,384
5224,5512,5420,1020,620,384
5220,5508,5416,1024,620,384
5220,5504,5416,1020,620,384
5220,5504,5412,1020,620,384
5220,5504,5412,1024,620,384
5220,5500,5412,1024,620,384
5220,5504,5412,1020,620,384
5220,5500,5412,1024,620,384
5220,5504,5416,1020,620,384
5216,5500,5408,1020,620,384
5220,5500,5412,1024,620,384
5224,5512,5420,1024,620,384
5224,5512,5416,1024,620,384
5224,5508,5416,1024,620,384
5224,5516,5420,1024,620,384
5224,5516,5420,1024,620,384
5224,5520,5424,1024,620,384
5224,5520,5424,1024,620,384
5228,5524,5428,1024,620,384
5232,5532,5436,1024,620,388
5236,5536,5436,1024,620,384
5236,5536,5440,1024,620,384
5236,5540,5440,1024,620,384
5236,5544,5444,1024,620,384
5240,5548,5444,1024,620,388
5240,5548,5448,1024,620,384
5240,5552,5452,1024,620,384
5236,5552,5448,1024,620,384
5240,5556,5448,1024,620,384
5240,5560,5452,1024,620,384
5240,5564,5456,1024,620,384
5244,5564,5460,1024,620,384
5240,5564,5456,1024,620,384
5244,5572,5464,1024,620,384
5244,5576,5468,1024,620,384
5244,5576,5468,1024,620,384
5244,5572,5464,1024,620,384
5248,5572,5464,1024,620,384
5248,5572,5464,1024,620,384
5248,5572,5468,1024,620,384
5248,5568,5464,1024,620,384
5244,5564,5460,1024,620,384
5244,5564,5460,1024,620,384
5244,5564,5460,1024,620,384
5240,5560,5456,1024,620,384
5244,5564,5456,1024,620,384
5244,5564,5456,1024,620,384
5244,5568,5460,1024,620,388
5244,5568,5460,1024,620,384
5244,5568,5460,1024,620,384
5244,5568,5464,1024,620,384
5244,5572,5464,1024,620,388
5244,5572,5464,1024,620,388
5248,5576,5468,1024,620,384
5252,5580,5468,1024,620,384
5252,5580,5472,1024,620,384
5252,5584,5476,1024,620,384
5248,5580,5472,1024,620,384
5252,5588,5480,1024,620,384
5252,5588,5476,1024,620,384
5252,5588,5476,1024,620,384
5256,5596,5480,1024,620,384
5252,5592,5480,1024,620,384
5256,5600,5484,1024,620,384
5260,5604,5484,1024,620,384
5256,5604,5484,1024,620,384
5260,5608,5488,1024,620,384
5260,5612,5488,1024,620,384
5264,5616,5492,1024,620,384
5264,5616,5496,1024,620,384
5268,5624,5496,1024,620,384
5268,5624,5504,1024,620,384
5268,5624,5500,1024,620,384
5268,5624,5500,1024,620,388
5264,5616,5492,1024,620,384
5264,5616,5488,1024,620,388
5264,5612,5488,1024,620,384
5260,5612,5488,1024,620,388
5264,5612,5488,1024,620,384
5260,5612,5484,1024,620,384
5264,5616,5492,1024,620,384
5260,5608,5484,1024,620,384
5264,5612,5488,1024,620,384
5260,5612,5488,1024,620,384
5260,5608,5484,1024,620,384
5264,5612,5488,1024,620,384
5260,5612,5484,1024,620,388
5260,5612,5488,1024,620,384
5264,5612,5488,1024,620,388
5260,5612,5484,1024,620,384
5264,5616,5492,1024,620,384
5268,5620,5496,1024,620,384
5260,5616,5488,1024,620,384
5264,5620,5496,1024,620,388
5264,5624,5500,1024,620,384
5264,5624,5500,1024,620,384
5264,5624,5500,1024,620,384
5264,5624,5500,1024,620,384
5268,5628,5500,1024,620,388
5268,5628,5500,1024,620,388
5264,5628,5500,1024,620,388
5268,5632,5508,1024,620,388
5268,5632,5504,1024,620,388
5268,5636,5508,1024,620,388
5268,5636,5508,1024,620,388
5268,5640,5512,1024,620,388
5268,5636,5508,1024,620,388
5268,5640,5508,1024,620,388
5272,5640,5508,1024,620,388
5272,5636,5512,1024,620,388
5272,5636,5508,1024,620,388
5268,5628,5504,1024,620,388
5268,5628,5500,1024,620,388
5264,5624,5496,1024,620,388
5264,5624,5500,1024,620,388
5264,5620,5496,1024,620,388
5264,5620,5496,1024,620,388
5264,5620,5492,1024,620,388
5264,5620,5496,1024,620,388
5264,5624,5500,1024,620,388
5268,5624,5500,1024,620,388
5268,5624,5500,1024,620,388
5264,5624,5500,1024,620,388
5268,5628,5504,1024,620,388
5268,5624,5500,1024,620,388
5268,5628,5504,1024,620,384
5268,5628,5500,1024,620,384
5268,5628,5500,1024,620,388
5268,5628,5504,1024,620,388
5272,5632,5508,1024,620,388
5268,5632,5504,1024,620,388
5272,5636,5512,1024,620,388
5268,5636,5508,1024,620,388
5272,5640,5512,1024,620,388
5272,5640,5512,1024,620,388
5276,5648,5524,1024,620,388
5276,5648,5520,1024,620,388
5276,5652,5520,1024,620,388
5280,5652,5524,1024,620,388
5280,5660,5528,1024,620,388
5280,5656,5528,1024,620,388
5280,5660,5528,1024,620,388
5280,5656,5524,1024,620,388
5284,5660,5528,1024,620,388
5280,5656,5528,1024,620,388
5280,5652,5524,1024,620,388
5280,5648,5524,1024,620,388
5280,5648,5520,1024,620,388
5276,5644,5520,1024,620,388
5280,5644,5520,1024,620,388
5276,5640,5520,1024,620,388
5276,5640,5516,1024,620,388
5280,5640,5516,1024,620,388
5276,5640,5516,1024,620,388
5280,5640,5516,1024,620,388
5280,5640,5516,1024,620,388
5280,5640,5516,1024,620,388
5280,5644,5520,1024,620,388
5276,5640,5516,1024,620,388
5280,5640,5516,1024,620,388
5276,5636,5512,1024,620,388
5276,5640,5516,1024,620,388
5280,5640,5516,1024,620,388
5280,5644,5520,1024,620,388
5280,5644,5516,1024,620,388
5280,5644,5516,1024,620,388
5280,5644,5520,1024,620,388
5280,5648,5524,1024,620,388
5280,5648,5524,1024,620,388
5280,5648,5524,1024,620,388
5284,5656,5528,1024,620,388
5284,5652,5524,1024,620,388
5284,5656,5528,1024,620,388
5284,5660,5528,1024,620,388
5288,5664,5536,1024,620,388
5288,5664,5532,1024,620,388
5288,5664,5536,1024,620,388
5288,5668,5536,1024,620,388
5288,5664,5536,1024,620,388
5288,5664,5532,1024,620,388
5288,5660,5532,1024,620,388
5284,5656,5532,1024,620,388
5284,5652,5528,1024,620,388
5284,5652,5528,1024,620,388
5280,5644,5520,1024,620,388
5280,5644,5520,1024,620,388
5280,5640,5516,1024,620,388
5280,5640,5520,1024,620,384
5276,5636,5516,1024,620,388
5280,5640,5516,1024,620,388
5280,5640,5516,1024,620,388
5280,5640,5516,1024,620,388
5280,5640,5516,1024,620,388
5280,5640,5516,1024,620,388
5284,5640,5520,1024,620,388
5280,5640,5516,1024,620,388
5280,5636,5516,1024,620,388
5280,5640,5516,1024,620,388
5280,5640,5516,1024,620,388
5284,5640,5520,1024,620,388
5280,5640,5520,1024,620,388
5280,5640,5520,1024,620,388
5280,5640,5520,1024,620,388
5280,5640,5516,1024,620,388
5280,5640,5516,1024,620,388
5280,5640,5520,1024,620,388
5284,5648,5524,1024,620,388
5284,5652,5528,1024,620,388
5284,5652,5528,1024,620,388
5284,5648,5524,1024,620,388
5284,5652,5528,1024,620,388
5288,5656,5528,1024,620,388
5284,5656,5528,1024,620,388
5280,5644,5520,1024,620,388
5280,5644,5520,1024,620,388
5280,5640,5520,1024,620,388
5280,5636,5516,1024,620,388
5276,5632,5512,1024,620,388
5280,5632,5512,1024,620,388
5276,5628,5508,1024,620,388
5276,5624,5504,1024,620,388
5272,5620,5500,1024,620,388
5276,5624,5508,1024,620,388
5272,5620,5500,1024,620,388
5272,5620,5504,1024,620,388
5272,5616,5496,1024,620,388
5272,5620,5500,1024,620,388
5272,5616,5496,1024,620,388
5268,5612,5496,1024,620,388
5268,5612,5492,1024,620,388
5268,5612,5492,1024,620,388
5268,5616,5496,1024,620,388
5272,5612,5496,1024,620,388
5272,5616,5500,1024,620,388
5272,5616,5500,1024,620,388
5268,5616,5496,1024,620,388
5272,5616,5500,1024,620,388
5272,5616,5496,1024,620,388
5268,5616,5496,1024,620,388
5272,5620,5500,1024,620,388
5272,5620,5500,1024,620,388
5272,5620,5504,1024,620,388
5268,5620,5500,1024,620,388
5268,5620,5496,1024,620,388
5272,5624,5504,1024,620,388
5272,5620,5504,1024,620,388
5268,5612,5492,1024,620,388
5264,5604,5488,1024,620,388
5264,5600,5484,1024,620,388
5264,5600,5484,1024,620,388
5264,5596,5480,1024,620,388
5260,5592,5480,1024,620,388
5260,5584,5480,1024,620,388
5260,5584,5476,1024,620,388
5260,5584,5480,1024,620,388
5260,5588,5480,1024,620,388
5256,5580,5480,1024,620,384
5256,5580,5472,1024,620,388
5256,5580,5476,1024,620,388
5260,5580,5480,1024,620,388
5256,5580,5476,1024,620,384
5252,5572,5468,1024,620,388
5256,5576,5472,1024,620,388
5256,5576,5472,1024,620,388
5256,5576,5472,1024,620,384
5256,5576,5472,1024,620,384
5256,5580,5476,1024,620,384
5256,5576,5476,1024,620,384
5256,5580,5476,1024,620,384
5260,5584,5480,1024,620,384
5260,5584,5480,1024,620,384
5256,5584,5476,1024,620,384
5260,5584,5476,1024,620,384
5256,5588,5480,1024,620,388
5256,5584,5480,1024,620,388
5260,5592,5480,1024,620,384
5256,5588,5480,1024,620,388
5256,5580,5476,1024,620,388
5256,5580,5476,1024,620,384
5256,5576,5472,1024,620,388
5256,5576,5472,1024,620,388
5256,5568,5468,1024,620,384
5252,5560,5460,1024,620,388
5256,5564,5464,1024,620,384
5252,5560,5464,1024,620,384
5248,5556,5456,1024,620,384
5252,5556,5456,1024,620,384
5248,5552,5456,1024,620,384
5252,5552,5456,1024,620,384
5252,5552,5456,1024,620,384
5248,5552,5456,1024,620,384
5248,5548,5452,1024,620,384
5248,5548,5456,1024,620,384
5248,5548,5452,1024,620,384
5248,5548,5452,1024,620,388
5248,5548,5452,1024,620,384
5248,5548,5452,1024,620,384
5248,5548,5452,1024,620,384
5248,5548,5452,1024,620,384
5248,5548,5452,1024,620,388
5252,5552,5456,1024,620,384
5248,5552,5456,1024,620,384
5248,5552,5456,1024,620,384
5252,5556,5460,1024,620,384
5252,5560,5460,1024,620,384
5256,5564,5464,1024,620,384
5256,5564,5464,1024,620,384
5252,5560,5460,1024,620,384
5252,5560,5464,1024,620,384
5252,5564,5464,1024,620,384
5252,5564,5464,1024,620,384
5252,5560,5460,1024,620,384
5252,5560,5460,1024,620,384
5252,5556,5456,1024,620,384
5248,5548,5452,1024,620,384
5248,5548,5456,1024,620,384
5248,5544,5448,1024,620,384
5248,5540,5448,1024,620,384
5244,5536,5444,1024,620,384
5244,5532,5440,1024,620,384
5244,5532,5444,1024,620,384
5244,5532,5440,1024,620,384
5244,5532,5444,1024,620,384
5248,5532,5444,1024,620,384
5244,5532,5444,1024,620,384
5244,5528,5440,1024,620,384
5244,5528,5440,1024,620,384
5244,5528,5440,1024,620,384
5244,5524,5436,1024,620,384
5240,5524,5436,1024,620,384
5240,5524,5436,1024,620,384
5240,5528,5436,1024,620,384
5236,5520,5432,1024,620,384
5240,5528,5436,1024,620,384
5244,5532,5440,1024,620,384
5240,5528,5436,1024,620,384
5244,5532,5440,1024,620,384
5244,5532,5440,1024,620,384
5240,5532,5436,1024,620,384
5240,5532,5436,1024,620,384
5240,5532,5440,1024,620,384
5244,5536,5444,1024,620,384
5244,5540,5444,1024,620,384
5244,5544,5448,1024,620,384
5244,5540,5448,1024,620,384
5244,5544,5448,1024,620,384
5248,5548,5452,1024,620,384
5248,5544,5452,1024,620,384
5248,5544,5448,1024,620,384
5248,5540,5448,1024,620,384
5240,5528,5440,1024,616,384
5244,5528,5440,1024,620,384
5240,5524,5436,1024,620,384
5240,5524,5436,1024,620,384
5240,5520,5432,1024,620,384
5240,5520,5436,1024,620,384
5240,5516,5432,1024,620,384
5236,5516,5428,1024,620,384
5240,5516,5432,1024,620,384
5240,5516,5432,1024,616,384
5240,5516,5428,1024,616,384
5240,5516,5428,1024,616,384
5240,5516,5432,1024,616,384
5236,5512,5428,1024,616,384
5236,5512,5428,1024,616,384
5236,5512,5424,1024,616,384
5236,5512,5424,1024,620,384
5236,5512,5428,1024,616,384
5240,5516,5432,1024,616,384
5236,5516,5428,1024,616,384
5236,5516,5428,1024,616,384
5232,5512,5424,1024,616,384
5232,5512,5424,1024,620,384
5236,5516,5428,1024,616,384
5236,5520,5428,1024,616,384
5236,5516,5428,1024,616,384
5236,5520,5428,1024,616,384
5232,5516,5424,1024,616,384
5240,5528,5436,1024,616,384
5236,5524,5432,1020,616,384
5240,5528,5436,1024,616,384
5240,5524,5436,1024,620,384
5236,5520,5428,1024,616,384
5236,5520,5428,1024,616,384
5236,5516,5428,1024,616,384
5236,5512,5424,1024,616,384
5236,5512,5428,1024,616,384
5232,5504,5420,1020,616,384
5232,5504,5420,1024,616,384
5232,5500,5416,1024,616,384
5232,5496,5416,1024,616,384
5228,5492,5412,1024,616,384
5228,5492,5412,1020,616,384
5224,5492,5408,1020,616,384
5224,5492,5408,1024,616,384
5224,5492,5412,1024,616,384
5228,5492,5412,1024,616,384
5228,5492,5412,1024,616,384
5228,5496,5416,1024,616,384
5228,5492,5412,1024,616,384
5228,5496,5416,1024,616,384
5232,5504,5420,1024,616,384
5236,5504,5420,1024,616,384
5232,5504,5416,1024,616,384
5228,5500,5416,1024,616,384
5232,5508,5420,1024,616,384
5232,5508,5420,1024,616,384
5232,5512,5424,1024,616,384
5232,5512,5424,1020,616,384
5232,5516,5424,1024,616,384
5232,5516,5428,1020,616,384
5232,5516,5424,1024,616,384
5236,5524,5432,1020,616,384
5236,5528,5436,1020,616,384
5240,5528,5436,1024,616,384
5240,5536,5440,1024,616,384
5244,5536,5444,1024,616,384
5244,5536,5440,1024,616,384
5240,5532,5440,1024,616,384
5240,5532,5440,1024,616,384
5236,5524,5432,1024,616,384
5236,5520,5432,1024,616,384
5236,5516,5428,1024,616,384
5236,5516,5428,1024,616,384
5236,5516,5428,1024,616,384
5232,5508,5420,1024,616,384
5232,5504,5420,1024,616,384
5236,5512,5424,1024,616,384
5232,5512,5424,1024,616,384
5236,5516,5428,1024,616,384
5240,5516,5428,1024,616,384
5236,5512,5424,1024,616,384
5232,5512,5424,1024,616,384
5236,5512,5424,1024,616,384
5236,5512,5424,1024,616,384
5232,5508,5424,1024,616,384
5232,5512,5424,1024,616,384
5232,5516,5424,1024,616,384
5236,5516,5428,1024,616,384
5240,5524,5432,1024,616,384
5236,5520,5428,1024,616,384
5236,5524,5432,1024,616,384
5240,5528,5436,1024,616,384
5244,5532,5440,1024,616,384
5244,5532,5440,1024,616,384
5244,5536,5440,1024,616,384
5244,5540,5444,1024,616,384
5248,5544,5448,1024,616,384
5248,5544,5448,1024,616,384
5244,5544,5448,1024,616,384
5244,5548,5448,1024,616,384
5244,5548,5452,1024,620,384
5244,5548,5448,1024,616,384
5252,5560,5460,1024,620,384
5248,5560,5456,1024,616,384
5248,5556,5456,1024,620,384
5248,5552,5456,1024,616,384
5248,5552,5452,1024,616,384
5244,5544,5448,1024,616,384
5244,5544,5448,1024,616,384
5244,5540,5444,1024,620,384
5244,5540,5444,1024,616,384
5244,5536,5440,1024,616,384
5244,5536,5440,1024,620,384
5240,5532,5440,1024,616,384
5244,5536,5444,1024,616,384
5244,5536,5440,1024,616,384
5244,5536,5444,1024,616,384
5248,5540,5448,1024,616,384
5244,5536,5440,1024,616,384
5244,5536,5444,1024,616,384
5244,5536,5444,1024,616,384
5244,5540,5444,1024,616,384
5248,5540,5448,1024,616,384
5248,5540,5448,1024,616,384
5248,5544,5448,1024,616,384
5248,5544,5448,1024,616,384
5248,5548,5452,1024,616,384
5248,5548,5452,1024,616,384
5248,5548,5452,1024,616,384
5252,5552,5456,1024,616,384
5248,5552,5452,1024,620,384
5248,5552,5456,1024,616,384
5248,5556,5456,1024,616,384
5248,5556,5456,1024,616,384
5252,5560,5460,1024,616,384
5248,5560,5456,1024,616,384
5252,5564,5460,1024,616,384
5252,5564,5464,1024,620,384
5252,5568,5464,1024,620,384
5252,5568,5464,1024,620,384
5252,5568,5464,1024,620,384
5252,5568,5464,1024,616,384
5256,5568,5464,1024,620,384
5256,5564,5464,1024,620,384
5252,5564,5460,1024,620,384
5248,5556,5456,1024,620,384
5248,5552,5452,1024,620,384
5248,5552,5452,1024,620,384
5248,5552,5452,1024,620,384
5248,5548,5452,1024,620,384
5244,5548,5448,1024,620,384
5244,5544,5444,1024,620,384
5248,5548,5452,1024,620,384
5244,5544,5448,1024,620,384
5248,5548,5448,1024,616,384
5244,5548,5448,1024,620,384
5248,5548,5452,1024,620,384
5248,5548,5452,1024,620,384
5244,5548,5448,1024,620,384
5244,5548,5448,1024,620,384
5248,5548,5452,1024,620,384
5248,5552,5452,1024,620,384
5248,5552,5452,1024,620,384
5248,5552,5452,1024,620,384
5248,5556,5452,1024,620,384
5248,5556,5452,1024,620,384
5248,5556,5456,1024,620,384
5244,5552,5452,1024,620,384
5244,5556,5452,1024,620,384
5248,5560,5456,1024,620,384
5248,5560,5456,1024,620,384
5248,5560,5460,1024,620,384
5248,5564,5456,1024,620,384
5248,5564,5460,1024,620,384
5252,5564,5464,1024,620,384
5248,5564,5460,1024,620,384
5252,5560,5460,1024,620,384
5244,5552,5452,1024,620,384
5240,5544,5444,1024,620,384
5244,5548,5448,1024,620,384
5240,5544,5444,1024,620,384
5244,5540,5444,1024,620,384
5240,5536,5440,1024,620,384
5240,5536,5440,1024,620,384
5244,5536,5440,1024,620,384
5240,5532,5436,1024,620,384
5236,5532,5436,1024,620,384
5236,5532,5436,1024,620,384
5240,5532,5436,1024,620,384
5240,5532,5436,1024,620,384
5240,5536,5440,1024,620,384
5240,5532,5436,1024,620,384
5236,5532,5436,1024,620,384
5236,5528,5432,1024,620,384
5232,5528,5428,1024,620,384
5240,5532,5436,1024,620,384
5240,5532,5436,1024,620,384
5240,5536,5440,1024,620,384
5240,5536,5440,1024,620,384
5240,5540,5444,1024,620,384
5236,5536,5440,1024,620,384
5244,5544,5444,1024,620,384
5244,5548,5448,1024,620,384
5244,5548,5448,1024,620,384
5248,5552,5456,1024,620,384
5248,5552,5452,1024,620,384
5248,5556,5456,1024,620,384
5252,5560,5460,1024,620,384
5248,5560,5456,1024,620,384
5248,5560,5452,1024,620,384
5248,5552,5452,1024,620,384
5248,5552,5452,1024,620,384
5248,5548,5452,1024,620,384
5244,5544,5444,1024,620,384
5240,5540,5440,1024,620,384
5240,5536,5440,1024,620,384
5240,5536,5436,1024,620,384
5236,5532,5436,1024,620,384
5240,5532,5436,1024,620,384
5240,5528,5436,1024,620,384
5240,5528,5432,1024,620,384
5236,5524,5432,1024,620,384
5240,5532,5436,1024,620,384
5240,5528,5432,1024,620,384
5240,5528,5436,1024,620,384
5240,5528,5432,1024,620,384
5240,5528,5436,1024,620,384
5236,5524,5428,1024,620,384
5236,5528,5432,1024,620,384
5236,5528,5432,1024,620,384
5240,5536,5440,1024,620,384
5244,5536,5440,1024,620,384
5240,5536,5440,1024,620,384
5244,5540,5444,1024,620,384
5244,5544,5448,1024,620,384
5240,5540,5440,1024,620,384
5244,5544,5444,1024,620,384
5244,5544,5444,1024,620,384
5248,5552,5452,1024,620,384
5248,5552,5452,1024,620,384
5248,5552,5452,1024,620,384
5248,5556,5452,1024,620,384
5248,5556,5456,1024,620,384
5248,5556,5456,1024,620,384
5248,5560,5456,1024,620,384
5252,5556,5456,1024,620,384
5248,5552,5452,1024,620,384
5244,5544,5444,1024,620,384
5240,5536,5440,1024,620,384
5240,5536,5440,1024,620,384
5240,5532,5436,1024,620,384
5240,5528,5432,1024,620,384
5236,5524,5432,1024,620,384
5236,5524,5432,1024,620,384
5236,5524,5428,1024,620,384
5232,5520,5428,1024,620,384
5232,5516,5424,1024,620,384
5232,5520,5424,1024,620,384
5232,5516,5424,1024,620,384
5232,5516,5424,1024,620,384
5232,5516,5424,1024,620,384
5232,5512,5420,1024,620,384
5236,5520,5428,1024,620,384
5236,5524,5428,1024,620,384
5232,5516,5424,1024,620,384
5232,5520,5424,1024,620,384
5236,5524,5428,1024,620,384
5232,5524,5428,1024,620,384
5232,5524,5428,1024,620,388
5236,5528,5428,1024,620,384
5240,5532,5436,1024,620,384
5240,5532,5436,1024,620,384
5240,5536,5440,1024,620,384
5240,5536,5440,1024,620,384
5236,5532,5436,1024,620,384
5236,5536,5436,1024,620,384
5240,5540,5440,1024,620,384
5240,5540,5440,1024,620,384
5240,5544,5444,1024,620,384
5240,5544,5444,1024,620,384
5236,5536,5436,1024,620,384
5240,5536,5440,1024,620,384
5236,5528,5436,1024,620,384
5236,5524,5432,1024,620,384
5236,5524,5428,1024,620,384
5236,5524,5428,1024,620,384
5232,5516,5428,1024,620,384
5232,5512,5420,1024,620,384
5232,5516,5424,1024,620,384
5236,5516,5424,1024,620,384
5232,5512,5420,1024,620,384
5232,5512,5424,1024,620,384
5232,5512,5420,1024,620,384
5232,5512,5420,1024,620,384
5232,5508,5420,1024,620,384
5232,5512,5420,1024,620,384
5228,5504,5416,1024,620,388
5228,5508,5416,1024,620,384
5228,5508,5416,1024,620,388
5228,5504,5416,1024,620,384
5232,5512,5424,1024,620,384
5228,5512,5420,1024,620,384
5236,5516,5424,1024,620,388
5232,5516,5424,1024,620,384
5228,5512,5420,1024,620,388
5232,5516,5420,1024,620,388
5228,5516,5420,1024,620,388
5228,5516,5420,1024,620,384
5232,5520,5428,1024,620,384
5236,5524,5432,1024,620,384
5232,5524,5428,1024,620,388
5232,5524,5428,1024,620,384
5232,5524,5428,1024,620,388
5232,5516,5424,1024,620,384
5228,5512,5420,1024,620,388
5228,5508,5416,1024,620,384
5224,5500,5412,1024,620,384
5220,5492,5404,1024,620,384
5220,5492,5404,1024,620,388
5220,5492,5404,1024,620,384
5220,5492,5404,1024,620,384
5220,5492,5404,1024,620,384
5224,5492,5404,1024,620,384
5220,5492,5400,1024,620,388
5224,5492,5404,1024,620,384
5216,5488,5396,1024,620,388
5216,5488,5396,1024,620,384
5216,5488,5392,1024,620,384
5212,5484,5392,1024,620,384
5216,5488,5396,1024,620,384
5216,5488,5400,1024,620,388
5216,5484,5392,1024,620,384
5216,5488,5396,1024,620,384
5216,5488,5396,1024,620,388
5216,5492,5400,1024,620,388
5216,5492,5396,1024,620,384
5216,5492,5396,1024,620,384
5220,5492,5400,1024,620,384
5220,5492,5404,1024,620,384
5220,5492,5404,1024,620,388
5220,5492,5404,1024,620,384
5224,5500,5412,1024,620,384
5224,5496,5408,1024,620,384
5224,5500,5412,1024,620,384
5224,5496,5408,1024,620,388
5220,5492,5404,1024,620,384
5220,5492,5404,1024,620,384
5220,5492,5404,1024,620,384
5220,5492,5400,1024,620,388
5216,5484,5392,1024,620,384
5216,5480,5392,1024,620,384
5216,5480,5392,1024,620,384
5216,5476,5388,1024,620,388
5212,5476,5388,1024,620,384
5216,5476,5392,1024,620,384
5212,5472,5384,1024,620,384
5212,5472,5388,1024,620,384
5212,5468,5384,1024,620,384
5212,5472,5388,1024,620,384
5212,5468,5384,1024,620,384
5216,5476,5392,1024,620,388
5216,5476,5388,1024,620,384
5212,5468,5384,1024,620,384
5212,5476,5388,1024,620,384
5212,5472,5388,1024,620,388
5212,5472,5384,1024,620,384
5212,5476,5388,1024,620,384
5212,5476,5388,1024,620,384
5216,5480,5392,1024,620,384
5220,5488,5396,1024,620,384
5216,5488,5396,1024,620,388
5216,5484,5396,1024,620,388
5220,5492,5400,1024,620,384
5224,5492,5404,1024,620,388
5220,5492,5404,1024,620,384
5220,5492,5400,1024,620,384
5220,5492,5404,1024,620,384
5220,5492,5400,1024,620,384
5216,5492,5400,1024,620,384
5220,5492,5396,1024,620,384
5216,5484,5392,1024,620,384
5212,5476,5388,1024,620,384
5212,5476,5388,1024,620,384
5212,5472,5384,1024,620,388
5212,5468,5384,1024,620,384
5208,5464,5380,1024,620,384
5208,5464,5380,1024,620,384
5208,5460,5376,1024,620,388
5208,5456,5376,1024,620,388
5208,5460,5380,1024,620,388
5212,5460,5380,1024,620,388
5208,5456,5376,1024,620,384
5208,5456,5376,1024,620,388
5208,5460,5380,1024,620,384
5208,5456,5376,1024,620,384
5204,5456,5372,1024,620,384
5208,5456,5376,1024,620,388
5212,5464,5380,1024,620,388
5208,5456,5376,1024,620,388
5208,5460,5380,1024,620,388
5208,5460,5380,1024,620,384
5204,5460,5376,1024,620,384
5208,5464,5380,1024,620,388
5208,5468,5380,1024,620,388
5208,5468,5380,1024,620,388
5208,5468,5380,1024,620,384
5208,5468,5384,1024,620,388
5212,5472,5384,1024,620,384
5212,5472,5384,1024,620,388
5212,5476,5384,1024,620,388
5212,5476,5388,1024,620,388
5216,5484,5396,1024,620,388
5216,5488,5396,1024,620,388
5212,5480,5388,1024,620,388
5212,5480,5392,1024,620,388
5212,5476,5388,1024,620,388
5212,5472,5388,1024,620,388
5208,5468,5384,1024,620,388
5208,5464,5384,1024,620,388
5208,5460,5376,1024,620,388
5208,5460,5376,1024,620,388
5208,5456,5372,1024,620,384
5204,5452,5368,1024,620,388
5200,5444,5364,1024,620,388
5204,5452,5372,1024,620,388
5204,5448,5368,1024,620,384
5200,5448,5368,1024,620,388
5200,5444,5364,1024,620,388
5200,5444,5364,1024,620,388
5204,5448,5368,1024,620,388
5204,5448,5368,1024,620,384
5200,5448,5364,1024,620,388
5200,5448,5368,1024,620,388
5200,5448,5368,1024,620,388
5204,5452,5372,1024,620,388
5200,5452,5368,1024,620,388
5200,5452,5368,1024,620,388
5204,5456,5372,1024,620,388
5200,5452,5368,1024,620,384
5200,5452,5368,1024,620,388
5200,5452,5368,1024,620,388
5200,5456,5368,1024,620,388
5200,5456,5368,1024,620,384
5204,5460,5372,1024,620,384
5204,5464,5376,1024,620,388
5204,5464,5376,1024,620,388
5208,5468,5380,1024,620,384
5204,5460,5376,1024,620,384
5204,5456,5376,1024,620,388
5200,5452,5368,1024,620,388
5200,5448,5368,1024,620,388
5200,5448,5368,1024,620,384
5196,5440,5360,1024,620,384
5192,5436,5356,1024,620,384
5192,5436,5356,1024,620,384
5188,5428,5352,1024,620,384
5192,5432,5352,1024,620,388
5192,5428,5348,1024,620,388
5192,5428,5352,1024,620,384
5192,5428,5352,1024,620,384
5188,5424,5352,1024,620,384
5188,5428,5348,1024,620,388
5192,5432,5352,1024,620,388
5192,5428,5352,1024,620,384
5188,5424,5352,1024,620,388
5188,5428,5348,1024,620,388
5192,5428,5352,1024,620,384
5188,5428,5348,1024,620,388
5192,5428,5348,1024,620,384
5188,5428,5348,1024,620,388
5188,5428,5352,1024,620,388
5188,5432,5348,1024,620,388
5188,5432,5352,1024,620,388
5188,5432,5352,1024,620,388
5188,5432,5352,1024,620,384
5192,5440,5356,1024,620,388
5192,5440,5356,1024,620,388
5192,5444,5360,1024,620,388
5196,5448,5368,1024,620,388
5196,5448,5364,1024,620,388
5196,5448,5364,1024,620,384
5192,5436,5356,1024,620,388
5188,5432,5348,1024,620,384
5188,5428,5348,1024,620,384
5184,5424,5344,1024,620,384
5184,5420,5340,1024,620,384
5184,5416,5340,1024,620,384
5184,5416,5340,1024,620,384
5180,5412,5336,1024,620,384
5180,5412,5336,1024,620,388
5180,5412,5336,1024,620,388
5184,5416,5340,1024,620,388
5184,5416,5344,1024,620,388
5188,5420,5344,1024,620,388
5188,5416,5344,1024,620,384
5184,5416,5344,1024,620,388
5184,5416,5340,1024,620,388
5188,5420,5344,1024,620,388
5188,5420,5344,1024,620,388
5188,5424,5348,1024,620,384
5188,5424,5344,1024,620,388
5184,5424,5344,1024,620,388
5184,5424,5344,1024,620,384
5188,5428,5348,1024,620,388
5192,5432,5352,1024,620,388
5196,5440,5360,1024,620,388
5192,5436,5356,1024,620,388
5196,5440,5356,1024,620,388
5196,5440,5360,1024,620,388
5192,5440,5356,1024,620,388
5192,5444,5360,1024,620,388
5196,5444,5360,1024,620,388
5192,5444,5360,1024,620,388
5196,5452,5364,1024,620,388
5196,5452,5368,1024,620,384
5192,5448,5364,1024,620,384
5196,5448,5364,1024,620,388
5192,5444,5360,1024,620,388
5192,5440,5356,1024,620,384
5188,5432,5352,1024,620,388
5192,5436,5356,1024,620,388
5192,5436,5356,1024,620,388
5188,5428,5348,1024,620,388
5184,5424,5348,1024,620,384
5184,5424,5344,1024,620,384
5188,5428,5352,1024,620,388
5188,5428,5348,1024,620,384
5184,5424,5344,1024,620,388
5188,5424,5348,1024,620,388
5188,5428,5348,1024,620,388
5188,5424,5344,1024,620,388
5188,5424,5344,1024,620,388
5188,5424,5348,1024,620,388
5192,5428,5352,1024,620,388
5188,5428,5352,1024,620,388
5192,5436,5356,1024,620,388
5192,5432,5356,1024,620,388
5188,5432,5352,1024,620,388
5188,5432,5356,1024,620,388
5192,5436,5356,1024,620,388
5192,5440,5360,1024,620,388
5192,5444,5360,1024,620,388
5188,5440,5356,1024,620,388
5192,5444,5360,1024,620,388
5188,5440,5356,1024,620,384
5192,5448,5360,1024,620,388
5192,5444,5360,1024,620,388
5196,5452,5368,1024,620,388
5196,5456,5368,1024,620,388
5200,5460,5372,1024,620,388
5196,5460,5372,1024,620,388
5200,5460,5372,1024,620,388
5196,5456,5372,1024,620,388
5196,5452,5368,1024,620,388
5192,5448,5360,1024,620,388
5192,5444,5360,1024,620,388
5188,5436,5352,1024,620,388
5188,5436,5356,1024,620,388
5188,5432,5352,1024,620,388
5188,5432,5348,1024,620,388
5184,5428,5348,1024,620,388
5184,5428,5348,1024,620,388
5188,5432,5348,1024,620,384
5184,5432,5352,1024,620,388
5184,5428,5348,1024,620,388
5184,5428,5348,1024,620,388
5184,5428,5348,1024,620,388
5180,5424,5344,1024,620,388
5180,5424,5344,1024,620,388
5180,5428,5344,1024,620,388
5184,5428,5344,1024,620,384
5184,5432,5348,1024,620,388
5184,5432,5348,1024,620,388
5184,5436,5348,1024,620,388
5184,5432,5348,1024,620,388
5184,5440,5352,1024,620,388
5184,5436,5352,1024,620,388
5184,5440,5352,1024,620,388
5188,5444,5356,1024,620,388
5188,5444,5356,1024,620,388
5184,5444,5352,1024,620,388
5184,5444,5356,1024,620,388
5188,5448,5360,1024,620,388
5188,5448,5360,1024,620,388
5188,5452,5360,1024,620,388
5188,5448,5360,1024,620,384
5188,5444,5356,1020,620,384
5184,5440,5356,1024,620,384
5184,5440,5352,1024,620,388
5184,5436,5348,1024,620,384
5180,5428,5344,1024,620,388
5180,5432,5348,1024,620,388
5180,5424,5344,1024,620,388
5180,5424,5344,1024,620,384
5176,5424,5340,1024,620,384
5180,5424,5340,1024,620,388
5180,5428,5344,1020,620,384
5180,5424,5344,1024,620,384
5180,5428,5344,1020,620,388
5180,5424,5344,1024,620,388
5180,5424,5340,1024,620,388
5176,5424,5340,1024,620,384
5176,5424,5344,1024,620,388
5180,5428,5340,1024,620,388
5176,5428,5340,1024,620,388
5180,5428,5344,1024,620,388
5180,5432,5344,1024,620,388
5176,5432,5344,1024,620,388
5180,5436,5348,1024,620,388
5180,5436,5348,1024,620,388
5180,5436,5348,1024,620,388
5184,5444,5352,1024,620,384
5184,5444,5356,1024,620,388
5184,5448,5356,1024,620,388
5188,5452,5364,1024,620,388
5188,5456,5364,1024,620,388
5192,5460,5368,1024,620,388
5192,5460,5368,1024,620,388
5188,5456,5364,1024,620,388
5192,5460,5368,1024,620,388
5188,5452,5360,1024,620,388
5184,5444,5356,1024,620,388
5184,5444,5356,1024,620,388
5184,5444,5352,1024,620,388
5180,5436,5348,1024,620,388
5180,5436,5348,1024,620,388
5184,5440,5352,1024,620,388
5184,5436,5352,1024,620,388
5184,5440,5352,1024,620,388
5184,5444,5352,1024,620,388
5184,5440,5352,1024,620,388
5184,5440,5352,1024,620,388
5184,5440,5352,1024,620,388
5184,5440,5356,1024,620,388
5180,5440,5352,1024,620,388
5184,5444,5356,1024,620,388
5188,5448,5356,1024,620,388
5184,5448,5356,1024,620,388
5188,5452,5360,1024,620,388
5188,5452,5360,1024,620,388
5188,5456,5364,1024,620,388
5188,5456,5364,1024,620,388
5188,5460,5368,1024,620,388
5192,5464,5368,1024,620,388
5192,5464,5372,1024,620,388
5192,5464,5368,1024,620,388
5192,5472,5376,1024,620,388
5192,5472,5376,1024,620,388
5196,5476,5376,1024,620,388
5196,5480,5384,1024,620,388
5200,5484,5384,1024,620,388
5200,5492,5388,1024,620,388
5200,5488,5388,1024,620,388
5208,5492,5392,1024,620,388
5208,5492,5396,1024,620,388
5200,5488,5388,1024,620,388
5200,5484,5384,1024,620,388
5200,5480,5380,1024,620,388
5200,5480,5384,1024,620,388
5200,5476,5380,1024,620,388
5200,5476,5380,1024,620,388
5200,5476,5380,1024,620,388
5196,5472,5376,1024,620,388
5196,5476,5380,1024,620,388
5200,5476,5380,1024,620,388
5200,5476,5380,1024,620,388
5196,5472,5376,1024,620,388
5200,5476,5380,1024,620,388
5196,5476,5376,1024,620,388
5200,5476,5380,1024,620,388
5200,5480,5380,1024,620,388
5200,5480,5380,1024,620,388
5196,5480,5380,1024,620,388
5200,5484,5384,1024,620,388
5200,5488,5388,1024,620,388
5200,5488,5388,1024,620,388
5204,5492,5392,1024,620,388
5200,5488,5384,1024,620,384
5204,5492,5392,1024,620,388
5204,5492,5392,1024,620,388
5200,5492,5388,1024,620,388
5204,5492,5392,1024,620,388
5204,5492,5396,1024,620,388
5204,5496,5400,1024,620,388
5204,5496,5400,1024,620,388
5204,5500,5400,1024,620,388
5208,5504,5400,1024,620,388
5208,5508,5404,1024,620,388
5212,5512,5408,1024,620,388
5212,5512,5408,1024,620,388
5212,5508,5408,1024,620,388
5212,5508,5404,1024,620,388
5208,5500,5404,1024,620,388
5208,5500,5400,1024,620,388
5204,5492,5396,1024,620,388
5204,5492,5392,1024,620,384
5204,5492,5396,1024,620,388
5204,5492,5396,1024,620,388
5204,5492,5396,1024,620,388
5204,5492,5392,1024,620,388
5204,5492,5396,1024,620,388
5204,5492,5392,1024,620,388
5204,5492,5396,1024,620,388
5204,5492,5396,1024,620,388
5204,5492,5396,1024,620,388
5204,5492,5392,1024,620,388
5204,5492,5392,1024,620,388
5204,5492,5396,1024,620,388
5204,5492,5396,1024,620,388
5208,5496,5400,1024,620,388
5204,5496,5396,1024,620,388
5208,5500,5400,1024,620,388
5208,5500,5400,1024,620,388
5204,5500,5400,1024,620,388
5208,5508,5404,1024,620,388
5208,5508,5404,1024,620,388
5208,5512,5404,1024,620,388
5208,5512,5408,1024,620,388
5212,5516,5412,1024,620,388
5212,5516,5408,1024,620,388
5208,5516,5408,1024,620,388
5212,5520,5412,1024,620,388
5212,5520,5412,1024,620,388
5208,5512,5408,1024,620,388
5204,5508,5400,1024,620,388
5204,5504,5404,1024,620,388
5208,5508,5404,1024,620,388
5204,5504,5400,1024,620,388
5204,5492,5396,1024,620,388
5204,5500,5400,1024,620,388
5204,5496,5396,1024,620,388
5204,5496,5396,1024,620,388
5204,5496,5396,1024,620,388
5204,5496,5396,1024,620,388
5200,5496,5396,1024,620,388
5200,5492,5392,1024,620,388
5200,5496,5396,1024,620,388
5204,5492,5396,1024,620,388
5200,5492,5392,1024,620,388
5204,5496,5396,1024,620,388
5204,5496,5396,1024,620,388
5200,5496,5396,1024,620,388
5204,5500,5396,1024,620,388
5204,5500,5400,1024,620,388
5204,5504,5400,1024,620,388
5200,5496,5396,1024,620,388
5204,5508,5404,1024,620,388
5204,5512,5404,1024,620,388
5208,5512,5408,1024,620,388
5208,5516,5408,1024,620,388
5208,5516,5408,1024,620,388
5204,5516,5408,1024,620,388
5204,5516,5404,1024,620,388
5204,5516,5404,1024,620,388
5208,5516,5408,1024,620,388
5204,5512,5404,1024,620,388
5204,5508,5400,1024,620,388
5204,5504,5400,1024,620,388
5200,5496,5396,1024,620,388
5200,5492,5392,1024,620,388
5196,5492,5388,1024,620,388
5196,5492,5388,1024,620,388
5196,5492,5388,1024,620,388
5196,5492,5392,1024,620,388
5196,5492,5388,1024,620,388
5196,5492,5388,1024,620,388
5196,5492,5388,1024,620,388
5200,5492,5392,1024,620,388
5196,5492,5388,1024,620,388
5196,5492,5388,1024,620,388
5200,5496,5396,1024,620,388
5200,5492,5396,1024,620,388
5204,5496,5396,1024,620,388
5200,5492,5392,1024,620,388
5204,5500,5400,1024,620,388
5200,5500,5396,1024,620,388
5200,5504,5396,1024,620,384
5200,5504,5396,1024,620,388
5200,5504,5396,1024,620,388
5200,5504,5400,1024,620,388
5200,5508,5396,1024,620,388
5204,5512,5404,1024,620,388
5200,5512,5404,1024,620,388
5204,5516,5408,1024,620,388
5204,5516,5404,1024,620,388
5204,5520,5408,1024,620,388
5204,5520,5412,1024,620,388
5204,5520,5408,1024,620,384
5204,5516,5404,1024,620,388
5204,5512,5404,1024,620,384
5204,5512,5404,1024,620,388
5204,5508,5404,1024,620,388
5200,5504,5400,1024,620,388
5200,5500,5396,1024,620,388
5200,5496,5396,1024,620,388
5200,5496,5396,1024,620,384
5196,5492,5392,1024,620,388
5200,5492,5392,1024,620,388
5200,5492,5392,1024,620,388
5196,5492,5392,1024,620,388
5196,5492,5392,1024,620,388
5196,5496,5392,1024,620,388
5196,5492,5392,1024,620,388
5196,5492,5388,1024,620,384
5196,5496,5392,1024,620,388
5196,5492,5392,1024,620,388
5200,5496,5396,1024,620,388
5200,5500,5396,1024,620,388
5200,5500,5396,1024,620,388
5204,5508,5400,1024,620,388
5200,5508,5400,1024,620,388
5204,5516,5404,1024,620,388
5204,5516,5404,1024,620,388
5208,5520,5408,1024,620,388
5208,5520,5412,1024,620,384
5208,5520,5412,1024,620,388
5204,5520,5412,1024,620,388
5204,5524,5412,1024,620,388
5208,5528,5416,1024,620,388
5208,5532,5416,1024,620,388
5204,5524,5412,1024,620,388
5208,5524,5408,1024,620,384
5204,5520,5404,1024,620,388
5204,5516,5404,1024,620,388
5200,5508,5400,1024,620,388
5204,5508,5404,1024,620,388
5204,5508,5404,1024,620,388
5200,5504,5400,1024,620,388
5204,5508,5404,1024,620,388
5200,5500,5396,1024,620,388
5200,5500,5396,1024,620,388
5196,5496,5392,1024,620,388
5200,5500,5396,1024,620,388
5200,5500,5396,1020,620,384
5200,5496,5396,1024,620,384
5196,5496,5396,1024,620,388
5200,5500,5396,1024,620,388
5200,5500,5396,1024,620,384
5196,5496,5392,1024,620,388
5200,5496,5396,1024,620,388
5196,5500,5396,1024,620,384
5200,5500,5396,1024,620,388
5200,5504,5400,1024,620,384
5200,5504,5400,1024,620,388
5200,5508,5400,1024,620,384
5200,5512,5404,1024,620,388
5200,5512,5404,1024,620,388
5200,5512,5400,1024,620,384
5204,5516,5404,1024,620,384
5204,5520,5412,1024,620,384
5204,5520,5408,1024,620,384
5204,5520,5408,1024,620,388
5200,5516,5408,1024,620,388
5204,5524,5408,1024,620,388
5204,5524,5412,1024,620,384
5200,5520,5408,1024,620,384
5204,5516,5408,1024,620,384
5200,5512,5404,1024,620,384
5196,5504,5396,1024,620,384
5200,5508,5404,1024,620,384
5196,5500,5396,1024,620,388
5196,5496,5396,1024,620,384
5196,5492,5392,1024,620,388
5192,5492,5388,1024,620,384
5192,5492,5388,1020,620,384
5192,5492,5388,1024,620,384
5196,5492,5392,1020,620,384
5196,5492,5392,1024,620,384
5192,5492,5388,1024,620,384
5192,5492,5388,1024,620,384
5188,5492,5384,1024,620,384
5192,5492,5384,1024,620,384
5192,5492,5388,1024,620,384
5192,5492,5384,1024,620,384
5192,5492,5388,1020,620,384
5192,5492,5384,1024,620,384
5192,5492,5388,1024,620,388
5196,5496,5392,1020,620,384
5196,5496,5396,1024,620,384
5196,5500,5392,1020,620,384
5196,5500,5396,1020,620,384
5192,5496,5392,1020,620,384
5196,5508,5400,1024,620,384
5200,5508,5400,1024,620,384
5196,5508,5400,1024,620,388
5200,5512,5400,1024,620,384
5196,5504,5400,1024,620,384
5192,5500,5392,1024,620,384
5192,5496,5392,1024,620,384
5188,5492,5384,1020,620,384
5188,5492,5384,1024,620,384
5188,5492,5380,1024,620,384
5184,5484,5376,1024,620,384
5184,5480,5376,1024,620,388
5180,5476,5368,1024,620,388
5180,5472,5368,1024,620,388
5180,5468,5364,1024,620,384
5180,5468,5364,1024,620,388
5180,5468,5368,1020,620,384
5180,5468,5364,1024,620,388
5180,5468,5364,1024,620,384
5180,5464,5364,1024,620,384
5180,5468,5364,1024,620,384
5176,5464,5360,1024,620,384
5176,5464,5364,1024,620,384
5176,5464,5360,1024,620,384
5176,5464,5360,1020,620,384
5180,5468,5364,1024,620,384
5180,5472,5368,1024,620,384
5180,5472,5368,1024,620,384
5184,5476,5372,1024,620,384
5180,5476,5372,1024,620,384
5184,5476,5372,1024,620,388
5180,5476,5372,1024,620,384
5180,5476,5368,1020,620,384
5180,5480,5372,1024,620,384
5180,5480,5372,1024,620,384
5184,5484,5372,1024,620,384
5184,5488,5380,1024,620,384
5184,5484,5372,1024,620,384
5184,5480,5372,1024,620,384
5180,5476,5372,1020,620,384
5180,5472,5368,1024,620,384
5176,5464,5364,1020,620,384
5176,5460,5360,1024,620,384
5176,5456,5356,1020,620,384
5176,5456,5356,1024,620,384
5176,5456,5356,1024,620,384
5176,5456,5360,1020,620,384
5176,5452,5356,1020,620,384
5172,5448,5352,1024,620,384
5176,5452,5356,1020,620,384
5172,5448,5352,1020,620,384
5176,5452,5352,1020,620,384
5172,5444,5348,1020,620,384
5176,5448,5352,1020,620,384
5176,5448,5352,1020,620,384
5172,5448,5352,1020,620,384
5176,5452,5352,1020,620,384
5172,5448,5352,1020,616,384
5176,5452,5356,1020,620,384
5172,5452,5352,1024,620,384
5172,5452,5352,1020,620,384
5172,5452,5352,1020,620,384
5176,5460,5356,1020,620,384
5176,5456,5356,1024,620,384
5176,5464,5360,1020,620,384
5184,5468,5368,1024,620,384
5184,5468,5368,1024,620,384
5180,5472,5368,1020,620,384
5184,5476,5372,1024,620,384
5184,5476,5372,1020,620,384
5188,5480,5376,1020,620,384
5188,5484,5380,1020,620,384
5188,5480,5376,1020,620,384
5188,5480,5372,1020,620,384
5188,5476,5372,1020,620,384
5184,5472,5372,1020,620,384
5180,5464,5364,1020,620,384
5180,5460,5360,1024,620,384
5176,5456,5356,1024,620,384
5176,5452,5356,1024,620,384
5172,5448,5348,1024,620,384
5176,5448,5352,1024,620,384
5176,5448,5348,1024,620,384
5172,5444,5348,1020,620,384
5172,5440,5344,1024,620,384
5172,5440,5348,1024,620,384
5176,5444,5348,1024,620,384
5176,5444,5348,1020,616,384
5172,5444,5348,1024,620,384
5172,5444,5348,1020,616,384
5176,5444,5348,1024,620,384
5172,5440,5348,1024,620,384
5176,5444,5348,1024,620,384
5176,5444,5348,1020,620,384
5176,5448,5352,1020,620,384
5172,5444,5352,1020,616,384
5172,5448,5348,1024,620,384
5172,5448,5348,1020,620,384
5176,5452,5352,1020,616,384
5176,5452,5352,1024,620,384
5176,5456,5356,1024,620,384
5180,5460,5360,1024,620,384
5180,5460,5360,1024,620,384
5180,5464,5364,1024,620,384
5180,5464,5360,1024,620,384
5176,5464,5360,1020,620,384
5180,5468,5364,1024,620,384
5180,5468,5364,1024,620,384
5180,5472,5368,1024,620,384
5180,5472,5368,1024,620,384
5184,5472,5368,1024,620,384
5180,5468,5364,1024,620,384
5180,5464,5360,1024,620,384
5180,5464,5360,1024,620,384
5176,5456,5356,1024,620,384
5176,5452,5352,1024,620,384
5176,5448,5352,1024,620,384
5172,5444,5344,1024,620,384
5172,5444,5348,1024,620,384
5172,5440,5344,1024,620,384
5172,5440,5344,1024,620,384
5172,5440,5344,1024,620,384
5172,5436,5344,1024,620,384
5168,5436,5344,1024,620,384
5168,5432,5340,1024,620,384
5168,5436,5340,1024,620,384
5168,5432,5340,1024,620,384
5172,5436,5340,1024,620,384
5168,5436,5340,1024,620,384
5168,5432,5340,1024,620,384
5168,5432,5336,1020,616,384
5172,5436,5340,1024,620,388
5168,5436,5340,1024,620,384
5172,5440,5344,1024,620,384
5168,5440,5340,1024,620,384
5172,5444,5348,1020,620,384
5172,5444,5348,1024,620,384
5172,5444,5344,1024,620,384
5168,5440,5344,1024,620,384
5172,5444,5348,1024,620,384
5172,5444,5344,1024,620,384
5172,5448,5348,1024,620,384
5172,5448,5348,1024,620,384
5172,5448,5348,1024,620,384
5172,5448,5348,1020,616,384
5168,5440,5344,1024,616,384
5168,5436,5340,1024,620,384
5168,5436,5340,1020,620,384
5168,5432,5336,1020,620,384
5164,5424,5328,1024,620,384
5164,5424,5328,1024,620,384
5160,5416,5328,1020,616,384
5164,5420,5328,1020,616,384
5164,5420,5328,1020,616,384
5164,5416,5324,1020,616,384
5160,5416,5324,1024,620,384
5164,5416,5328,1020,616,384
5160,5412,5324,1024,616,384
5160,5412,5324,1024,616,384
5160,5412,5324,1024,620,384
5160,5412,5324,1024,620,384
5160,5412,5320,1024,616,384
5160,5412,5324,1020,616,384
5160,5412,5324,1020,616,384
5164,5416,5324,1024,620,384
5160,5416,5324,1020,616,384
5164,5420,5328,1020,616,384
5160,5420,5324,1024,620,384
5160,5416,5324,1024,620,384
5168,5428,5332,1024,620,384
5168,5432,5336,1024,620,384
5168,5432,5340,1024,616,384
5164,5428,5336,1024,616,384
5168,5432,5336,1024,620,384
5164,5432,5336,1020,616,384
5168,5436,5340,1024,616,384
5168,5436,5340,1020,616,384
5172,5440,5344,1020,616,384
5172,5444,5344,1020,616,384
5172,5440,5344,1024,620,384
5172,5440,5344,1020,616,384
5168,5432,5336,1020,616,384
5168,5432,5340,1020,616,384
5164,5424,5332,1020,616,384
5164,5420,5328,1024,620,384
5160,5416,5328,1024,620,384
5160,5416,5324,1020,616,384
5160,5412,5324,1024,616,384
5156,5408,5320,1020,616,384
5156,5408,5316,1020,616,384
5160,5408,5320,1020,616,384
5160,5412,5320,1020,616,384
5160,5408,5320,1020,616,384
5160,5408,5320,1020,616,384
5160,5412,5324,1020,616,384
5160,5408,5324,1020,616,384
5160,5412,5324,1020,616,384
5160,5412,5320,1024,616,384
5160,5412,5320,1020,616,384
5160,5412,5324,1020,616,384
5164,5416,5328,1020,616,384
5160,5416,5324,1020,616,384
5164,5420,5328,1020,616,384
5164,5424,5332,1020,616,384
5168,5428,5336,1024,620,384
5168,5428,5336,1020,616,384
5168,5432,5336,1020,616,384
5168,5432,5336,1024,620,384
5168,5436,5340,1024,620,384
5172,5440,5344,1024,620,384
5168,5440,5344,1020,616,384
5172,5444,5344,1024,616,384
5168,5440,5344,1024,620,384
5176,5452,5352,1024,620,384
5176,5452,5352,1024,620,384
5180,5460,5360,1024,620,384
5180,5456,5356,1024,620,384
5176,5452,5352,1024,620,384
5172,5444,5348,1024,620,384
5172,5440,5344,1024,616,384
5172,5436,5340,1024,620,384
5172,5436,5340,1024,620,384
5168,5432,5340,1024,620,384
5168,5428,5336,1024,620,384
5168,5428,5336,1024,620,384
5164,5424,5332,1024,620,384
5164,5424,5332,1024,616,384
5168,5424,5332,1024,616,384
5168,5424,5332,1024,616,384
5164,5420,5328,1024,620,384
5164,5424,5332,1020,616,384
5164,5420,5328,1024,620,384
5164,5424,5332,1024,620,384
5164,5424,5332,1024,616,384
5164,5424,5332,1024,620,384
5164,5424,5332,1024,616,384
5168,5428,5332,1024,616,384
5168,5428,5336,1020,616,384
5168,5428,5336,1020,616,384
5172,5436,5340,1024,620,384
5172,5436,5344,1024,620,384
5168,5432,5344,1020,616,384
5168,5436,5344,1024,616,384
5176,5444,5348,1020,616,384
5176,5444,5348,1024,620,384
5172,5444,5348,1024,616,384
5172,5444,5348,1024,620,384
5172,5448,5348,1024,620,384
5172,5448,5352,1024,620,384
5172,5448,5348,1024,620,384
5176,5452,5352,1024,620,384
5172,5448,5352,1024,620,384
5172,5448,5352,1024,620,384
5168,5444,5344,1024,620,384
5168,5440,5344,1024,620,384
5164,5432,5336,1024,620,384
5168,5432,5336,1024,620,384
5164,5424,5328,1024,620,384
5160,5420,5328,1024,620,384
5164,5420,5328,1024,620,384
5164,5420,5328,1024,620,384
5160,5420,5328,1024,620,384
5160,5416,5324,1024,620,384
5164,5420,5328,1024,620,384
5160,5416,5324,1024,620,384
5160,5412,5324,1024,620,384
5160,5412,5324,1024,620,384
5160,5416,5328,1024,620,384
5160,5416,5324,1024,620,384
5156,5412,5324,1024,620,384
5164,5416,5328,1024,620,384
5160,5416,5328,1024,620,384
5164,5420,5332,1024,620,384
5160,5416,5324,1024,620,384
5160,5416,5324,1024,620,384
5160,5420,5328,1020,616,384
5160,5420,5328,1020,616,384
5160,5424,5328,1020,616,384
5160,5424,5332,1020,616,384
5160,5424,5332,1020,616,384
5160,5428,5332,1020,620,384
5164,5428,5336,1024,620,384
5164,5428,5336,1020,620,384
5164,5428,5332,1024,620,384
5164,5432,5332,1024,620,384
5164,5428,5332,1024,620,384
5160,5424,5332,1024,620,384
5156,5416,5324,1020,620,384
5160,5416,5324,1020,620,384
5156,5412,5320,1024,620,384
5152,5404,5316,1020,616,384
5152,5404,5312,1020,616,384
5148,5396,5308,1024,620,384
5148,5396,5308,1024,620,384
5152,5400,5312,1024,620,384
5152,5400,5312,1024,620,384
5152,5400,5312,1024,620,384
5152,5396,5312,1024,620,384
5152,5396,5312,1020,616,384
5152,5396,5308,1020,616,384
5152,5396,5312,1024,620,384
5152,5396,5312,1020,616,384
5156,5400,5316,1020,616,384
5156,5404,5316,1020,616,384
5152,5400,5312,1020,616,384
5156,5404,5316,1020,616,384
5156,5404,5316,1020,616,384
5152,5404,5316,1024,620,384
5156,5404,5316,1020,620,384
5156,5408,5320,1020,616,384
5156,5412,5320,1020,616,384
5156,5412,5320,1024,620,384
5160,5416,5324,1020,620,384
5156,5416,5324,1024,620,384
5160,5420,5328,1020,616,384
5160,5424,5332,1020,620,384
5160,5424,5332,1024,620,384
5164,5428,5336,1024,620,384
5160,5428,5332,1024,620,384
5160,5428,5332,1024,620,384
5160,5428,5332,1020,620,384
5156,5420,5324,1020,620,384
5156,5416,5324,1024,620,384
5152,5408,5316,1024,620,384
5152,5408,5316,1024,620,384
5152,5404,5316,1024,620,384
5156,5404,5316,1024,620,384
5152,5400,5312,1024,620,384
5152,5400,5312,1020,620,384
5156,5400,5316,1020,620,384
5152,5396,5312,1020,620,384
5152,5400,5312,1024,620,384
5148,5396,5308,1024,620,384
5152,5396,5308,1024,620,384
5148,5396,5308,1020,620,384
5148,5392,5308,1024,620,384
5148,5396,5308,1020,620,384
5152,5396,5308,1020,620,384
5148,5396,5308,1020,616,384
5152,5396,5308,1020,616,384
5152,5396,5312,1024,620,384
5156,5404,5316,1020,616,384
5152,5404,5316,1020,620,384
5152,5404,5316,1020,620,384
5156,5408,5316,1024,620,384
5152,5408,5316,1020,616,384
5156,5412,5324,1020,620,384
5156,5412,5320,1020,620,384
5156,5412,5320,1020,616,384
5156,5416,5324,1020,620,384
5156,5416,5324,1024,620,384
5156,5420,5324,1024,620,384
5156,5420,5324,1024,620,384
5156,5420,5328,1020,620,384
5160,5424,5328,1020,616,384
5164,5428,5336,1020,616,384
5160,5424,5328,1020,620,384
5156,5416,5324,1024,620,384
5152,5412,5320,1024,620,384
5148,5404,5316,1024,620,384
5152,5404,5312,1024,620,384
5148,5400,5308,1020,620,384
5148,5396,5308,1020,616,384
5148,5392,5308,1020,616,384
5144,5392,5304,1020,616,384
5144,5388,5300,1024,620,384
5144,5388,5300,1020,620,384
5148,5392,5304,1020,616,384
5144,5388,5300,1020,616,384
5144,5384,5300,1020,616,384
5140,5384,5296,1020,616,384
5144,5388,5300,1020,616,384
5140,5380,5296,1024,620,384
5140,5384,5296,1024,620,384
5140,5380,5296,1020,620,384
5136,5380,5292,1024,620,384
5140,5380,5296,1024,620,384
5140,5384,5296,1020,620,384
5144,5388,5300,1020,620,384
5140,5384,5300,1020,620,384
5140,5388,5300,1020,620,384
5140,5384,5296,1020,620,384
5144,5392,5304,1020,620,384
5140,5388,5300,1020,620,384
5140,5392,5300,1024,620,384
5144,5392,5304,1024,620,384
5144,5396,5308,1020,620,384
5140,5392,5300,1024,620,384
5140,5392,5304,1020,620,384
5144,5392,5300,1020,620,384
5136,5384,5296,1020,620,384
5136,5380,5292,1020,620,384
5136,5380,5292,1020,620,384
5132,5368,5284,1020,620,384
5128,5364,5280,1020,620,384
5128,5360,5280,1020,620,384
5124,5356,5272,1020,620,384
5124,5352,5272,1020,620,384
5124,5356,5272,1020,620,384
5124,5352,5272,1024,620,384
5124,5352,5272,1020,620,384
5124,5352,5268,1020,620,384
5124,5352,5272,1020,620,384
5124,5352,5272,1024,620,384
5124,5352,5272,1020,620,384
5124,5352,5272,1024,620,384
5124,5352,5272,1020,620,384
5120,5348,5268,1020,620,384
5124,5348,5268,1020,620,384
5132,5360,5280,1020,620,384
5124,5356,5272,1020,620,384
5128,5356,5276,1020,620,384
5124,5356,5276,1020,616,384
5128,5360,5276,1020,620,384
5128,5360,5280,1020,620,384
5128,5360,5276,1020,620,384
5128,5360,5276,1020,620,384
5128,5364,5280,1024,620,384
5128,5364,5280,1020,620,384
5128,5368,5284,1020,620,384
5132,5372,5284,1020,620,384
5128,5372,5284,1024,620,384
5124,5364,5280,1020,620,384
5124,5360,5276,1020,620,384
5124,5360,5276,1020,620,384
5124,5356,5272,1020,620,384
5120,5352,5272,1020,620,384
5120,5344,5264,1020,620,384
5116,5340,5260,1024,620,388
5116,5336,5256,1020,620,384
5116,5336,5256,1020,620,384
5116,5340,5260,1020,620,384
5116,5340,5260,1020,620,384
5120,5340,5260,1020,616,384
5116,5336,5260,1020,616,384
5120,5340,5264,1020,616,384
5116,5336,5260,1020,620,384
5116,5336,5256,1020,620,384
5120,5340,5264,1020,620,384
5120,5340,5260,1020,620,384
5116,5336,5260,1020,620,384
5120,5340,5264,1020,620,384
5116,5340,5260,1020,620,384
5116,5340,5260,1024,620,384
5120,5344,5264,1020,620,384
5120,5344,5264,1020,620,384
5120,5348,5268,1020,620,384
5120,5352,5268,1020,620,384
5128,5356,5276,1024,620,384
5128,5356,5276,1020,620,384
5128,5360,5280,1020,620,384
5128,5364,5280,1024,620,384
5128,5364,5280,1024,620,384
5128,5368,5284,1020,620,384
5132,5372,5284,1020,620,384
5132,5372,5288,1020,620,384
5132,5372,5288,1024,620,384
5132,5372,5288,1020,620,384
5132,5372,5288,1020,620,384
5128,5364,5284,1024,620,388
5128,5364,5280,1024,620,388
5124,5356,5276,1024,620,384
5124,5356,5272,1024,620,384
5124,5352,5272,1024,620,388
5124,5348,5268,1024,620,388
5120,5344,5264,1020,620,384
5124,5344,5268,1024,620,388
5116,5340,5260,1020,620,384
5120,5340,5260,1020,620,384
5120,5340,5264,1020,620,384
5120,5340,5264,1024,620,384
5124,5344,5268,1024,620,384
5120,5340,5264,1020,620,384
5124,5340,5268,1020,620,384
5124,5344,5264,1024,620,388
5120,5340,5264,1020,620,384
5120,5340,5264,1020,620,384
5116,5340,5260,1024,620,388
5120,5340,5264,1020,620,384
5124,5344,5268,1024,620,384
5124,5344,5268,1020,620,384
5124,5348,5268,1020,620,384
5124,5352,5272,1020,620,384
5124,5352,5272,1020,616,384
5124,5352,5272,1020,620,384
5120,5348,5268,1020,620,384
5120,5352,5272,1020,620,384
5124,5356,5276,1020,620,384
5124,5356,5272,1020,620,384
5124,5356,5276,1020,620,384
5128,5364,5280,1020,620,384
5128,5364,5284,1020,620,384
5128,5368,5280,1020,620,384
5128,5364,5280,1020,620,384
5128,5364,5280,1020,620,384
5124,5360,5276,1020,620,384
5124,5356,5272,1024,620,384
5120,5348,5268,1020,620,384
5120,5344,5264,1020,620,384
5120,5344,5264,1020,620,384
5120,5344,5264,1024,620,388
5116,5336,5260,1020,620,384
5116,5336,5256,1020,620,384
5116,5336,5260,1024,620,388
5116,5332,5256,1020,620,384
5116,5332,5260,1020,620,384
5112,5328,5252,1020,616,384
5108,5324,5248,1020,616,384
5112,5328,5252,1020,620,384
5112,5328,5252,1020,616,384
5112,5328,5252,1020,620,384
5112,5328,5252,1020,616,384
5112,5328,5252,1020,616,384
5112,5328,5252,1020,620,384
5112,5328,5252,1020,616,384
5116,5332,5256,1020,620,384
5116,5336,5260,1020,620,384
5116,5332,5256,1020,620,384
5116,5340,5260,1020,620,384
5112,5332,5256,1020,620,384
5116,5336,5256,1020,620,384
5112,5336,5256,1020,620,384
5112,5336,5260,1020,620,384
5112,5336,5256,1020,620,384
5116,5344,5264,1020,620,384
5116,5344,5260,1020,620,384
5116,5344,5264,1020,620,384
5116,5348,5264,1020,620,384
5112,5340,5256,1020,620,384
5112,5332,5256,1020,620,384
5108,5328,5252,1020,620,384
5108,5324,5248,1020,620,384
5108,5320,5244,1020,620,384
5104,5320,5244,1020,620,384
5104,5316,5244,1020,620,384
5104,5312,5236,1020,616,384
5100,5308,5236,1020,616,384
5100,5304,5232,1020,616,384
5100,5308,5236,1020,620,384
5100,5308,5232,1020,620,384
5100,5304,5232,1020,616,384
5100,5304,5236,1020,620,384
5100,5304,5232,1020,620,388
5096,5304,5232,1020,616,384
5096,5300,5228,1020,616,384
5100,5304,5232,1020,620,384
5096,5304,5232,1020,616,384
5100,5304,5232,1020,616,384
5104,5312,5240,1020,616,384
5104,5312,5240,1020,620,384
5100,5312,5236,1020,616,384
5100,5308,5236,1020,620,388
5104,5312,5240,1020,620,384
5108,5320,5244,1020,620,384
5104,5320,5244,1020,616,384
5108,5324,5248,1020,616,384
5108,5328,5248,1020,620,384
5108,5328,5248,1020,616,384
5108,5328,5252,1020,620,384
5108,5332,5248,1020,620,384
5108,5332,5252,1020,620,384
5108,5332,5252,1020,616,384
5112,5336,5256,1020,616,384
5108,5332,5252,1020,616,384
5112,5336,5256,1020,616,384
5108,5328,5252,1020,620,384
5104,5320,5244,1020,620,384
5100,5312,5236,1020,616,384
5100,5312,5236,1020,616,384
5100,5312,5236,1020,616,384
5096,5308,5236,1020,616,384
5096,5304,5228,1020,616,384
5100,5308,5232,1020,616,384
5100,5304,5232,1020,616,384
5100,5308,5236,1020,616,384
5100,5308,5232,1020,616,384
5104,5312,5236,1020,620,384
5104,5308,5236,1020,616,384
5100,5312,5236,1020,616,384
5104,5312,5236,1020,616,384
5100,5308,5236,1020,616,384
5104,5312,5236,1020,616,384
5104,5316,5240,1020,616,384
5104,5316,5240,1020,616,384
5108,5320,5244,1020,616,384
5104,5316,5240,1020,620,384
5108,5324,5248,1020,616,384
5104,5320,5244,1020,616,384
5108,5324,5248,1020,616,384
5108,5328,5252,1020,616,384
5112,5332,5252,1020,616,384
5108,5332,5252,1020,620,384
5112,5336,5256,1020,616,384
5112,5336,5256,1020,620,384
5116,5344,5264,1020,616,384
5116,5348,5264,1020,616,384
5120,5352,5268,1020,620,384
5112,5348,5264,1020,616,384
5116,5348,5264,1020,616,384
5116,5352,5264,1020,616,384
5116,5352,5268,1020,616,384
5116,5352,5268,1020,620,384
5112,5344,5260,1020,616,384
5112,5344,5264,1020,616,384
5108,5336,5252,1020,616,384
5108,5332,5252,1020,616,384
5108,5332,5252,1020,616,384
5108,5328,5248,1020,616,384
5108,5324,5248,1020,616,384
5104,5320,5244,1020,616,384
5104,5320,5244,1020,616,384
5104,5320,5240,1020,616,384
5104,5324,5244,1020,616,384
5104,5324,5244,1020,616,384
5104,5320,5244,1020,616,384
5104,5320,5244,1020,616,384
5100,5316,5240,1020,616,384
5100,5320,5240,1020,620,384
5100,5320,5240,1020,620,384
5100,5320,5244,1020,616,384
5100,5320,5240,1020,616,384
5100,5320,5240,1020,616,384
5104,5324,5244,1020,616,384
5104,5324,5244,1020,620,384
5104,5328,5244,1020,620,384
5104,5328,5248,1020,616,384
5104,5328,5248,1020,616,384
5108,5336,5252,1020,620,384
5108,5336,5256,1020,620,384
5108,5340,5256,1020,616,384
5104,5336,5252,1020,616,384
5108,5340,5256,1020,620,384
5108,5344,5256,1020,616,384
5112,5348,5260,1020,620,384
5112,5344,5260,1020,620,384
5108,5340,5256,1020,616,384
5104,5336,5252,1020,616,384
5104,5332,5248,1020,616,384
5100,5324,5244,1020,616,384
5100,5320,5240,1020,620,384
5096,5316,5236,1020,620,384
5092,5308,5228,1020,616,384
5096,5312,5232,1020,616,384
5092,5308,5232,1020,616,384
5092,5304,5228,1020,616,384
5092,5308,5228,1020,616,384
5092,5304,5228,1020,620,388
5096,5308,5228,1020,616,384
5096,5308,5232,1020,616,384
5092,5304,5228,1020,616,384
5096,5308,5232,1020,620,384
5096,5308,5232,1020,616,384
5096,5308,5232,1020,616,384
5096,5308,5232,1020,616,384
5096,5312,5236,1020,616,384
5096,5312,5232,1020,616,384
5096,5312,5232,1020,616,384
5096,5312,5232,1020,616,384
5096,5316,5236,1020,616,384
5096,5312,5236,1020,620,388
5100,5320,5240,1020,616,384
5100,5324,5240,1020,620,384
5100,5324,5244,1020,620,384
5100,5328,5244,1020,620,384
5104,5332,5248,1020,620,384
5104,5332,5252,1020,620,384
5108,5340,5256,1020,616,384
5108,5340,5256,1020,620,384
5108,5344,5256,1020,616,384
5112,5344,5260,1020,616,384
5108,5340,5256,1020,620,384
5108,5336,5256,1020,620,384
5104,5328,5244,1020,616,384
5104,5328,5244,1020,620,384
5096,5320,5236,1020,620,384
5100,5320,5240,1020,620,384
5096,5316,5236,1020,616,384
5096,5316,5236,1020,620,384
5096,5312,5232,1020,616,384
5092,5312,5232,1020,616,384
5100,5316,5236,1020,620,384
5096,5312,5232,1020,616,384
5096,5312,5232,1020,620,384
5096,5312,5232,1020,620,384
5096,5312,5232,1020,616,384
5100,5316,5236,1020,616,384
5100,5316,5236,1020,616,384
5100,5316,5236,1020,616,384
5100,5320,5236,1020,616,384
5096,5316,5236,1020,620,384
5100,5320,5240,1020,620,384
5100,5324,5244,1020,620,388
5100,5328,5244,1020,620,384
5104,5328,5248,1020,620,388
5108,5332,5252,1020,620,388
5108,5336,5252,1020,620,388
5104,5332,5248,1020,620,384
5104,5336,5252,1020,620,384
5104,5336,5252,1020,620,384
5108,5344,5260,1020,620,384
5104,5344,5256,1020,620,384
5108,5348,5260,1020,620,384
5112,5356,5268,1020,620,388
5112,5356,5268,1020,620,388
5116,5360,5272,1020,620,384
5116,5360,5272,1020,620,384
5116,5360,5272,1020,620,384
5112,5356,5268,1020,620,384
5112,5356,5264,1020,620,384
5108,5348,5260,1020,620,384
5108,5344,5256,1020,616,384
5108,5340,5256,1020,620,384
5108,5340,5252,1020,620,384
5104,5336,5252,1020,620,388
5104,5336,5252,1020,620,384
5108,5340,5256,1020,620,384
5104,5332,5252,1020,620,384
5108,5340,5256,1020,620,384
5108,5340,5252,1020,620,384
5108,5340,5256,1020,620,384
5108,5336,5252,1020,620,384
5104,5336,5252,1020,620,384
5104,5336,5252,1020,620,384
5108,5336,5252,1020,620,384
5108,5340,5256,1020,620,384
5104,5340,5256,1020,620,384
5104,5340,5252,1020,620,384
5108,5344,5256,1020,620,384
5108,5344,5256,1020,620,384
5108,5344,5260,1020,620,384
5112,5348,5264,1020,620,388
5108,5348,5264,1020,620,384
5112,5352,5264,1020,620,384
5112,5352,5264,1020,620,384
5108,5352,5260,1020,620,384
5108,5356,5264,1020,620,384
5108,5356,5268,1020,620,384
5112,5360,5268,1020,620,384
5112,5364,5268,1020,620,388
5116,5368,5272,1020,620,388
5116,5368,5276,1020,620,384
5116,5368,5276,1020,620,384
5116,5368,5276,1020,620,388
5116,5368,5272,1020,620,384
5112,5360,5264,1020,620,388
5108,5356,5264,1020,620,384
5108,5348,5260,1020,620,388
5108,5352,5264,1020,620,384
5104,5344,5256,1020,620,384
5104,5344,5256,1020,620,384
5104,5340,5256,1020,620,384
5104,5340,5252,1020,620,384
5104,5340,5252,1020,620,384
5100,5336,5248,1020,620,388
5104,5336,5252,1020,620,384
5104,5340,5252,1020,620,384
5104,5340,5252,1020,620,384
5100,5336,5248,1020,620,384
5100,5332,5248,1020,620,384
5100,5332,5248,1020,620,384
5100,5336,5248,1020,620,384
5100,5336,5248,1020,620,384
5100,5340,5248,1020,620,388
5104,5340,5252,1020,620,388
5104,5340,5252,1020,620,388
5104,5344,5252,1020,620,384
5104,5344,5252,1020,620,388
5104,5344,5252,1020,620,384
5104,5344,5256,1020,620,384
5104,5344,5256,1020,620,384
5104,5344,5256,1020,620,384
5104,5348,5256,1020,620,388
5104,5352,5256,1020,620,388
5104,5352,5260,1020,620,388
5100,5348,5256,1020,620,388
5104,5348,5256,1020,620,384
5100,5344,5252,1020,620,384
5104,5344,5252,1020,620,384
5100,5332,5244,1020,620,384
5096,5332,5244,1020,620,388
5100,5328,5248,1020,620,384
5096,5328,5244,1020,620,388
5096,5324,5240,1020,620,384
5096,5320,5236,1020,620,384
5092,5320,5236,1020,620,388
5092,5320,5236,1020,620,388
5092,5316,5232,1020,620,384
5092,5316,5236,1020,620,384
5096,5324,5240,1020,620,388
5092,5316,5232,1020,620,384
5092,5316,5232,1020,620,384
5092,5320,5236,1020,620,384
5096,5320,5236,1020,620,384
5096,5320,5240,1020,620,384
5092,5316,5236,1020,620,388
5096,5320,5240,1020,620,384
5096,5324,5240,1020,620,384
5096,5324,5240,1020,620,384
5096,5324,5240,1020,620,388
5096,5328,5240,1020,620,384
5096,5324,5240,1020,620,384
5096,5328,5244,1020,620,384
5100,5332,5248,1020,620,384
5096,5332,5244,1020,620,388
5100,5336,5248,1020,620,384
5100,5336,5248,1020,620,384
5100,5340,5252,1020,620,384
5096,5336,5248,1020,620,384
5100,5340,5252,1020,620,384
5100,5336,5248,1020,620,384
5100,5336,5248,1020,620,384
5092,5324,5240,1020,620,384
5092,5324,5240,1020,616,384
5096,5324,5240,1020,620,384
5096,5320,5240,1020,616,384
5092,5316,5232,1020,620,384
5092,5312,5228,1020,620,384
5092,5312,5232,1020,616,384
5092,5312,5232,1020,620,384
5092,5312,5228,1020,620,388
5092,5312,5232,1020,616,384
5092,5312,5228,1020,620,384
5092,5308,5228,1020,620,388
5092,5308,5228,1020,620,384
5092,5308,5228,1020,616,384
5092,5312,5232,1020,620,384
5096,5312,5232,1020,620,388
5092,5312,5232,1020,620,384
5096,5316,5236,1020,616,384
5092,5316,5236,1020,616,384
5096,5320,5240,1020,616,384
5096,5320,5236,1020,616,384
5100,5324,5240,1020,620,384
5100,5328,5244,1020,620,384
5100,5328,5244,1020,616,384
5104,5332,5248,1020,620,384
5104,5336,5252,1020,620,384
5104,5336,5252,1020,620,384
5104,5336,5252,1020,620,384
5104,5340,5252,1020,620,384
5104,5336,5252,1020,616,384
5100,5340,5248,1020,620,384
5104,5344,5256,1020,620,384
5104,5344,5256,1020,620,384
5104,5340,5252,1020,620,384
5104,5336,5248,1020,620,384
5104,5332,5248,1020,620,384
5100,5328,5244,1020,620,384
5100,5324,5240,1020,616,384
5100,5320,5240,1020,616,384
5096,5316,5232,1020,616,384
5096,5312,5232,1020,616,384
5092,5308,5228,1020,616,384
5092,5312,5232,1020,616,384
5092,5308,5228,1020,616,384
5092,5304,5228,1020,616,384
5092,5304,5228,1020,620,384
5092,5304,5228,1020,616,384
5092,5304,5228,1020,616,384
5088,5304,5224,1020,616,384
5088,5304,5224,1020,616,384
5088,5300,5224,1020,616,384
5092,5304,5224,1020,616,384
5088,5304,5224,1020,616,384
5092,5304,5228,1020,620,384
5088,5304,5228,1020,620,384
5092,5308,5228,1020,616,384
5092,5308,5228,1020,616,384
5092,5308,5228,1020,616,384
5096,5312,5236,1020,616,384
5092,5312,5232,1020,616,384
5092,5312,5232,1020,616,384
5092,5316,5232,1020,616,384
5096,5324,5240,1020,620,384
5096,5324,5240,1020,620,384
5100,5324,5244,1020,616,384
5100,5324,5240,1020,620,384
5096,5316,5232,1020,616,384
5092,5312,5228,1020,616,384
5088,5304,5228,1020,616,384
5088,5300,5224,1020,620,384
5084,5292,5216,1020,616,384
5084,5292,5216,1020,616,384
5084,5288,5216,1020,616,384
5080,5284,5212,1020,616,384
5084,5284,5212,1020,616,384
5080,5284,5208,1020,616,384
5080,5284,5208,1020,616,384
5080,5280,5208,1020,616,384
5080,5276,5204,1020,616,384
5080,5276,5204,1020,616,384
5080,5276,5208,1020,616,384
5080,5280,5208,1020,616,384
5080,5280,5208,1020,616,384
5080,5280,5208,1020,616,384
5080,5280,5204,1020,616,384
5080,5280,5208,1020,616,384
5080,5280,5208,1020,616,384
5084,5284,5212,1020,616,384
5080,5284,5208,1020,616,384
5084,5284,5212,1020,616,384
5080,5284,5208,1020,620,384
5080,5288,5212,1020,616,384
5084,5292,5216,1020,616,384
5084,5292,5216,1020,616,384
5080,5288,5212,1020,616,384
5084,5292,5216,1020,620,384
5088,5300,5224,1020,616,384
5084,5296,5220,1020,616,384
5084,5296,5220,1020,620,384
5084,5292,5220,1020,616,384
5084,5288,5216,1020,620,388
5080,5284,5208,1020,616,384
5076,5276,5204,1020,620,384
5076,5276,5200,1020,616,384
5076,5268,5200,1020,616,384
5072,5264,5196,1020,616,384
5072,5264,5192,1020,616,384
5072,5264,5192,1020,616,384
5072,5260,5192,1020,616,384
5076,5264,5196,1020,616,384
5076,5268,5200,1020,616,384
5076,5264,5196,1020,616,384
5076,5268,5200,1020,616,384
5076,5264,5196,1020,616,384
5076,5268,5200,1020,616,384
5076,5264,5196,1020,616,384
5076,5268,5196,1020,616,384
5076,5268,5200,1020,616,384
5076,5268,5200,1020,616,384
5076,5272,5200,1020,616,384
5076,5272,5204,1020,616,384
5076,5272,5200,1020,616,384
5080,5280,5208,1020,616,384
5076,5276,5204,1020,616,384
5076,5280,5208,1020,616,384
5080,5284,5208,1020,616,384
5080,5288,5212,1020,616,384
5080,5288,5212,1020,616,384
5084,5292,5212,1020,616,384
5084,5296,5216,1020,620,384
5084,5296,5220,1020,616,384
5088,5304,5224,1020,616,384
5088,5308,5224,1020,616,384
5088,5304,5224,1020,620,384
5088,5300,5220,1020,616,384
5088,5296,5224,1020,616,384
5084,5292,5216,1020,616,384
5084,5288,5212,1020,616,384
5080,5280,5204,1020,616,384
5076,5276,5204,1020,616,384
5076,5276,5204,1020,616,384
5076,5272,5200,1020,616,384
5076,5272,5200,1020,616,384
5076,5272,5200,1020,616,384
5076,5272,5200,1020,616,384
5076,5268,5200,1020,616,384
5076,5272,5204,1020,616,384
5080,5276,5204,1020,616,384
5076,5272,5200,1020,616,384
5080,5272,5204,1020,616,384
5080,5276,5204,1020,616,384
5076,5272,5204,1020,616,384
5076,5272,5200,1020,616,384
5076,5272,5200,1020,616,384
5076,5272,5200,1020,616,384
5076,5276,5204,1020,616,384
5076,5276,5200,1020,616,384
5076,5280,5204,1020,616,384
5076,5280,5204,1020,616,384
5076,5280,5204,1020,616,384
5080,5288,5212,1020,616,384
5084,5292,5216,1020,616,384
5084,5296,5216,1020,616,384
5084,5300,5220,1020,616,384
5088,5304,5224,1020,616,384
5088,5304,5224,1020,616,384
5088,5304,5224,1020,616,384
5088,5308,5224,1020,616,384
5088,5308,5228,1020,616,384
5088,5308,5224,1020,616,384
5084,5308,5224,1020,616,384
5084,5304,5220,1020,616,384
5080,5300,5216,1020,616,384
5084,5296,5216,1020,616,384
5080,5292,5212,1020,616,384
5076,5288,5208,1020,616,384
5076,5288,5208,1020,616,384
5076,5284,5204,1020,616,384
5076,5280,5204,1020,616,384
5072,5276,5200,1020,616,384
5072,5276,5200,1020,616,384
5072,5276,5200,1020,616,384
5072,5280,5204,1020,616,384
5076,5280,5204,1020,616,384
5072,5276,5200,1020,616,384
5076,5280,5204,1020,616,384
5076,5280,5204,1020,616,384
5072,5280,5204,1020,616,384
5072,5280,5204,1020,616,384
5072,5280,5200,1020,616,384
5072,5280,5200,1020,616,384
5072,5284,5200,1020,616,384
5072,5280,5200,1020,616,384
5076,5284,5208,1020,616,384
5076,5288,5208,1020,616,384
5072,5284,5204,1020,616,384
5072,5288,5208,1020,616,384
5072,5288,5208,1020,616,384
5076,5292,5212,1020,616,384
5076,5296,5212,1020,616,384
5080,5300,5216,1020,616,384
5080,5300,5216,1020,620,384
5080,5304,5220,1020,616,384
5076,5300,5216,1020,616,384
5076,5300,5216,1020,616,384
5076,5296,5212,1020,616,384
5076,5292,5212,1020,616,384
5072,5284,5204,1020,616,384
5072,5284,5204,1020,616,384
5068,5280,5200,1020,616,384
5068,5276,5200,1020,616,384
5068,5276,5196,1020,616,384
5068,5272,5196,1020,616,384
5068,5272,5196,1020,616,384
5068,5272,5196,1020,616,384
5064,5272,5192,1020,616,384
5068,5272,5196,1020,616,384
5068,5272,5192,1020,616,384
5068,5272,5196,1020,616,384
5064,5268,5192,1020,616,384
5064,5272,5192,1020,616,384
5068,5276,5196,1020,616,384
5064,5272,5192,1020,616,384
5064,5272,5192,1020,616,384
5068,5276,5200,1020,616,384
5072,5280,5204,1020,616,384
5072,5284,5204,1020,616,384
5068,5284,5204,1020,616,384
5072,5292,5208,1020,616,384
5072,5292,5208,1020,616,384
5072,5292,5208,1020,616,384
5072,5296,5212,1020,616,384
5072,5296,5212,1020,616,384
5076,5300,5212,1020,616,384
5076,5300,5216,1020,616,384
5076,5304,5220,1020,616,384
5076,5304,5220,1020,616,384
5076,5308,5220,1020,616,384
5076,5304,5220,1020,616,384
5076,5300,5212,1020,616,384
5072,5296,5212,1020,616,384
5072,5292,5208,1020,616,384
5072,5292,5208,1020,616,384
5072,5288,5208,1020,616,384
5068,5284,5200,1020,616,384
5068,5280,5200,1020,616,384
5064,5280,5196,1020,616,384
5064,5280,5196,1020,616,384
5068,5280,5200,1020,616,384
5068,5280,5200,1020,616,384
5068,5280,5196,1020,616,384
5068,5284,5200,1020,616,384
5072,5284,5204,1020,616,384
5068,5284,5200,1020,616,384
5068,5284,5200,1020,616,384
5068,5284,5200,1020,616,384
5068,5284,5200,1020,616,384
5068,5288,5204,1020,616,384
5072,5292,5208,1020,616,384
5068,5292,5208,1020,616,384
5072,5296,5212,1020,616,384
5072,5300,5212,1020,616,384
5072,5300,5212,1020,616,384
5076,5304,5216,1020,616,384
5076,5308,5220,1020,616,384
5076,5308,5220,1020,616,384
5080,5316,5224,1020,616,384
5084,5320,5228,1020,616,384
5084,5324,5228,1020,616,384
5084,5324,5228,1020,616,384
5080,5324,5232,1020,616,384
5088,5332,5240,1020,616,384
5088,5336,5240,1020,616,384
5088,5340,5240,1020,616,384
5092,5340,5244,1020,616,384
5088,5340,5244,1020,616,384
5088,5332,5240,1020,616,384
5084,5328,5236,1020,616,384
5084,5328,5236,1020,616,384
5080,5320,5228,1020,616,384
5080,5320,5228,1020,616,384
5080,5316,5224,1020,616,384
5080,5316,5228,1020,616,384
5076,5308,5220,1020,616,384
5076,5308,5220,1020,616,384
5080,5312,5224,1020,616,384
5076,5308,5220,1020,616,384
5072,5304,5216,1020,616,384
5076,5308,5220,1020,616,384
5076,5312,5220,1020,616,384
5076,5308,5220,1020,616,384
5076,5308,5220,1020,616,384
5076,5308,5220,1020,616,384
5076,5308,5220,1020,616,384
5080,5312,5224,1020,616,384
5080,5316,5228,1020,616,384
5084,5320,5228,1020,616,384
5080,5320,5228,1020,616,384
5084,5320,5228,1020,616,384
5084,5328,5236,1020,616,384
5080,5324,5228,1020,616,384
5084,5328,5236,1020,616,384
5088,5332,5236,1020,616,384
5088,5332,5240,1020,616,384
5088,5336,5240,1020,616,384
5088,5340,5240,1020,616,384
5088,5336,5240,1020,616,384
5088,5340,5244,1020,616,384
5088,5344,5244,1020,620,384
5092,5348,5248,1020,616,384
5088,5348,5248,1020,616,384
5092,5348,5248,1020,616,384
5096,5352,5252,1020,616,384
5092,5348,5248,1020,616,384
5088,5340,5244,1020,616,384
5084,5332,5236,1020,616,384
5088,5336,5240,1020,616,384
5084,5328,5232,1020,616,384
5080,5324,5232,1020,616,384
5080,5320,5228,1020,616,384
5080,5320,5228,1020,616,384
5080,5320,5228,1020,616,384
5076,5316,5224,1020,616,384
5080,5320,5224,1020,616,384
5080,5320,5228,1020,616,384
5080,5316,5224,1020,616,384
5076,5312,5224,1020,616,384
5076,5312,5220,1020,616,384
5076,5316,5224,1020,616,384
5076,5312,5220,1020,616,384
5076,5316,5220,1020,616,384
5076,5316,5228,1020,616,384
5080,5316,5224,1020,616,384
5080,5320,5224,1020,616,384
5076,5320,5224,1020,616,384
5080,5324,5224,1020,616,384
5080,5324,5228,1020,616,384
5076,5320,5228,1020,616,384
5076,5320,5224,1020,616,384
5080,5324,5232,1020,616,384
5080,5332,5236,1020,616,384
5080,5328,5232,1020,616,384
5084,5332,5236,1020,616,384
5080,5332,5232,1020,616,384
5084,5336,5240,1020,616,384
5080,5336,5236,1020,620,384
5084,5336,5236,1020,620,384
5080,5332,5232,1020,616,384
5080,5328,5228,1020,616,384
5076,5320,5224,1020,616,384
5072,5312,5220,1020,616,384
5072,5312,5216,1020,616,384
5068,5304,5212,1020,620,384
5068,5304,5212,1020,616,384
5072,5308,5216,1020,616,384
5068,5300,5208,1020,620,388
5068,5296,5208,1020,616,384
5072,5300,5212,1020,616,384
5068,5300,5212,1020,616,384
5068,5300,5212,1020,620,388
5068,5296,5208,1020,620,388
5068,5296,5208,1020,620,388
5068,5300,5212,1020,620,388
5064,5296,5204,1024,620,388
5064,5296,5208,1020,616,384
5064,5296,5208,1020,616,384
5064,5296,5208,1020,616,384
5064,5296,5208,1020,616,384
5064,5296,5204,1020,620,384
5068,5304,5212,1020,620,384
5068,5304,5212,1020,616,384
5064,5300,5208,1020,616,384
5068,5308,5216,1020,616,384
5068,5308,5212,1020,616,384
5068,5308,5216,1020,616,384
5068,5308,5216,1020,616,384
5072,5316,5220,1020,616,384
5076,5320,5224,1020,616,384
5072,5316,5220,1020,616,384
5076,5324,5228,1020,616,384
5072,5320,5224,1020,620,384
5072,5312,5216,1020,616,384
5068,5308,5216,1020,616,384
5068,5304,5212,1020,616,384
5064,5300,5208,1020,620,384
5064,5296,5204,1020,616,384
5064,5296,5204,1020,620,384
5064,5292,5200,1020,620,388
5064,5292,5204,1020,620,388
5060,5288,5200,1020,620,384
5060,5288,5200,1020,616,384
5064,5288,5204,1020,620,384
5064,5288,5200,1020,616,384
5060,5288,5200,1020,616,384
5060,5288,5200,1020,616,384
5064,5292,5204,1020,620,384
5064,5292,5204,1020,616,384
5064,5292,5204,1020,616,384
5068,5296,5208,1020,616,384
5064,5292,5204,1020,616,384
5064,5296,5208,1020,620,384
5064,5296,5204,1020,616,384
5068,5300,5212,1020,616,384
5068,5300,5212,1020,620,384
5072,5312,5220,1020,616,384
5076,5312,5220,1020,616,384
5076,5316,5224,1020,616,384
5076,5316,5224,1020,616,384
5076,5320,5224,1020,616,384
5080,5324,5228,1020,616,384
5080,5328,5232,1020,616,384
5080,5328,5232,1020,620,384
5080,5332,5232,1020,620,384
5080,5336,5236,1020,620,384
5080,5336,5236,1020,620,384
5080,5328,5232,1020,616,384
5080,5328,5228,1020,616,384
5076,5324,5232,1020,620,388
5076,5320,5224,1020,620,384
5076,5320,5224,1020,620,384
5076,5316,5224,1020,620,384
5072,5312,5220,1020,620,388
5076,5312,5220,1020,616,384
5072,5312,5220,1020,620,388
5072,5308,5220,1020,620,384
5076,5312,5220,1020,616,384
5076,5308,5220,1020,620,388
5072,5308,5216,1020,620,384
5068,5304,5212,1020,616,384
5072,5308,5216,1020,616,384
5072,5308,5216,1020,620,384
5072,5308,5216,1020,616,384
5072,5308,5216,1020,616,384
5072,5312,5216,1020,616,384
5076,5312,5224,1020,616,384
5076,5312,5220,1020,620,384
5076,5316,5224,1020,620,388
5072,5316,5220,1020,620,384
5076,5316,5224,1020,620,388
5080,5320,5228,1020,620,384
5080,5324,5228,1020,620,388
5080,5328,5232,1020,620,384
5080,5328,5232,1020,620,388
5080,5332,5236,1020,620,384
5084,5332,5236,1020,620,388
5084,5336,5240,1020,620,388
5080,5332,5232,1020,620,384
5080,5336,5236,1020,620,384
5080,5340,5236,1020,620,384
5084,5344,5240,1020,620,384
5088,5348,5244,1020,620,388
5084,5344,5240,1020,620,384
5080,5340,5240,1020,620,388
5080,5336,5236,1020,620,388
5076,5328,5232,1020,620,384
5076,5324,5224,1020,620,388
5076,5324,5228,1020,620,388
5072,5316,5220,1020,620,388
5076,5320,5224,1020,620,388
5072,5316,5220,1020,620,384
5072,5316,5220,1020,620,388
5072,5316,5224,1020,620,388
5072,5312,5220,1020,620,388
5072,5316,5220,1020,620,388
5076,5316,5224,1020,620,388
5076,5316,5224,1020,620,388
5076,5316,5224,1020,620,388
5072,5312,5220,1020,620,384
5072,5312,5220,1020,620,388
5072,5316,5224,1020,620,388
5068,5312,5216,1020,620,388
5072,5316,5224,1020,620,388
5072,5320,5224,1020,620,388
5072,5320,5224,1020,620,388
5068,5316,5220,1020,620,388
5072,5320,5224,1020,620,388
5072,5320,5224,1020,620,388
5072,5320,5220,1024,620,388
5072,5324,5224,1020,620,388
5076,5328,5228,1020,620,388
5076,5332,5232,1020,620,388
5076,5332,5232,1020,620,388
5076,5332,5232,1020,620,388
5076,5332,5232,1020,620,388
5076,5328,5228,1020,620,388
5072,5324,5224,1020,620,388
5072,5320,5224,1020,620,388
5072,5320,5224,1020,620,388
5072,5316,5220,1020,620,388
5068,5312,5220,1020,620,388
5068,5308,5216,1020,620,388
5068,5308,5212,1020,620,388
5064,5300,5212,1020,620,384
5064,5300,5208,1020,620,388
5064,5300,5208,1020,620,388
5064,5300,5208,1020,620,388
5064,5300,5212,1020,620,384
5064,5300,5212,1020,620,388
5060,5296,5204,1020,620,388
5064,5300,5208,1020,620,384
5060,5296,5208,1020,620,388
5064,5300,5208,1020,620,388
5064,5300,5208,1020,620,388
5064,5300,5212,1020,620,388
5068,5304,5212,1020,620,388
5068,5308,5212,1020,620,388
5068,5308,5216,1020,620,388
5064,5308,5216,1020,620,388
5068,5312,5216,1020,620,388
5068,5316,5220,1020,620,388
5072,5316,5220,1020,620,388
5068,5316,5220,1020,620,388
5072,5320,5224,1020,620,388
5072,5324,5224,1020,620,388
5072,5320,5224,1020,620,388
5072,5328,5228,1020,620,388
5072,5328,5228,1020,620,388
5076,5328,5228,1020,620,388
5076,5332,5232,1020,620,388
5072,5324,5224,1020,620,388
5068,5320,5220,1020,620,388
5068,5316,5220,1020,620,388
5068,5308,5216,1020,620,388
5064,5308,5212,1020,620,388
5064,5304,5212,1020,620,388
5064,5300,5208,1020,620,388
5064,5300,5212,1020,620,388
5064,5300,5208,1020,620,384
5064,5300,5208,1020,620,388
5064,5300,5208,1020,620,388
5064,5300,5208,1020,620,388
5064,5304,5208,1020,620,388
5064,5304,5212,1020,620,388
5072,5308,5216,1020,620,388
5068,5304,5212,1020,620,388
5064,5300,5208,1020,620,388
5068,5304,5212,1020,620,388
5068,5304,5212,1020,620,384
5072,5312,5216,1020,620,388
5068,5308,5216,1020,620,388
5068,5312,5216,1020,620,388
5072,5316,5224,1020,620,384
5072,5316,5220,1020,620,388
5068,5312,5220,1020,620,388
5068,5316,5220,1020,620,384
5068,5316,5220,1020,620,388
5072,5324,5228,1020,620,384
5076,5328,5228,1020,620,384
5080,5332,5236,1020,620,388
5076,5332,5232,1020,620,388
5080,5336,5236,1020,620,388
5080,5340,5236,1020,620,384
5080,5336,5236,1020,620,388
5076,5332,5232,1020,620,388
5072,5328,5228,1020,620,388
5072,5320,5224,1020,620,388
5076,5324,5228,1020,620,388
5072,5320,5224,1020,620,384
5072,5312,5220,1020,620,388
5064,5304,5212,1020,620,384
5064,5300,5208,1020,620,384
5068,5304,5212,1020,620,384
5064,5304,5208,1020,620,388
5068,5304,5212,1020,620,388
5068,5308,5216,1020,620,388
5068,5304,5212,1020,620,388
5072,5304,5216,1020,620,388
5068,5304,5216,1020,620,388
5072,5308,5220,1020,620,388
5072,5308,5216,1020,620,388
5072,5308,5216,1020,620,384
5072,5308,5216,1020,620,388
5068,5304,5216,1020,620,388
5072,5308,5216,1020,620,388
5068,5308,5216,1020,616,384
5072,5308,5216,1020,620,388
5072,5312,5216,1020,620,388
5072,5312,5220,1020,620,388
5076,5316,5220,1020,620,388
5072,5312,5220,1020,620,388
5072,5316,5220,1020,620,388
5072,5316,5220,1020,620,388
5072,5316,5220,1020,620,388
5072,5316,5224,1020,620,388
5072,5320,5224,1020,620,388
5072,5316,5220,1020,620,388
5068,5312,5216,1020,620,388
5068,5308,5212,1020,620,388
5064,5296,5208,1020,620,388
5064,5292,5204,1020,620,388
5060,5288,5204,1020,620,388
5060,5284,5196,1020,620,388
5060,5284,5196,1020,620,388
5060,5280,5196,1020,620,388
5060,5280,5196,1020,620,388
5060,5276,5192,1020,620,388
5056,5276,5192,1020,620,388
5056,5272,5188,1020,620,388
5056,5272,5188,1020,620,388
5056,5268,5188,1020,620,388
5052,5268,5180,1020,620,384
5056,5268,5184,1020,620,384
5056,5268,5188,1020,620,388
5052,5264,5184,1020,620,384
5056,5268,5184,1020,620,388
5056,5268,5184,1020,620,388
5056,5268,5184,1020,620,384
5056,5268,5188,1020,620,388
5056,5272,5192,1020,620,388
5052,5268,5184,1020,620,388
5056,5272,5188,1020,620,388
5056,5272,5188,1020,620,388
5056,5272,5188,1020,620,384
5056,5272,5188,1020,620,384
5056,5272,5188,1020,620,388
5052,5268,5188,1020,620,388
5052,5268,5184,1020,620,388
5052,5264,5180,1020,620,388
5048,5256,5176,1020,620,388
5048,5252,5176,1020,620,388
5048,5248,5172,1020,620,388
5048,5244,5168,1020,620,388
5044,5240,5164,1020,620,388
5044,5236,5160,1020,620,388
5044,5236,5164,1020,620,388
5044,5232,5160,1020,620,384
5044,5232,5160,1020,620,388
5044,5236,5164,1020,620,388
5040,5228,5156,1020,620,384
5044,5232,5160,1020,620,388
5044,5228,5160,1020,620,384
5044,5232,5160,1020,616,384
5040,5228,5156,1020,616,384
5040,5228,5152,1020,620,384
5040,5228,5156,1020,620,388
5044,5232,5160,1020,620,388
5044,5232,5160,1020,620,388
5044,5232,5160,1020,620,384
5044,5232,5160,1020,616,384
5044,5236,5160,1020,620,384
5040,5232,5160,1020,616,384
5044,5236,5160,1020,620,384
5048,5244,5168,1020,620,388
5044,5240,5164,1020,620,388
5048,5244,5168,1020,620,388
5048,5244,5168,1020,620,388
5048,5248,5172,1020,620,388
5048,5244,5168,1020,620,388
5048,5240,5164,1020,620,388
5044,5236,5164,1020,620,388
5044,5228,5156,1020,620,388
5044,5228,5156,1020,620,388
5040,5220,5152,1020,620,388
5040,5220,5152,1020,620,388
5036,5212,5148,1020,620,388
5036,5212,5148,1020,620,388
5036,5208,5140,1020,620,388
5040,5216,5148,1020,620,388
5040,5212,5148,1020,616,388
5040,5216,5148,1020,620,384
5040,5212,5152,1020,616,384
5040,5216,5148,1020,620,388
5040,5212,5144,1020,616,384
5040,5216,5148,1020,616,384
5044,5220,5152,1020,616,384
5048,5220,5156,1020,620,388
5048,5224,5156,1020,616,384
5048,5224,5156,1020,616,384
5044,5220,5156,1020,616,384
5044,5224,5152,1020,616,384
5048,5228,5160,1020,616,384
5048,5232,5160,1020,616,384
5052,5236,5164,1020,620,388
5052,5236,5164,1020,616,384
5052,5236,5168,1020,616,384
5056,5244,5172,1020,616,384
5056,5248,5172,1020,616,384
5056,5248,5176,1020,616,384
5056,5248,5176,1020,620,384
5060,5252,5176,1020,616,384
5060,5252,5180,1020,616,384
5060,5252,5176,1020,616,384
5056,5244,5172,1020,616,384
5056,5244,5172,1020,616,384
5052,5236,5168,1020,616,384
5052,5232,5160,1020,616,384
5048,5224,5160,1020,616,384
5048,5224,5156,1020,616,384
5048,5224,5160,1020,616,384
5048,5220,5156,1020,616,384
5048,5224,5160,1020,616,384
5048,5220,5156,1020,616,384
5048,5224,5156,1020,616,384
5048,5224,5160,1020,616,384
5052,5224,5160,1020,616,384
5048,5220,5156,1020,616,384
5052,5224,5160,1020,616,384
5052,5228,5160,1020,616,384
5052,5228,5160,1020,616,384
5052,5228,5160,1020,616,384
5052,5232,5164,1020,616,384
5056,5232,5168,1020,616,384
5056,5236,5164,1020,616,384
5060,5240,5172,1020,616,384
5060,5244,5176,1020,616,384
5060,5248,5176,1020,616,384
5060,5248,5176,1020,616,384
5064,5252,5180,1020,616,384
5064,5252,5184,1020,616,384
5064,5252,5180,1020,616,384
5060,5256,5180,1020,616,384
5064,5260,5184,1020,616,384
5060,5260,5184,1020,616,384
5068,5268,5188,1020,616,384
5068,5268,5192,1020,616,384
5068,5268,5192,1020,616,384
5068,5264,5188,1020,616,384
5060,5256,5184,1020,620,384
5060,5252,5180,1020,616,384
5056,5244,5172,1020,616,384
5056,5244,5172,1020,616,384
5056,5244,5172,1020,616,384
5060,5244,5172,1020,620,388
5056,5240,5172,1020,616,384
5056,5236,5168,1020,616,384
5060,5240,5172,1020,616,384
5060,5240,5172,1020,620,388
5060,5244,5172,1024,620,388
5060,5244,5176,1020,620,388
5060,5244,5172,1020,620,388
5060,5244,5172,1020,620,388
5060,5244,5172,1020,620,388
5060,5248,5176,1020,620,388
5060,5244,5172,1020,620,388
5060,5248,5176,1020,620,388
5060,5248,5176,1020,620,388
5060,5252,5180,1020,620,388
5060,5248,5176,1020,620,388
5060,5252,5176,1020,620,388
5064,5256,5184,1020,620,388
5064,5260,5184,1024,620,388
5064,5264,5184,1024,620,388
5064,5264,5188,1024,620,388
5068,5268,5192,1024,620,388
5068,5268,5192,1024,620,388
5072,5276,5196,1024,620,388
5072,5276,5196,1024,620,388
5076,5284,5204,1020,620,388
5068,5272,5196,1020,620,388
5072,5276,5200,1020,620,388
5068,5272,5192,1024,620,388
5068,5268,5192,1020,620,388
5064,5264,5188,1020,620,388
5064,5256,5180,1020,620,384
5060,5252,5180,1020,620,388
5060,5252,5180,1020,620,384
5060,5248,5176,1020,620,388
5060,5248,5176,1020,620,388
5056,5244,5168,1020,620,384
5056,5248,5172,1020,616,384
5060,5248,5176,1020,616,384
5056,5248,5172,1020,620,384
5056,5248,5172,1020,620,388
5056,5248,5172,1020,620,384
5056,5248,5172,1020,620,388
5056,5248,5172,1020,620,388
5056,5248,5172,1020,616,384
5060,5252,5180,1020,616,384
5060,5252,5176,1020,620,388
5060,5256,5176,1020,620,388
5060,5260,5184,1020,620,384
5060,5260,5184,1020,616,384
5060,5256,5180,1020,620,384
5064,5264,5188,1020,620,384
5064,5264,5184,1020,620,388
5064,5268,5192,1020,620,388
5064,5268,5188,1020,620,388
5064,5272,5188,1020,620,388
5064,5272,5188,1020,620,388
5068,5276,5196,1020,620,388
5068,5280,5196,1020,620,384
5064,5280,5196,1020,620,384
5068,5276,5192,1020,620,384
5064,5272,5188,1020,620,384
5064,5268,5188,1020,620,388
5060,5260,5180,1020,620,388
5060,5256,5180,1020,620,388
5056,5256,5180,1020,620,388
5060,5256,5180,1020,620,388
5056,5252,5176,1020,620,388
5056,5252,5172,1020,620,384
5060,5256,5180,1020,620,388
5060,5256,5180,1020,620,388
5060,5256,5180,1020,620,388
5060,5256,5180,1020,620,388
5056,5256,5176,1020,620,388
5060,5256,5180,1020,620,388
5056,5256,5176,1020,620,384
5056,5256,5180,1020,620,388
5060,5260,5180,1020,620,388
5056,5256,5180,1020,620,384
5060,5260,5184,1020,620,384
5060,5264,5184,1020,616,384
5060,5264,5184,1020,620,384
5064,5268,5184,1020,616,384
5060,5268,5184,1020,620,384
5060,5272,5188,1020,620,388
5064,5276,5192,1020,620,388
5064,5280,5196,1020,620,384
5064,5280,5196,1020,620,384
5068,5288,5200,1020,620,388
5068,5288,5204,1020,620,388
5072,5292,5208,1020,620,388
5068,5292,5204,1020,620,388
5068,5292,5204,1020,620,388
5072,5300,5208,1024,620,388
5072,5300,5208,1020,620,388
5072,5300,5212,1020,620,388
5068,5292,5200,1020,620,388
5072,5292,5204,1020,620,384
5068,5284,5196,1020,620,384
5068,5284,5200,1020,620,388
5072,5288,5204,1020,620,388
5068,5280,5200,1020,620,388
5068,5280,5196,1020,620,388
5068,5280,5196,1024,620,388
5068,5280,5192,1020,620,388
5068,5280,5196,1020,620,388
5068,5280,5196,1020,620,388
5068,5276,5192,1020,620,388
5064,5272,5188,1020,620,388
5064,5276,5192,1020,620,388
5068,5280,5196,1020,620,388
5068,5280,5196,1020,620,388
5068,5280,5196,1020,620,388
5068,5280,5196,1020,620,388
5072,5284,5200,1020,620,388
5068,5284,5200,1020,620,388
5072,5288,5204,1020,620,388
5072,5292,5204,1020,620,388
5072,5292,5204,1024,620,388
5072,5296,5208,1020,620,388
5076,5300,5212,1020,620,388
5076,5300,5212,1020,620,384
5076,5304,5216,1020,620,388
5076,5304,5212,1020,620,384
5080,5308,5220,1020,620,388
5080,5312,5220,1020,620,388
5080,5316,5220,1020,620,388
5080,5316,5224,1020,620,388
5084,5324,5228,1024,620,388
5088,5328,5232,1020,620,384
5088,5328,5236,1020,620,384
5088,5328,5232,1020,620,384
5084,5316,5224,1020,620,384
5084,5316,5224,1020,620,388
5080,5308,5216,1020,620,384
5080,5304,5216,1020,620,384
5076,5300,5212,1020,620,388
5076,5296,5208,1020,620,388
5072,5292,5204,1020,620,388
5072,5292,5204,1020,620,388
5072,5292,5204,1020,620,384
5072,5292,5204,1020,620,388
5072,5292,5204,1020,620,388
5072,5292,5204,1020,620,384
5072,5292,5204,1020,620,388
5072,5292,5204,1020,620,388
5072,5292,5204,1020,620,384
5072,5292,5204,1020,620,388
5068,5288,5200,1020,620,388
5072,5292,5204,1024,620,388
5076,5300,5208,1020,620,388
5076,5300,5208,1020,620,388
5076,5300,5208,1020,620,388
5076,5304,5212,1020,620,388
5076,5304,5216,1020,620,388
5076,5304,5212,1020,620,388
5076,5304,5216,1020,620,388
5076,5308,5212,1020,620,384
5076,5304,5212,1020,620,388
5076,5308,5216,1020,620,388
5076,5308,5212,1020,620,388
5076,5312,5220,1020,620,388
5076,5316,5220,1020,620,388
5076,5316,5220,1020,620,388
5076,5312,5220,1020,620,388
5072,5304,5212,1020,620,388
5068,5296,5204,1024,620,388
5072,5296,5208,1020,620,388
5072,5296,5208,1020,620,388
5068,5292,5200,1020,620,388
5068,5288,5204,1020,620,388
5064,5284,5196,1020,620,388
5068,5284,5196,1020,620,388
5064,5280,5196,1020,620,388
5064,5280,5196,1020,620,388
5064,5280,5192,1020,620,388
5064,5280,5192,1020,620,388
5064,5280,5192,1020,620,388
5064,5280,5192,1020,620,388
5064,5280,5196,1020,620,388
5068,5284,5196,1020,620,388
5064,5280,5192,1020,620,388
5064,5276,5188,1020,620,388
5064,5280,5192,1020,620,388
5064,5280,5196,1020,620,388
5068,5284,5200,1020,620,388
5068,5284,5200,1020,620,388
5068,5288,5200,1020,620,388
5068,5288,5200,1020,620,388
5068,5292,5200,1020,620,388
5072,5296,5204,1020,620,388
5072,5296,5204,1020,620,388
5068,5296,5204,1020,620,388
5068,5296,5204,1024,620,388
5072,5300,5208,1020,620,388
5072,5300,5208,1020,620,388
5072,5300,5208,1020,620,388
5072,5296,5208,1020,620,388
5068,5292,5200,1020,620,388
5068,5284,5200,1020,620,388
5064,5280,5192,1020,620,388
5064,5280,5196,1020,620,388
5064,5276,5196,1020,620,388
5064,5276,5192,1020,620,388
5064,5272,5188,1020,620,388
5064,5272,5188,1020,620,384
5064,5272,5188,1020,620,388
5064,5272,5188,1020,620,388
5064,5272,5188,1020,620,388
5064,5272,5192,1020,620,388
5064,5272,5188,1020,620,388
5064,5272,5188,1020,620,388
5064,5276,5192,1020,620,388
5064,5276,5192,1020,620,388
5064,5276,5192,1020,620,388
5068,5276,5196,1020,620,388
5068,5280,5196,1020,620,388
5068,5284,5200,1020,620,388
5068,5280,5196,1020,620,388
5068,5284,5200,1020,620,388
5072,5288,5204,1024,620,388
5072,5288,5200,1020,620,388
5072,5296,5204,1020,620,388
5076,5300,5208,1020,620,388
5076,5300,5212,1020,620,388
5076,5300,5212,1020,620,388
5076,5304,5212,1020,620,388
5080,5312,5220,1020,620,388
5080,5312,5224,1020,620,388
5080,5312,5224,1020,620,388
5080,5304,5216,1020,620,388
5080,5304,5216,1020,620,388
5072,5292,5208,1020,620,388
5072,5288,5204,1020,620,388
5072,5288,5200,1020,620,388
5072,5284,5200,1020,620,388
5068,5280,5196,1020,620,388
5072,5280,5200,1020,620,388
5072,5284,5200,1020,620,388
5072,5280,5196,1020,620,388
5072,5280,5200,1020,620,388
5068,5280,5196,1020,620,388
5072,5280,5200,1020,620,388
5068,5276,5196,1020,620,388
5068,5280,5196,1020,620,388
5068,5276,5196,1020,620,388
5068,5276,5192,1020,620,388
5068,5280,5196,1020,620,388
5068,5280,5196,1020,620,388
5072,5284,5204,1020,620,388
5072,5284,5200,1020,620,388
5072,5288,5204,1020,620,388
5068,5284,5200,1020,620,388
5072,5288,5200,1020,620,388
5068,5288,5200,1020,620,388
5076,5296,5208,1020,620,388
5076,5296,5208,1020,620,388
5076,5300,5212,1020,620,388
5076,5300,5212,1020,620,388
5080,5304,5216,1020,620,388
5076,5304,5212,1020,620,388
5076,5308,5216,1024,620,388
5080,5312,5220,1020,620,388
5080,5312,5220,1020,620,388
5080,5316,5224,1020,620,388
5080,5312,5220,1024,620,388
5076,5304,5216,1020,620,388
5072,5300,5212,1020,620,388
5072,5296,5208,1020,620,388
5072,5292,5204,1020,620,388
5072,5288,5200,1020,620,388
5068,5284,5200,1020,620,388
5068,5284,5196,1020,620,388
5064,5276,5192,1020,620,388
5064,5276,5196,1020,620,388
5064,5276,5192,1020,620,388
5064,5276,5192,1020,620,388
5072,5284,5200,1024,620,388
5068,5280,5196,1020,620,388
5068,5280,5196,1020,620,384
5068,5280,5196,1020,620,384
5068,5280,5196,1020,620,384
5068,5280,5196,1020,620,388
5064,5276,5192,1020,620,384
5064,5280,5192,1020,620,384
5064,5280,5196,1020,620,384
5064,5284,5196,1020,620,388
5064,5284,5196,1020,620,388
5064,5284,5196,1024,620,388
5064,5288,5200,1020,620,384
5068,5288,5204,1020,620,384
5068,5292,5204,1020,620,384
5068,5296,5204,1020,620,384
5068,5296,5204,1020,620,384
5068,5292,5204,1020,620,384
5072,5304,5212,1020,620,384
5072,5304,5212,1020,616,384
5072,5304,5212,1020,620,388
5072,5300,5208,1020,620,384
5072,5296,5208,1020,620,384
5068,5288,5200,1020,620,388
5068,5288,5196,1020,620,384
5064,5280,5196,1020,620,384
5060,5272,5188,1020,620,384
5064,5276,5192,1020,616,384
5060,5272,5188,1020,620,384
5060,5268,5184,1020,616,384
5056,5268,5184,1020,620,384
5060,5268,5184,1020,620,388
5056,5264,5184,1020,620,384
5056,5264,5184,1020,620,388
5056,5264,5184,1020,620,384
5060,5268,5184,1020,620,388
5056,5260,5180,1020,620,384
5052,5260,5180,1020,620,384
5056,5264,5180,1020,616,384
5056,5264,5180,1020,620,384
5056,5264,5180,1020,620,388
5056,5264,5180,1020,620,384
5056,5268,5184,1020,620,388
5056,5268,5184,1020,620,384
5056,5268,5180,1020,620,384
5060,5272,5184,1020,620,388
5060,5272,5188,1020,620,388
5064,5280,5192,1020,620,388
5064,5280,5192,1020,620,388
5060,5276,5188,1020,620,388
5060,5280,5192,1020,620,388
5064,5284,5196,1020,620,388
5060,5280,5192,1020,620,388
5060,5276,5192,1020,620,388
5052,5268,5180,1020,620,388
5056,5264,5180,1020,620,384
5052,5256,5176,1020,620,388
5052,5260,5176,1020,620,388
5048,5252,5172,1020,616,384
5052,5252,5172,1020,620,388
5048,5248,5168,1020,620,388
5048,5248,5168,1020,620,388
5048,5244,5168,1020,620,384
5052,5248,5172,1020,620,388
5048,5248,5168,1020,620,384
5048,5248,5168,1020,620,388
5052,5248,5172,1020,620,388
5048,5248,5168,1020,620,388
5048,5248,5168,1020,616,384
5052,5248,5172,1020,616,384
5052,5248,5168,1020,616,384
5052,5248,5172,1020,620,388
5052,5252,5172,1020,620,388
5048,5248,5168,1020,620,388
5052,5256,5176,1020,620,388
5052,5252,5172,1020,620,388
5048,5252,5172,1020,620,388
5056,5260,5176,1024,620,388
5052,5260,5176,1020,620,388
5052,5260,5176,1020,620,388
5056,5264,5180,1020,620,388
5056,5268,5184,1020,620,388
5056,5268,5184,1020,620,388
5056,5272,5184,1024,620,388
5056,5276,5188,1024,620,388
5060,5280,5192,1020,620,388
5060,5276,5192,1020,620,388
5060,5272,5184,1020,620,388
5056,5268,5184,1024,620,388
5056,5264,5180,1020,620,388
5052,5256,5176,1020,620,388
5052,5252,5176,1020,620,388
5052,5252,5176,1020,620,388
5052,5248,5172,1020,620,388
5056,5252,5172,1024,620,388
5052,5244,5168,1020,620,388
5052,5244,5168,1020,620,388
5052,5244,5168,1020,616,388
5052,5248,5168,1020,616,384
5052,5248,5168,1020,616,384
5052,5248,5172,1020,616,384
5052,5248,5172,1020,616,384
5056,5248,5172,1020,616,388
5056,5248,5176,1020,616,384
5052,5248,5168,1020,620,388
5052,5248,5172,1020,616,384
5056,5252,5172,1020,616,384
5052,5248,5172,1020,616,384
5052,5252,5172,1020,616,384
5056,5256,5176,1020,616,384
5056,5260,5180,1020,616,384
5056,5256,5180,1020,620,388
5056,5260,5180,1020,616,384
5056,5264,5184,1020,616,384
5056,5264,5184,1020,620,384
5060,5268,5184,1020,616,384
5060,5272,5188,1020,620,384
5060,5272,5188,1020,620,388
5064,5276,5192,1020,616,384
5064,5280,5196,1020,616,384
5064,5280,5196,1020,620,384
5064,5276,5192,1020,616,384
5060,5268,5184,1020,616,384
5056,5264,5184,1020,616,384
5056,5260,5180,1020,616,384
5052,5252,5172,1020,616,384
5056,5252,5176,1020,616,384
5052,5248,5172,1020,616,384
5052,5248,5172,1020,620,388
5056,5248,5172,1020,616,384
5052,5244,5168,1020,616,384
5052,5244,5168,1020,620,388
5052,5244,5168,1020,616,384
5052,5244,5168,1020,616,384
5048,5236,5160,1020,616,384
5052,5240,5168,1020,616,384
5048,5236,5164,1020,616,384
5048,5240,5164,1020,616,384
5048,5236,5160,1020,620,388
5048,5240,5164,1020,616,384
5048,5240,5164,1020,616,384
5048,5240,5164,1020,616,384
5048,5236,5164,1020,616,384
5044,5240,5164,1020,616,384
5048,5244,5168,1020,616,384
5052,5244,5168,1020,616,384
5052,5248,5168,1020,616,384
5056,5252,5176,1020,616,384
5052,5252,5176,1020,616,384
5052,5252,5172,1020,616,384
5056,5256,5176,1020,616,384
5056,5256,5176,1020,620,384
5052,5256,5172,1020,616,384
5052,5252,5176,1020,620,388
5048,5244,5168,1020,616,384
5048,5244,5164,1020,616,384
5044,5236,5160,1020,616,384
5048,5232,5160,1020,616,384
5044,5228,5156,1020,620,388
5044,5224,5152,1020,616,384
5040,5220,5148,1020,616,384
5044,5220,5152,1020,616,384
5040,5216,5148,1020,616,384
5044,5216,5152,1020,616,384
5044,5216,5152,1020,616,388
5044,5220,5152,1020,616,384
5044,5216,5148,1020,616,384
5040,5216,5148,1020,616,384
5044,5216,5152,1020,616,384
5040,5212,5144,1020,616,388
5040,5216,5148,1020,616,384
5040,5216,5148,1020,616,384
5040,5216,5148,1020,616,384
5040,5212,5148,1020,616,388
5040,5216,5148,1020,616,388
5040,5216,5148,1020,616,384
5044,5220,5152,1020,616,384
5044,5220,5152,1020,616,388
5044,5224,5152,1020,616,384
5044,5224,5156,1020,616,384
5048,5232,5160,1020,616,384
5048,5232,5160,1020,616,384
5052,5236,5164,1020,616,384
5052,5236,5164,1020,616,384
5052,5240,5164,1020,616,384
5052,5240,5168,1020,616,384
5052,5240,5164,1020,616,384
5048,5232,5160,1020,616,384
5048,5228,5156,1020,616,384
5044,5224,5156,1020,616,384
5044,5220,5152,1020,616,384
5044,5212,5148,1020,616,384
5040,5208,5140,1020,616,388
5040,5204,5144,1020,616,384
5040,5200,5140,1020,616,388
5040,5200,5140,1020,616,384
5040,5200,5140,1020,616,384
5040,5204,5140,1020,616,384
5040,5200,5140,1020,616,384
5040,5204,5140,1020,616,384
5040,5204,5144,1020,616,384
5040,5204,5144,1020,616,384
5040,5204,5140,1020,616,384
5040,5204,5140,1020,616,384
5040,5200,5140,1020,616,384
5040,5204,5140,1020,616,384
5040,5204,5144,1020,616,384
5048,5212,5152,1020,616,384
5044,5212,5148,1020,616,384
5044,5212,5148,1020,616,384
5044,5216,5148,1020,616,384
5048,5220,5152,1020,616,384
5048,5220,5156,1020,616,384
5048,5220,5156,1020,616,384
5048,5228,5160,1020,616,384
5052,5232,5164,1020,616,384
5052,5232,5164,1020,620,388
5056,5236,5164,1020,616,384
5056,5236,5164,1020,616,388
5056,5240,5168,1020,616,384
5056,5240,5168,1020,616,384
5056,5240,5168,1020,616,384
5056,5236,5168,1020,616,384
5052,5232,5164,1020,616,384
5052,5224,5156,1020,616,384
5048,5216,5152,1020,616,384
5048,5212,5148,1020,616,384
5048,5208,5148,1020,616,384
5044,5204,5144,1020,616,384
5040,5200,5140,1020,616,384
5040,5200,5136,1020,616,384
5036,5196,5136,1020,616,384
5040,5200,5140,1020,616,388
5040,5200,5140,1020,616,384
5044,5204,5144,1020,616,384
5044,5200,5144,1020,616,384
5044,5200,5140,1020,616,384
5044,5200,5140,1020,616,384
5044,5200,5144,1020,616,384
5044,5200,5140,1020,616,384
5040,5200,5140,1020,616,384
5040,5204,5140,1020,616,384
5044,5204,5144,1020,616,384
5044,5208,5144,1020,616,384
5044,5208,5148,1020,616,384
5048,5212,5148,1020,616,384
5052,5216,5152,1020,616,384
5052,5220,5156,1020,616,384
5048,5220,5152,1020,616,384
5052,5224,5160,1020,616,384
5052,5228,5160,1020,616,384
5052,5228,5160,1020,616,388
5056,5232,5164,1020,616,384
5056,5236,5168,1020,616,384
5056,5236,5168,1020,616,384
5056,5236,5168,1020,616,384
5056,5236,5168,1020,616,384
5056,5232,5164,1020,616,384
5052,5224,5156,1020,616,384
5048,5216,5152,1020,616,384
5048,5212,5148,1020,616,384
5044,5208,5144,1020,616,384
5044,5200,5140,1020,616,384
5044,5200,5144,1020,616,384
5040,5196,5136,1020,616,384
5040,5196,5136,1020,616,384
5040,5196,5136,1020,616,384
5040,5196,5136,1020,616,384
5040,5196,5136,1020,616,384
5040,5192,5136,1020,616,384
5040,5192,5132,1020,616,384
5036,5188,5128,1020,616,384
5040,5192,5136,1020,616,384
5040,5188,5132,1020,616,384
5036,5188,5132,1020,616,384
5040,5188,5132,1020,616,384
5036,5192,5132,1020,616,384
5040,5192,5132,1020,616,384
5040,5196,5132,1020,616,384
5040,5192,5136,1020,616,384
5040,5196,5136,1020,616,384
5040,5196,5140,1020,616,384
5040,5200,5140,1020,616,384
5040,5200,5140,1020,616,384
5040,5200,5136,1020,616,384
5040,5196,5136,1020,620,388
5044,5204,5144,1020,616,384
5040,5200,5140,1020,616,384
5040,5200,5136,1020,616,384
5040,5196,5136,1020,616,384
5036,5192,5132,1020,616,384
5032,5184,5124,1020,616,384
5036,5180,5124,1020,616,384
5032,5172,5116,1020,616,384
5032,5172,5116,1020,616,384
5028,5164,5112,1020,616,384
5028,5160,5112,1020,616,384
5028,5160,5112,1020,616,384
5028,5160,5112,1020,620,388
5028,5160,5112,1020,616,388
5028,5160,5108,1020,616,384
5028,5160,5112,1020,616,388
5028,5160,5112,1020,616,388
5028,5156,5108,1020,616,384
5028,5156,5108,1020,616,388
5028,5156,5112,1020,616,384
5028,5156,5108,1020,616,384
5028,5156,5108,1020,616,388
5028,5160,5112,1020,616,384
5028,5160,5112,1020,616,384
5032,5168,5116,1020,616,388
5032,5168,5116,1020,616,388
5032,5168,5116,1020,620,388
5032,5168,5116,1020,620,388
5032,5168,5120,1020,620,388
5032,5172,5116,1020,620,388
5032,5172,5116,1020,620,388
5032,5176,5120,1020,620,388
5032,5176,5120,1020,620,388
5036,5184,5128,1020,620,388
5040,5184,5128,1024,620,388
5040,5180,5124,1020,620,388
5036,5176,5124,1020,616,388
5036,5168,5120,1020,616,388
5032,5164,5116,1020,620,388
5028,5160,5108,1020,616,384
5028,5156,5108,1020,616,388
5028,5152,5104,1020,620,388
5028,5148,5104,1020,620,388
5024,5148,5100,1020,616,388
5024,5144,5100,1020,616,384
5028,5148,5104,1020,616,388
5024,5140,5096,1020,616,388
5024,5144,5096,1020,616,388
5024,5140,5096,1020,616,388
5024,5144,5096,1020,620,388
5024,5144,5096,1020,616,388
5024,5144,5100,1020,616,388
5028,5148,5104,1020,616,388
5028,5148,5108,1020,616,384
5028,5148,5104,1020,616,384
5028,5152,5108,1020,616,384
5028,5152,5108,1020,616,384
5032,5156,5112,1020,616,384
5032,5160,5112,1020,616,384
5032,5160,5112,1020,616,384
5032,5160,5112,1020,616,384
5032,5164,5116,1020,616,384
5036,5172,5120,1020,616,384
5036,5172,5120,1020,616,384
5036,5172,5120,1020,616,384
5040,5176,5124,1020,616,384
5040,5180,5128,1020,616,384
5040,5180,5124,1020,616,384
5040,5180,5124,1020,616,384
5040,5176,5124,1020,620,388
5036,5172,5120,1020,616,384
5036,5168,5116,1020,620,388
5032,5160,5112,1020,616,388
5028,5152,5104,1020,616,388
5028,5148,5104,1020,616,388
5028,5148,5104,1020,616,388
5028,5144,5100,1020,616,384
5028,5144,5100,1020,616,388
5024,5140,5096,1020,616,388
