4604.000000,3280.000000,3956.000000,572.000000,356.000000,228.000000
4604.000000,3284.000000,3964.000000,572.000000,356.000000,228.000000
4600.000000,3276.000000,3952.000000,572.000000,356.000000,228.000000
4604.000000,3276.000000,3956.000000,572.000000,356.000000,228.000000
4600.000000,3272.000000,3952.000000,572.000000,356.000000,228.000000
4600.000000,3272.000000,3952.000000,572.000000,356.000000,228.000000
4596.000000,3268.000000,3952.000000,572.000000,356.000000,228.000000
4596.000000,3264.000000,3944.000000,572.000000,356.000000,228.000000
4600.000000,3272.000000,3960.000000,572.000000,356.000000,228.000000
4600.000000,3268.000000,3948.000000,572.000000,356.000000,228.000000
4600.000000,3276.000000,3956.000000,572.000000,356.000000,228.000000
4604.000000,3272.000000,3952.000000,572.000000,356.000000,228.000000
4604.000000,3272.000000,3952.000000,572.000000,356.000000,228.000000
4604.000000,3276.000000,3960.000000,572.000000,356.000000,228.000000
4608.000000,3276.000000,3960.000000,572.000000,356.000000,228.000000
4604.000000,3272.000000,3952.000000,572.000000,356.000000,228.000000
4604.000000,3276.000000,3964.000000,572.000000,356.000000,228.000000
4608.000000,3272.000000,3952.000000,572.000000,356.000000,228.000000
4608.000000,3280.000000,3964.000000,572.000000,356.000000,228.000000
4604.000000,3276.000000,3956.000000,572.000000,356.000000,228.000000
4608.000000,3280.000000,3960.000000,572.000000,356.000000,228.000000
4604.000000,3276.000000,3956.000000,572.000000,356.000000,228.000000
4604.000000,3280.000000,3956.000000,572.000000,356.000000,228.000000
4608.000000,3284.000000,3968.000000,572.000000,356.000000,228.000000
4608.000000,3280.000000,3952.000000,572.000000,356.000000,228.000000
4608.000000,3288.000000,3968.000000,572.000000,356.000000,228.000000
4612.000000,3288.000000,3968.000000,572.000000,356.000000,228.000000
4608.000000,3280.000000,3956.000000,572.000000,356.000000,228.000000
4608.000000,3288.000000,3964.000000,572.000000,356.000000,228.000000
4612.000000,3288.000000,3964.000000,572.000000,356.000000,228.000000
4608.000000,3288.000000,3960.000000,572.000000,356.000000,228.000000
4612.000000,3292.000000,3968.000000,572.000000,356.000000,228.000000
4608.000000,3288.000000,3960.000000,572.000000,356.000000,228.000000
4612.000000,3292.000000,3968.000000,572.000000,356.000000,228.000000
4612.000000,3292.000000,3964.000000,572.000000,356.000000,228.000000
4620.000000,3300.000000,3976.000000,572.000000,356.000000,228.000000
4616.000000,3296.000000,3972.000000,572.000000,356.000000,228.000000
4612.000000,3292.000000,3968.000000,572.000000,356.000000,228.000000
4612.000000,3296.000000,3972.000000,572.000000,356.000000,228.000000
4612.000000,3292.000000,3968.000000,572.000000,356.000000,228.000000
4604.000000,3280.000000,3956.000000,572.000000,356.000000,228.000000
4604.000000,3280.000000,3960.000000,572.000000,356.000000,228.000000
4604.000000,3276.000000,3952.000000,572.000000,356.000000,228.000000
4604.000000,3276.000000,3960.000000,572.000000,356.000000,228.000000
4604.000000,3272.000000,3952.000000,572.000000,356.000000,228.000000
4604.000000,3276.000000,3956.000000,572.000000,356.000000,228.000000
4600.000000,3276.000000,3948.000000,572.000000,356.000000,228.000000
4604.000000,3272.000000,3948.000000,572.000000,356.000000,228.000000
4608.000000,3280.000000,3960.000000,572.000000,356.000000,228.000000
4608.000000,3276.000000,3956.000000,572.000000,356.000000,228.000000
4608.000000,3280.000000,3964.000000,572.000000,356.000000,228.000000
4604.000000,3276.000000,3952.000000,572.000000,356.000000,228.000000
4604.000000,3272.000000,3952.000000,572.000000,356.000000,228.000000
4608.000000,3280.000000,3964.000000,572.000000,356.000000,228.000000
4604.000000,3276.000000,3960.000000,572.000000,356.000000,228.000000
4608.000000,3280.000000,3956.000000,572.000000,356.000000,228.000000
4608.000000,3280.000000,3964.000000,572.000000,356.000000,228.000000
4608.000000,3280.000000,3956.000000,572.000000,356.000000,228.000000
4612.000000,3284.000000,3964.000000,572.000000,356.000000,228.000000
4608.000000,3280.000000,3956.000000,572.000000,356.000000,228.000000
4608.000000,3284.000000,3964.000000,572.000000,356.000000,228.000000
4608.000000,3280.000000,3960.000000,572.000000,356.000000,228.000000
4612.000000,3284.000000,3964.000000,572.000000,356.000000,228.000000
4608.000000,3288.000000,3968.000000,572.000000,356.000000,228.000000
4612.000000,3284.000000,3960.000000,572.000000,356.000000,228.000000
4608.000000,3284.000000,3960.000000,572.000000,356.000000,228.000000
4612.000000,3292.000000,3972.000000,572.000000,356.000000,228.000000
4612.000000,3288.000000,3956.000000,572.000000,356.000000,228.000000
4612.000000,3292.000000,3972.000000,572.000000,356.000000,228.000000
4612.000000,3288.000000,3964.000000,572.000000,356.000000,228.000000
4612.000000,3292.000000,3968.000000,572.000000,356.000000,228.000000
4612.000000,3292.000000,3968.000000,572.000000,356.000000,228.000000
4612.000000,3292.000000,3964.000000,572.000000,356.000000,228.000000
4616.000000,3296.000000,3976.000000,572.000000,356.000000,228.000000
4612.000000,3292.000000,3964.000000,572.000000,356.000000,228.000000
4616.000000,3300.000000,3976.000000,572.000000,356.000000,228.000000
4612.000000,3292.000000,3964.000000,572.000000,356.000000,228.000000
4612.000000,3292.000000,3964.000000,572.000000,356.000000,228.000000
4608.000000,3288.000000,3964.000000,572.000000,356.000000,228.000000
4604.000000,3284.000000,3960.000000,572.000000,356.000000,228.000000
4604.000000,3280.000000,3960.000000,572.000000,356.000000,228.000000
4604.000000,3280.000000,3960.000000,572.000000,356.000000,228.000000
4604.000000,3276.000000,3952.000000,572.000000,356.000000,228.000000
4604.000000,3276.000000,3960.000000,572.000000,356.000000,228.000000
4604.000000,3272.000000,3948.000000,572.000000,356.000000,228.000000
4604.000000,3276.000000,3964.000000,572.000000,356.000000,228.000000
4608.000000,3276.000000,3956.000000,572.000000,356.000000,228.000000
4604.000000,3276.000000,3956.000000,572.000000,356.000000,228.000000
4608.000000,3280.000000,3960.000000,572.000000,356.000000,228.000000
4608.000000,3272.000000,3956.000000,572.000000,356.000000,228.000000
4608.000000,3276.000000,3964.000000,572.000000,356.000000,228.000000
4608.000000,3280.000000,3964.000000,572.000000,356.000000,228.000000
4608.000000,3272.000000,3952.000000,572.000000,356.000000,228.000000
4604.000000,3276.000000,3960.000000,572.000000,356.000000,228.000000
4600.000000,3272.000000,3948.000000,572.000000,356.000000,228.000000
4600.000000,3272.000000,3952.000000,572.000000,356.000000,228.000000
4600.000000,3272.000000,3952.000000,572.000000,356.000000,228.000000
4604.000000,3272.000000,3956.000000,572.000000,356.000000,228.000000
4604.000000,3280.000000,3960.000000,572.000000,356.000000,228.000000
4600.000000,3276.000000,3948.000000,572.000000,356.000000,228.000000
4604.000000,3280.000000,3960.000000,572.000000,356.000000,228.000000
4604.000000,3276.000000,3952.000000,572.000000,356.000000,228.000000
4604.000000,3280.000000,3960.000000,572.000000,356.000000,228.000000
4604.000000,3284.000000,3960.000000,572.000000,356.000000,228.000000
4608.000000,3280.000000,3960.000000,572.000000,356.000000,228.000000
4608.000000,3284.000000,3960.000000,572.000000,356.000000,228.000000
4604.000000,3284.000000,3960.000000,572.000000,356.000000,228.000000
4604.000000,3280.000000,3956.000000,572.000000,356.000000,228.000000
4604.000000,3288.000000,3964.000000,572.000000,356.000000,228.000000
4604.000000,3284.000000,3956.000000,572.000000,356.000000,228.000000
4608.000000,3292.000000,3964.000000,572.000000,356.000000,228.000000
4608.000000,3288.000000,3964.000000,572.000000,356.000000,228.000000
4608.000000,3288.000000,3960.000000,572.000000,356.000000,228.000000
4608.000000,3292.000000,3964.000000,572.000000,356.000000,228.000000
4604.000000,3288.000000,3956.000000,572.000000,356.000000,228.000000
4604.000000,3292.000000,3972.000000,572.000000,356.000000,228.000000
4604.000000,3284.000000,3956.000000,572.000000,356.000000,228.000000
4604.000000,3280.000000,3952.000000,572.000000,356.000000,228.000000
4604.000000,3280.000000,3960.000000,572.000000,356.000000,228.000000
4600.000000,3272.000000,3948.000000,572.000000,356.000000,228.000000
4600.000000,3272.000000,3952.000000,572.000000,356.000000,228.000000
4596.000000,3268.000000,3948.000000,572.000000,356.000000,228.000000
4592.000000,3264.000000,3944.000000,572.000000,356.000000,228.000000
4592.000000,3268.000000,3952.000000,572.000000,356.000000,228.000000
4592.000000,3264.000000,3940.000000,572.000000,356.000000,228.000000
4596.000000,3272.000000,3952.000000,572.000000,356.000000,228.000000
4592.000000,3264.000000,3940.000000,572.000000,356.000000,228.000000
4592.000000,3268.000000,3948.000000,572.000000,356.000000,228.000000
4592.000000,3268.000000,3944.000000,572.000000,356.000000,228.000000
4592.000000,3264.000000,3944.000000,572.000000,356.000000,228.000000
4592.000000,3268.000000,3948.000000,572.000000,356.000000,228.000000
4592.000000,3268.000000,3948.000000,572.000000,356.000000,228.000000
4592.000000,3264.000000,3940.000000,572.000000,356.000000,228.000000
4592.000000,3268.000000,3948.000000,572.000000,356.000000,228.000000
4592.000000,3268.000000,3940.000000,572.000000,356.000000,228.000000
4596.000000,3272.000000,3952.000000,572.000000,356.000000,228.000000
4592.000000,3268.000000,3944.000000,572.000000,356.000000,228.000000
4588.000000,3268.000000,3944.000000,572.000000,356.000000,228.000000
4588.000000,3272.000000,3944.000000,572.000000,356.000000,228.000000
4588.000000,3268.000000,3940.000000,572.000000,356.000000,228.000000
4588.000000,3276.000000,3952.000000,572.000000,356.000000,228.000000
4588.000000,3268.000000,3940.000000,572.000000,356.000000,228.000000
4588.000000,3272.000000,3948.000000,572.000000,356.000000,228.000000
4592.000000,3276.000000,3952.000000,572.000000,356.000000,228.000000
4592.000000,3276.000000,3948.000000,572.000000,356.000000,228.000000
4592.000000,3280.000000,3952.000000,572.000000,356.000000,228.000000
4588.000000,3276.000000,3948.000000,572.000000,356.000000,228.000000
4588.000000,3268.000000,3944.000000,572.000000,356.000000,228.000000
4592.000000,3280.000000,3956.000000,572.000000,356.000000,228.000000
4592.000000,3276.000000,3948.000000,572.000000,356.000000,228.000000
4592.000000,3284.000000,3956.000000,572.000000,356.000000,228.000000
4596.000000,3284.000000,3952.000000,572.000000,356.000000,228.000000
4600.000000,3288.000000,3956.000000,572.000000,356.000000,228.000000
4596.000000,3284.000000,3956.000000,572.000000,356.000000,228.000000
4596.000000,3280.000000,3952.000000,572.000000,356.000000,228.000000
4596.000000,3284.000000,3956.000000,572.000000,356.000000,228.000000
4592.000000,3280.000000,3952.000000,572.000000,356.000000,228.000000
4588.000000,3272.000000,3944.000000,572.000000,356.000000,228.000000
4588.000000,3272.000000,3948.000000,572.000000,356.000000,228.000000
4588.000000,3268.000000,3944.000000,572.000000,356.000000,228.000000
4588.000000,3272.000000,3948.000000,572.000000,356.000000,228.000000
4584.000000,3264.000000,3940.000000,572.000000,356.000000,228.000000
4584.000000,3268.000000,3944.000000,572.000000,356.000000,228.000000
4588.000000,3272.000000,3948.000000,572.000000,356.000000,228.000000
4588.000000,3264.000000,3940.000000,572.000000,356.000000,228.000000
4588.000000,3268.000000,3952.000000,572.000000,356.000000,228.000000
4584.000000,3264.000000,3936.000000,572.000000,356.000000,228.000000
4584.000000,3268.000000,3944.000000,572.000000,356.000000,228.000000
4584.000000,3264.000000,3936.000000,572.000000,356.000000,228.000000
4584.000000,3264.000000,3936.000000,572.000000,356.000000,228.000000
4588.000000,3268.000000,3944.000000,572.000000,356.000000,228.000000
4584.000000,3268.000000,3944.000000,572.000000,356.000000,228.000000
4580.000000,3264.000000,3936.000000,572.000000,356.000000,228.000000
4584.000000,3268.000000,3944.000000,572.000000,356.000000,228.000000
4584.000000,3268.000000,3936.000000,572.000000,356.000000,228.000000
4588.000000,3276.000000,3948.000000,572.000000,356.000000,228.000000
4584.000000,3268.000000,3940.000000,572.000000,356.000000,228.000000
4588.000000,3276.000000,3948.000000,572.000000,356.000000,228.000000
4588.000000,3276.000000,3948.000000,572.000000,356.000000,228.000000
4588.000000,3272.000000,3944.000000,572.000000,356.000000,228.000000
4588.000000,3280.000000,3956.000000,572.000000,356.000000,228.000000
4588.000000,3276.000000,3944.000000,572.000000,356.000000,228.000000
4592.000000,3276.000000,3944.000000,572.000000,356.000000,228.000000
4592.000000,3284.000000,3952.000000,572.000000,356.000000,228.000000
4588.000000,3276.000000,3944.000000,572.000000,356.000000,228.000000
4592.000000,3284.000000,3956.000000,572.000000,356.000000,228.000000
4592.000000,3284.000000,3952.000000,572.000000,356.000000,228.000000
4596.000000,3288.000000,3956.000000,572.000000,356.000000,228.000000
4596.000000,3288.000000,3960.000000,572.000000,356.000000,228.000000
4596.000000,3288.000000,3952.000000,572.000000,356.000000,228.000000
4600.000000,3296.000000,3964.000000,572.000000,356.000000,228.000000
4596.000000,3288.000000,3952.000000,572.000000,356.000000,228.000000
4592.000000,3288.000000,3956.000000,572.000000,356.000000,228.000000
4588.000000,3280.000000,3948.000000,572.000000,356.000000,228.000000
4584.000000,3276.000000,3944.000000,572.000000,356.000000,228.000000
4592.000000,3276.000000,3952.000000,572.000000,356.000000,228.000000
4588.000000,3272.000000,3948.000000,572.000000,356.000000,228.000000
4588.000000,3268.000000,3944.000000,572.000000,356.000000,228.000000
4584.000000,3268.000000,3948.000000,572.000000,356.000000,228.000000
4584.000000,3264.000000,3936.000000,572.000000,356.000000,228.000000
4584.000000,3268.000000,3948.000000,572.000000,356.000000,228.000000
4584.000000,3264.000000,3936.000000,572.000000,356.000000,228.000000
4584.000000,3268.000000,3940.000000,572.000000,356.000000,228.000000
4584.000000,3268.000000,3944.000000,572.000000,356.000000,228.000000
4584.000000,3268.000000,3940.000000,572.000000,356.000000,228.000000
4584.000000,3268.000000,3944.000000,572.000000,356.000000,228.000000
4584.000000,3268.000000,3940.000000,572.000000,356.000000,228.000000
4584.000000,3272.000000,3952.000000,572.000000,356.000000,228.000000
4588.000000,3272.000000,3948.000000,572.000000,356.000000,228.000000
4588.000000,3268.000000,3940.000000,572.000000,356.000000,228.000000
4584.000000,3272.000000,3952.000000,572.000000,356.000000,228.000000
4584.000000,3268.000000,3940.000000,572.000000,356.000000,228.000000
4588.000000,3268.000000,3940.000000,572.000000,356.000000,228.000000
4588.000000,3272.000000,3948.000000,572.000000,356.000000,228.000000
4584.000000,3272.000000,3940.000000,572.000000,356.000000,228.000000
4588.000000,3276.000000,3952.000000,572.000000,356.000000,228.000000
4584.000000,3272.000000,3940.000000,572.000000,356.000000,228.000000
4588.000000,3276.000000,3952.000000,572.000000,356.000000,228.000000
4588.000000,3276.000000,3944.000000,572.000000,356.000000,228.000000
4588.000000,3276.000000,3948.000000,572.000000,356.000000,228.000000
4592.000000,3284.000000,3952.000000,572.000000,356.000000,228.000000
4592.000000,3284.000000,3952.000000,572.000000,356.000000,228.000000
4588.000000,3280.000000,3948.000000,572.000000,356.000000,228.000000
4588.000000,3284.000000,3956.000000,572.000000,356.000000,228.000000
4588.000000,3280.000000,3944.000000,572.000000,356.000000,228.000000
4596.000000,3288.000000,3960.000000,572.000000,356.000000,228.000000
4596.000000,3288.000000,3952.000000,572.000000,356.000000,228.000000
4596.000000,3292.000000,3960.000000,572.000000,356.000000,228.000000
4596.000000,3292.000000,3956.000000,572.000000,356.000000,228.000000
4592.000000,3284.000000,3956.000000,572.000000,356.000000,228.000000
4596.000000,3292.000000,3960.000000,572.000000,356.000000,228.000000
4592.000000,3280.000000,3948.000000,572.000000,356.000000,228.000000
4592.000000,3280.000000,3952.000000,572.000000,356.000000,228.000000
4592.000000,3272.000000,3944.000000,572.000000,356.000000,228.000000
4588.000000,3272.000000,3948.000000,572.000000,356.000000,228.000000
4584.000000,3272.000000,3948.000000,572.000000,356.000000,228.000000
4584.000000,3264.000000,3940.000000,572.000000,356.000000,228.000000
4584.000000,3264.000000,3940.000000,572.000000,356.000000,228.000000
4584.000000,3268.000000,3940.000000,572.000000,356.000000,228.000000
4584.000000,3264.000000,3936.000000,572.000000,356.000000,228.000000
4588.000000,3272.000000,3948.000000,572.000000,356.000000,228.000000
4588.000000,3264.000000,3936.000000,572.000000,356.000000,228.000000
4588.000000,3268.000000,3944.000000,572.000000,356.000000,228.000000
4588.000000,3264.000000,3940.000000,572.000000,356.000000,228.000000
4584.000000,3264.000000,3944.000000,572.000000,356.000000,228.000000
4584.000000,3264.000000,3944.000000,572.000000,356.000000,228.000000
4584.000000,3260.000000,3936.000000,572.000000,356.000000,228.000000
4588.000000,3268.000000,3952.000000,572.000000,356.000000,228.000000
4592.000000,3268.000000,3952.000000,572.000000,356.000000,228.000000
4588.000000,3264.000000,3936.000000,572.000000,356.000000,228.000000
4588.000000,3268.000000,3952.000000,572.000000,356.000000,228.000000
4584.000000,3264.000000,3940.000000,572.000000,356.000000,228.000000
4584.000000,3264.000000,3944.000000,572.000000,356.000000,228.000000
4584.000000,3264.000000,3940.000000,572.000000,356.000000,228.000000
4584.000000,3264.000000,3940.000000,572.000000,356.000000,228.000000
4588.000000,3272.000000,3952.000000,572.000000,356.000000,228.000000
4584.000000,3264.000000,3936.000000,572.000000,356.000000,228.000000
4584.000000,3272.000000,3948.000000,572.000000,356.000000,228.000000
4588.000000,3268.000000,3940.000000,572.000000,356.000000,228.000000
4592.000000,3276.000000,3948.000000,572.000000,356.000000,228.000000
4592.000000,3276.000000,3952.000000,572.000000,356.000000,228.000000
4592.000000,3276.000000,3948.000000,572.000000,356.000000,228.000000
4592.000000,3276.000000,3944.000000,572.000000,356.000000,228.000000
4592.000000,3280.000000,3952.000000,572.000000,356.000000,228.000000
4592.000000,3280.000000,3948.000000,572.000000,356.000000,228.000000
4600.000000,3288.000000,3960.000000,572.000000,356.000000,228.000000
4596.000000,3284.000000,3952.000000,572.000000,356.000000,228.000000
4600.000000,3288.000000,3956.000000,572.000000,356.000000,228.000000
4604.000000,3288.000000,3960.000000,572.000000,356.000000,228.000000
4600.000000,3280.000000,3960.000000,572.000000,356.000000,228.000000
4600.000000,3276.000000,3960.000000,572.000000,356.000000,228.000000
4596.000000,3268.000000,3948.000000,572.000000,356.000000,228.000000
4596.000000,3272.000000,3956.000000,572.000000,356.000000,228.000000
4596.000000,3264.000000,3944.000000,572.000000,356.000000,228.000000
4596.000000,3264.000000,3944.000000,572.000000,356.000000,228.000000
4600.000000,3272.000000,3956.000000,572.000000,356.000000,228.000000
4600.000000,3264.000000,3948.000000,572.000000,356.000000,228.000000
4600.000000,3268.000000,3952.000000,572.000000,356.000000,228.000000
4600.000000,3268.000000,3956.000000,572.000000,356.000000,228.000000
4600.000000,3268.000000,3948.000000,572.000000,356.000000,228.000000
4600.000000,3272.000000,3956.000000,572.000000,356.000000,228.000000
4600.000000,3264.000000,3944.000000,572.000000,356.000000,228.000000
4596.000000,3268.000000,3952.000000,572.000000,356.000000,228.000000
4600.000000,3264.000000,3948.000000,572.000000,356.000000,228.000000
4600.000000,3268.000000,3952.000000,572.000000,356.000000,228.000000
4600.000000,3268.000000,3948.000000,572.000000,356.000000,228.000000
4600.000000,3264.000000,3948.000000,572.000000,356.000000,228.000000
4600.000000,3268.000000,3948.000000,572.000000,356.000000,228.000000
4600.000000,3268.000000,3952.000000,572.000000,356.000000,228.000000
4596.000000,3264.000000,3940.000000,572.000000,356.000000,228.000000
4600.000000,3272.000000,3952.000000,572.000000,356.000000,228.000000
4600.000000,3264.000000,3948.000000,572.000000,356.000000,228.000000
4596.000000,3268.000000,3952.000000,572.000000,356.000000,228.000000
4600.000000,3268.000000,3948.000000,572.000000,356.000000,228.000000
4600.000000,3272.000000,3952.000000,572.000000,356.000000,228.000000
4600.000000,3276.000000,3956.000000,572.000000,356.000000,228.000000
4600.000000,3272.000000,3948.000000,572.000000,356.000000,228.000000
4604.000000,3276.000000,3960.000000,572.000000,356.000000,228.000000
4600.000000,3272.000000,3944.000000,572.000000,356.000000,228.000000
4600.000000,3276.000000,3956.000000,572.000000,356.000000,228.000000
4600.000000,3276.000000,3956.000000,572.000000,356.000000,228.000000
4600.000000,3276.000000,3948.000000,572.000000,356.000000,228.000000
4600.000000,3276.000000,3956.000000,572.000000,356.000000,228.000000
4600.000000,3276.000000,3956.000000,572.000000,356.000000,228.000000
4600.000000,3272.000000,3944.000000,572.000000,356.000000,228.000000
4596.000000,3272.000000,3952.000000,572.000000,356.000000,228.000000
4588.000000,3260.000000,3936.000000,572.000000,356.000000,228.000000
4592.000000,3260.000000,3948.000000,572.000000,356.000000,228.000000
4592.000000,3256.000000,3940.000000,572.000000,356.000000,228.000000
4592.000000,3256.000000,3944.000000,572.000000,356.000000,228.000000
4588.000000,3256.000000,3936.000000,572.000000,356.000000,228.000000
4592.000000,3256.000000,3940.000000,572.000000,356.000000,228.000000
4596.000000,3260.000000,3952.000000,572.000000,356.000000,228.000000
4596.000000,3260.000000,3948.000000,572.000000,356.000000,228.000000
4596.000000,3260.000000,3940.000000,572.000000,356.000000,228.000000
4592.000000,3260.000000,3948.000000,572.000000,356.000000,228.000000
4592.000000,3256.000000,3940.000000,572.000000,356.000000,228.000000
4592.000000,3260.000000,3940.000000,572.000000,356.000000,228.000000
4596.000000,3260.000000,3948.000000,572.000000,356.000000,228.000000
4592.000000,3256.000000,3940.000000,572.000000,356.000000,228.000000
4596.000000,3260.000000,3940.000000,572.000000,356.000000,228.000000
4592.000000,3256.000000,3932.000000,572.000000,356.000000,228.000000
4592.000000,3260.000000,3944.000000,572.000000,356.000000,228.000000
4592.000000,3256.000000,3936.000000,572.000000,356.000000,228.000000
4592.000000,3260.000000,3948.000000,572.000000,356.000000,228.000000
4596.000000,3260.000000,3940.000000,572.000000,356.000000,228.000000
4596.000000,3264.000000,3944.000000,572.000000,356.000000,228.000000
4596.000000,3264.000000,3948.000000,572.000000,356.000000,228.000000
4596.000000,3268.000000,3952.000000,572.000000,356.000000,228.000000
4596.000000,3264.000000,3940.000000,572.000000,356.000000,228.000000
4600.000000,3272.000000,3952.000000,572.000000,356.000000,228.000000
4596.000000,3268.000000,3944.000000,572.000000,356.000000,228.000000
4600.000000,3272.000000,3956.000000,572.000000,356.000000,228.000000
4600.000000,3268.000000,3948.000000,572.000000,356.000000,228.000000
4600.000000,3272.000000,3956.000000,572.000000,356.000000,228.000000
4600.000000,3276.000000,3956.000000,572.000000,356.000000,228.000000
4604.000000,3276.000000,3956.000000,572.000000,356.000000,228.000000
4608.000000,3284.000000,3964.000000,572.000000,356.000000,228.000000
4600.000000,3276.000000,3948.000000,572.000000,356.000000,228.000000
4596.000000,3276.000000,3944.000000,572.000000,356.000000,228.000000
4600.000000,3276.000000,3960.000000,572.000000,356.000000,228.000000
4596.000000,3268.000000,3944.000000,572.000000,356.000000,228.000000
4596.000000,3268.000000,3948.000000,572.000000,356.000000,228.000000
4588.000000,3260.000000,3940.000000,572.000000,356.000000,228.000000
4588.000000,3256.000000,3940.000000,572.000000,356.000000,228.000000
4588.000000,3260.000000,3944.000000,572.000000,356.000000,228.000000
4584.000000,3252.000000,3932.000000,572.000000,356.000000,228.000000
4588.000000,3256.000000,3940.000000,572.000000,356.000000,228.000000
4584.000000,3248.000000,3932.000000,572.000000,356.000000,228.000000
4588.000000,3252.000000,3944.000000,572.000000,356.000000,228.000000
4588.000000,3252.000000,3936.000000,572.000000,356.000000,228.000000
4588.000000,3256.000000,3940.000000,572.000000,356.000000,228.000000
4588.000000,3256.000000,3940.000000,572.000000,356.000000,228.000000
4584.000000,3252.000000,3936.000000,572.000000,356.000000,228.000000
4588.000000,3252.000000,3936.000000,572.000000,356.000000,228.000000
4592.000000,3260.000000,3944.000000,572.000000,356.000000,228.000000
4584.000000,3248.000000,3932.000000,572.000000,356.000000,228.000000
4584.000000,3256.000000,3944.000000,572.000000,356.000000,228.000000
4584.000000,3252.000000,3928.000000,572.000000,356.000000,228.000000
4592.000000,3260.000000,3940.000000,572.000000,356.000000,228.000000
4592.000000,3256.000000,3940.000000,572.000000,356.000000,228.000000
4588.000000,3256.000000,3940.000000,572.000000,356.000000,228.000000
4592.000000,3264.000000,3948.000000,572.000000,356.000000,228.000000
4584.000000,3256.000000,3936.000000,572.000000,356.000000,228.000000
4596.000000,3268.000000,3952.000000,572.000000,356.000000,228.000000
4596.000000,3268.000000,3956.000000,572.000000,356.000000,228.000000
4596.000000,3264.000000,3944.000000,572.000000,356.000000,228.000000
4600.000000,3272.000000,3952.000000,572.000000,356.000000,228.000000
4592.000000,3268.000000,3944.000000,572.000000,356.000000,228.000000
4592.000000,3268.000000,3944.000000,572.000000,356.000000,228.000000
4596.000000,3272.000000,3956.000000,572.000000,356.000000,228.000000
4592.000000,3268.000000,3944.000000,572.000000,356.000000,228.000000
4596.000000,3276.000000,3956.000000,572.000000,356.000000,228.000000
4596.000000,3272.000000,3944.000000,572.000000,356.000000,228.000000
4596.000000,3276.000000,3956.000000,572.000000,356.000000,228.000000
4596.000000,3276.000000,3948.000000,572.000000,356.000000,228.000000
4592.000000,3276.000000,3948.000000,572.000000,356.000000,228.000000
4596.000000,3276.000000,3952.000000,572.000000,356.000000,228.000000
4592.000000,3272.000000,3948.000000,572.000000,356.000000,228.000000
4592.000000,3268.000000,3944.000000,572.000000,356.000000,228.000000
4588.000000,3268.000000,3948.000000,572.000000,356.000000,228.000000
4584.000000,3260.000000,3936.000000,572.000000,356.000000,228.000000
4588.000000,3264.000000,3944.000000,572.000000,356.000000,228.000000
4584.000000,3256.000000,3936.000000,572.000000,356.000000,228.000000
4588.000000,3260.000000,3940.000000,572.000000,356.000000,228.000000
4584.000000,3260.000000,3944.000000,572.000000,356.000000,228.000000
4584.000000,3256.000000,3936.000000,572.000000,356.000000,228.000000
4588.000000,3260.000000,3948.000000,572.000000,356.000000,228.000000
4588.000000,3260.000000,3936.000000,572.000000,356.000000,228.000000
4588.000000,3264.000000,3944.000000,572.000000,356.000000,228.000000
4584.000000,3260.000000,3940.000000,572.000000,356.000000,228.000000
4584.000000,3256.000000,3932.000000,572.000000,356.000000,228.000000
4588.000000,3264.000000,3944.000000,572.000000,356.000000,228.000000
4584.000000,3260.000000,3936.000000,572.000000,356.000000,228.000000
4584.000000,3260.000000,3940.000000,572.000000,356.000000,228.000000
4584.000000,3264.000000,3940.000000,572.000000,356.000000,228.000000
4584.000000,3264.000000,3936.000000,572.000000,356.000000,228.000000
4588.000000,3268.000000,3952.000000,572.000000,356.000000,228.000000
4584.000000,3268.000000,3940.000000,572.000000,356.000000,228.000000
4588.000000,3272.000000,3948.000000,572.000000,356.000000,228.000000
4588.000000,3268.000000,3944.000000,572.000000,356.000000,228.000000
4588.000000,3272.000000,3948.000000,572.000000,356.000000,228.000000
4592.000000,3280.000000,3952.000000,572.000000,356.000000,228.000000
4592.000000,3280.000000,3948.000000,572.000000,356.000000,228.000000
4588.000000,3276.000000,3948.000000,572.000000,356.000000,228.000000
4592.000000,3284.000000,3956.000000,572.000000,356.000000,228.000000
4592.000000,3280.000000,3948.000000,572.000000,356.000000,228.000000
4592.000000,3284.000000,3956.000000,572.000000,356.000000,228.000000
4596.000000,3288.000000,3956.000000,572.000000,356.000000,228.000000
4592.000000,3288.000000,3956.000000,572.000000,356.000000,228.000000
4592.000000,3288.000000,3956.000000,572.000000,356.000000,228.000000
4596.000000,3292.000000,3956.000000,572.000000,356.000000,228.000000
4600.000000,3296.000000,3968.000000,572.000000,356.000000,228.000000
4600.000000,3292.000000,3956.000000,572.000000,356.000000,228.000000
4604.000000,3300.000000,3964.000000,572.000000,356.000000,228.000000
4596.000000,3292.000000,3956.000000,572.000000,356.000000,228.000000
4596.000000,3292.000000,3956.000000,572.000000,356.000000,228.000000
4596.000000,3292.000000,3960.000000,572.000000,356.000000,228.000000
4592.000000,3284.000000,3948.000000,572.000000,356.000000,228.000000
4596.000000,3284.000000,3956.000000,572.000000,356.000000,228.000000
4592.000000,3284.000000,3956.000000,572.000000,356.000000,228.000000
4588.000000,3276.000000,3944.000000,572.000000,356.000000,228.000000
4588.000000,3280.000000,3956.000000,572.000000,356.000000,228.000000
4588.000000,3280.000000,3944.000000,572.000000,356.000000,228.000000
4588.000000,3284.000000,3952.000000,572.000000,356.000000,228.000000
4588.000000,3280.000000,3948.000000,572.000000,356.000000,228.000000
4588.000000,3284.000000,3952.000000,572.000000,356.000000,228.000000
4588.000000,3288.000000,3952.000000,572.000000,356.000000,228.000000
4588.000000,3284.000000,3948.000000,572.000000,356.000000,228.000000
4588.000000,3288.000000,3956.000000,572.000000,356.000000,228.000000
4592.000000,3292.000000,3960.000000,572.000000,356.000000,228.000000
4592.000000,3288.000000,3952.000000,572.000000,356.000000,228.000000
4592.000000,3296.000000,3960.000000,572.000000,356.000000,228.000000
4596.000000,3292.000000,3956.000000,572.000000,356.000000,228.000000
4592.000000,3296.000000,3956.000000,572.000000,356.000000,228.000000
4592.000000,3296.000000,3956.000000,572.000000,356.000000,228.000000
4596.000000,3296.000000,3960.000000,572.000000,356.000000,228.000000
4596.000000,3304.000000,3964.000000,572.000000,356.000000,228.000000
4592.000000,3296.000000,3956.000000,572.000000,356.000000,228.000000
4596.000000,3304.000000,3968.000000,572.000000,356.000000,228.000000
4596.000000,3300.000000,3960.000000,572.000000,356.000000,228.000000
4600.000000,3308.000000,3968.000000,572.000000,356.000000,228.000000
4600.000000,3308.000000,3964.000000,572.000000,356.000000,228.000000
4600.000000,3308.000000,3964.000000,572.000000,356.000000,228.000000
4604.000000,3312.000000,3968.000000,572.000000,356.000000,228.000000
4600.000000,3316.000000,3972.000000,572.000000,356.000000,228.000000
4600.000000,3312.000000,3964.000000,572.000000,356.000000,228.000000
4604.000000,3320.000000,3976.000000,572.000000,356.000000,228.000000
4604.000000,3316.000000,3968.000000,572.000000,356.000000,228.000000
4604.000000,3320.000000,3976.000000,572.000000,356.000000,228.000000
4604.000000,3316.000000,3964.000000,572.000000,356.000000,228.000000
4604.000000,3316.000000,3972.000000,572.000000,356.000000,228.000000
4600.000000,3312.000000,3972.000000,572.000000,356.000000,228.000000
4596.000000,3308.000000,3960.000000,572.000000,356.000000,228.000000
4600.000000,3312.000000,3972.000000,572.000000,356.000000,228.000000
4596.000000,3308.000000,3960.000000,572.000000,356.000000,228.000000
4600.000000,3312.000000,3968.000000,572.000000,356.000000,228.000000
4596.000000,3308.000000,3968.000000,572.000000,356.000000,228.000000
4592.000000,3304.000000,3960.000000,572.000000,356.000000,228.000000
4596.000000,3308.000000,3968.000000,572.000000,356.000000,228.000000
4600.000000,3312.000000,3968.000000,572.000000,356.000000,228.000000
4600.000000,3308.000000,3964.000000,572.000000,356.000000,228.000000
4600.000000,3316.000000,3976.000000,572.000000,356.000000,228.000000
4600.000000,3308.000000,3960.000000,572.000000,356.000000,228.000000
4596.000000,3312.000000,3968.000000,572.000000,356.000000,228.000000
4600.000000,3312.000000,3964.000000,572.000000,356.000000,228.000000
4596.000000,3312.000000,3968.000000,572.000000,356.000000,228.000000
4600.000000,3316.000000,3968.000000,572.000000,356.000000,228.000000
4600.000000,3312.000000,3964.000000,572.000000,356.000000,228.000000
4600.000000,3320.000000,3972.000000,572.000000,356.000000,228.000000
4600.000000,3320.000000,3972.000000,572.000000,356.000000,228.000000
4600.000000,3316.000000,3964.000000,572.000000,356.000000,228.000000
4608.000000,3324.000000,3980.000000,572.000000,356.000000,228.000000
4604.000000,3320.000000,3972.000000,572.000000,356.000000,228.000000
4604.000000,3324.000000,3976.000000,572.000000,356.000000,228.000000
4604.000000,3324.000000,3972.000000,572.000000,356.000000,228.000000
4604.000000,3324.000000,3976.000000,572.000000,356.000000,228.000000
4604.000000,3328.000000,3980.000000,572.000000,356.000000,228.000000
4604.000000,3328.000000,3972.000000,572.000000,356.000000,228.000000
4604.000000,3332.000000,3984.000000,572.000000,356.000000,228.000000
4604.000000,3328.000000,3972.000000,572.000000,356.000000,228.000000
4608.000000,3336.000000,3984.000000,572.000000,356.000000,228.000000
4604.000000,3332.000000,3980.000000,572.000000,356.000000,228.000000
4608.000000,3332.000000,3976.000000,572.000000,356.000000,228.000000
4608.000000,3336.000000,3984.000000,572.000000,356.000000,228.000000
4608.000000,3344.000000,3984.000000,572.000000,356.000000,228.000000
4608.000000,3336.000000,3976.000000,572.000000,356.000000,228.000000
4604.000000,3336.000000,3984.000000,572.000000,356.000000,228.000000
4600.000000,3328.000000,3972.000000,572.000000,356.000000,228.000000
4600.000000,3328.000000,3980.000000,572.000000,356.000000,228.000000
4596.000000,3320.000000,3968.000000,572.000000,356.000000,228.000000
4592.000000,3320.000000,3964.000000,572.000000,356.000000,228.000000
4596.000000,3316.000000,3968.000000,572.000000,356.000000,228.000000
4596.000000,3316.000000,3964.000000,572.000000,356.000000,228.000000
4592.000000,3320.000000,3968.000000,572.000000,356.000000,228.000000
4592.000000,3312.000000,3960.000000,572.000000,356.000000,228.000000
4592.000000,3316.000000,3960.000000,572.000000,356.000000,228.000000
4596.000000,3324.000000,3976.000000,572.000000,356.000000,228.000000
4596.000000,3316.000000,3960.000000,572.000000,356.000000,228.000000
4596.000000,3320.000000,3972.000000,572.000000,356.000000,228.000000
4596.000000,3320.000000,3968.000000,572.000000,356.000000,228.000000
4596.000000,3316.000000,3968.000000,572.000000,356.000000,228.000000
4596.000000,3320.000000,3972.000000,572.000000,356.000000,228.000000
4596.000000,3316.000000,3964.000000,572.000000,356.000000,228.000000
4596.000000,3324.000000,3972.000000,572.000000,356.000000,228.000000
4592.000000,3316.000000,3964.000000,572.000000,356.000000,228.000000
4596.000000,3320.000000,3972.000000,572.000000,356.000000,228.000000
4592.000000,3320.000000,3964.000000,572.000000,356.000000,228.000000
4600.000000,3324.000000,3972.000000,572.000000,356.000000,228.000000
4596.000000,3324.000000,3972.000000,572.000000,356.000000,228.000000
4600.000000,3328.000000,3972.000000,572.000000,356.000000,228.000000
4596.000000,3324.000000,3968.000000,572.000000,356.000000,228.000000
4596.000000,3332.000000,3980.000000,572.000000,356.000000,228.000000
4596.000000,3324.000000,3968.000000,572.000000,356.000000,228.000000
4596.000000,3332.000000,3976.000000,572.000000,356.000000,228.000000
4596.000000,3328.000000,3968.000000,572.000000,356.000000,228.000000
4596.000000,3328.000000,3972.000000,572.000000,356.000000,228.000000
4592.000000,3328.000000,3976.000000,572.000000,356.000000,228.000000
4592.000000,3328.000000,3968.000000,572.000000,356.000000,228.000000
4596.000000,3336.000000,3976.000000,572.000000,356.000000,228.000000
4600.000000,3328.000000,3968.000000,572.000000,356.000000,228.000000
4596.000000,3336.000000,3976.000000,572.000000,356.000000,228.000000
4600.000000,3340.000000,3980.000000,572.000000,356.000000,228.000000
4600.000000,3332.000000,3972.000000,572.000000,356.000000,228.000000
4600.000000,3340.000000,3980.000000,572.000000,356.000000,228.000000
4596.000000,3332.000000,3972.000000,572.000000,356.000000,228.000000
4588.000000,3320.000000,3964.000000,572.000000,356.000000,228.000000
4596.000000,3328.000000,3972.000000,572.000000,356.000000,228.000000
4588.000000,3320.000000,3960.000000,572.000000,356.000000,228.000000
4588.000000,3320.000000,3968.000000,572.000000,356.000000,228.000000
4584.000000,3312.000000,3952.000000,572.000000,356.000000,228.000000
4588.000000,3320.000000,3964.000000,572.000000,356.000000,228.000000
4584.000000,3312.000000,3956.000000,572.000000,356.000000,228.000000
4584.000000,3312.000000,3956.000000,572.000000,356.000000,228.000000
4588.000000,3316.000000,3964.000000,572.000000,356.000000,228.000000
4584.000000,3316.000000,3960.000000,572.000000,356.000000,228.000000
4580.000000,3308.000000,3956.000000,572.000000,356.000000,228.000000
4584.000000,3312.000000,3964.000000,572.000000,356.000000,228.000000
4580.000000,3308.000000,3948.000000,572.000000,356.000000,228.000000
4584.000000,3312.000000,3960.000000,572.000000,356.000000,228.000000
4580.000000,3304.000000,3952.000000,572.000000,356.000000,228.000000
4584.000000,3312.000000,3960.000000,572.000000,356.000000,228.000000
4584.000000,3312.000000,3960.000000,572.000000,356.000000,228.000000
4584.000000,3308.000000,3948.000000,572.000000,356.000000,228.000000
4580.000000,3312.000000,3960.000000,572.000000,356.000000,228.000000
4580.000000,3308.000000,3948.000000,572.000000,356.000000,228.000000
4580.000000,3316.000000,3960.000000,572.000000,356.000000,228.000000
4580.000000,3308.000000,3952.000000,572.000000,356.000000,228.000000
4580.000000,3308.000000,3952.000000,572.000000,356.000000,228.000000
4584.000000,3316.000000,3960.000000,572.000000,356.000000,228.000000
4580.000000,3312.000000,3952.000000,572.000000,356.000000,228.000000
4580.000000,3312.000000,3956.000000,572.000000,356.000000,228.000000
4584.000000,3320.000000,3964.000000,572.000000,356.000000,228.000000
4584.000000,3316.000000,3956.000000,572.000000,356.000000,228.000000
4588.000000,3324.000000,3972.000000,572.000000,356.000000,228.000000
4584.000000,3320.000000,3960.000000,572.000000,356.000000,228.000000
4592.000000,3328.000000,3968.000000,572.000000,356.000000,228.000000
4588.000000,3324.000000,3964.000000,572.000000,356.000000,228.000000
4592.000000,3328.000000,3960.000000,572.000000,356.000000,228.000000
4592.000000,3332.000000,3976.000000,572.000000,356.000000,228.000000
4592.000000,3328.000000,3968.000000,572.000000,356.000000,228.000000
4592.000000,3328.000000,3968.000000,572.000000,356.000000,228.000000
4592.000000,3332.000000,3976.000000,572.000000,356.000000,228.000000
4592.000000,3324.000000,3964.000000,572.000000,356.000000,228.000000
4588.000000,3324.000000,3968.000000,572.000000,356.000000,228.000000
4584.000000,3316.000000,3960.000000,572.000000,356.000000,228.000000
4584.000000,3312.000000,3960.000000,572.000000,356.000000,228.000000
4584.000000,3316.000000,3960.000000,572.000000,356.000000,228.000000
4584.000000,3308.000000,3952.000000,572.000000,356.000000,228.000000
4584.000000,3312.000000,3964.000000,572.000000,356.000000,228.000000
4584.000000,3308.000000,3952.000000,572.000000,356.000000,228.000000
4584.000000,3316.000000,3964.000000,572.000000,356.000000,228.000000
4584.000000,3312.000000,3956.000000,572.000000,356.000000,228.000000
4584.000000,3312.000000,3956.000000,572.000000,356.000000,228.000000
4584.000000,3312.000000,3960.000000,572.000000,356.000000,228.000000
4588.000000,3312.000000,3960.000000,572.000000,356.000000,228.000000
4588.000000,3312.000000,3960.000000,572.000000,356.000000,228.000000
4588.000000,3312.000000,3964.000000,572.000000,356.000000,228.000000
4584.000000,3312.000000,3952.000000,572.000000,356.000000,228.000000
4584.000000,3316.000000,3964.000000,572.000000,356.000000,228.000000
4588.000000,3312.000000,3956.000000,572.000000,356.000000,228.000000
4588.000000,3316.000000,3964.000000,572.000000,356.000000,228.000000
4584.000000,3312.000000,3956.000000,572.000000,356.000000,228.000000
4584.000000,3316.000000,3956.000000,572.000000,356.000000,228.000000
4584.000000,3316.000000,3964.000000,572.000000,356.000000,228.000000
4584.000000,3312.000000,3960.000000,572.000000,356.000000,228.000000
4588.000000,3320.000000,3968.000000,572.000000,356.000000,228.000000
4584.000000,3320.000000,3968.000000,572.000000,356.000000,228.000000
4588.000000,3316.000000,3956.000000,572.000000,356.000000,228.000000
4588.000000,3320.000000,3964.000000,572.000000,356.000000,228.000000
4584.000000,3316.000000,3956.000000,572.000000,356.000000,228.000000
4584.000000,3320.000000,3960.000000,572.000000,356.000000,228.000000
4588.000000,3324.000000,3968.000000,572.000000,356.000000,228.000000
4588.000000,3320.000000,3960.000000,572.000000,356.000000,228.000000
4592.000000,3332.000000,3972.000000,572.000000,356.000000,228.000000
4592.000000,3324.000000,3964.000000,572.000000,356.000000,228.000000
4596.000000,3332.000000,3976.000000,572.000000,356.000000,228.000000
4596.000000,3328.000000,3968.000000,572.000000,356.000000,228.000000
4596.000000,3328.000000,3972.000000,572.000000,356.000000,228.000000
4588.000000,3328.000000,3976.000000,572.000000,356.000000,228.000000
4592.000000,3324.000000,3964.000000,572.000000,356.000000,228.000000
4588.000000,3320.000000,3960.000000,572.000000,356.000000,228.000000
4588.000000,3316.000000,3968.000000,572.000000,356.000000,228.000000
4584.000000,3312.000000,3952.000000,572.000000,356.000000,228.000000
4588.000000,3316.000000,3960.000000,572.000000,356.000000,228.000000
4584.000000,3308.000000,3952.000000,572.000000,356.000000,228.000000
4584.000000,3308.000000,3960.000000,572.000000,356.000000,228.000000
4584.000000,3304.000000,3956.000000,572.000000,356.000000,228.000000
4584.000000,3304.000000,3952.000000,572.000000,356.000000,228.000000
4588.000000,3312.000000,3960.000000,572.000000,356.000000,228.000000
4584.000000,3304.000000,3948.000000,572.000000,356.000000,228.000000
4584.000000,3308.000000,3960.000000,572.000000,356.000000,228.000000
4584.000000,3300.000000,3948.000000,572.000000,356.000000,228.000000
4580.000000,3304.000000,3956.000000,572.000000,356.000000,228.000000
4584.000000,3304.000000,3956.000000,572.000000,356.000000,228.000000
4584.000000,3304.000000,3952.000000,572.000000,356.000000,228.000000
4588.000000,3308.000000,3956.000000,572.000000,356.000000,228.000000
4584.000000,3308.000000,3956.000000,572.000000,356.000000,228.000000
4580.000000,3304.000000,3952.000000,572.000000,356.000000,228.000000
4584.000000,3308.000000,3960.000000,572.000000,356.000000,228.000000
4584.000000,3300.000000,3948.000000,572.000000,356.000000,228.000000
4588.000000,3312.000000,3964.000000,572.000000,356.000000,228.000000
4584.000000,3308.000000,3956.000000,572.000000,356.000000,228.000000
4584.000000,3312.000000,3956.000000,572.000000,356.000000,228.000000
4584.000000,3312.000000,3960.000000,572.000000,356.000000,228.000000
4584.000000,3312.000000,3956.000000,572.000000,356.000000,228.000000
4588.000000,3320.000000,3968.000000,572.000000,356.000000,228.000000
4588.000000,3320.000000,3968.000000,572.000000,356.000000,228.000000
4588.000000,3316.000000,3956.000000,572.000000,356.000000,228.000000
4592.000000,3320.000000,3968.000000,572.000000,356.000000,228.000000
4592.000000,3320.000000,3964.000000,572.000000,356.000000,228.000000
4596.000000,3324.000000,3972.000000,572.000000,356.000000,228.000000
4592.000000,3324.000000,3968.000000,572.000000,356.000000,228.000000
4596.000000,3324.000000,3968.000000,572.000000,356.000000,228.000000
4604.000000,3332.000000,3980.000000,572.000000,356.000000,228.000000
4600.000000,3328.000000,3968.000000,572.000000,356.000000,228.000000
4600.000000,3332.000000,3976.000000,572.000000,356.000000,228.000000
4592.000000,3320.000000,3964.000000,572.000000,356.000000,228.000000
4588.000000,3320.000000,3968.000000,572.000000,356.000000,228.000000
4588.000000,3316.000000,3964.000000,572.000000,356.000000,228.000000
4588.000000,3312.000000,3956.000000,572.000000,356.000000,228.000000
4584.000000,3312.000000,3960.000000,572.000000,356.000000,228.000000
4584.000000,3308.000000,3956.000000,572.000000,356.000000,228.000000
4580.000000,3300.000000,3948.000000,572.000000,356.000000,228.000000
4584.000000,3308.000000,3960.000000,572.000000,356.000000,228.000000
4584.000000,3300.000000,3948.000000,572.000000,356.000000,228.000000
4584.000000,3304.000000,3956.000000,572.000000,356.000000,228.000000
4584.000000,3300.000000,3948.000000,572.000000,356.000000,228.000000
4584.000000,3304.000000,3952.000000,572.000000,356.000000,228.000000
4584.000000,3308.000000,3960.000000,572.000000,356.000000,228.000000
4584.000000,3300.000000,3952.000000,572.000000,356.000000,228.000000
4584.000000,3308.000000,3960.000000,572.000000,356.000000,228.000000
4584.000000,3300.000000,3948.000000,572.000000,356.000000,228.000000
4584.000000,3304.000000,3952.000000,572.000000,356.000000,228.000000
4584.000000,3308.000000,3960.000000,572.000000,356.000000,228.000000
4584.000000,3300.000000,3952.000000,572.000000,356.000000,228.000000
4588.000000,3304.000000,3956.000000,572.000000,356.000000,228.000000
4584.000000,3304.000000,3956.000000,572.000000,356.000000,228.000000
4584.000000,3304.000000,3956.000000,572.000000,356.000000,228.000000
4588.000000,3308.000000,3960.000000,572.000000,356.000000,228.000000
4588.000000,3304.000000,3956.000000,572.000000,356.000000,228.000000
4588.000000,3312.000000,3964.000000,572.000000,356.000000,228.000000
4584.000000,3308.000000,3952.000000,572.000000,356.000000,228.000000
4584.000000,3312.000000,3960.000000,572.000000,356.000000,228.000000
4584.000000,3308.000000,3956.000000,572.000000,356.000000,228.000000
4584.000000,3308.000000,3952.000000,572.000000,356.000000,228.000000
4584.000000,3312.000000,3956.000000,572.000000,356.000000,228.000000
4584.000000,3312.000000,3960.000000,572.000000,356.000000,228.000000
4580.000000,3308.000000,3948.000000,572.000000,356.000000,228.000000
4584.000000,3312.000000,3960.000000,572.000000,356.000000,228.000000
4584.000000,3308.000000,3952.000000,572.000000,356.000000,228.000000
4584.000000,3312.000000,3964.000000,572.000000,356.000000,228.000000
4584.000000,3312.000000,3956.000000,572.000000,356.000000,228.000000
4584.000000,3316.000000,3956.000000,572.000000,356.000000,228.000000
4584.000000,3320.000000,3964.000000,572.000000,356.000000,228.000000
4584.000000,3316.000000,3956.000000,572.000000,356.000000,228.000000
4584.000000,3316.000000,3960.000000,572.000000,356.000000,228.000000
4584.000000,3312.000000,3952.000000,572.000000,356.000000,228.000000
4580.000000,3308.000000,3952.000000,572.000000,356.000000,228.000000
4580.000000,3308.000000,3956.000000,572.000000,356.000000,228.000000
4580.000000,3304.000000,3952.000000,572.000000,356.000000,228.000000
4576.000000,3300.000000,3952.000000,572.000000,356.000000,228.000000
4576.000000,3296.000000,3948.000000,572.000000,356.000000,228.000000
4576.000000,3296.000000,3944.000000,572.000000,356.000000,228.000000
4580.000000,3300.000000,3952.000000,572.000000,356.000000,228.000000
4576.000000,3292.000000,3940.000000,572.000000,356.000000,228.000000
4576.000000,3300.000000,3948.000000,572.000000,356.000000,228.000000
4576.000000,3292.000000,3940.000000,572.000000,356.000000,228.000000
4576.000000,3296.000000,3952.000000,572.000000,356.000000,228.000000
4576.000000,3296.000000,3948.000000,572.000000,356.000000,228.000000
4572.000000,3292.000000,3940.000000,572.000000,356.000000,228.000000
4576.000000,3300.000000,3952.000000,572.000000,356.000000,228.000000
4576.000000,3300.000000,3948.000000,572.000000,356.000000,228.000000
4576.000000,3296.000000,3940.000000,572.000000,356.000000,228.000000
4576.000000,3300.000000,3948.000000,572.000000,356.000000,228.000000
4576.000000,3296.000000,3940.000000,572.000000,356.000000,228.000000
4576.000000,3300.000000,3952.000000,572.000000,356.000000,228.000000
4576.000000,3300.000000,3952.000000,572.000000,356.000000,228.000000
4576.000000,3300.000000,3948.000000,572.000000,356.000000,228.000000
4580.000000,3308.000000,3960.000000,572.000000,356.000000,228.000000
4580.000000,3300.000000,3952.000000,572.000000,356.000000,228.000000
4584.000000,3312.000000,3960.000000,572.000000,356.000000,228.000000
4580.000000,3308.000000,3948.000000,572.000000,356.000000,228.000000
4580.000000,3308.000000,3960.000000,572.000000,356.000000,228.000000
4580.000000,3304.000000,3952.000000,572.000000,356.000000,228.000000
4580.000000,3308.000000,3948.000000,572.000000,356.000000,228.000000
4584.000000,3308.000000,3956.000000,572.000000,356.000000,228.000000
4580.000000,3312.000000,3956.000000,572.000000,356.000000,228.000000
4584.000000,3312.000000,3948.000000,572.000000,356.000000,228.000000
4584.000000,3320.000000,3960.000000,572.000000,356.000000,228.000000
4584.000000,3316.000000,3956.000000,572.000000,356.000000,228.000000
4584.000000,3320.000000,3964.000000,572.000000,356.000000,228.000000
4584.000000,3316.000000,3956.000000,572.000000,356.000000,228.000000
4584.000000,3316.000000,3960.000000,572.000000,356.000000,228.000000
4584.000000,3316.000000,3960.000000,572.000000,356.000000,228.000000
4584.000000,3308.000000,3952.000000,572.000000,356.000000,228.000000
4580.000000,3308.000000,3956.000000,572.000000,356.000000,228.000000
4576.000000,3300.000000,3940.000000,572.000000,356.000000,228.000000
4576.000000,3300.000000,3948.000000,572.000000,356.000000,228.000000
4580.000000,3308.000000,3956.000000,572.000000,356.000000,228.000000
4580.000000,3300.000000,3948.000000,572.000000,356.000000,228.000000
4576.000000,3300.000000,3948.000000,572.000000,356.000000,228.000000
4576.000000,3300.000000,3948.000000,572.000000,356.000000,228.000000
4576.000000,3300.000000,3944.000000,572.000000,356.000000,228.000000
4580.000000,3304.000000,3960.000000,572.000000,356.000000,228.000000
4580.000000,3300.000000,3948.000000,572.000000,356.000000,228.000000
4580.000000,3304.000000,3956.000000,572.000000,356.000000,228.000000
4580.000000,3300.000000,3944.000000,572.000000,356.000000,228.000000
4580.000000,3304.000000,3952.000000,572.000000,356.000000,228.000000
4584.000000,3308.000000,3952.000000,572.000000,356.000000,228.000000
4584.000000,3304.000000,3952.000000,572.000000,356.000000,228.000000
4584.000000,3308.000000,3956.000000,572.000000,356.000000,228.000000
4584.000000,3312.000000,3964.000000,572.000000,356.000000,228.000000
4584.000000,3308.000000,3952.000000,572.000000,356.000000,228.000000
4584.000000,3316.000000,3964.000000,572.000000,356.000000,228.000000
4584.000000,3308.000000,3948.000000,572.000000,356.000000,228.000000
4588.000000,3316.000000,3960.000000,572.000000,356.000000,228.000000
4584.000000,3312.000000,3956.000000,572.000000,356.000000,228.000000
4584.000000,3316.000000,3960.000000,572.000000,356.000000,228.000000
4588.000000,3316.000000,3964.000000,572.000000,356.000000,228.000000
4584.000000,3312.000000,3956.000000,572.000000,356.000000,228.000000
4584.000000,3316.000000,3960.000000,572.000000,356.000000,228.000000
4584.000000,3312.000000,3952.000000,572.000000,356.000000,228.000000
4584.000000,3316.000000,3960.000000,572.000000,356.000000,228.000000
4588.000000,3324.000000,3972.000000,572.000000,356.000000,228.000000
4588.000000,3320.000000,3960.000000,572.000000,356.000000,228.000000
4588.000000,3320.000000,3964.000000,572.000000,356.000000,228.000000
4588.000000,3320.000000,3964.000000,572.000000,356.000000,228.000000
4584.000000,3320.000000,3960.000000,572.000000,356.000000,228.000000
4588.000000,3328.000000,3972.000000,572.000000,356.000000,228.000000
4588.000000,3324.000000,3960.000000,572.000000,356.000000,228.000000
4584.000000,3324.000000,3964.000000,572.000000,356.000000,228.000000
4584.000000,3312.000000,3952.000000,572.000000,356.000000,228.000000
4580.000000,3312.000000,3952.000000,572.000000,356.000000,228.000000
4580.000000,3312.000000,3952.000000,572.000000,356.000000,228.000000
4584.000000,3308.000000,3952.000000,572.000000,356.000000,228.000000
4580.000000,3312.000000,3956.000000,572.000000,356.000000,228.000000
4580.000000,3308.000000,3956.000000,572.000000,356.000000,228.000000
4580.000000,3300.000000,3944.000000,572.000000,356.000000,228.000000
4576.000000,3304.000000,3952.000000,572.000000,356.000000,228.000000
4576.000000,3296.000000,3940.000000,572.000000,356.000000,228.000000
4584.000000,3304.000000,3956.000000,572.000000,356.000000,228.000000
4580.000000,3300.000000,3952.000000,572.000000,356.000000,228.000000
4576.000000,3300.000000,3948.000000,572.000000,356.000000,228.000000
4576.000000,3300.000000,3952.000000,572.000000,356.000000,228.000000
4576.000000,3296.000000,3944.000000,572.000000,356.000000,228.000000
4580.000000,3304.000000,3956.000000,572.000000,356.000000,228.000000
4580.000000,3300.000000,3944.000000,572.000000,356.000000,228.000000
4580.000000,3304.000000,3952.000000,572.000000,356.000000,228.000000
4576.000000,3300.000000,3948.000000,572.000000,356.000000,228.000000
4576.000000,3296.000000,3952.000000,572.000000,356.000000,228.000000
4580.000000,3296.000000,3948.000000,572.000000,356.000000,228.000000
4576.000000,3304.000000,3952.000000,572.000000,356.000000,228.000000
4580.000000,3300.000000,3948.000000,572.000000,356.000000,228.000000
4576.000000,3304.000000,3956.000000,572.000000,356.000000,228.000000
4576.000000,3300.000000,3944.000000,572.000000,356.000000,228.000000
4584.000000,3308.000000,3956.000000,572.000000,356.000000,228.000000
4576.000000,3304.000000,3948.000000,572.000000,356.000000,228.000000
4576.000000,3304.000000,3948.000000,572.000000,356.000000,228.000000
4580.000000,3308.000000,3956.000000,572.000000,356.000000,228.000000
4576.000000,3304.000000,3948.000000,572.000000,356.000000,228.000000
4580.000000,3312.000000,3960.000000,572.000000,356.000000,228.000000
4576.000000,3304.000000,3948.000000,572.000000,356.000000,228.000000
4580.000000,3312.000000,3960.000000,572.000000,356.000000,228.000000
4580.000000,3312.000000,3956.000000,572.000000,356.000000,228.000000
4580.000000,3308.000000,3952.000000,572.000000,356.000000,228.000000
4580.000000,3312.000000,3956.000000,572.000000,356.000000,228.000000
4580.000000,3308.000000,3952.000000,572.000000,356.000000,228.000000
4576.000000,3308.000000,3948.000000,572.000000,356.000000,228.000000
4576.000000,3308.000000,3956.000000,572.000000,356.000000,228.000000
4568.000000,3296.000000,3936.000000,572.000000,356.000000,228.000000
4572.000000,3300.000000,3948.000000,572.000000,356.000000,228.000000
4564.000000,3288.000000,3932.000000,572.000000,356.000000,228.000000
4564.000000,3292.000000,3940.000000,572.000000,356.000000,228.000000
4568.000000,3288.000000,3936.000000,572.000000,356.000000,228.000000
4564.000000,3284.000000,3932.000000,572.000000,356.000000,228.000000
4560.000000,3284.000000,3940.000000,572.000000,356.000000,228.000000
4560.000000,3284.000000,3932.000000,572.000000,356.000000,228.000000
4564.000000,3284.000000,3936.000000,572.000000,356.000000,228.000000
4564.000000,3288.000000,3940.000000,572.000000,356.000000,228.000000
4564.000000,3280.000000,3932.000000,572.000000,356.000000,228.000000
4568.000000,3288.000000,3940.000000,572.000000,356.000000,228.000000
4564.000000,3288.000000,3936.000000,572.000000,356.000000,228.000000
4568.000000,3288.000000,3940.000000,572.000000,356.000000,228.000000
4568.000000,3284.000000,3940.000000,572.000000,356.000000,228.000000
4564.000000,3284.000000,3932.000000,572.000000,356.000000,228.000000
4568.000000,3288.000000,3940.000000,572.000000,356.000000,228.000000
4568.000000,3284.000000,3932.000000,572.000000,356.000000,228.000000
4564.000000,3284.000000,3944.000000,572.000000,356.000000,228.000000
4568.000000,3288.000000,3936.000000,572.000000,356.000000,228.000000
4568.000000,3288.000000,3936.000000,572.000000,356.000000,228.000000
4568.000000,3288.000000,3940.000000,572.000000,356.000000,228.000000
4568.000000,3288.000000,3940.000000,572.000000,356.000000,228.000000
4564.000000,3288.000000,3936.000000,572.000000,356.000000,228.000000
4568.000000,3296.000000,3944.000000,572.000000,356.000000,228.000000
4568.000000,3288.000000,3936.000000,572.000000,356.000000,228.000000
4576.000000,3300.000000,3952.000000,572.000000,356.000000,228.000000
4572.000000,3296.000000,3940.000000,572.000000,356.000000,228.000000
4576.000000,3300.000000,3948.000000,572.000000,356.000000,228.000000
4572.000000,3300.000000,3944.000000,572.000000,356.000000,228.000000
4572.000000,3300.000000,3944.000000,572.000000,356.000000,228.000000
4576.000000,3304.000000,3956.000000,572.000000,356.000000,228.000000
4580.000000,3304.000000,3948.000000,572.000000,356.000000,228.000000
4576.000000,3304.000000,3948.000000,572.000000,356.000000,228.000000
4580.000000,3312.000000,3960.000000,572.000000,356.000000,228.000000
4576.000000,3300.000000,3948.000000,572.000000,356.000000,228.000000
4576.000000,3304.000000,3956.000000,572.000000,356.000000,228.000000
4576.000000,3300.000000,3948.000000,572.000000,356.000000,228.000000
4572.000000,3296.000000,3944.000000,572.000000,356.000000,228.000000
4576.000000,3292.000000,3944.000000,572.000000,356.000000,228.000000
4568.000000,3284.000000,3936.000000,572.000000,356.000000,228.000000
4572.000000,3292.000000,3952.000000,572.000000,356.000000,228.000000
4572.000000,3288.000000,3940.000000,572.000000,356.000000,228.000000
4572.000000,3288.000000,3940.000000,572.000000,356.000000,228.000000
4572.000000,3288.000000,3940.000000,572.000000,356.000000,228.000000
4572.000000,3288.000000,3940.000000,572.000000,356.000000,228.000000
4572.000000,3292.000000,3944.000000,572.000000,356.000000,228.000000
4576.000000,3288.000000,3944.000000,572.000000,356.000000,228.000000
4572.000000,3288.000000,3940.000000,572.000000,356.000000,228.000000
4572.000000,3292.000000,3952.000000,572.000000,356.000000,228.000000
4572.000000,3288.000000,3936.000000,572.000000,356.000000,228.000000
4576.000000,3292.000000,3948.000000,572.000000,356.000000,228.000000
4572.000000,3292.000000,3940.000000,572.000000,356.000000,228.000000
4572.000000,3292.000000,3944.000000,572.000000,356.000000,228.000000
4576.000000,3292.000000,3944.000000,572.000000,356.000000,228.000000
4572.000000,3288.000000,3940.000000,572.000000,356.000000,228.000000
4572.000000,3292.000000,3948.000000,572.000000,356.000000,228.000000
4576.000000,3292.000000,3940.000000,572.000000,356.000000,228.000000
4576.000000,3296.000000,3948.000000,572.000000,356.000000,228.000000
4576.000000,3300.000000,3948.000000,572.000000,356.000000,228.000000
4572.000000,3288.000000,3936.000000,572.000000,356.000000,228.000000
4572.000000,3296.000000,3948.000000,572.000000,356.000000,228.000000
4576.000000,3296.000000,3944.000000,572.000000,356.000000,228.000000
4572.000000,3296.000000,3948.000000,572.000000,356.000000,228.000000
4576.000000,3300.000000,3952.000000,572.000000,356.000000,228.000000
4576.000000,3296.000000,3944.000000,572.000000,356.000000,228.000000
4580.000000,3304.000000,3956.000000,572.000000,356.000000,228.000000
4576.000000,3300.000000,3944.000000,572.000000,356.000000,228.000000
4576.000000,3300.000000,3952.000000,572.000000,356.000000,228.000000
4580.000000,3304.000000,3948.000000,572.000000,356.000000,228.000000
4580.000000,3300.000000,3948.000000,572.000000,356.000000,228.000000
4580.000000,3308.000000,3952.000000,572.000000,356.000000,228.000000
4576.000000,3304.000000,3948.000000,572.000000,356.000000,228.000000
4576.000000,3304.000000,3948.000000,572.000000,356.000000,228.000000
4580.000000,3304.000000,3956.000000,572.000000,356.000000,228.000000
4572.000000,3288.000000,3940.000000,572.000000,356.000000,228.000000
4568.000000,3288.000000,3944.000000,572.000000,356.000000,228.000000
4568.000000,3284.000000,3936.000000,572.000000,356.000000,228.000000
4568.000000,3284.000000,3936.000000,572.000000,356.000000,228.000000
4568.000000,3280.000000,3936.000000,572.000000,356.000000,228.000000
4560.000000,3272.000000,3924.000000,572.000000,356.000000,228.000000
4568.000000,3284.000000,3940.000000,572.000000,356.000000,228.000000
4564.000000,3272.000000,3928.000000,572.000000,356.000000,228.000000
4564.000000,3280.000000,3940.000000,572.000000,356.000000,228.000000
4568.000000,3280.000000,3932.000000,572.000000,356.000000,228.000000
4568.000000,3276.000000,3928.000000,572.000000,356.000000,228.000000
4568.000000,3280.000000,3936.000000,572.000000,356.000000,228.000000
4568.000000,3280.000000,3936.000000,572.000000,356.000000,228.000000
4564.000000,3272.000000,3932.000000,572.000000,356.000000,228.000000
4564.000000,3276.000000,3940.000000,572.000000,356.000000,228.000000
4564.000000,3272.000000,3928.000000,572.000000,356.000000,228.000000
4568.000000,3280.000000,3940.000000,572.000000,356.000000,228.000000
4568.000000,3276.000000,3928.000000,572.000000,356.000000,228.000000
4568.000000,3280.000000,3936.000000,572.000000,356.000000,228.000000
4564.000000,3276.000000,3936.000000,572.000000,356.000000,228.000000
4564.000000,3276.000000,3932.000000,572.000000,356.000000,228.000000
4564.000000,3280.000000,3940.000000,572.000000,356.000000,228.000000
4564.000000,3276.000000,3924.000000,572.000000,356.000000,228.000000
4564.000000,3276.000000,3928.000000,572.000000,356.000000,228.000000
4564.000000,3284.000000,3940.000000,572.000000,356.000000,228.000000
4564.000000,3276.000000,3928.000000,572.000000,356.000000,228.000000
4564.000000,3284.000000,3936.000000,572.000000,356.000000,228.000000
4564.000000,3280.000000,3928.000000,572.000000,356.000000,228.000000
4564.000000,3284.000000,3936.000000,572.000000,356.000000,228.000000
4564.000000,3284.000000,3936.000000,572.000000,356.000000,228.000000
4568.000000,3284.000000,3932.000000,572.000000,356.000000,228.000000
4568.000000,3288.000000,3944.000000,572.000000,356.000000,228.000000
4564.000000,3288.000000,3936.000000,572.000000,356.000000,228.000000
4568.000000,3292.000000,3944.000000,572.000000,356.000000,228.000000
4568.000000,3288.000000,3936.000000,572.000000,356.000000,228.000000
4568.000000,3288.000000,3940.000000,572.000000,356.000000,228.000000
4564.000000,3284.000000,3940.000000,572.000000,356.000000,228.000000
4560.000000,3280.000000,3932.000000,572.000000,356.000000,228.000000
4560.000000,3276.000000,3928.000000,572.000000,356.000000,228.000000
4556.000000,3272.000000,3936.000000,572.000000,356.000000,228.000000
4552.000000,3268.000000,3920.000000,572.000000,356.000000,228.000000
4552.000000,3268.000000,3928.000000,572.000000,356.000000,228.000000
4548.000000,3260.000000,3916.000000,572.000000,356.000000,228.000000
4548.000000,3260.000000,3920.000000,572.000000,356.000000,228.000000
4552.000000,3260.000000,3920.000000,572.000000,356.000000,228.000000
4548.000000,3260.000000,3916.000000,572.000000,356.000000,228.000000
4552.000000,3264.000000,3924.000000,572.000000,356.000000,228.000000
4552.000000,3260.000000,3916.000000,572.000000,356.000000,228.000000
4548.000000,3260.000000,3924.000000,572.000000,356.000000,228.000000
4548.000000,3260.000000,3924.000000,572.000000,356.000000,228.000000
4548.000000,3256.000000,3912.000000,572.000000,356.000000,228.000000
4548.000000,3260.000000,3920.000000,572.000000,356.000000,228.000000
4552.000000,3260.000000,3916.000000,572.000000,356.000000,228.000000
4552.000000,3260.000000,3920.000000,572.000000,356.000000,228.000000
4552.000000,3264.000000,3920.000000,572.000000,356.000000,228.000000
4548.000000,3260.000000,3912.000000,572.000000,356.000000,228.000000
4552.000000,3268.000000,3932.000000,572.000000,356.000000,228.000000
4552.000000,3264.000000,3916.000000,572.000000,356.000000,228.000000
4552.000000,3268.000000,3928.000000,572.000000,356.000000,228.000000
4552.000000,3268.000000,3920.000000,572.000000,356.000000,228.000000
4552.000000,3264.000000,3920.000000,572.000000,356.000000,228.000000
4548.000000,3268.000000,3920.000000,572.000000,356.000000,228.000000
4552.000000,3268.000000,3920.000000,572.000000,356.000000,228.000000
4548.000000,3268.000000,3920.000000,572.000000,356.000000,228.000000
4548.000000,3272.000000,3932.000000,572.000000,356.000000,228.000000
4548.000000,3264.000000,3916.000000,572.000000,356.000000,228.000000
4548.000000,3268.000000,3924.000000,572.000000,356.000000,228.000000
4548.000000,3268.000000,3916.000000,572.000000,356.000000,228.000000
4552.000000,3272.000000,3928.000000,572.000000,356.000000,228.000000
4552.000000,3276.000000,3928.000000,572.000000,356.000000,228.000000
4552.000000,3276.000000,3920.000000,572.000000,356.000000,228.000000
4556.000000,3280.000000,3932.000000,572.000000,356.000000,228.000000
4548.000000,3272.000000,3920.000000,572.000000,356.000000,228.000000
4548.000000,3276.000000,3928.000000,572.000000,356.000000,228.000000
4548.000000,3268.000000,3920.000000,572.000000,356.000000,228.000000
4548.000000,3264.000000,3916.000000,572.000000,356.000000,228.000000
4548.000000,3268.000000,3920.000000,572.000000,356.000000,228.000000
4548.000000,3264.000000,3920.000000,572.000000,356.000000,228.000000
4544.000000,3260.000000,3920.000000,572.000000,356.000000,228.000000
4544.000000,3260.000000,3916.000000,572.000000,356.000000,228.000000
4540.000000,3256.000000,3908.000000,572.000000,356.000000,228.000000
4548.000000,3264.000000,3928.000000,572.000000,356.000000,228.000000
4544.000000,3256.000000,3908.000000,572.000000,356.000000,228.000000
4544.000000,3260.000000,3920.000000,572.000000,356.000000,228.000000
4544.000000,3256.000000,3912.000000,572.000000,356.000000,228.000000
4544.000000,3260.000000,3916.000000,572.000000,356.000000,228.000000
4552.000000,3264.000000,3924.000000,572.000000,356.000000,228.000000
4548.000000,3260.000000,3916.000000,572.000000,356.000000,228.000000
4548.000000,3260.000000,3916.000000,572.000000,356.000000,228.000000
4548.000000,3264.000000,3924.000000,572.000000,356.000000,228.000000
4548.000000,3264.000000,3916.000000,572.000000,356.000000,228.000000
4552.000000,3268.000000,3928.000000,572.000000,356.000000,228.000000
4548.000000,3264.000000,3916.000000,572.000000,356.000000,228.000000
4552.000000,3268.000000,3924.000000,572.000000,356.000000,228.000000
4548.000000,3268.000000,3924.000000,568.000000,356.000000,228.000000
4548.000000,3268.000000,3920.000000,568.000000,356.000000,228.000000
4552.000000,3272.000000,3928.000000,572.000000,356.000000,228.000000
4552.000000,3268.000000,3920.000000,568.000000,356.000000,228.000000
4552.000000,3276.000000,3928.000000,572.000000,356.000000,228.000000
4556.000000,3276.000000,3924.000000,572.000000,356.000000,228.000000
4556.000000,3276.000000,3928.000000,572.000000,356.000000,228.000000
4556.000000,3276.000000,3932.000000,572.000000,356.000000,228.000000
4556.000000,3276.000000,3928.000000,572.000000,356.000000,228.000000
4560.000000,3280.000000,3928.000000,572.000000,356.000000,228.000000
4556.000000,3280.000000,3928.000000,572.000000,356.000000,228.000000
4556.000000,3280.000000,3924.000000,572.000000,356.000000,228.000000
4556.000000,3284.000000,3932.000000,572.000000,356.000000,228.000000
4556.000000,3284.000000,3928.000000,572.000000,356.000000,228.000000
4560.000000,3288.000000,3936.000000,572.000000,356.000000,228.000000
4556.000000,3284.000000,3928.000000,572.000000,356.000000,228.000000
4556.000000,3280.000000,3928.000000,572.000000,356.000000,228.000000
4552.000000,3276.000000,3928.000000,572.000000,356.000000,228.000000
4548.000000,3268.000000,3920.000000,572.000000,356.000000,228.000000
4552.000000,3276.000000,3932.000000,572.000000,356.000000,228.000000
4548.000000,3268.000000,3916.000000,572.000000,356.000000,228.000000
4548.000000,3264.000000,3916.000000,572.000000,356.000000,228.000000
4548.000000,3268.000000,3920.000000,572.000000,356.000000,228.000000
4544.000000,3260.000000,3912.000000,572.000000,356.000000,228.000000
4548.000000,3264.000000,3916.000000,572.000000,356.000000,228.000000
4548.000000,3268.000000,3924.000000,572.000000,356.000000,228.000000
4548.000000,3264.000000,3912.000000,572.000000,356.000000,228.000000
4552.000000,3268.000000,3928.000000,572.000000,356.000000,228.000000
4548.000000,3264.000000,3916.000000,572.000000,356.000000,228.000000
4544.000000,3264.000000,3924.000000,572.000000,356.000000,228.000000
4544.000000,3260.000000,3916.000000,572.000000,356.000000,228.000000
4544.000000,3264.000000,3916.000000,572.000000,356.000000,228.000000
4548.000000,3264.000000,3920.000000,572.000000,356.000000,228.000000
4548.000000,3264.000000,3912.000000,572.000000,356.000000,228.000000
4548.000000,3264.000000,3920.000000,572.000000,356.000000,228.000000
4548.000000,3268.000000,3920.000000,572.000000,356.000000,228.000000
4544.000000,3260.000000,3912.000000,572.000000,356.000000,228.000000
4552.000000,3272.000000,3928.000000,572.000000,356.000000,228.000000
4548.000000,3264.000000,3916.000000,572.000000,356.000000,228.000000
4544.000000,3272.000000,3924.000000,572.000000,356.000000,228.000000
4544.000000,3268.000000,3920.000000,572.000000,356.000000,228.000000
4548.000000,3272.000000,3920.000000,572.000000,356.000000,228.000000
4548.000000,3276.000000,3928.000000,572.000000,356.000000,228.000000
4548.000000,3272.000000,3916.000000,572.000000,356.000000,228.000000
4548.000000,3276.000000,3928.000000,572.000000,356.000000,228.000000
4548.000000,3272.000000,3920.000000,572.000000,356.000000,228.000000
4548.000000,3276.000000,3924.000000,572.000000,356.000000,228.000000
4548.000000,3276.000000,3928.000000,572.000000,356.000000,228.000000
4548.000000,3272.000000,3920.000000,572.000000,356.000000,228.000000
4552.000000,3280.000000,3924.000000,572.000000,356.000000,228.000000
4556.000000,3288.000000,3936.000000,572.000000,356.000000,228.000000
4556.000000,3284.000000,3928.000000,572.000000,356.000000,228.000000
4556.000000,3288.000000,3936.000000,572.000000,356.000000,228.000000
4552.000000,3284.000000,3920.000000,572.000000,356.000000,228.000000
4552.000000,3284.000000,3928.000000,572.000000,356.000000,228.000000
4548.000000,3276.000000,3916.000000,572.000000,356.000000,228.000000
4548.000000,3272.000000,3924.000000,572.000000,356.000000,228.000000
4544.000000,3268.000000,3920.000000,572.000000,356.000000,228.000000
4540.000000,3264.000000,3908.000000,572.000000,356.000000,228.000000
4544.000000,3268.000000,3924.000000,572.000000,356.000000,228.000000
4544.000000,3264.000000,3916.000000,572.000000,356.000000,228.000000
4540.000000,3260.000000,3912.000000,572.000000,356.000000,228.000000
4548.000000,3268.000000,3924.000000,572.000000,356.000000,228.000000
4544.000000,3260.000000,3908.000000,572.000000,356.000000,228.000000
4540.000000,3260.000000,3912.000000,572.000000,356.000000,228.000000
4544.000000,3264.000000,3916.000000,572.000000,356.000000,228.000000
4544.000000,3260.000000,3912.000000,572.000000,356.000000,228.000000
4540.000000,3260.000000,3916.000000,572.000000,356.000000,228.000000
4536.000000,3256.000000,3908.000000,572.000000,356.000000,228.000000
4544.000000,3264.000000,3920.000000,572.000000,356.000000,228.000000
4540.000000,3256.000000,3908.000000,572.000000,356.000000,228.000000
4540.000000,3264.000000,3916.000000,572.000000,356.000000,228.000000
4540.000000,3264.000000,3912.000000,572.000000,356.000000,228.000000
4536.000000,3260.000000,3912.000000,572.000000,356.000000,228.000000
4536.000000,3260.000000,3912.000000,572.000000,356.000000,228.000000
4540.000000,3268.000000,3920.000000,572.000000,356.000000,228.000000
4540.000000,3264.000000,3912.000000,572.000000,356.000000,228.000000
4548.000000,3272.000000,3928.000000,572.000000,356.000000,228.000000
4544.000000,3268.000000,3916.000000,572.000000,356.000000,228.000000
4544.000000,3272.000000,3924.000000,572.000000,356.000000,228.000000
4540.000000,3272.000000,3912.000000,572.000000,356.000000,228.000000
4540.000000,3268.000000,3916.000000,572.000000,356.000000,228.000000
4540.000000,3272.000000,3920.000000,572.000000,356.000000,228.000000
4540.000000,3268.000000,3912.000000,572.000000,356.000000,228.000000
4544.000000,3280.000000,3928.000000,572.000000,356.000000,228.000000
4544.000000,3272.000000,3916.000000,572.000000,356.000000,228.000000
4548.000000,3280.000000,3920.000000,572.000000,356.000000,228.000000
4548.000000,3284.000000,3928.000000,572.000000,356.000000,228.000000
4548.000000,3280.000000,3920.000000,572.000000,356.000000,228.000000
4548.000000,3284.000000,3928.000000,572.000000,356.000000,228.000000
4548.000000,3284.000000,3928.000000,572.000000,356.000000,228.000000
4548.000000,3284.000000,3924.000000,572.000000,356.000000,228.000000
4552.000000,3288.000000,3936.000000,572.000000,356.000000,228.000000
4548.000000,3276.000000,3916.000000,572.000000,356.000000,228.000000
4548.000000,3280.000000,3928.000000,572.000000,356.000000,228.000000
4540.000000,3268.000000,3916.000000,572.000000,356.000000,228.000000
4540.000000,3268.000000,3916.000000,572.000000,356.000000,228.000000
4540.000000,3264.000000,3916.000000,572.000000,356.000000,228.000000
4540.000000,3264.000000,3912.000000,572.000000,356.000000,228.000000
4540.000000,3264.000000,3912.000000,572.000000,356.000000,228.000000
4532.000000,3260.000000,3912.000000,572.000000,356.000000,228.000000
4536.000000,3256.000000,3904.000000,572.000000,356.000000,228.000000
4536.000000,3264.000000,3920.000000,572.000000,356.000000,228.000000
4536.000000,3260.000000,3904.000000,572.000000,356.000000,228.000000
4536.000000,3260.000000,3912.000000,572.000000,356.000000,228.000000
4540.000000,3264.000000,3912.000000,572.000000,356.000000,228.000000
4540.000000,3264.000000,3912.000000,572.000000,356.000000,228.000000
4540.000000,3268.000000,3916.000000,572.000000,356.000000,228.000000
4540.000000,3264.000000,3908.000000,572.000000,356.000000,228.000000
4540.000000,3268.000000,3920.000000,572.000000,356.000000,228.000000
4540.000000,3264.000000,3908.000000,572.000000,356.000000,228.000000
4536.000000,3268.000000,3920.000000,572.000000,356.000000,228.000000
4540.000000,3268.000000,3920.000000,572.000000,356.000000,228.000000
4540.000000,3268.000000,3916.000000,572.000000,356.000000,228.000000
4544.000000,3272.000000,3920.000000,572.000000,356.000000,228.000000
4544.000000,3276.000000,3920.000000,572.000000,356.000000,228.000000
4544.000000,3272.000000,3916.000000,572.000000,356.000000,228.000000
4548.000000,3276.000000,3928.000000,572.000000,356.000000,228.000000
4544.000000,3272.000000,3916.000000,572.000000,356.000000,228.000000
4544.000000,3276.000000,3924.000000,572.000000,356.000000,228.000000
4544.000000,3276.000000,3920.000000,572.000000,356.000000,228.000000
4548.000000,3280.000000,3928.000000,572.000000,356.000000,228.000000
4544.000000,3284.000000,3924.000000,572.000000,356.000000,228.000000
4544.000000,3280.000000,3920.000000,572.000000,356.000000,228.000000
4552.000000,3288.000000,3932.000000,572.000000,356.000000,228.000000
4552.000000,3284.000000,3924.000000,572.000000,356.000000,228.000000
4552.000000,3284.000000,3924.000000,572.000000,356.000000,228.000000
4548.000000,3292.000000,3932.000000,572.000000,356.000000,228.000000
4552.000000,3288.000000,3924.000000,572.000000,356.000000,228.000000
4552.000000,3292.000000,3932.000000,572.000000,356.000000,228.000000
4552.000000,3288.000000,3928.000000,572.000000,356.000000,228.000000
4552.000000,3288.000000,3928.000000,572.000000,356.000000,228.000000
4548.000000,3288.000000,3932.000000,572.000000,356.000000,228.000000
4548.000000,3284.000000,3924.000000,572.000000,356.000000,228.000000
4548.000000,3284.000000,3928.000000,572.000000,356.000000,228.000000
4548.000000,3276.000000,3920.000000,572.000000,356.000000,228.000000
4548.000000,3280.000000,3924.000000,572.000000,356.000000,228.000000
4548.000000,3276.000000,3924.000000,572.000000,356.000000,228.000000
4548.000000,3276.000000,3920.000000,572.000000,356.000000,228.000000
4548.000000,3276.000000,3924.000000,572.000000,356.000000,228.000000
4548.000000,3276.000000,3924.000000,572.000000,356.000000,228.000000
4544.000000,3272.000000,3920.000000,572.000000,356.000000,228.000000
4548.000000,3280.000000,3928.000000,572.000000,356.000000,228.000000
4544.000000,3272.000000,3916.000000,572.000000,356.000000,228.000000
4544.000000,3272.000000,3924.000000,572.000000,356.000000,228.000000
4540.000000,3268.000000,3916.000000,572.000000,356.000000,228.000000
4544.000000,3272.000000,3916.000000,572.000000,356.000000,228.000000
4544.000000,3272.000000,3920.000000,572.000000,356.000000,228.000000
4540.000000,3272.000000,3916.000000,572.000000,356.000000,228.000000
4544.000000,3276.000000,3924.000000,572.000000,356.000000,228.000000
4544.000000,3272.000000,3912.000000,572.000000,356.000000,228.000000
4544.000000,3280.000000,3928.000000,572.000000,356.000000,228.000000
4544.000000,3280.000000,3924.000000,572.000000,356.000000,228.000000
4544.000000,3280.000000,3916.000000,572.000000,356.000000,228.000000
4548.000000,3284.000000,3928.000000,572.000000,356.000000,228.000000
4548.000000,3284.000000,3928.000000,572.000000,356.000000,228.000000
4548.000000,3284.000000,3920.000000,572.000000,356.000000,228.000000
4544.000000,3284.000000,3924.000000,572.000000,356.000000,228.000000
4548.000000,3284.000000,3920.000000,572.000000,356.000000,228.000000
4548.000000,3292.000000,3932.000000,572.000000,356.000000,228.000000
4548.000000,3284.000000,3924.000000,572.000000,356.000000,228.000000
4548.000000,3288.000000,3928.000000,572.000000,356.000000,228.000000
4548.000000,3288.000000,3928.000000,572.000000,356.000000,228.000000
4552.000000,3292.000000,3928.000000,572.000000,356.000000,228.000000
4552.000000,3292.000000,3932.000000,572.000000,356.000000,228.000000
4552.000000,3292.000000,3932.000000,572.000000,356.000000,228.000000
4552.000000,3292.000000,3928.000000,572.000000,356.000000,228.000000
4556.000000,3300.000000,3944.000000,572.000000,356.000000,228.000000
4548.000000,3292.000000,3928.000000,572.000000,356.000000,228.000000
4552.000000,3296.000000,3936.000000,572.000000,356.000000,228.000000
4548.000000,3292.000000,3924.000000,572.000000,356.000000,228.000000
4544.000000,3284.000000,3928.000000,572.000000,356.000000,228.000000
4544.000000,3280.000000,3924.000000,572.000000,356.000000,228.000000
4544.000000,3276.000000,3916.000000,572.000000,356.000000,228.000000
4544.000000,3284.000000,3928.000000,572.000000,356.000000,228.000000
4536.000000,3268.000000,3908.000000,572.000000,356.000000,228.000000
4540.000000,3276.000000,3916.000000,572.000000,356.000000,228.000000
4540.000000,3272.000000,3916.000000,572.000000,356.000000,228.000000
4540.000000,3268.000000,3908.000000,572.000000,356.000000,228.000000
4540.000000,3276.000000,3916.000000,572.000000,356.000000,228.000000
4540.000000,3272.000000,3920.000000,572.000000,356.000000,228.000000
4544.000000,3272.000000,3916.000000,572.000000,356.000000,228.000000
4540.000000,3276.000000,3920.000000,572.000000,356.000000,228.000000
4540.000000,3268.000000,3912.000000,572.000000,356.000000,228.000000
4540.000000,3272.000000,3924.000000,572.000000,356.000000,228.000000
4540.000000,3268.000000,3912.000000,572.000000,356.000000,228.000000
4540.000000,3272.000000,3916.000000,572.000000,356.000000,228.000000
4540.000000,3272.000000,3916.000000,572.000000,356.000000,228.000000
4540.000000,3268.000000,3912.000000,572.000000,356.000000,228.000000
4540.000000,3276.000000,3928.000000,572.000000,356.000000,228.000000
4540.000000,3268.000000,3916.000000,572.000000,356.000000,228.000000
4540.000000,3272.000000,3912.000000,572.000000,356.000000,228.000000
4540.000000,3276.000000,3920.000000,572.000000,356.000000,228.000000
4540.000000,3272.000000,3916.000000,572.000000,356.000000,228.000000
4544.000000,3280.000000,3924.000000,572.000000,356.000000,228.000000
4540.000000,3276.000000,3920.000000,572.000000,356.000000,228.000000
4544.000000,3280.000000,3916.000000,572.000000,356.000000,228.000000
4544.000000,3280.000000,3924.000000,572.000000,356.000000,228.000000
4544.000000,3280.000000,3916.000000,572.000000,356.000000,228.000000
4544.000000,3284.000000,3932.000000,572.000000,356.000000,228.000000
4544.000000,3280.000000,3920.000000,572.000000,356.000000,228.000000
4548.000000,3284.000000,3924.000000,572.000000,356.000000,228.000000
4548.000000,3284.000000,3928.000000,572.000000,356.000000,228.000000
4548.000000,3284.000000,3928.000000,572.000000,356.000000,228.000000
4548.000000,3288.000000,3928.000000,572.000000,356.000000,228.000000
4552.000000,3288.000000,3932.000000,572.000000,356.000000,228.000000
4548.000000,3288.000000,3924.000000,572.000000,356.000000,228.000000
4552.000000,3296.000000,3936.000000,572.000000,356.000000,228.000000
4548.000000,3288.000000,3920.000000,572.000000,356.000000,228.000000
4548.000000,3292.000000,3932.000000,572.000000,356.000000,228.000000
4548.000000,3280.000000,3924.000000,572.000000,356.000000,228.000000
4544.000000,3280.000000,3920.000000,572.000000,356.000000,228.000000
4544.000000,3276.000000,3924.000000,572.000000,356.000000,228.000000
4540.000000,3272.000000,3916.000000,572.000000,356.000000,228.000000
4544.000000,3272.000000,3924.000000,572.000000,356.000000,228.000000
4536.000000,3264.000000,3908.000000,572.000000,356.000000,228.000000
4536.000000,3268.000000,3916.000000,572.000000,356.000000,228.000000
4536.000000,3264.000000,3916.000000,572.000000,356.000000,228.000000
4532.000000,3256.000000,3904.000000,572.000000,356.000000,228.000000
4536.000000,3260.000000,3916.000000,572.000000,356.000000,228.000000
4532.000000,3260.000000,3908.000000,572.000000,356.000000,228.000000
4528.000000,3256.000000,3904.000000,572.000000,356.000000,228.000000
4532.000000,3260.000000,3908.000000,572.000000,356.000000,228.000000
4532.000000,3256.000000,3904.000000,572.000000,356.000000,228.000000
4532.000000,3260.000000,3912.000000,572.000000,356.000000,228.000000
4532.000000,3256.000000,3904.000000,572.000000,356.000000,228.000000
4532.000000,3260.000000,3908.000000,572.000000,356.000000,228.000000
4532.000000,3260.000000,3908.000000,572.000000,356.000000,228.000000
4528.000000,3256.000000,3900.000000,572.000000,356.000000,228.000000
4528.000000,3260.000000,3908.000000,572.000000,356.000000,228.000000
4528.000000,3260.000000,3904.000000,572.000000,356.000000,228.000000
4528.000000,3256.000000,3900.000000,572.000000,356.000000,228.000000
4528.000000,3260.000000,3912.000000,572.000000,356.000000,228.000000
4528.000000,3256.000000,3900.000000,572.000000,356.000000,228.000000
4532.000000,3264.000000,3916.000000,572.000000,356.000000,228.000000
4528.000000,3256.000000,3904.000000,572.000000,356.000000,228.000000
4532.000000,3264.000000,3908.000000,572.000000,356.000000,228.000000
4532.000000,3264.000000,3912.000000,572.000000,356.000000,228.000000
4532.000000,3264.000000,3904.000000,572.000000,356.000000,228.000000
4532.000000,3268.000000,3916.000000,572.000000,356.000000,228.000000
4532.000000,3264.000000,3904.000000,572.000000,356.000000,228.000000
4536.000000,3272.000000,3920.000000,572.000000,356.000000,228.000000
4532.000000,3268.000000,3908.000000,572.000000,356.000000,228.000000
4536.000000,3272.000000,3912.000000,572.000000,356.000000,228.000000
4536.000000,3272.000000,3916.000000,572.000000,356.000000,228.000000
4536.000000,3272.000000,3912.000000,572.000000,356.000000,228.000000
4536.000000,3272.000000,3912.000000,572.000000,356.000000,228.000000
4536.000000,3276.000000,3920.000000,572.000000,356.000000,228.000000
4532.000000,3272.000000,3908.000000,572.000000,356.000000,228.000000
4536.000000,3272.000000,3920.000000,572.000000,356.000000,228.000000
4532.000000,3260.000000,3900.000000,572.000000,356.000000,228.000000
4528.000000,3260.000000,3904.000000,572.000000,356.000000,228.000000
4528.000000,3256.000000,3908.000000,572.000000,356.000000,228.000000
4528.000000,3252.000000,3896.000000,572.000000,356.000000,228.000000
4528.000000,3252.000000,3908.000000,572.000000,356.000000,228.000000
4524.000000,3244.000000,3892.000000,572.000000,356.000000,228.000000
4524.000000,3252.000000,3904.000000,572.000000,356.000000,228.000000
4524.000000,3252.000000,3904.000000,572.000000,356.000000,228.000000
4524.000000,3248.000000,3896.000000,572.000000,356.000000,228.000000
4528.000000,3256.000000,3908.000000,572.000000,356.000000,228.000000
4524.000000,3248.000000,3896.000000,572.000000,356.000000,228.000000
4524.000000,3248.000000,3896.000000,572.000000,356.000000,228.000000
4532.000000,3252.000000,3900.000000,572.000000,356.000000,228.000000
4532.000000,3248.000000,3900.000000,572.000000,356.000000,228.000000
4532.000000,3256.000000,3908.000000,572.000000,356.000000,228.000000
4528.000000,3248.000000,3900.000000,572.000000,356.000000,228.000000
4532.000000,3256.000000,3904.000000,572.000000,356.000000,228.000000
4532.000000,3252.000000,3900.000000,572.000000,356.000000,228.000000
4532.000000,3252.000000,3904.000000,572.000000,356.000000,228.000000
4532.000000,3256.000000,3908.000000,572.000000,356.000000,228.000000
4532.000000,3256.000000,3908.000000,572.000000,356.000000,228.000000
4532.000000,3252.000000,3904.000000,572.000000,356.000000,228.000000
4536.000000,3260.000000,3916.000000,572.000000,356.000000,228.000000
4532.000000,3252.000000,3904.000000,572.000000,356.000000,228.000000
4532.000000,3260.000000,3912.000000,572.000000,356.000000,228.000000
4536.000000,3260.000000,3904.000000,572.000000,356.000000,228.000000
4536.000000,3264.000000,3916.000000,572.000000,356.000000,228.000000
4536.000000,3268.000000,3912.000000,572.000000,356.000000,228.000000
4536.000000,3264.000000,3908.000000,572.000000,356.000000,228.000000
4536.000000,3264.000000,3916.000000,572.000000,356.000000,228.000000
4536.000000,3264.000000,3904.000000,572.000000,356.000000,228.000000
4540.000000,3272.000000,3920.000000,572.000000,356.000000,228.000000
4540.000000,3268.000000,3912.000000,572.000000,356.000000,228.000000
4540.000000,3268.000000,3912.000000,572.000000,356.000000,228.000000
4540.000000,3276.000000,3920.000000,572.000000,356.000000,228.000000
4544.000000,3272.000000,3912.000000,572.000000,356.000000,228.000000
4540.000000,3272.000000,3916.000000,572.000000,356.000000,228.000000
4536.000000,3268.000000,3916.000000,572.000000,356.000000,228.000000
4536.000000,3256.000000,3904.000000,572.000000,356.000000,228.000000
4536.000000,3260.000000,3916.000000,572.000000,356.000000,228.000000
4532.000000,3248.000000,3900.000000,572.000000,356.000000,228.000000
4532.000000,3248.000000,3908.000000,572.000000,356.000000,228.000000
4528.000000,3244.000000,3900.000000,572.000000,356.000000,228.000000
4528.000000,3244.000000,3900.000000,572.000000,356.000000,228.000000
4528.000000,3244.000000,3904.000000,572.000000,356.000000,228.000000
4528.000000,3240.000000,3896.000000,572.000000,356.000000,228.000000
4528.000000,3240.000000,3892.000000,572.000000,356.000000,228.000000
4528.000000,3244.000000,3904.000000,572.000000,356.000000,228.000000
4528.000000,3240.000000,3896.000000,572.000000,356.000000,228.000000
4528.000000,3244.000000,3904.000000,572.000000,356.000000,228.000000
4528.000000,3240.000000,3896.000000,572.000000,356.000000,228.000000
4532.000000,3244.000000,3900.000000,572.000000,356.000000,228.000000
4528.000000,3240.000000,3904.000000,572.000000,356.000000,228.000000
4528.000000,3236.000000,3896.000000,572.000000,356.000000,228.000000
4528.000000,3240.000000,3900.000000,572.000000,356.000000,228.000000
4528.000000,3236.000000,3896.000000,572.000000,356.000000,228.000000
4528.000000,3244.000000,3904.000000,572.000000,356.000000,228.000000
4528.000000,3240.000000,3896.000000,572.000000,356.000000,228.000000
4532.000000,3244.000000,3900.000000,572.000000,356.000000,228.000000
4532.000000,3244.000000,3904.000000,572.000000,356.000000,228.000000
4528.000000,3244.000000,3896.000000,572.000000,356.000000,228.000000
4532.000000,3244.000000,3900.000000,572.000000,356.000000,228.000000
4532.000000,3248.000000,3900.000000,572.000000,356.000000,228.000000
4532.000000,3244.000000,3896.000000,572.000000,356.000000,228.000000
4532.000000,3252.000000,3908.000000,572.000000,356.000000,228.000000
4528.000000,3244.000000,3896.000000,572.000000,356.000000,228.000000
4536.000000,3252.000000,3908.000000,572.000000,356.000000,228.000000
4536.000000,3256.000000,3904.000000,572.000000,356.000000,228.000000
4540.000000,3256.000000,3908.000000,572.000000,356.000000,228.000000
4536.000000,3256.000000,3912.000000,572.000000,356.000000,228.000000
4532.000000,3252.000000,3900.000000,572.000000,356.000000,228.000000
4536.000000,3256.000000,3916.000000,572.000000,356.000000,228.000000
4536.000000,3260.000000,3912.000000,568.000000,356.000000,228.000000
4540.000000,3260.000000,3904.000000,572.000000,356.000000,228.000000
4540.000000,3264.000000,3916.000000,572.000000,356.000000,228.000000
4536.000000,3260.000000,3908.000000,572.000000,356.000000,228.000000
4536.000000,3256.000000,3908.000000,572.000000,356.000000,228.000000
4532.000000,3252.000000,3908.000000,572.000000,356.000000,228.000000
4532.000000,3248.000000,3896.000000,572.000000,356.000000,228.000000
4532.000000,3248.000000,3904.000000,572.000000,356.000000,228.000000
4528.000000,3236.000000,3892.000000,572.000000,356.000000,228.000000
4524.000000,3236.000000,3900.000000,572.000000,356.000000,228.000000
4528.000000,3232.000000,3892.000000,572.000000,356.000000,228.000000
4528.000000,3232.000000,3892.000000,572.000000,356.000000,228.000000
4528.000000,3232.000000,3896.000000,572.000000,356.000000,228.000000
4528.000000,3228.000000,3892.000000,572.000000,356.000000,228.000000
4524.000000,3232.000000,3888.000000,572.000000,356.000000,228.000000
4528.000000,3232.000000,3896.000000,572.000000,356.000000,228.000000
4524.000000,3228.000000,3884.000000,572.000000,356.000000,228.000000
4524.000000,3232.000000,3900.000000,572.000000,356.000000,228.000000
4524.000000,3228.000000,3884.000000,572.000000,356.000000,228.000000
4524.000000,3228.000000,3892.000000,572.000000,356.000000,228.000000
4528.000000,3228.000000,3892.000000,572.000000,356.000000,228.000000
4524.000000,3228.000000,3888.000000,572.000000,356.000000,228.000000
4524.000000,3228.000000,3896.000000,572.000000,356.000000,228.000000
4524.000000,3228.000000,3888.000000,572.000000,356.000000,228.000000
4524.000000,3232.000000,3900.000000,572.000000,356.000000,228.000000
4524.000000,3228.000000,3888.000000,572.000000,356.000000,228.000000
4524.000000,3228.000000,3888.000000,572.000000,356.000000,228.000000
4528.000000,3232.000000,3896.000000,572.000000,356.000000,228.000000
4528.000000,3232.000000,3888.000000,572.000000,356.000000,228.000000
4528.000000,3236.000000,3896.000000,572.000000,356.000000,228.000000
4528.000000,3236.000000,3896.000000,572.000000,356.000000,228.000000
4524.000000,3232.000000,3888.000000,572.000000,356.000000,228.000000
4528.000000,3240.000000,3900.000000,572.000000,356.000000,228.000000
4528.000000,3236.000000,3896.000000,572.000000,356.000000,228.000000
4532.000000,3244.000000,3904.000000,572.000000,356.000000,228.000000
4532.000000,3240.000000,3900.000000,572.000000,356.000000,228.000000
4532.000000,3240.000000,3900.000000,572.000000,356.000000,228.000000
4532.000000,3244.000000,3904.000000,572.000000,356.000000,228.000000
4532.000000,3240.000000,3896.000000,572.000000,356.000000,228.000000
4532.000000,3244.000000,3900.000000,572.000000,356.000000,228.000000
4532.000000,3248.000000,3904.000000,572.000000,356.000000,228.000000
4532.000000,3244.000000,3896.000000,572.000000,356.000000,228.000000
4532.000000,3252.000000,3908.000000,572.000000,356.000000,228.000000
4532.000000,3244.000000,3900.000000,572.000000,356.000000,228.000000
4532.000000,3244.000000,3900.000000,572.000000,356.000000,228.000000
4528.000000,3240.000000,3896.000000,572.000000,356.000000,228.000000
4520.000000,3232.000000,3888.000000,572.000000,356.000000,228.000000
4524.000000,3232.000000,3896.000000,572.000000,356.000000,228.000000
4524.000000,3224.000000,3888.000000,572.000000,356.000000,228.000000
4520.000000,3228.000000,3892.000000,572.000000,356.000000,228.000000
4516.000000,3220.000000,3880.000000,572.000000,356.000000,228.000000
4520.000000,3220.000000,3884.000000,572.000000,356.000000,228.000000
4516.000000,3220.000000,3888.000000,572.000000,356.000000,228.000000
4516.000000,3220.000000,3880.000000,572.000000,356.000000,228.000000
4520.000000,3220.000000,3884.000000,572.000000,356.000000,228.000000
4520.000000,3224.000000,3888.000000,572.000000,356.000000,228.000000
4516.000000,3216.000000,3876.000000,572.000000,356.000000,228.000000
4520.000000,3224.000000,3888.000000,572.000000,356.000000,228.000000
4520.000000,3220.000000,3876.000000,572.000000,356.000000,228.000000
4524.000000,3224.000000,3896.000000,572.000000,356.000000,228.000000
4520.000000,3220.000000,3884.000000,572.000000,356.000000,228.000000
4520.000000,3224.000000,3884.000000,572.000000,356.000000,228.000000
4520.000000,3224.000000,3892.000000,572.000000,356.000000,228.000000
4520.000000,3224.000000,3880.000000,572.000000,356.000000,228.000000
4524.000000,3228.000000,3896.000000,572.000000,356.000000,228.000000
4520.000000,3228.000000,3888.000000,572.000000,356.000000,228.000000
4520.000000,3224.000000,3880.000000,572.000000,356.000000,228.000000
4524.000000,3232.000000,3896.000000,572.000000,356.000000,228.000000
4524.000000,3232.000000,3888.000000,572.000000,356.000000,228.000000
4524.000000,3232.000000,3892.000000,572.000000,356.000000,228.000000
4528.000000,3236.000000,3896.000000,572.000000,356.000000,228.000000
4528.000000,3232.000000,3892.000000,572.000000,356.000000,228.000000
4528.000000,3240.000000,3900.000000,572.000000,356.000000,228.000000
4528.000000,3236.000000,3892.000000,572.000000,356.000000,228.000000
4528.000000,3244.000000,3900.000000,572.000000,356.000000,228.000000
4532.000000,3240.000000,3896.000000,572.000000,356.000000,228.000000
4528.000000,3240.000000,3896.000000,572.000000,356.000000,228.000000
4532.000000,3244.000000,3900.000000,572.000000,356.000000,228.000000
4528.000000,3244.000000,3896.000000,572.000000,356.000000,228.000000
4532.000000,3244.000000,3900.000000,572.000000,356.000000,228.000000
4532.000000,3252.000000,3904.000000,572.000000,356.000000,228.000000
4536.000000,3248.000000,3904.000000,572.000000,356.000000,228.000000
4532.000000,3252.000000,3908.000000,572.000000,356.000000,228.000000
4528.000000,3244.000000,3892.000000,572.000000,356.000000,228.000000
4528.000000,3240.000000,3900.000000,572.000000,356.000000,228.000000
4524.000000,3236.000000,3892.000000,572.000000,356.000000,228.000000
4524.000000,3232.000000,3892.000000,572.000000,356.000000,228.000000
4524.000000,3236.000000,3896.000000,572.000000,356.000000,228.000000
4528.000000,3232.000000,3892.000000,572.000000,356.000000,228.000000
4528.000000,3232.000000,3896.000000,572.000000,356.000000,228.000000
4524.000000,3228.000000,3888.000000,572.000000,356.000000,228.000000
4528.000000,3232.000000,3892.000000,572.000000,356.000000,228.000000
4524.000000,3232.000000,3896.000000,572.000000,356.000000,228.000000
4528.000000,3228.000000,3888.000000,572.000000,356.000000,228.000000
4528.000000,3232.000000,3896.000000,572.000000,356.000000,228.000000
4524.000000,3232.000000,3896.000000,572.000000,356.000000,228.000000
4520.000000,3228.000000,3884.000000,572.000000,356.000000,228.000000
4524.000000,3232.000000,3900.000000,572.000000,356.000000,228.000000
4524.000000,3228.000000,3884.000000,572.000000,356.000000,228.000000
4524.000000,3232.000000,3896.000000,572.000000,356.000000,228.000000
4524.000000,3232.000000,3888.000000,572.000000,356.000000,228.000000
4524.000000,3232.000000,3892.000000,572.000000,356.000000,228.000000
4528.000000,3232.000000,3896.000000,572.000000,356.000000,228.000000
4524.000000,3228.000000,3888.000000,572.000000,356.000000,228.000000
4524.000000,3236.000000,3900.000000,572.000000,356.000000,228.000000
4528.000000,3240.000000,3896.000000,572.000000,356.000000,228.000000
4524.000000,3232.000000,3884.000000,572.000000,356.000000,228.000000
4528.000000,3240.000000,3904.000000,572.000000,356.000000,228.000000
4524.000000,3236.000000,3892.000000,572.000000,356.000000,228.000000
4528.000000,3244.000000,3900.000000,572.000000,356.000000,228.000000
4528.000000,3244.000000,3896.000000,572.000000,356.000000,228.000000
4532.000000,3244.000000,3900.000000,572.000000,356.000000,228.000000
4532.000000,3248.000000,3904.000000,572.000000,356.000000,228.000000
4528.000000,3240.000000,3888.000000,572.000000,356.000000,228.000000
4532.000000,3248.000000,3904.000000,572.000000,356.000000,228.000000
4532.000000,3244.000000,3896.000000,572.000000,356.000000,228.000000
4532.000000,3252.000000,3904.000000,572.000000,356.000000,228.000000
4532.000000,3252.000000,3904.000000,572.000000,356.000000,228.000000
4532.000000,3252.000000,3900.000000,572.000000,356.000000,228.000000
4536.000000,3256.000000,3904.000000,572.000000,356.000000,228.000000
4536.000000,3256.000000,3908.000000,572.000000,356.000000,228.000000
4536.000000,3256.000000,3900.000000,572.000000,356.000000,228.000000
4532.000000,3256.000000,3904.000000,572.000000,356.000000,228.000000
4532.000000,3244.000000,3896.000000,572.000000,356.000000,228.000000
4532.000000,3248.000000,3904.000000,572.000000,356.000000,228.000000
4524.000000,3240.000000,3892.000000,572.000000,356.000000,228.000000
4520.000000,3236.000000,3892.000000,572.000000,356.000000,228.000000
4524.000000,3236.000000,3896.000000,572.000000,356.000000,228.000000
4520.000000,3232.000000,3884.000000,572.000000,356.000000,228.000000
4524.000000,3236.000000,3896.000000,572.000000,356.000000,228.000000
4516.000000,3224.000000,3884.000000,572.000000,356.000000,228.000000
4520.000000,3224.000000,3880.000000,572.000000,356.000000,228.000000
4520.000000,3232.000000,3892.000000,572.000000,356.000000,228.000000
4520.000000,3228.000000,3884.000000,572.000000,356.000000,228.000000
4520.000000,3232.000000,3892.000000,572.000000,356.000000,228.000000
4524.000000,3236.000000,3888.000000,572.000000,356.000000,228.000000
4520.000000,3228.000000,3884.000000,572.000000,356.000000,228.000000
4520.000000,3232.000000,3896.000000,572.000000,356.000000,228.000000
4516.000000,3228.000000,3880.000000,572.000000,356.000000,228.000000
4520.000000,3232.000000,3892.000000,572.000000,356.000000,228.000000
4516.000000,3228.000000,3880.000000,572.000000,356.000000,228.000000
4520.000000,3232.000000,3888.000000,572.000000,356.000000,228.000000
4520.000000,3232.000000,3888.000000,572.000000,356.000000,228.000000
4524.000000,3232.000000,3892.000000,572.000000,356.000000,228.000000
4520.000000,3236.000000,3888.000000,572.000000,356.000000,228.000000
4528.000000,3240.000000,3900.000000,572.000000,356.000000,228.000000
4524.000000,3236.000000,3892.000000,572.000000,356.000000,228.000000
4524.000000,3244.000000,3896.000000,572.000000,356.000000,228.000000
4524.000000,3240.000000,3888.000000,572.000000,356.000000,228.000000
4524.000000,3244.000000,3896.000000,572.000000,356.000000,228.000000
4524.000000,3240.000000,3892.000000,572.000000,356.000000,228.000000
4524.000000,3240.000000,3896.000000,572.000000,356.000000,228.000000
4528.000000,3252.000000,3904.000000,572.000000,356.000000,228.000000
4528.000000,3248.000000,3892.000000,572.000000,356.000000,228.000000
4528.000000,3252.000000,3904.000000,572.000000,356.000000,228.000000
4524.000000,3244.000000,3888.000000,572.000000,356.000000,228.000000
4528.000000,3248.000000,3900.000000,572.000000,356.000000,228.000000
4528.000000,3252.000000,3904.000000,572.000000,356.000000,228.000000
4528.000000,3252.000000,3900.000000,572.000000,356.000000,228.000000
4528.000000,3252.000000,3904.000000,572.000000,356.000000,228.000000
4528.000000,3256.000000,3904.000000,572.000000,356.000000,228.000000
4528.000000,3252.000000,3900.000000,572.000000,356.000000,228.000000
4528.000000,3252.000000,3908.000000,572.000000,356.000000,228.000000
4524.000000,3244.000000,3892.000000,572.000000,356.000000,228.000000
4524.000000,3240.000000,3900.000000,572.000000,356.000000,228.000000
4520.000000,3232.000000,3884.000000,572.000000,356.000000,228.000000
4516.000000,3236.000000,3888.000000,572.000000,356.000000,228.000000
4520.000000,3236.000000,3888.000000,572.000000,356.000000,228.000000
4512.000000,3224.000000,3880.000000,572.000000,356.000000,228.000000
4512.000000,3228.000000,3884.000000,572.000000,356.000000,228.000000
4512.000000,3228.000000,3888.000000,572.000000,356.000000,228.000000
4512.000000,3224.000000,3876.000000,572.000000,356.000000,228.000000
4516.000000,3232.000000,3888.000000,572.000000,356.000000,228.000000
4512.000000,3224.000000,3876.000000,572.000000,356.000000,228.000000
4516.000000,3228.000000,3888.000000,572.000000,356.000000,228.000000
4512.000000,3224.000000,3880.000000,572.000000,356.000000,228.000000
4516.000000,3224.000000,3880.000000,572.000000,356.000000,228.000000
4512.000000,3228.000000,3888.000000,572.000000,356.000000,228.000000
4512.000000,3220.000000,3872.000000,572.000000,356.000000,228.000000
4512.000000,3228.000000,3888.000000,572.000000,356.000000,228.000000
4512.000000,3224.000000,3872.000000,572.000000,356.000000,228.000000
4516.000000,3228.000000,3884.000000,572.000000,356.000000,228.000000
4516.000000,3228.000000,3884.000000,572.000000,356.000000,228.000000
4512.000000,3228.000000,3884.000000,572.000000,356.000000,228.000000
4512.000000,3228.000000,3884.000000,572.000000,356.000000,228.000000
4512.000000,3232.000000,3888.000000,572.000000,356.000000,228.000000
4512.000000,3228.000000,3880.000000,572.000000,356.000000,228.000000
4516.000000,3236.000000,3896.000000,572.000000,356.000000,228.000000
4508.000000,3228.000000,3876.000000,572.000000,356.000000,228.000000
4512.000000,3232.000000,3888.000000,572.000000,356.000000,228.000000
4512.000000,3228.000000,3880.000000,572.000000,356.000000,228.000000
4508.000000,3232.000000,3884.000000,572.000000,356.000000,228.000000
4512.000000,3232.000000,3888.000000,568.000000,356.000000,228.000000
4512.000000,3232.000000,3880.000000,572.000000,356.000000,228.000000
4512.000000,3236.000000,3892.000000,572.000000,356.000000,228.000000
4512.000000,3232.000000,3880.000000,572.000000,356.000000,228.000000
4516.000000,3240.000000,3892.000000,572.000000,356.000000,228.000000
4516.000000,3240.000000,3896.000000,572.000000,356.000000,228.000000
4516.000000,3240.000000,3888.000000,572.000000,356.000000,228.000000
4516.000000,3240.000000,3892.000000,568.000000,356.000000,228.000000
4516.000000,3244.000000,3892.000000,572.000000,356.000000,228.000000
4512.000000,3236.000000,3884.000000,572.000000,356.000000,228.000000
4512.000000,3236.000000,3892.000000,572.000000,356.000000,228.000000
4508.000000,3224.000000,3876.000000,572.000000,356.000000,228.000000
4508.000000,3228.000000,3884.000000,572.000000,356.000000,228.000000
4504.000000,3220.000000,3872.000000,572.000000,356.000000,228.000000
4508.000000,3224.000000,3876.000000,568.000000,356.000000,228.000000
4504.000000,3220.000000,3876.000000,572.000000,356.000000,228.000000
4504.000000,3216.000000,3872.000000,572.000000,356.000000,228.000000
4504.000000,3216.000000,3880.000000,572.000000,356.000000,228.000000
4508.000000,3220.000000,3876.000000,572.000000,356.000000,228.000000
4504.000000,3216.000000,3872.000000,572.000000,356.000000,228.000000
4508.000000,3220.000000,3880.000000,572.000000,356.000000,228.000000
4508.000000,3220.000000,3872.000000,572.000000,356.000000,228.000000
4512.000000,3224.000000,3888.000000,572.000000,356.000000,228.000000
4508.000000,3220.000000,3880.000000,572.000000,356.000000,228.000000
4512.000000,3220.000000,3876.000000,572.000000,356.000000,228.000000
4512.000000,3224.000000,3884.000000,572.000000,356.000000,228.000000
4508.000000,3216.000000,3872.000000,572.000000,356.000000,228.000000
4504.000000,3220.000000,3880.000000,572.000000,356.000000,228.000000
4504.000000,3216.000000,3872.000000,572.000000,356.000000,228.000000
4508.000000,3224.000000,3880.000000,572.000000,356.000000,228.000000
4504.000000,3220.000000,3876.000000,572.000000,356.000000,228.000000
4504.000000,3220.000000,3872.000000,572.000000,356.000000,228.000000
4508.000000,3224.000000,3880.000000,572.000000,356.000000,228.000000
4508.000000,3224.000000,3884.000000,572.000000,356.000000,228.000000
4508.000000,3224.000000,3876.000000,572.000000,356.000000,228.000000
4512.000000,3232.000000,3888.000000,572.000000,356.000000,228.000000
4508.000000,3228.000000,3876.000000,572.000000,356.000000,228.000000
4512.000000,3232.000000,3888.000000,572.000000,356.000000,228.000000
4512.000000,3228.000000,3880.000000,572.000000,356.000000,228.000000
4512.000000,3232.000000,3884.000000,572.000000,356.000000,228.000000
4512.000000,3236.000000,3888.000000,572.000000,356.000000,228.000000
4516.000000,3232.000000,3884.000000,572.000000,356.000000,228.000000
4512.000000,3236.000000,3888.000000,572.000000,356.000000,228.000000
4512.000000,3232.000000,3880.000000,572.000000,356.000000,228.000000
4516.000000,3236.000000,3884.000000,568.000000,356.000000,228.000000
4516.000000,3240.000000,3892.000000,572.000000,356.000000,228.000000
4520.000000,3240.000000,3884.000000,572.000000,356.000000,228.000000
4516.000000,3236.000000,3892.000000,572.000000,356.000000,228.000000
4512.000000,3232.000000,3884.000000,572.000000,356.000000,228.000000
4512.000000,3228.000000,3880.000000,572.000000,356.000000,228.000000
4508.000000,3224.000000,3880.000000,572.000000,356.000000,228.000000
4500.000000,3212.000000,3868.000000,572.000000,356.000000,228.000000
4504.000000,3216.000000,3880.000000,572.000000,356.000000,228.000000
4504.000000,3212.000000,3868.000000,572.000000,356.000000,228.000000
4500.000000,3212.000000,3872.000000,572.000000,356.000000,228.000000
4504.000000,3212.000000,3868.000000,572.000000,356.000000,228.000000
4504.000000,3212.000000,3872.000000,572.000000,356.000000,228.000000
4508.000000,3212.000000,3876.000000,572.000000,356.000000,228.000000
4504.000000,3212.000000,3876.000000,572.000000,356.000000,228.000000
4500.000000,3208.000000,3868.000000,572.000000,356.000000,228.000000
4508.000000,3216.000000,3876.000000,572.000000,356.000000,228.000000
4508.000000,3212.000000,3868.000000,572.000000,356.000000,228.000000
4504.000000,3212.000000,3876.000000,572.000000,356.000000,228.000000
4504.000000,3208.000000,3872.000000,572.000000,356.000000,228.000000
4508.000000,3212.000000,3876.000000,568.000000,356.000000,228.000000
4508.000000,3216.000000,3880.000000,572.000000,356.000000,228.000000
4500.000000,3208.000000,3864.000000,572.000000,356.000000,228.000000
4504.000000,3216.000000,3880.000000,572.000000,356.000000,228.000000
4504.000000,3212.000000,3868.000000,572.000000,356.000000,228.000000
4508.000000,3216.000000,3876.000000,572.000000,356.000000,228.000000
4504.000000,3216.000000,3876.000000,572.000000,356.000000,228.000000
4504.000000,3216.000000,3872.000000,572.000000,356.000000,228.000000
4508.000000,3220.000000,3876.000000,572.000000,356.000000,228.000000
4508.000000,3220.000000,3880.000000,572.000000,356.000000,228.000000
4508.000000,3220.000000,3876.000000,572.000000,356.000000,228.000000
4508.000000,3224.000000,3884.000000,572.000000,356.000000,228.000000
4508.000000,3220.000000,3872.000000,572.000000,356.000000,228.000000
4512.000000,3228.000000,3888.000000,572.000000,356.000000,228.000000
4508.000000,3224.000000,3876.000000,572.000000,356.000000,228.000000
4512.000000,3228.000000,3880.000000,572.000000,356.000000,228.000000
4512.000000,3228.000000,3884.000000,572.000000,356.000000,228.000000
4516.000000,3228.000000,3884.000000,572.000000,356.000000,228.000000
4516.000000,3232.000000,3888.000000,572.000000,356.000000,228.000000
4516.000000,3236.000000,3892.000000,572.000000,356.000000,228.000000
4516.000000,3232.000000,3884.000000,572.000000,356.000000,228.000000
4516.000000,3236.000000,3892.000000,572.000000,356.000000,228.000000
4508.000000,3224.000000,3876.000000,572.000000,356.000000,228.000000
4508.000000,3224.000000,3888.000000,572.000000,356.000000,228.000000
4504.000000,3216.000000,3876.000000,572.000000,356.000000,228.000000
4504.000000,3216.000000,3872.000000,572.000000,356.000000,228.000000
4504.000000,3212.000000,3872.000000,572.000000,356.000000,228.000000
4500.000000,3200.000000,3864.000000,572.000000,356.000000,228.000000
4500.000000,3208.000000,3872.000000,572.000000,356.000000,228.000000
4500.000000,3200.000000,3860.000000,572.000000,356.000000,228.000000
4500.000000,3200.000000,3868.000000,572.000000,356.000000,228.000000
4500.000000,3200.000000,3868.000000,572.000000,356.000000,228.000000
4500.000000,3200.000000,3860.000000,572.000000,356.000000,228.000000
4500.000000,3204.000000,3868.000000,572.000000,356.000000,228.000000
4504.000000,3204.000000,3868.000000,572.000000,356.000000,228.000000
4500.000000,3200.000000,3864.000000,572.000000,356.000000,228.000000
4500.000000,3204.000000,3876.000000,572.000000,356.000000,228.000000
4500.000000,3200.000000,3860.000000,572.000000,356.000000,228.000000
4500.000000,3204.000000,3872.000000,572.000000,356.000000,228.000000
4500.000000,3204.000000,3868.000000,572.000000,356.000000,228.000000
4504.000000,3208.000000,3868.000000,572.000000,356.000000,228.000000
4500.000000,3204.000000,3868.000000,572.000000,356.000000,228.000000
4500.000000,3204.000000,3864.000000,572.000000,356.000000,228.000000
4500.000000,3208.000000,3876.000000,572.000000,356.000000,228.000000
4500.000000,3204.000000,3868.000000,572.000000,356.000000,228.000000
4500.000000,3208.000000,3864.000000,572.000000,356.000000,228.000000
4496.000000,3208.000000,3872.000000,572.000000,356.000000,228.000000
4496.000000,3204.000000,3864.000000,572.000000,356.000000,228.000000
4500.000000,3212.000000,3872.000000,572.000000,356.000000,228.000000
4500.000000,3208.000000,3868.000000,572.000000,356.000000,228.000000
4500.000000,3208.000000,3864.000000,572.000000,356.000000,228.000000
4500.000000,3212.000000,3872.000000,572.000000,356.000000,228.000000
4500.000000,3208.000000,3864.000000,572.000000,356.000000,228.000000
4500.000000,3216.000000,3876.000000,572.000000,356.000000,228.000000
4500.000000,3212.000000,3864.000000,572.000000,356.000000,228.000000
4500.000000,3216.000000,3872.000000,572.000000,356.000000,228.000000
4500.000000,3216.000000,3872.000000,572.000000,356.000000,228.000000
4500.000000,3220.000000,3872.000000,572.000000,356.000000,228.000000
4504.000000,3224.000000,3884.000000,572.000000,356.000000,228.000000
4504.000000,3220.000000,3876.000000,572.000000,356.000000,228.000000
4500.000000,3216.000000,3872.000000,572.000000,356.000000,228.000000
4496.000000,3212.000000,3872.000000,572.000000,356.000000,228.000000
4496.000000,3200.000000,3860.000000,572.000000,356.000000,228.000000
4492.000000,3200.000000,3864.000000,572.000000,356.000000,228.000000
4492.000000,3196.000000,3852.000000,572.000000,356.000000,228.000000
4492.000000,3196.000000,3860.000000,572.000000,356.000000,228.000000
4492.000000,3196.000000,3860.000000,572.000000,356.000000,228.000000
4488.000000,3192.000000,3852.000000,572.000000,356.000000,228.000000
4488.000000,3192.000000,3864.000000,572.000000,356.000000,228.000000
4484.000000,3184.000000,3848.000000,572.000000,356.000000,228.000000
4484.000000,3188.000000,3856.000000,572.000000,356.000000,228.000000
4484.000000,3184.000000,3852.000000,572.000000,356.000000,228.000000
4484.000000,3184.000000,3844.000000,572.000000,356.000000,228.000000
4484.000000,3188.000000,3852.000000,572.000000,356.000000,228.000000
4480.000000,3184.000000,3848.000000,572.000000,356.000000,228.000000
4480.000000,3184.000000,3844.000000,572.000000,356.000000,228.000000
4484.000000,3192.000000,3852.000000,572.000000,356.000000,228.000000
4480.000000,3184.000000,3844.000000,572.000000,356.000000,228.000000
4480.000000,3188.000000,3856.000000,572.000000,356.000000,228.000000
4484.000000,3184.000000,3848.000000,572.000000,356.000000,228.000000
4484.000000,3188.000000,3852.000000,572.000000,356.000000,228.000000
4484.000000,3188.000000,3852.000000,572.000000,356.000000,228.000000
4484.000000,3192.000000,3848.000000,572.000000,356.000000,228.000000
4484.000000,3196.000000,3860.000000,572.000000,356.000000,228.000000
4484.000000,3192.000000,3852.000000,572.000000,356.000000,228.000000
4488.000000,3196.000000,3856.000000,572.000000,356.000000,228.000000
4496.000000,3208.000000,3872.000000,572.000000,356.000000,228.000000
4496.000000,3204.000000,3860.000000,572.000000,356.000000,228.000000
4492.000000,3204.000000,3864.000000,572.000000,356.000000,228.000000
4492.000000,3200.000000,3860.000000,572.000000,356.000000,228.000000
4492.000000,3208.000000,3864.000000,572.000000,356.000000,228.000000
4492.000000,3208.000000,3868.000000,572.000000,356.000000,228.000000
4496.000000,3208.000000,3860.000000,572.000000,356.000000,228.000000
4500.000000,3220.000000,3876.000000,572.000000,356.000000,228.000000
4500.000000,3212.000000,3864.000000,572.000000,356.000000,228.000000
4500.000000,3220.000000,3876.000000,572.000000,356.000000,228.000000
4500.000000,3216.000000,3872.000000,572.000000,356.000000,228.000000
4500.000000,3216.000000,3872.000000,572.000000,356.000000,228.000000
4500.000000,3212.000000,3872.000000,572.000000,356.000000,228.000000
4492.000000,3204.000000,3864.000000,572.000000,356.000000,228.000000
4488.000000,3200.000000,3856.000000,572.000000,356.000000,228.000000
4492.000000,3204.000000,3864.000000,572.000000,356.000000,228.000000
4492.000000,3196.000000,3856.000000,572.000000,356.000000,228.000000
4492.000000,3200.000000,3868.000000,572.000000,356.000000,228.000000
4492.000000,3196.000000,3860.000000,572.000000,356.000000,228.000000
4492.000000,3196.000000,3860.000000,572.000000,356.000000,228.000000
4492.000000,3196.000000,3860.000000,572.000000,356.000000,228.000000
4492.000000,3196.000000,3856.000000,572.000000,356.000000,228.000000
4492.000000,3200.000000,3868.000000,572.000000,356.000000,228.000000
4492.000000,3192.000000,3856.000000,572.000000,356.000000,228.000000
4492.000000,3200.000000,3864.000000,572.000000,356.000000,228.000000
4492.000000,3200.000000,3860.000000,572.000000,356.000000,228.000000
4488.000000,3192.000000,3856.000000,572.000000,356.000000,228.000000
4492.000000,3200.000000,3864.000000,572.000000,356.000000,228.000000
4492.000000,3196.000000,3860.000000,572.000000,356.000000,228.000000
4496.000000,3200.000000,3864.000000,572.000000,356.000000,228.000000
4492.000000,3204.000000,3864.000000,572.000000,356.000000,228.000000
4496.000000,3200.000000,3856.000000,572.000000,356.000000,228.000000
4496.000000,3204.000000,3868.000000,572.000000,356.000000,228.000000
4492.000000,3200.000000,3856.000000,572.000000,356.000000,228.000000
4492.000000,3204.000000,3864.000000,572.000000,356.000000,228.000000
4496.000000,3208.000000,3860.000000,572.000000,356.000000,228.000000
4496.000000,3208.000000,3864.000000,572.000000,356.000000,228.000000
4496.000000,3212.000000,3868.000000,572.000000,356.000000,228.000000
4496.000000,3212.000000,3868.000000,572.000000,356.000000,228.000000
4496.000000,3208.000000,3864.000000,572.000000,356.000000,228.000000
4500.000000,3216.000000,3872.000000,572.000000,356.000000,228.000000
4500.000000,3208.000000,3864.000000,572.000000,356.000000,228.000000
4500.000000,3216.000000,3872.000000,572.000000,356.000000,228.000000
4500.000000,3212.000000,3868.000000,572.000000,356.000000,228.000000
4500.000000,3216.000000,3872.000000,572.000000,356.000000,228.000000
4500.000000,3216.000000,3872.000000,572.000000,356.000000,228.000000
4504.000000,3220.000000,3872.000000,572.000000,356.000000,228.000000
4504.000000,3224.000000,3884.000000,572.000000,356.000000,228.000000
4500.000000,3216.000000,3868.000000,572.000000,356.000000,228.000000
4500.000000,3220.000000,3876.000000,572.000000,356.000000,228.000000
4496.000000,3208.000000,3864.000000,572.000000,356.000000,228.000000
4492.000000,3204.000000,3864.000000,572.000000,356.000000,228.000000
4488.000000,3204.000000,3864.000000,572.000000,356.000000,228.000000
4488.000000,3200.000000,3856.000000,572.000000,356.000000,228.000000
4488.000000,3196.000000,3856.000000,572.000000,356.000000,228.000000
4488.000000,3196.000000,3864.000000,572.000000,356.000000,228.000000
4484.000000,3188.000000,3852.000000,572.000000,356.000000,228.000000
4488.000000,3196.000000,3860.000000,572.000000,356.000000,228.000000
4484.000000,3188.000000,3848.000000,572.000000,356.000000,228.000000
4484.000000,3192.000000,3852.000000,572.000000,356.000000,228.000000
4484.000000,3188.000000,3856.000000,572.000000,356.000000,228.000000
4484.000000,3188.000000,3852.000000,572.000000,356.000000,228.000000
4484.000000,3192.000000,3860.000000,572.000000,356.000000,228.000000
4484.000000,3184.000000,3844.000000,572.000000,356.000000,228.000000
4484.000000,3192.000000,3856.000000,572.000000,356.000000,228.000000
4484.000000,3188.000000,3856.000000,572.000000,356.000000,228.000000
4480.000000,3184.000000,3844.000000,572.000000,356.000000,228.000000
4480.000000,3188.000000,3856.000000,572.000000,356.000000,228.000000
4480.000000,3184.000000,3848.000000,572.000000,356.000000,228.000000
4480.000000,3188.000000,3848.000000,572.000000,356.000000,228.000000
4476.000000,3188.000000,3852.000000,572.000000,356.000000,228.000000
4480.000000,3188.000000,3848.000000,572.000000,356.000000,228.000000
4484.000000,3196.000000,3856.000000,572.000000,356.000000,228.000000
4484.000000,3192.000000,3852.000000,572.000000,356.000000,228.000000
4484.000000,3196.000000,3860.000000,572.000000,356.000000,228.000000
4480.000000,3192.000000,3852.000000,572.000000,356.000000,228.000000
4480.000000,3196.000000,3852.000000,572.000000,356.000000,228.000000
4480.000000,3196.000000,3860.000000,572.000000,356.000000,228.000000
4480.000000,3200.000000,3856.000000,572.000000,356.000000,228.000000
4484.000000,3196.000000,3856.000000,572.000000,356.000000,228.000000
4488.000000,3204.000000,3860.000000,572.000000,356.000000,228.000000
4484.000000,3200.000000,3856.000000,572.000000,356.000000,228.000000
4488.000000,3208.000000,3864.000000,572.000000,356.000000,228.000000
4488.000000,3204.000000,3860.000000,572.000000,356.000000,228.000000
4488.000000,3208.000000,3864.000000,572.000000,356.000000,228.000000
4488.000000,3208.000000,3860.000000,572.000000,356.000000,228.000000
4484.000000,3204.000000,3856.000000,572.000000,356.000000,228.000000
4484.000000,3204.000000,3864.000000,572.000000,356.000000,228.000000
4480.000000,3196.000000,3848.000000,572.000000,356.000000,228.000000
4480.000000,3196.000000,3856.000000,572.000000,356.000000,228.000000
4472.000000,3188.000000,3844.000000,572.000000,356.000000,228.000000
4472.000000,3184.000000,3840.000000,572.000000,356.000000,228.000000
4472.000000,3184.000000,3848.000000,572.000000,356.000000,228.000000
4472.000000,3180.000000,3844.000000,572.000000,356.000000,228.000000
4468.000000,3176.000000,3840.000000,572.000000,356.000000,228.000000
4472.000000,3180.000000,3844.000000,572.000000,356.000000,228.000000
4468.000000,3172.000000,3836.000000,572.000000,356.000000,228.000000
4468.000000,3176.000000,3844.000000,572.000000,356.000000,228.000000
4468.000000,3176.000000,3832.000000,572.000000,356.000000,228.000000
4468.000000,3176.000000,3840.000000,572.000000,356.000000,228.000000
4472.000000,3180.000000,3840.000000,572.000000,356.000000,228.000000
4468.000000,3176.000000,3836.000000,572.000000,356.000000,228.000000
4472.000000,3180.000000,3844.000000,572.000000,356.000000,228.000000
4472.000000,3176.000000,3836.000000,572.000000,356.000000,228.000000
4472.000000,3176.000000,3836.000000,572.000000,356.000000,228.000000
4472.000000,3184.000000,3852.000000,572.000000,356.000000,228.000000
4468.000000,3176.000000,3836.000000,572.000000,356.000000,228.000000
4468.000000,3180.000000,3844.000000,572.000000,356.000000,228.000000
4468.000000,3176.000000,3836.000000,572.000000,356.000000,228.000000
4468.000000,3184.000000,3840.000000,572.000000,356.000000,228.000000
4472.000000,3188.000000,3844.000000,572.000000,356.000000,228.000000
4472.000000,3184.000000,3840.000000,572.000000,356.000000,228.000000
4472.000000,3192.000000,3852.000000,572.000000,356.000000,228.000000
4476.000000,3188.000000,3848.000000,572.000000,356.000000,228.000000
4480.000000,3196.000000,3856.000000,572.000000,356.000000,228.000000
4476.000000,3192.000000,3848.000000,572.000000,356.000000,228.000000
