6856,4292,3964,1580,1028,688
6856,4292,3964,1576,1028,688
6856,4296,3968,1576,1028,688
6860,4296,3968,1580,1028,688
6852,4296,3968,1576,1028,684
6856,4296,3968,1576,1028,688
6860,4300,3972,1576,1028,688
6856,4300,3968,1576,1028,688
6860,4300,3972,1576,1028,688
6856,4300,3972,1576,1028,688
6860,4304,3972,1576,1028,688
6864,4312,3976,1576,1028,688
6864,4316,3980,1580,1028,688
6868,4320,3984,1580,1028,688
6868,4324,3984,1580,1032,688
6864,4324,3984,1580,1028,688
6864,4320,3984,1580,1032,688
6864,4316,3980,1580,1028,688
6856,4308,3976,1580,1028,688
6856,4296,3968,1580,1028,688
6852,4288,3964,1580,1028,688
6852,4284,3960,1576,1028,688
6848,4280,3956,1576,1028,688
6852,4280,3956,1576,1028,688
6848,4280,3956,1576,1028,688
6852,4284,3960,1576,1028,688
6852,4288,3960,1576,1028,688
6852,4288,3964,1576,1028,688
6848,4288,3960,1576,1028,688
6852,4292,3964,1576,1028,688
6852,4292,3964,1580,1028,688
6852,4292,3964,1580,1028,688
6856,4292,3968,1576,1028,688
6856,4292,3964,1576,1028,688
6856,4296,3968,1580,1028,688
6860,4300,3972,1576,1028,688
6860,4304,3972,1580,1028,688
6860,4308,3976,1576,1028,688
6860,4312,3976,1580,1028,688
6860,4312,3976,1580,1028,688
6860,4316,3980,1580,1028,688
6860,4312,3976,1576,1028,688
6856,4304,3972,1576,1028,688
6852,4296,3968,1580,1028,688
6852,4288,3960,1580,1028,688
6848,4280,3956,1580,1028,688
6848,4276,3952,1580,1028,688
6848,4276,3952,1576,1028,684
6844,4272,3952,1576,1028,684
6848,4276,3952,1576,1028,684
6848,4280,3956,1576,1028,684
6844,4280,3956,1580,1028,688
6848,4284,3956,1576,1028,684
6848,4284,3960,1576,1028,684
6848,4284,3956,1576,1028,688
6848,4284,3960,1576,1028,684
6852,4288,3960,1576,1028,684
6848,4288,3960,1576,1028,688
6844,4284,3956,1576,1028,684
6848,4288,3960,1576,1028,684
6852,4292,3964,1576,1028,684
6856,4300,3968,1576,1028,688
6852,4300,3968,1576,1028,684
6856,4304,3972,1576,1028,684
6860,4312,3976,1576,1028,684
6860,4312,3976,1576,1028,688
6856,4312,3976,1580,1028,688
6856,4304,3968,1580,1028,688
6848,4292,3964,1576,1028,684
6848,4284,3956,1576,1028,688
6844,4272,3952,1576,1028,684
6844,4272,3948,1576,1028,684
6844,4272,3948,1576,1028,684
6844,4268,3948,1576,1028,684
6840,4272,3948,1576,1028,684
6844,4272,3952,1576,1028,684
6844,4276,3952,1576,1028,684
6844,4276,3952,1576,1028,684
6840,4276,3952,1576,1028,684
6840,4276,3952,1576,1028,684
6844,4276,3952,1576,1028,684
6844,4276,3952,1576,1028,684
6844,4276,3952,1576,1028,684
6844,4276,3952,1576,1028,684
6848,4280,3956,1576,1028,684
6848,4284,3956,1576,1028,684
6848,4288,3960,1576,1028,684
6852,4292,3964,1576,1028,684
6856,4296,3968,1576,1028,684
6852,4296,3968,1576,1028,684
6852,4300,3968,1576,1028,684
6852,4300,3968,1576,1028,684
6852,4292,3964,1576,1028,684
6844,4280,3956,1576,1028,684
6840,4272,3948,1576,1028,684
6836,4268,3944,1576,1024,684
6844,4268,3944,1576,1024,684
6840,4268,3948,1576,1024,684
6840,4268,3944,1576,1024,684
6844,4272,3948,1576,1028,684
6840,4276,3952,1576,1024,684
6844,4280,3952,1576,1024,684
6848,4280,3956,1576,1024,684
6844,4284,3956,1576,1024,684
6844,4284,3956,1576,1024,684
6848,4284,3956,1576,1024,684
6848,4288,3960,1576,1024,684
6848,4288,3960,1576,1028,684
6848,4288,3960,1576,1024,684
6848,4292,3964,1576,1024,684
6852,4300,3968,1576,1028,684
6848,4300,3968,1576,1028,684
6852,4308,3972,1576,1028,684
6860,4312,3976,1576,1028,684
6860,4316,3976,1576,1028,684
6860,4316,3980,1576,1028,684
6860,4316,3976,1576,1028,684
6852,4304,3972,1576,1028,684
6848,4296,3964,1576,1028,684
6848,4292,3964,1576,1028,684
6844,4288,3960,1576,1028,684
6848,4292,3960,1576,1028,684
6848,4292,3960,1576,1024,684
6852,4296,3964,1576,1024,684
6848,4300,3964,1576,1028,684
6852,4304,3972,1576,1028,684
6856,4308,3972,1576,1028,684
6856,4312,3976,1576,1028,684
6856,4316,3976,1576,1028,684
6856,4316,3976,1576,1028,684
6860,4316,3980,1576,1028,684
6856,4316,3976,1576,1028,684
6856,4320,3980,1576,1028,684
6856,4324,3980,1576,1028,684
6860,4328,3984,1576,1028,684
6860,4332,3988,1576,1028,684
6864,4336,3992,1580,1028,684
6864,4344,3992,1580,1028,688
6864,4344,3996,1576,1028,684
6868,4348,3996,1580,1028,688
6868,4344,3996,1580,1028,688
6864,4336,3988,1580,1028,688
6860,4324,3984,1580,1028,688
6856,4316,3980,1580,1028,688
6852,4316,3976,1580,1028,688
6852,4316,3976,1580,1028,688
6852,4316,3976,1580,1028,688
6856,4320,3980,1580,1028,684
6856,4320,3980,1576,1028,684
6856,4324,3984,1576,1028,684
6860,4332,3988,1580,1028,684
6864,4336,3988,1580,1028,684
6860,4332,3988,1580,1028,688
6860,4336,3988,1580,1028,688
6864,4336,3992,1580,1028,688
6864,4340,3992,1580,1028,688
6864,4340,3992,1580,1028,688
6864,4344,3996,1580,1028,688
6864,4344,3996,1580,1028,688
6868,4352,4000,1580,1028,688
6864,4352,4000,1580,1028,688
6872,4360,4004,1580,1032,688
6872,4364,4008,1580,1028,688
6868,4364,4008,1580,1032,688
6868,4356,4004,1580,1032,688
6868,4352,4000,1580,1032,688
6864,4344,3996,1580,1028,688
6860,4336,3992,1580,1028,688
6860,4332,3988,1580,1028,688
6856,4328,3984,1580,1028,688
6860,4332,3988,1580,1028,688
6864,4336,3988,1580,1028,688
6860,4332,3988,1580,1028,688
6864,4340,3992,1580,1028,688
6864,4340,3992,1580,1028,688
6864,4344,3996,1580,1028,688
6868,4344,3996,1580,1028,688
6864,4344,3996,1580,1032,688
6864,4348,3996,1580,1028,688
6864,4348,3996,1580,1028,688
6864,4348,3996,1580,1032,688
6864,4352,4000,1580,1028,688
6864,4352,4000,1580,1028,688
6864,4356,4000,1580,1028,688
6868,4360,4004,1580,1032,688
6868,4364,4008,1580,1032,688
6872,4368,4012,1580,1032,688
6872,4372,4012,1580,1032,688
6872,4368,4012,1580,1032,688
6868,4360,4008,1580,1032,688
6864,4352,4000,1580,1032,688
6864,4344,3996,1580,1032,688
6860,4340,3992,1580,1028,688
6856,4336,3988,1580,1028,688
6860,4336,3988,1576,1028,688
6856,4336,3988,1580,1028,688
6856,4336,3988,1580,1028,688
6860,4340,3992,1576,1028,688
6860,4340,3992,1580,1028,688
6860,4344,3996,1580,1028,688
6864,4348,3996,1580,1028,688
6860,4344,3996,1580,1032,688
6860,4344,3996,1580,1032,688
6856,4344,3996,1580,1032,688
6860,4348,3996,1580,1028,688
6860,4352,4000,1580,1028,688
6864,4356,4000,1580,1032,688
6864,4356,4004,1580,1032,688
6864,4360,4004,1580,1032,688
6864,4364,4008,1580,1032,688
6868,4368,4008,1580,1032,688
6868,4372,4012,1580,1032,688
6864,4368,4008,1580,1032,688
6860,4364,4004,1580,1032,688
6860,4356,4000,1580,1032,688
6856,4344,3996,1580,1032,688
6852,4336,3988,1580,1032,688
6848,4328,3984,1580,1032,688
6848,4328,3984,1580,1028,688
6852,4328,3984,1580,1032,688
6852,4332,3984,1580,1028,688
6852,4332,3984,1580,1028,688
6856,4336,3988,1580,1028,688
6852,4336,3988,1580,1028,688
6852,4340,3988,1580,1028,688
6848,4336,3988,1580,1028,688
6852,4336,3988,1580,1032,688
6852,4336,3988,1580,1028,688
6848,4336,3988,1580,1028,688
6856,4340,3992,1580,1032,688
6856,4344,3992,1580,1028,688
6852,4344,3992,1580,1028,688
6856,4348,3996,1580,1032,688
6856,4352,3996,1580,1028,688
6856,4356,4000,1580,1032,688
6856,4356,4004,1580,1032,688
6860,4360,4004,1580,1032,688
6856,4360,4004,1580,1032,688
6856,4356,4000,1580,1032,688
6848,4344,3992,1580,1032,688
6848,4336,3988,1580,1032,688
6848,4332,3984,1580,1028,688
6852,4332,3988,1580,1032,688
6848,4332,3984,1576,1028,688
6848,4332,3984,1576,1028,688
6852,4336,3988,1576,1028,688
6852,4340,3992,1576,1028,688
6852,4344,3992,1580,1032,688
6852,4344,3992,1580,1032,688
6852,4348,3996,1580,1032,688
6852,4348,3996,1580,1032,688
6856,4352,3996,1580,1032,688
6856,4352,3996,1580,1032,688
6856,4356,4000,1580,1032,688
6856,4356,4000,1580,1032,688
6856,4360,4004,1580,1032,688
6856,4364,4004,1580,1032,688
6860,4368,4008,1580,1032,688
6864,4376,4012,1580,1032,688
6864,4376,4012,1580,1032,688
6860,4380,4016,1580,1032,688
6864,4380,4016,1580,1032,688
6860,4376,4012,1580,1032,688
6860,4372,4008,1580,1032,688
6856,4364,4004,1580,1032,688
6852,4356,4000,1580,1032,688
6852,4356,4000,1580,1032,688
6856,4356,4000,1580,1032,688
6856,4360,4000,1580,1032,688
6860,4364,4008,1580,1032,688
6860,4368,4008,1580,1032,688
6864,4372,4012,1580,1032,688
6868,4380,4016,1580,1032,688
6864,4380,4016,1580,1032,688
6868,4384,4016,1580,1032,688
6872,4384,4020,1580,1032,688
6864,4384,4016,1580,1032,688
6868,4388,4020,1580,1032,688
6872,4392,4024,1580,1032,688
6876,4400,4028,1580,1032,688
6880,4404,4032,1580,1032,688
6876,4404,4032,1580,1036,688
6880,4412,4036,1580,1036,688
6884,4420,4044,1580,1036,688
6888,4424,4044,1580,1036,688
6884,4420,4044,1580,1036,692
6884,4416,4040,1580,1036,688
6880,4408,4036,1580,1036,692
6876,4400,4032,1580,1036,688
6876,4396,4028,1580,1036,688
6872,4392,4024,1580,1036,688
6872,4392,4024,1580,1036,688
6876,4396,4028,1580,1036,688
6876,4400,4028,1580,1036,688
6880,4404,4032,1580,1036,692
6880,4408,4036,1580,1036,688
6884,4416,4040,1580,1036,688
6884,4416,4040,1580,1036,688
6888,4420,4044,1580,1036,688
6884,4420,4044,1580,1036,692
6888,4424,4044,1580,1036,688
6884,4424,4044,1580,1036,692
6888,4428,4048,1580,1036,692
6888,4428,4048,1580,1036,692
6892,4436,4052,1580,1036,692
6892,4440,4056,1580,1036,692
6896,4448,4060,1584,1036,692
6896,4448,4060,1584,1036,692
6896,4452,4064,1584,1036,692
6888,4444,4060,1584,1036,692
6888,4440,4052,1580,1036,692
6884,4432,4048,1584,1036,692
6884,4428,4044,1584,1036,692
6884,4424,4044,1580,1036,692
6884,4420,4040,1580,1036,692
6884,4420,4044,1580,1036,692
6884,4424,4044,1584,1036,692
6884,4424,4044,1584,1036,692
6888,4432,4048,1580,1036,692
6888,4436,4052,1584,1036,692
6884,4436,4052,1584,1040,692
6888,4436,4052,1584,1040,692
6888,4440,4052,1584,1036,692
6884,4440,4052,1584,1040,692
6892,4444,4056,1584,1040,692
6888,4444,4056,1584,1040,692
6888,4448,4056,1580,1040,692
6892,4448,4060,1584,1040,692
6892,4452,4060,1584,1040,692
6896,4460,4068,1584,1040,692
6896,4464,4068,1584,1040,692
6900,4468,4072,1584,1040,692
6900,4468,4072,1584,1040,692
6896,4464,4068,1584,1040,692
6892,4456,4064,1584,1040,692
6892,4448,4060,1584,1040,692
6892,4444,4056,1584,1040,692
6892,4440,4056,1584,1040,692
6888,4436,4052,1584,1040,692
6888,4436,4052,1584,1040,692
6888,4436,4052,1584,1040,692
6892,4444,4056,1584,1040,692
6888,4444,4056,1584,1040,692
6892,4448,4056,1584,1040,692
6896,4452,4060,1584,1040,692
6892,4448,4060,1584,1040,692
6884,4444,4056,1584,1040,692
6892,4452,4060,1584,1040,692
6892,4452,4060,1584,1040,692
6892,4452,4060,1584,1040,692
6892,4456,4064,1584,1040,692
6892,4456,4064,1584,1040,692
6892,4460,4068,1584,1040,692
6896,4464,4068,1584,1040,692
6896,4468,4072,1584,1040,692
6896,4472,4072,1584,1040,692
6896,4472,4072,1584,1040,692
6892,4464,4068,1584,1040,692
6892,4456,4064,1584,1040,692
6884,4444,4056,1584,1040,692
6880,4440,4052,1584,1040,692
6880,4436,4048,1584,1040,692
6888,4440,4052,1584,1040,692
6880,4436,4048,1584,1040,692
6884,4436,4052,1584,1040,692
6884,4436,4052,1584,1040,692
6884,4440,4052,1584,1040,692
6884,4444,4052,1584,1040,692
6884,4444,4052,1584,1040,692
6884,4444,4052,1584,1040,692
6888,4448,4056,1584,1040,692
6884,4444,4056,1584,1040,692
6888,4448,4056,1584,1040,692
6884,4448,4056,1584,1040,692
6888,4448,4060,1584,1040,692
6888,4452,4060,1584,1040,692
6888,4456,4060,1584,1040,692
6892,4460,4064,1584,1040,692
6888,4460,4064,1584,1040,692
6888,4464,4064,1584,1040,692
6892,4464,4068,1584,1040,692
6888,4460,4064,1584,1040,692
6888,4452,4060,1584,1040,692
6884,4444,4056,1584,1040,692
6880,4436,4048,1584,1040,692
6876,4428,4044,1584,1040,692
6876,4424,4044,1584,1040,692
6876,4428,4044,1584,1040,692
6876,4428,4044,1584,1040,692
6876,4428,4044,1584,1040,692
6876,4428,4044,1584,1040,692
6872,4428,4044,1584,1040,692
6872,4428,4044,1584,1040,692
6876,4432,4044,1584,1040,692
6872,4428,4044,1584,1040,692
6872,4428,4044,1584,1040,692
6872,4428,4044,1584,1040,692
6872,4428,4040,1584,1040,692
6872,4428,4044,1584,1040,692
6876,4432,4048,1584,1040,692
6876,4436,4048,1584,1040,692
6876,4436,4048,1584,1040,692
6876,4440,4048,1584,1040,692
6876,4440,4052,1584,1040,692
6872,4436,4048,1584,1040,692
6872,4432,4044,1584,1040,692
6864,4424,4040,1584,1040,692
6860,4412,4032,1584,1040,692
6856,4404,4024,1584,1040,692
6856,4396,4024,1584,1040,692
6860,4396,4024,1584,1040,692
6856,4396,4020,1584,1040,692
6860,4396,4024,1584,1040,692
6860,4396,4020,1584,1040,692
6856,4396,4020,1580,1040,692
6856,4396,4020,1580,1040,692
6856,4396,4024,1584,1040,692
6860,4396,4024,1580,1040,692
6856,4396,4020,1584,1040,692
6856,4396,4020,1580,1040,692
6856,4396,4020,1580,1040,692
6856,4396,4020,1580,1036,692
6860,4400,4024,1580,1040,692
6860,4400,4024,1580,1040,692
6860,4404,4024,1580,1036,692
6856,4404,4024,1580,1036,692
6864,4412,4032,1580,1040,692
6864,4412,4032,1580,1040,692
6868,4412,4032,1580,1040,692
6864,4408,4028,1584,1040,692
6856,4392,4020,1580,1040,692
6852,4384,4016,1580,1036,692
6848,4376,4008,1580,1040,692
6848,4376,4008,1580,1036,692
6844,4372,4004,1580,1036,692
6848,4372,4008,1580,1036,692
6852,4380,4012,1580,1036,692
6856,4384,4012,1580,1036,692
6856,4384,4012,1580,1036,692
6852,4384,4012,1580,1036,692
6856,4388,4016,1584,1040,692
6852,4388,4016,1584,1040,692
6856,4388,4016,1580,1040,692
6852,4384,4012,1580,1040,692
6856,4388,4016,1580,1036,692
6852,4388,4016,1584,1040,692
6856,4396,4020,1580,1036,692
6856,4396,4020,1584,1040,692
6856,4400,4024,1580,1036,692
6856,4400,4024,1580,1036,692
6856,4404,4024,1580,1036,692
6856,4404,4028,1580,1040,692
6852,4396,4020,1580,1040,692
6852,4388,4016,1580,1040,692
6848,4380,4012,1580,1036,692
6848,4376,4008,1580,1036,692
6848,4372,4008,1580,1036,692
6848,4372,4004,1580,1036,692
6848,4372,4004,1580,1036,692
6852,4372,4008,1580,1036,692
6852,4376,4008,1580,1036,692
6852,4380,4012,1580,1036,692
6852,4380,4012,1580,1036,692
6852,4380,4012,1580,1036,692
6852,4380,4012,1580,1036,692
6852,4380,4012,1580,1036,692
6848,4380,4012,1580,1036,692
6856,4384,4016,1580,1036,692
6856,4384,4016,1580,1036,692
6856,4388,4016,1580,1036,692
6856,4388,4020,1580,1036,692
6860,4392,4020,1580,1036,692
6856,4396,4020,1580,1036,692
6864,4400,4024,1580,1036,692
6864,4400,4024,1580,1036,692
6860,4396,4020,1580,1036,692
6852,4380,4012,1580,1036,692
6844,4368,4004,1580,1036,692
6840,4360,4000,1580,1036,692
6840,4356,3996,1580,1036,692
6840,4352,3992,1580,1036,692
6840,4352,3996,1580,1036,692
6840,4352,3992,1580,1036,692
6836,4352,3992,1580,1036,692
6840,4356,3996,1580,1036,692
6840,4356,3996,1580,1036,692
6844,4360,4000,1580,1036,692
6844,4360,4000,1580,1036,692
6844,4360,3996,1580,1036,692
6840,4356,3996,1580,1036,692
6840,4356,3996,1580,1036,692
6844,4360,4000,1580,1036,688
6848,4364,4000,1580,1036,692
6848,4368,4004,1580,1036,688
6848,4368,4004,1580,1036,692
6852,4372,4008,1580,1036,692
6848,4376,4008,1580,1036,692
6852,4376,4012,1580,1036,688
6848,4372,4008,1580,1036,692
6844,4364,4000,1580,1036,692
6840,4352,3996,1580,1036,692
6840,4344,3988,1580,1036,692
6836,4336,3984,1580,1036,688
6832,4328,3980,1580,1036,688
6832,4328,3980,1580,1032,688
6832,4328,3980,1580,1036,688
6832,4328,3980,1580,1036,688
6832,4328,3980,1580,1032,688
6832,4328,3980,1580,1032,688
6832,4332,3980,1580,1032,688
6832,4332,3980,1580,1032,688
6828,4328,3980,1580,1032,688
6828,4328,3976,1580,1032,688
6832,4328,3980,1580,1032,688
6832,4328,3980,1580,1032,688
6832,4332,3980,1580,1032,688
6836,4332,3980,1580,1032,688
6840,4336,3988,1580,1032,688
6836,4340,3984,1580,1032,688
6836,4340,3988,1580,1032,688
6840,4344,3992,1580,1032,688
6840,4344,3992,1580,1032,688
6836,4340,3988,1580,1032,688
6832,4328,3980,1580,1032,688
6824,4316,3968,1580,1032,688
6820,4304,3960,1580,1032,688
6816,4300,3960,1576,1032,688
6816,4296,3956,1576,1032,688
6816,4292,3956,1576,1032,688
6820,4296,3956,1576,1032,688
6816,4296,3956,1576,1032,688
6820,4296,3956,1576,1032,688
6820,4300,3960,1576,1032,688
6820,4300,3960,1576,1032,688
6816,4296,3960,1576,1032,688
6820,4300,3960,1576,1032,688
6816,4296,3960,1576,1032,688
6820,4296,3960,1576,1032,688
6820,4296,3960,1576,1032,688
6820,4300,3960,1576,1032,688
6820,4300,3960,1576,1032,688
6820,4300,3960,1576,1032,688
6820,4304,3964,1576,1032,688
6820,4304,3964,1576,1032,688
6820,4308,3964,1576,1032,688
6824,4308,3968,1576,1032,688
6820,4304,3964,1576,1032,688
6812,4292,3956,1576,1032,688
6808,4280,3948,1576,1032,688
6808,4272,3944,1576,1028,688
6804,4264,3936,1576,1028,688
6804,4260,3936,1576,1028,688
6804,4260,3936,1576,1028,688
6808,4264,3936,1576,1028,688
6812,4268,3940,1576,1028,688
6812,4268,3940,1576,1028,688
6804,4268,3940,1576,1028,688
6808,4268,3940,1576,1028,688
6808,4268,3940,1576,1028,688
6808,4268,3940,1576,1028,688
6808,4268,3940,1576,1028,688
6804,4264,3936,1576,1028,688
6804,4264,3936,1576,1028,688
6804,4268,3940,1576,1028,688
6808,4272,3944,1576,1028,688
6808,4276,3944,1576,1028,688
6808,4280,3948,1576,1028,688
6812,4284,3952,1576,1028,688
6812,4288,3952,1576,1028,688
6816,4288,3956,1576,1028,688
6812,4284,3952,1576,1028,688
6812,4276,3948,1576,1028,688
6804,4264,3940,1576,1028,688
6800,4256,3932,1576,1028,684
6800,4252,3928,1576,1028,684
6800,4252,3928,1576,1028,684
6804,4252,3932,1576,1028,684
6804,4256,3932,1576,1028,684
6804,4260,3932,1576,1028,684
6804,4264,3936,1576,1028,684
6804,4264,3936,1576,1028,688
6808,4272,3944,1576,1028,688
6808,4268,3940,1576,1028,688
6808,4272,3940,1576,1028,688
6804,4272,3940,1576,1028,688
6812,4276,3944,1576,1028,688
6808,4276,3944,1576,1028,684
6812,4280,3948,1576,1028,688
6816,4284,3952,1576,1028,684
6816,4288,3956,1576,1028,684
6824,4296,3960,1576,1028,684
6824,4304,3964,1576,1028,684
6824,4304,3964,1576,1028,684
6820,4300,3960,1576,1028,684
6820,4296,3956,1576,1028,684
6816,4288,3952,1576,1028,684
6812,4280,3948,1576,1028,684
6812,4272,3944,1576,1028,684
6812,4268,3940,1576,1028,684
6808,4268,3940,1576,1028,684
6812,4272,3944,1576,1028,684
6812,4276,3944,1576,1028,684
6812,4280,3948,1576,1024,684
6820,4284,3952,1576,1028,684
6820,4288,3952,1576,1028,684
6816,4288,3952,1576,1028,684
6820,4292,3956,1576,1028,684
6824,4292,3956,1576,1028,684
6820,4292,3956,1576,1028,684
6820,4292,3956,1576,1028,684
6820,4292,3956,1576,1028,684
6820,4296,3960,1576,1028,684
6824,4300,3960,1576,1028,684
6824,4304,3964,1576,1028,684
6828,4312,3968,1576,1028,684
6832,4316,3972,1576,1028,684
6832,4316,3972,1576,1028,684
6824,4312,3968,1576,1028,684
6820,4300,3960,1576,1028,684
6812,4288,3952,1576,1028,684
6816,4284,3948,1576,1028,684
6816,4280,3948,1576,1028,684
6812,4276,3944,1576,1028,684
6812,4276,3944,1576,1028,684
6812,4280,3948,1576,1028,684
6816,4280,3948,1576,1028,684
6812,4284,3948,1576,1028,684
6820,4288,3952,1576,1028,684
6820,4292,3956,1576,1024,684
6820,4296,3956,1576,1024,684
6820,4292,3956,1576,1024,684
6820,4296,3956,1576,1028,684
6820,4296,3956,1576,1028,684
6820,4296,3956,1576,1028,684
6824,4300,3964,1576,1028,684
6824,4304,3964,1576,1028,684
6828,4308,3968,1576,1028,684
6828,4312,3968,1576,1028,684
6828,4316,3972,1576,1028,684
6828,4320,3972,1576,1028,684
6832,4320,3972,1576,1028,684
6832,4316,3972,1576,1028,684
6828,4308,3968,1576,1028,684
6824,4296,3960,1576,1028,684
6820,4292,3956,1576,1028,684
6812,4284,3948,1576,1024,684
6816,4284,3952,1576,1024,684
6816,4284,3948,1576,1024,684
6824,4288,3956,1576,1024,684
6820,4288,3952,1576,1024,684
6820,4292,3956,1576,1024,684
6820,4292,3956,1576,1024,684
6820,4296,3956,1576,1024,684
6816,4296,3956,1576,1024,684
6816,4296,3956,1576,1028,684
6820,4296,3956,1576,1024,684
6816,4296,3956,1576,1024,684
6820,4300,3960,1576,1024,684
6824,4300,3960,1576,1024,684
6824,4304,3964,1576,1024,684
6824,4308,3964,1580,1028,684
6828,4316,3972,1576,1028,684
6828,4316,3972,1576,1028,684
6832,4320,3976,1576,1028,684
6828,4320,3972,1576,1028,684
6828,4316,3972,1576,1028,684
6820,4304,3964,1576,1028,684
6820,4296,3956,1576,1028,684
6820,4292,3956,1576,1024,684
6816,4284,3948,1576,1024,684
6816,4280,3948,1576,1024,684
6812,4280,3948,1576,1024,684
6812,4280,3948,1576,1024,684
6816,4288,3952,1576,1024,684
6812,4288,3952,1576,1024,684
6816,4288,3952,1576,1024,684
6820,4292,3956,1576,1024,684
6816,4292,3952,1576,1024,684
6816,4292,3952,1576,1024,684
6820,4292,3956,1576,1024,684
6816,4292,3956,1576,1024,684
6816,4292,3956,1576,1024,684
6824,4300,3960,1576,1024,684
6820,4300,3960,1576,1024,684
6824,4304,3964,1576,1028,684
6820,4308,3964,1576,1028,684
6828,4312,3968,1576,1028,684
6828,4316,3972,1576,1028,684
6832,4320,3972,1576,1028,684
6824,4312,3968,1576,1028,684
6820,4304,3960,1576,1028,684
6820,4296,3956,1576,1024,684
6816,4288,3952,1576,1024,684
6808,4276,3944,1576,1024,684
6812,4276,3944,1576,1024,684
6812,4276,3944,1576,1024,684
6808,4276,3944,1576,1024,684
6812,4280,3944,1576,1024,684
6808,4280,3944,1576,1024,684
6808,4280,3948,1576,1024,684
6812,4284,3948,1576,1024,684
6812,4284,3948,1576,1024,684
6812,4284,3948,1576,1024,684
6816,4288,3952,1576,1024,684
6816,4288,3952,1576,1024,684
6816,4288,3952,1576,1024,684
6816,4288,3952,1576,1024,684
6812,4288,3952,1576,1024,684
6816,4296,3956,1576,1024,684
6812,4296,3956,1576,1024,684
6812,4300,3956,1576,1024,684
6816,4300,3960,1576,1024,684
6816,4300,3960,1576,1024,684
6812,4300,3956,1576,1024,684
6812,4292,3952,1576,1024,684
6804,4280,3944,1576,1024,684
6804,4272,3940,1576,1024,684
6800,4268,3936,1576,1024,684
6800,4264,3936,1576,1024,684
6804,4268,3936,1576,1024,684
6800,4268,3936,1576,1024,684
6800,4268,3936,1576,1024,684
6800,4272,3940,1576,1024,684
6804,4276,3944,1576,1024,684
6804,4280,3944,1576,1024,684
6804,4280,3944,1576,1024,684
6804,4280,3944,1576,1024,684
6800,4280,3944,1576,1024,684
6804,4284,3948,1576,1024,684
6804,4284,3948,1576,1024,684
6808,4288,3952,1576,1024,684
6808,4292,3952,1576,1024,684
6808,4296,3956,1576,1024,684
6808,4296,3956,1576,1024,684
6808,4304,3960,1576,1024,684
6808,4304,3960,1576,1024,684
6812,4312,3964,1576,1028,684
6808,4304,3960,1576,1028,684
6808,4300,3956,1576,1028,684
6804,4292,3952,1576,1024,684
6804,4284,3948,1576,1024,684
6800,4280,3944,1576,1024,684
6804,4280,3944,1576,1024,684
6804,4284,3944,1576,1024,684
6804,4284,3948,1576,1024,684
6808,4292,3952,1576,1024,684
6808,4296,3952,1576,1024,684
6812,4300,3956,1576,1024,684
6812,4304,3960,1576,1024,684
6812,4304,3960,1576,1024,684
6812,4304,3960,1576,1024,684
6816,4308,3964,1576,1028,684
6816,4308,3964,1576,1028,684
6816,4316,3968,1576,1028,684
6820,4320,3968,1576,1028,684
6816,4320,3968,1576,1028,684
6820,4324,3976,1576,1028,684
6824,4332,3976,1576,1028,684
6824,4336,3980,1576,1028,684
6828,4340,3984,1576,1028,684
6824,4340,3984,1576,1028,684
6824,4332,3980,1576,1028,684
6816,4324,3972,1576,1028,684
6816,4316,3968,1576,1028,684
6816,4312,3964,1576,1028,684
6812,4308,3960,1576,1028,684
6816,4312,3964,1576,1028,684
6816,4312,3964,1576,1028,684
6816,4316,3968,1576,1028,684
6820,4320,3972,1576,1028,684
6820,4324,3972,1576,1028,684
6820,4328,3976,1576,1028,684
6824,4332,3976,1576,1028,684
6828,4332,3980,1576,1028,684
6824,4332,3976,1576,1028,684
6824,4332,3980,1576,1028,684
6828,4336,3980,1576,1028,684
6828,4340,3984,1576,1028,684
6828,4340,3984,1580,1028,684
6828,4344,3984,1576,1028,684
6832,4348,3988,1576,1028,688
6836,4356,3996,1576,1028,684
6832,4356,3992,1576,1028,684
6836,4360,3996,1580,1028,688
6828,4352,3992,1580,1032,688
6832,4352,3988,1580,1032,688
6824,4340,3984,1580,1028,688
6816,4328,3972,1580,1032,688
6816,4324,3972,1580,1028,688
6816,4324,3972,1580,1028,688
6820,4324,3972,1580,1028,688
6824,4328,3976,1580,1028,688
6824,4332,3976,1576,1028,688
6824,4332,3976,1580,1028,688
6824,4336,3980,1580,1028,688
6824,4336,3980,1580,1028,688
6824,4340,3980,1580,1028,688
6824,4340,3980,1580,1028,688
6824,4340,3980,1576,1028,688
6824,4340,3980,1576,1028,688
6828,4344,3984,1576,1028,688
6824,4344,3984,1576,1028,688
6828,4348,3988,1576,1028,688
6832,4352,3992,1580,1032,688
6832,4356,3992,1580,1032,688
6836,4360,3996,1580,1032,688
6832,4364,3996,1580,1032,688
6828,4360,3996,1580,1032,688
6828,4360,3992,1580,1032,688
6828,4352,3992,1580,1032,688
6824,4344,3984,1580,1032,688
6824,4336,3980,1580,1032,688
6820,4332,3976,1580,1032,688
6816,4328,3972,1580,1032,688
6816,4328,3972,1576,1028,688
6816,4328,3972,1580,1032,688
6820,4328,3972,1580,1032,688
6820,4332,3976,1580,1032,688
6816,4332,3976,1580,1032,688
6820,4336,3976,1580,1032,688
6820,4336,3980,1580,1032,688
6820,4336,3980,1580,1032,688
6820,4336,3980,1580,1032,688
6820,4336,3980,1580,1032,688
6820,4340,3980,1580,1032,688
6824,4340,3980,1580,1032,688
6820,4344,3984,1580,1032,688
6820,4344,3984,1580,1032,688
6820,4348,3984,1580,1032,688
6824,4352,3988,1580,1032,688
6828,4360,3992,1580,1032,688
6828,4360,3992,1580,1032,688
6824,4356,3988,1580,1032,688
6820,4348,3984,1580,1032,688
6820,4344,3980,1580,1032,688
6816,4332,3976,1580,1032,688
6812,4324,3968,1580,1032,688
6812,4324,3968,1576,1032,688
6812,4320,3968,1576,1032,688
6808,4320,3964,1576,1032,688
6812,4320,3968,1580,1032,688
6812,4324,3968,1576,1032,688
6812,4324,3968,1580,1032,688
6808,4324,3968,1580,1032,688
6812,4328,3972,1580,1032,688
6812,4328,3972,1580,1032,688
6812,4328,3972,1580,1032,688
6816,4328,3972,1580,1032,688
6812,4328,3972,1576,1032,688
6812,4332,3972,1580,1032,688
6812,4332,3972,1580,1032,688
6816,4336,3976,1580,1032,688
6816,4336,3976,1580,1032,688
6812,4336,3976,1576,1032,688
6816,4340,3980,1580,1032,688
6820,4348,3984,1580,1032,688
6816,4348,3984,1580,1032,688
6816,4344,3980,1580,1032,688
6812,4336,3976,1580,1032,688
6808,4324,3968,1576,1032,688
6800,4312,3960,1576,1032,688
6800,4308,3956,1576,1032,688
6796,4304,3952,1576,1032,688
6800,4308,3956,1576,1032,688
6800,4304,3956,1576,1028,688
6800,4308,3956,1576,1032,688
6800,4308,3956,1576,1032,688
6804,4312,3960,1576,1028,688
6804,4312,3960,1576,1032,688
6800,4312,3956,1576,1032,688
6796,4308,3956,1576,1032,688
6796,4308,3956,1576,1032,688
6800,4308,3956,1576,1032,688
6796,4304,3956,1576,1032,688
6796,4308,3956,1576,1032,688
6792,4308,3956,1576,1028,688
6796,4312,3956,1576,1032,688
6796,4312,3960,1576,1032,688
6796,4316,3960,1576,1032,688
6800,4320,3964,1576,1032,688
6800,4320,3968,1576,1032,688
6804,4324,3968,1576,1032,688
6800,4316,3960,1576,1032,688
6792,4304,3956,1576,1032,688
6792,4296,3948,1576,1028,688
6792,4292,3948,1576,1028,688
6792,4292,3944,1576,1028,688
6792,4288,3944,1576,1028,688
6788,4288,3944,1576,1028,688
6788,4292,3944,1576,1028,688
6792,4296,3948,1576,1028,688
6792,4296,3948,1576,1028,688
6796,4300,3952,1576,1028,688
6796,4304,3956,1576,1028,688
6792,4300,3952,1576,1028,688
6792,4300,3952,1576,1028,688
6792,4300,3952,1576,1028,688
6796,4304,3956,1576,1028,688
6796,4308,3956,1576,1028,688
6792,4308,3956,1576,1028,688
6792,4308,3956,1576,1028,688
6796,4316,3964,1576,1032,688
6796,4320,3964,1576,1032,688
6800,4324,3968,1576,1032,688
6800,4328,3968,1576,1032,688
6796,4324,3964,1576,1032,688
6796,4320,3964,1576,1032,688
6792,4312,3956,1576,1032,688
6788,4304,3952,1576,1028,688
6788,4300,3952,1576,1028,688
6788,4300,3952,1576,1028,688
6784,4296,3948,1576,1028,688
6788,4300,3952,1576,1028,688
6796,4308,3956,1576,1028,688
6796,4312,3960,1576,1032,688
6796,4316,3960,1576,1032,688
6796,4320,3964,1576,1032,688
6800,4320,3964,1576,1032,688
6800,4324,3968,1576,1032,688
6800,4324,3968,1576,1032,688
6804,4324,3968,1576,1032,688
6804,4328,3972,1576,1032,688
6800,4328,3968,1576,1032,688
6804,4332,3972,1576,1032,688
6804,4336,3976,1576,1032,688
6808,4344,3980,1576,1032,688
6808,4348,3980,1576,1032,688
6804,4348,3980,1580,1032,688
6804,4344,3980,1576,1032,688
6804,4340,3976,1576,1032,688
6800,4336,3972,1580,1032,688
6796,4328,3968,1576,1032,688
6800,4324,3968,1576,1032,688
6800,4324,3968,1576,1032,688
6804,4324,3968,1576,1032,688
6804,4324,3968,1576,1032,688
6804,4328,3972,1576,1032,688
6808,4332,3972,1576,1032,688
6804,4336,3976,1576,1032,688
6804,4336,3972,1576,1032,688
6808,4340,3976,1576,1032,688
6804,4336,3976,1576,1032,688
6808,4340,3980,1576,1032,688
6804,4340,3976,1576,1032,688
6808,4344,3980,1576,1032,688
6808,4344,3980,1576,1032,688
6808,4348,3980,1576,1032,688
6812,4352,3984,1576,1032,688
6812,4356,3988,1576,1032,688
6812,4356,3988,1580,1032,688
6812,4360,3988,1580,1032,688
6808,4356,3988,1580,1032,688
6804,4352,3984,1580,1032,688
6804,4344,3980,1580,1032,688
6800,4336,3972,1580,1032,688
6800,4332,3972,1580,1032,688
6796,4324,3968,1580,1032,688
6796,4324,3964,1580,1032,688
6796,4320,3964,1576,1032,688
6796,4324,3964,1576,1032,688
6800,4328,3968,1576,1032,688
6800,4328,3968,1576,1032,688
6804,4332,3972,1576,1032,688
6800,4332,3972,1576,1032,688
6796,4332,3972,1576,1032,688
6800,4332,3972,1580,1032,688
6800,4336,3972,1580,1032,688
6804,4336,3976,1576,1032,688
6800,4336,3976,1580,1032,688
6800,4336,3972,1576,1032,688
6800,4340,3976,1580,1032,688
6800,4340,3976,1576,1032,688
6804,4348,3980,1576,1032,688
6804,4348,3984,1576,1032,688
6804,4352,3984,1580,1032,688
6800,4348,3980,1580,1032,688
6800,4340,3976,1580,1032,688
6800,4336,3972,1576,1032,688
6796,4324,3964,1576,1032,688
6792,4320,3960,1576,1032,688
6792,4312,3960,1576,1032,688
6792,4312,3960,1576,1032,688
6792,4312,3960,1576,1032,688
6792,4312,3960,1576,1032,688
6788,4312,3960,1576,1032,688
6788,4316,3960,1576,1032,688
6788,4316,3960,1576,1032,688
6788,4316,3960,1580,1032,688
6788,4316,3960,1576,1032,688
6788,4316,3960,1576,1032,688
6788,4320,3964,1576,1032,688
6788,4320,3960,1576,1032,688
6788,4320,3960,1576,1032,688
6792,4324,3964,1576,1032,688
6796,4328,3968,1576,1032,688
6792,4328,3968,1576,1032,688
6796,4332,3972,1576,1032,688
6796,4336,3972,1576,1032,688
6792,4336,3972,1580,1032,688
6788,4328,3968,1576,1032,688
6788,4320,3964,1576,1032,688
6784,4312,3960,1576,1032,688
6784,4308,3956,1576,1032,688
6780,4300,3948,1576,1032,688
6776,4296,3944,1576,1032,688
6776,4292,3944,1576,1032,688
6776,4292,3944,1576,1032,688
6776,4292,3944,1576,1032,688
6776,4296,3944,1576,1032,688
6776,4296,3944,1576,1032,688
6776,4296,3948,1576,1032,688
6780,4300,3948,1576,1032,688
6776,4296,3948,1576,1032,688
6780,4300,3948,1576,1032,688
6776,4296,3948,1576,1032,688
6776,4300,3948,1576,1032,688
6772,4296,3948,1576,1032,688
6780,4304,3952,1576,1032,688
6780,4304,3952,1576,1032,688
6784,4308,3956,1576,1032,688
6784,4312,3956,1576,1032,688
6780,4312,3956,1576,1032,688
6780,4312,3956,1576,1032,688
6780,4308,3956,1576,1032,688
6776,4300,3952,1576,1032,688
6772,4292,3944,1576,1032,688
6764,4280,3936,1576,1032,688
6764,4272,3932,1576,1028,688
6764,4272,3932,1576,1028,688
6760,4268,3928,1576,1028,688
6764,4268,3928,1576,1028,688
6764,4268,3928,1576,1028,688
6760,4268,3928,1576,1028,688
6764,4272,3932,1576,1028,688
6764,4272,3932,1576,1028,688
6764,4272,3932,1576,1028,688
6756,4268,3928,1576,1028,688
6764,4268,3928,1576,1028,688
6760,4268,3928,1576,1028,688
6760,4268,3928,1576,1028,688
6756,4268,3928,1572,1028,684
6764,4272,3932,1572,1028,688
6760,4272,3932,1576,1028,688
6760,4272,3932,1576,1028,688
6764,4280,3936,1576,1028,688
6764,4280,3940,1576,1028,688
6764,4284,3936,1576,1028,688
6764,4284,3940,1576,1028,688
6764,4280,3936,1576,1028,688
6756,4268,3928,1572,1028,688
6752,4260,3924,1572,1028,688
6752,4256,3920,1572,1028,688
6748,4252,3916,1572,1028,684
6752,4252,3916,1572,1028,684
6752,4252,3920,1572,1028,684
6752,4252,3920,1572,1028,684
6756,4256,3924,1572,1028,684
6760,4264,3928,1572,1028,684
6760,4264,3928,1572,1028,684
6760,4268,3928,1572,1028,684
6764,4268,3932,1576,1028,688
6764,4272,3932,1576,1028,688
6764,4272,3932,1572,1028,684
6760,4272,3932,1576,1028,688
6764,4276,3932,1572,1028,684
6768,4280,3936,1572,1028,684
6768,4280,3940,1576,1028,688
6768,4284,3940,1576,1028,688
6768,4288,3944,1572,1028,688
6768,4292,3944,1576,1028,688
6772,4296,3948,1576,1028,688
6772,4296,3948,1572,1028,688
6772,4292,3948,1576,1028,688
6768,4284,3940,1576,1028,688
6764,4276,3936,1576,1028,688
6760,4268,3932,1576,1028,688
6760,4268,3928,1576,1028,688
6764,4268,3928,1576,1028,688
6764,4268,3932,1576,1028,688
6764,4272,3932,1576,1028,684
6768,4276,3936,1572,1028,684
6768,4280,3936,1576,1028,688
6768,4284,3940,1576,1028,688
6772,4288,3944,1576,1028,688
6776,4292,3944,1576,1028,688
6772,4292,3944,1576,1028,688
6772,4292,3944,1576,1028,688
6772,4292,3944,1576,1028,688
6772,4296,3948,1576,1028,688
6776,4300,3952,1576,1028,688
6780,4304,3956,1576,1028,688
6776,4304,3956,1576,1028,688
6776,4308,3956,1576,1028,688
6784,4316,3964,1576,1028,688
6780,4320,3964,1576,1032,688
6780,4316,3964,1576,1028,688
6780,4312,3960,1576,1028,688
6780,4304,3956,1576,1028,688
6768,4292,3948,1576,1028,688
6768,4288,3944,1576,1028,688
6772,4288,3944,1572,1028,688
6772,4288,3940,1576,1028,688
6772,4288,3944,1576,1028,688
6772,4292,3944,1576,1028,688
6772,4296,3948,1576,1028,688
6776,4300,3952,1576,1028,688
6780,4304,3952,1576,1028,688
6780,4304,3956,1576,1028,688
6784,4308,3956,1576,1028,688
6780,4308,3956,1576,1028,688
6784,4312,3960,1576,1028,688
6784,4308,3956,1576,1028,688
6784,4312,3960,1576,1028,688
6780,4312,3960,1576,1028,688
6780,4316,3960,1576,1028,688
6784,4324,3968,1576,1032,688
6792,4328,3972,1576,1032,688
6788,4332,3972,1576,1032,688
6792,4336,3976,1576,1032,688
6792,4332,3972,1576,1032,688
6788,4324,3968,1576,1032,688
6788,4316,3964,1576,1032,688
6784,4308,3960,1576,1028,688
6784,4300,3952,1576,1028,688
6776,4296,3948,1576,1028,688
6776,4296,3948,1572,1028,688
6780,4296,3948,1576,1028,688
6780,4300,3952,1576,1028,688
6780,4304,3952,1576,1028,688
6780,4304,3956,1576,1028,688
6784,4308,3960,1576,1028,688
6784,4308,3956,1576,1028,688
6780,4308,3956,1576,1028,688
6784,4312,3960,1576,1028,688
6788,4312,3960,1576,1032,688
6788,4312,3960,1576,1028,688
6788,4316,3960,1576,1032,688
6788,4316,3964,1576,1028,688
6788,4320,3964,1576,1032,688
6792,4324,3968,1576,1032,688
6796,4332,3972,1576,1032,688
6796,4332,3976,1576,1032,688
6792,4332,3972,1576,1032,688
6788,4328,3972,1576,1032,688
6784,4316,3964,1576,1032,688
6780,4304,3952,1576,1032,688
6780,4296,3952,1576,1028,688
6772,4288,3944,1576,1028,688
6772,4284,3940,1576,1028,688
6776,4284,3940,1576,1028,688
6780,4288,3944,1576,1028,688
6780,4292,3948,1576,1028,688
6780,4292,3948,1576,1028,688
6784,4296,3952,1576,1028,688
6784,4296,3952,1576,1028,688
6784,4296,3948,1576,1028,688
6784,4296,3952,1576,1028,688
6784,4300,3952,1576,1028,688
6780,4296,3952,1576,1028,688
6784,4300,3952,1576,1028,688
6784,4300,3952,1576,1028,688
6784,4300,3956,1576,1028,688
6788,4308,3960,1576,1032,688
6792,4312,3960,1576,1032,688
6792,4316,3964,1576,1032,688
6792,4316,3964,1576,1028,688
6788,4316,3964,1576,1032,688
6792,4316,3964,1576,1032,688
6784,4304,3956,1576,1032,688
6780,4292,3948,1576,1032,688
6776,4280,3940,1576,1028,688
6776,4276,3936,1576,1028,688
6776,4272,3932,1576,1028,688
6776,4268,3932,1576,1028,688
6776,4272,3932,1576,1028,688
6780,4276,3936,1576,1028,688
6780,4276,3936,1576,1028,688
6780,4280,3940,1576,1028,688
6776,4280,3936,1576,1028,688
6784,4284,3940,1576,1028,688
6776,4280,3940,1576,1028,688
6776,4280,3936,1576,1028,688
6780,4280,3940,1576,1028,688
6776,4280,3940,1576,1028,688
6780,4284,3940,1576,1028,688
6780,4284,3940,1576,1028,688
6784,4292,3948,1576,1028,688
6784,4292,3948,1576,1028,688
6784,4296,3952,1576,1028,688
6784,4300,3952,1576,1028,688
6788,4300,3952,1576,1028,688
6784,4300,3952,1576,1028,688
6780,4288,3948,1576,1028,688
6776,4276,3936,1576,1028,688
6772,4264,3928,1576,1028,688
6772,4256,3924,1576,1028,688
6768,4252,3920,1576,1028,688
6768,4248,3920,1576,1028,684
6768,4248,3920,1576,1028,688
6768,4248,3920,1576,1028,684
6764,4248,3916,1576,1028,684
6772,4256,3924,1576,1028,688
6772,4256,3924,1576,1028,688
6772,4256,3924,1576,1028,684
6772,4256,3924,1576,1028,688
6768,4252,3920,1576,1028,688
6768,4252,3920,1576,1028,688
6768,4252,3920,1576,1028,688
6768,4252,3920,1576,1028,688
6768,4252,3920,1576,1028,688
6768,4256,3924,1576,1028,688
6772,4260,3924,1576,1028,688
6772,4264,3928,1576,1028,688
6772,4268,3928,1576,1028,688
6772,4268,3928,1576,1028,688
6772,4268,3932,1576,1028,688
6768,4256,3924,1576,1028,688
6764,4248,3916,1576,1028,688
6760,4236,3908,1576,1028,688
6756,4228,3904,1576,1028,684
6760,4224,3900,1572,1028,684
6756,4220,3900,1576,1028,684
6756,4220,3900,1576,1028,684
6760,4228,3904,1572,1028,684
6764,4232,3908,1576,1028,684
6760,4232,3908,1576,1028,688
6764,4236,3908,1576,1028,684
6760,4236,3908,1576,1028,684
6760,4236,3908,1576,1028,688
6764,4240,3912,1576,1028,684
6764,4236,3912,1576,1028,684
6764,4240,3912,1576,1028,684
6768,4244,3916,1572,1028,684
6768,4248,3916,1576,1028,684
6772,4252,3920,1576,1028,684
6772,4256,3924,1576,1028,684
6776,4260,3928,1576,1028,684
6780,4268,3932,1576,1028,688
6780,4268,3932,1576,1028,688
6776,4264,3928,1576,1028,688
6768,4252,3920,1576,1028,688
6768,4244,3916,1576,1028,684
6760,4232,3908,1576,1028,684
6760,4228,3904,1576,1028,684
6760,4224,3904,1576,1028,684
6756,4224,3900,1572,1028,684
6760,4228,3904,1576,1028,684
6760,4232,3908,1576,1028,684
6764,4240,3912,1576,1028,684
6768,4244,3916,1576,1028,684
6768,4248,3916,1576,1028,684
6772,4252,3920,1576,1028,684
6772,4252,3920,1576,1028,684
6768,4252,3920,1576,1028,684
6772,4256,3924,1576,1028,684
6776,4256,3924,1576,1028,684
6776,4260,3928,1576,1028,688
6784,4268,3932,1576,1028,688
6784,4272,3932,1576,1028,688
6784,4276,3936,1576,1028,688
6788,4284,3940,1576,1028,688
6788,4284,3944,1576,1028,688
6784,4284,3940,1576,1028,688
6784,4280,3940,1576,1028,688
6784,4268,3932,1576,1028,688
6780,4260,3924,1576,1028,688
6776,4252,3924,1576,1028,688
6776,4248,3920,1576,1028,688
6772,4248,3916,1576,1028,688
6776,4252,3920,1576,1028,688
6780,4256,3924,1576,1028,688
6784,4264,3928,1576,1028,688
6788,4268,3932,1576,1028,688
6788,4272,3936,1576,1028,688
6788,4272,3936,1576,1028,688
6788,4276,3936,1576,1028,688
6788,4276,3936,1576,1028,688
6788,4280,3940,1576,1028,688
6788,4280,3940,1576,1028,688
6792,4284,3944,1576,1028,688
6788,4284,3944,1576,1028,688
6792,4292,3948,1576,1028,688
6792,4292,3948,1576,1028,688
6792,4296,3948,1576,1028,688
6796,4304,3956,1576,1032,688
6796,4304,3956,1576,1032,688
6792,4304,3956,1576,1032,688
6788,4292,3948,1576,1028,688
6784,4284,3940,1576,1032,688
6780,4272,3936,1576,1028,688
6780,4268,3932,1576,1028,688
6780,4268,3928,1576,1028,688
6780,4268,3932,1576,1028,688
6788,4272,3936,1576,1028,688
6792,4276,3936,1576,1028,688
6796,4284,3944,1576,1028,688
6796,4288,3944,1576,1028,688
6796,4288,3944,1576,1028,688
6796,4288,3948,1576,1028,688
6796,4292,3948,1576,1028,688
6792,4288,3944,1576,1028,688
6792,4292,3944,1576,1032,688
6796,4296,3948,1576,1028,688
6804,4300,3952,1576,1028,688
6800,4304,3956,1576,1028,688
6804,4308,3956,1576,1032,688
6804,4312,3960,1576,1032,688
6804,4316,3960,1576,1032,688
6808,4320,3964,1580,1032,688
6804,4324,3968,1580,1032,688
6804,4316,3964,1580,1032,688
6804,4312,3960,1576,1032,688
6800,4300,3952,1580,1032,688
6800,4292,3948,1576,1032,688
6800,4288,3944,1576,1032,688
6792,4280,3940,1576,1028,688
6792,4284,3940,1576,1028,688
6796,4288,3944,1576,1028,688
6792,4288,3944,1576,1028,688
6796,4296,3948,1576,1028,688
6800,4300,3952,1576,1028,688
6804,4304,3956,1576,1028,688
6800,4300,3952,1576,1032,688
6804,4304,3956,1580,1032,688
6796,4304,3952,1576,1028,688
6800,4304,3952,1576,1028,688
6800,4308,3956,1576,1032,688
6800,4308,3956,1580,1032,688
6808,4316,3964,1580,1032,688
6808,4320,3964,1576,1032,688
6804,4320,3968,1580,1032,688
6808,4328,3972,1580,1032,688
6812,4332,3972,1580,1032,688
6808,4332,3972,1576,1032,688
6812,4332,3972,1580,1032,688
6808,4324,3968,1576,1032,688
6804,4312,3960,1580,1032,688
6796,4300,3952,1576,1032,688
6796,4296,3948,1576,1032,688
6800,4296,3948,1576,1032,688
6796,4292,3948,1576,1032,688
6792,4292,3944,1576,1028,688
6792,4296,3948,1576,1028,688
6792,4300,3948,1576,1028,688
6796,4304,3952,1576,1032,688
6796,4304,3952,1580,1032,688
6796,4308,3956,1576,1032,688
6800,4308,3956,1576,1032,688
6796,4308,3956,1576,1032,688
6800,4308,3956,1576,1032,688
6800,4312,3956,1576,1032,688
6804,4316,3960,1576,1032,688
6804,4316,3964,1580,1032,688
6804,4320,3964,1580,1032,688
6804,4324,3964,1580,1032,688
6808,4328,3968,1580,1032,688
6808,4336,3972,1580,1032,688
6808,4336,3976,1580,1032,688
6804,4332,3972,1580,1032,688
6804,4328,3968,1580,1032,688
6804,4320,3964,1580,1032,688
6796,4308,3956,1580,1032,688
6796,4300,3952,1580,1032,688
6796,4300,3952,1576,1032,688
6796,4300,3952,1576,1032,688
6796,4300,3948,1576,1032,688
6792,4300,3948,1580,1032,688
6792,4304,3952,1580,1032,688
6792,4304,3952,1576,1032,688
6796,4308,3956,1580,1032,688
6796,4308,3956,1580,1032,688
6796,4308,3956,1576,1032,688
6796,4312,3956,1580,1032,688
6796,4312,3956,1580,1032,688
6792,4312,3956,1580,1032,688
6792,4312,3956,1580,1032,688
6792,4312,3956,1580,1032,688
6796,4320,3960,1580,1032,688
6796,4324,3964,1580,1032,688
6796,4324,3964,1580,1032,688
6792,4324,3964,1580,1032,688
6796,4332,3968,1580,1032,688
6796,4328,3968,1580,1032,688
6792,4324,3964,1580,1032,688
6792,4316,3960,1580,1032,688
6788,4308,3952,1580,1032,688
6784,4296,3948,1580,1032,688
6780,4292,3944,1576,1032,688
6784,4292,3944,1580,1032,688
6780,4292,3940,1580,1032,688
6776,4288,3940,1580,1032,688
6784,4296,3944,1580,1032,688
6780,4296,3944,1580,1032,688
6780,4296,3944,1580,1032,688
6780,4300,3944,1580,1032,688
6784,4300,3948,1580,1032,688
6784,4300,3948,1580,1032,688
6784,4300,3948,1580,1032,688
6784,4300,3948,1580,1032,688
6784,4304,3948,1576,1032,688
6788,4304,3952,1576,1032,688
6792,4308,3956,1576,1032,688
6788,4312,3952,1580,1032,688
6784,4312,3956,1576,1032,688
6788,4316,3960,1576,1032,688
6788,4320,3960,1576,1032,688
6792,4324,3964,1576,1032,688
6788,4320,3960,1580,1032,688
6788,4316,3956,1580,1032,688
6784,4304,3952,1580,1032,688
6784,4300,3944,1580,1032,688
6780,4292,3944,1580,1032,688
6776,4292,3940,1580,1032,688
6780,4292,3944,1580,1032,688
6776,4292,3940,1576,1032,688
6780,4296,3944,1576,1032,688
6784,4304,3948,1580,1032,688
6788,4308,3952,1580,1032,688
6784,4312,3952,1576,1032,688
6784,4312,3956,1580,1032,688
6788,4316,3956,1580,1032,688
6788,4312,3956,1580,1032,688
6784,4312,3956,1580,1032,688
6784,4316,3956,1580,1032,688
6788,4320,3960,1580,1032,688
6796,4328,3964,1580,1032,688
6792,4328,3964,1580,1032,688
6796,4336,3968,1580,1032,688
6800,4340,3972,1580,1032,688
6796,4344,3976,1580,1032,688
6796,4344,3976,1580,1032,688
6796,4340,3972,1580,1032,688
6792,4336,3968,1580,1032,688
6792,4328,3964,1580,1032,688
6788,4320,3960,1580,1032,688
6784,4316,3956,1580,1032,688
6792,4320,3960,1580,1032,688
6792,4320,3960,1580,1032,688
6792,4324,3964,1580,1032,688
6792,4328,3964,1580,1032,688
6792,4328,3964,1580,1032,688
6792,4332,3968,1580,1032,688
6796,4336,3968,1580,1032,688
6796,4340,3972,1580,1032,688
6796,4340,3972,1580,1032,688
6796,4340,3972,1580,1032,688
6796,4340,3972,1580,1032,688
6800,4348,3976,1580,1032,688
6804,4352,3980,1580,1032,688
6800,4352,3980,1580,1032,688
6804,4360,3984,1580,1036,688
6804,4360,3984,1580,1036,688
6804,4364,3988,1580,1036,688
6804,4368,3988,1580,1036,688
6804,4368,3988,1580,1036,688
6804,4360,3984,1580,1036,688
6800,4356,3980,1580,1036,688
6800,4348,3976,1580,1036,688
6796,4344,3972,1580,1036,688
6800,4344,3972,1580,1036,688
6796,4340,3972,1580,1036,688
6800,4344,3976,1580,1036,688
6796,4344,3972,1580,1036,688
6800,4348,3976,1580,1036,688
6800,4352,3980,1580,1036,688
6800,4352,3980,1580,1036,688
6804,4356,3980,1580,1036,688
6800,4356,3980,1580,1036,688
6800,4356,3980,1580,1036,688
6800,4356,3980,1580,1036,688
6800,4356,3980,1580,1036,688
6800,4360,3984,1580,1036,688
6796,4360,3984,1580,1036,688
6796,4360,3984,1580,1036,692
6800,4364,3988,1580,1036,688
6804,4372,3992,1580,1036,688
6800,4372,3992,1580,1036,692
6804,4376,3992,1580,1036,692
6800,4372,3992,1580,1036,692
6800,4364,3984,1580,1036,688
6796,4356,3980,1580,1036,688
6792,4344,3972,1580,1036,688
6796,4344,3972,1580,1036,688
6792,4340,3968,1580,1036,688
6788,4336,3968,1580,1036,688
6792,4340,3968,1580,1036,688
6792,4340,3968,1580,1036,688
6800,4348,3976,1580,1036,688
6796,4348,3976,1580,1036,688
6796,4348,3976,1580,1036,692
6800,4348,3976,1580,1036,688
6796,4348,3976,1580,1036,688
6800,4348,3976,1580,1036,692
6796,4348,3976,1580,1036,688
6796,4348,3976,1580,1036,688
6796,4352,3976,1580,1036,688
6792,4352,3976,1580,1036,688
6796,4356,3980,1580,1036,688
6796,4356,3980,1580,1036,688
6800,4360,3984,1580,1036,692
6800,4364,3984,1580,1036,692
6796,4364,3984,1580,1036,692
6796,4360,3980,1580,1036,692
6792,4352,3976,1580,1036,692
6788,4340,3968,1580,1036,688
6788,4332,3964,1580,1036,688
6780,4324,3960,1580,1036,688
6784,4324,3956,1580,1036,688
6788,4324,3960,1580,1036,688
6788,4324,3960,1580,1036,688
6788,4324,3960,1580,1036,688
6788,4328,3960,1580,1036,688
6788,4328,3960,1580,1036,688
6784,4328,3960,1580,1036,688
6780,4328,3956,1580,1036,688
6776,4324,3956,1580,1036,688
6780,4324,3956,1580,1036,692
6780,4324,3956,1580,1036,688
6780,4324,3956,1580,1036,692
6776,4324,3956,1580,1036,692
6780,4328,3960,1580,1036,692
6780,4332,3960,1580,1036,688
6784,4332,3964,1580,1036,688
6780,4332,3964,1580,1036,692
6780,4336,3964,1580,1036,692
6780,4336,3964,1580,1036,692
6780,4328,3960,1580,1036,692
6772,4320,3952,1580,1036,692
6768,4308,3944,1580,1036,692
6764,4300,3940,1580,1036,688
6764,4292,3936,1580,1036,688
6760,4288,3932,1580,1036,688
6760,4284,3928,1580,1036,688
6764,4288,3932,1580,1036,688
6764,4288,3932,1580,1036,688
6764,4288,3932,1580,1036,688
6764,4292,3932,1580,1036,688
6764,4288,3932,1580,1036,688
6764,4288,3932,1580,1036,688
6760,4288,3932,1580,1036,688
6764,4288,3932,1580,1036,688
6760,4284,3932,1580,1036,688
6756,4280,3928,1580,1036,688
6756,4284,3928,1580,1036,688
6760,4288,3932,1580,1036,688
6760,4292,3932,1580,1036,688
6760,4292,3936,1580,1036,688
6760,4296,3936,1580,1036,688
6760,4296,3936,1580,1036,688
6764,4296,3940,1580,1036,688
6760,4292,3936,1580,1036,688
6756,4284,3928,1580,1036,688
6752,4276,3924,1580,1036,688
6748,4268,3916,1580,1036,688
6744,4260,3912,1580,1036,688
6748,4260,3912,1580,1036,688
6748,4260,3912,1580,1032,688
6748,4260,3912,1580,1036,688
6748,4264,3916,1580,1036,688
6760,4272,3920,1580,1036,688
6760,4276,3924,1580,1032,688
6756,4272,3920,1580,1036,688
6756,4272,3920,1580,1036,688
6752,4272,3920,1580,1036,688
6756,4276,3920,1580,1036,688
6760,4276,3924,1580,1036,688
6760,4280,3924,1580,1036,688
6756,4280,3924,1580,1036,688
6760,4284,3928,1580,1036,688
6760,4284,3928,1580,1036,688
6764,4288,3932,1580,1036,688
6760,4292,3936,1580,1036,688
6764,4296,3936,1580,1036,688
6764,4292,3936,1580,1036,692
6760,4284,3928,1580,1036,692
6756,4272,3920,1580,1036,688
6748,4264,3912,1580,1036,688
6752,4260,3912,1580,1036,688
6752,4256,3912,1580,1036,688
6748,4256,3908,1580,1036,688
6752,4260,3912,1580,1036,688
6752,4260,3912,1580,1032,688
6752,4264,3916,1580,1036,688
6756,4268,3920,1580,1036,688
6760,4272,3920,1580,1036,688
6756,4272,3920,1580,1036,688
6756,4268,3920,1580,1036,688
6756,4272,3920,1580,1036,688
6756,4272,3920,1580,1036,688
6756,4272,3920,1580,1036,688
6760,4276,3924,1580,1036,688
6760,4280,3928,1580,1036,688
6756,4280,3928,1580,1036,688
6760,4284,3928,1580,1036,688
6760,4288,3932,1580,1036,688
6764,4292,3936,1580,1036,688
6764,4292,3936,1580,1036,688
6760,4284,3928,1580,1036,688
6760,4276,3924,1580,1036,688
6756,4268,3920,1580,1036,688
6756,4260,3916,1580,1036,688
6752,4256,3912,1580,1036,688
6756,4256,3912,1580,1036,688
6752,4256,3912,1580,1036,688
6756,4260,3912,1580,1036,688
6756,4260,3916,1580,1036,688
6760,4264,3916,1580,1036,688
6756,4264,3916,1580,1036,688
6756,4264,3916,1580,1036,688
6756,4264,3916,1580,1036,688
6756,4264,3916,1580,1036,688
6756,4264,3916,1580,1036,688
6756,4268,3916,1580,1036,688
6756,4268,3920,1580,1036,688
6760,4272,3920,1580,1036,688
6760,4276,3924,1580,1036,688
6760,4280,3924,1580,1036,692
6760,4280,3928,1580,1036,688
6764,4284,3932,1580,1036,692
6764,4288,3932,1580,1036,692
6764,4284,3928,1580,1036,692
6756,4272,3920,1580,1036,692
6752,4260,3916,1580,1036,688
6752,4252,3912,1580,1036,688
6748,4244,3904,1580,1036,688
6744,4240,3900,1580,1036,688
6744,4240,3900,1580,1036,688
6744,4240,3900,1580,1036,688
6748,4244,3904,1580,1036,688
6752,4248,3908,1580,1036,688
6752,4248,3908,1580,1036,688
6748,4248,3908,1580,1036,688
6752,4248,3908,1580,1036,688
6752,4252,3908,1580,1036,688
6752,4248,3908,1580,1036,688
6752,4252,3908,1580,1036,688
6756,4252,3912,1576,1032,688
6752,4252,3912,1580,1036,688
6752,4256,3912,1576,1032,688
6756,4260,3916,1576,1032,688
6760,4264,3920,1576,1032,688
6756,4264,3920,1576,1032,688
6760,4272,3924,1580,1036,688
6760,4268,3920,1580,1036,688
6752,4260,3916,1580,1036,688
6756,4256,3912,1576,1032,688
6744,4240,3904,1576,1032,688
6740,4232,3896,1580,1032,688
6740,4224,3892,1576,1032,688
6732,4220,3888,1576,1032,688
6740,4224,3892,1576,1032,688
6740,4224,3892,1580,1032,688
6744,4224,3892,1576,1032,688
6744,4228,3896,1576,1032,688
6744,4228,3896,1580,1032,688
6744,4232,3896,1576,1032,688
6740,4228,3896,1580,1032,688
6748,4232,3900,1576,1032,688
6740,4228,3896,1576,1032,688
6744,4232,3896,1576,1032,688
6744,4232,3896,1576,1032,688
6744,4236,3900,1576,1032,688
6748,4240,3904,1576,1032,688
6748,4240,3904,1576,1032,688
6752,4244,3904,1576,1032,688
6748,4248,3908,1576,1032,688
6752,4252,3912,1576,1032,688
6752,4256,3912,1576,1032,688
6752,4248,3908,1576,1032,688
6744,4240,3904,1576,1032,688
6740,4224,3892,1576,1032,688
6732,4212,3888,1576,1032,688
6736,4208,3884,1576,1032,688
6732,4208,3880,1576,1032,688
6740,4208,3884,1576,1032,688
6736,4204,3880,1576,1032,688
6736,4208,3880,1576,1028,688
6732,4208,3880,1576,1028,688
6736,4212,3884,1576,1028,688
6736,4208,3884,1576,1028,688
6736,4208,3884,1576,1032,688
6740,4212,3884,1576,1028,688
6736,4208,3884,1576,1028,688
6732,4208,3880,1576,1028,688
6736,4208,3884,1576,1028,688
6736,4212,3884,1576,1028,688
6736,4212,3884,1576,1028,688
6740,4216,3888,1576,1028,688
6736,4216,3888,1576,1028,688
6744,4224,3892,1576,1028,688
6740,4224,3896,1576,1028,688
6748,4232,3900,1576,1028,688
6736,4224,3892,1576,1028,688
6732,4216,3888,1576,1028,688
6732,4204,3880,1576,1028,688
6728,4196,3876,1576,1028,688
6720,4184,3868,1576,1028,688
6720,4180,3864,1576,1028,688
6720,4176,3864,1576,1028,688
6720,4180,3864,1576,1028,684
6720,4180,3864,1576,1028,688
6720,4180,3864,1572,1028,684
6724,4188,3868,1572,1028,684
6724,4188,3872,1572,1028,684
6724,4192,3872,1576,1028,684
6720,4188,3872,1576,1028,684
6724,4188,3872,1576,1028,684
6724,4192,3872,1572,1028,684
6724,4192,3872,1572,1028,684
6728,4196,3876,1576,1028,684
6728,4200,3876,1572,1028,684
6732,4204,3880,1572,1028,684
6736,4208,3884,1572,1028,684
6736,4212,3888,1572,1028,684
6736,4216,3888,1576,1028,684
6736,4220,3892,1576,1028,688
6736,4220,3892,1576,1028,684
6736,4216,3888,1576,1028,688
6732,4208,3884,1576,1028,684
6728,4196,3876,1572,1028,684
6724,4188,3872,1572,1028,684
6728,4188,3872,1572,1028,684
6724,4188,3872,1572,1024,684
6728,4188,3872,1572,1024,684
6728,4192,3872,1572,1024,684
6728,4196,3876,1572,1024,684
6732,4204,3880,1572,1024,684
6736,4204,3884,1572,1024,684
6736,4208,3884,1572,1024,684
6736,4208,3884,1572,1028,684
6736,4212,3884,1572,1028,684
6736,4212,3888,1572,1028,684
6736,4212,3888,1576,1028,684
6740,4216,3892,1576,1028,684
6740,4220,3892,1576,1028,684
6740,4224,3892,1576,1028,684
6740,4228,3896,1576,1028,684
6744,4236,3900,1576,1028,684
6748,4240,3904,1576,1028,684
6748,4240,3904,1572,1028,684
6744,4236,3904,1576,1028,684
6744,4232,3900,1576,1028,684
6740,4220,3892,1576,1028,684
6740,4216,3888,1576,1028,684
6736,4208,3884,1572,1024,684
6740,4212,3888,1576,1028,684
6736,4208,3884,1576,1028,684
6736,4208,3884,1572,1024,684
6740,4212,3888,1572,1024,684
6740,4216,3892,1576,1028,684
6740,4220,3892,1576,1024,684
6744,4224,3892,1572,1024,684
6740,4224,3892,1572,1024,684
6740,4224,3896,1576,1028,684
6744,4228,3896,1576,1028,684
6744,4228,3896,1572,1024,684
6740,4228,3896,1576,1024,684
6744,4232,3900,1576,1028,684
6748,4236,3904,1576,1028,684
6748,4240,3904,1576,1028,684
6748,4244,3908,1576,1028,684
6752,4252,3912,1576,1028,684
6752,4256,3916,1576,1028,684
6752,4256,3916,1576,1028,684
6752,4252,3916,1576,1028,684
6748,4244,3908,1576,1028,684
6744,4232,3900,1576,1028,684
6740,4224,3896,1572,1024,684
6740,4220,3892,1576,1024,684
6744,4220,3892,1572,1024,684
6740,4216,3888,1572,1024,684
6740,4216,3888,1572,1024,684
6744,4224,3892,1576,1028,684
6740,4224,3896,1576,1024,684
6744,4228,3896,1576,1024,684
6744,4228,3896,1576,1024,684
6748,4232,3900,1576,1028,684
6748,4236,3900,1576,1024,684
6744,4232,3900,1576,1024,684
6748,4236,3904,1576,1024,684
6748,4236,3904,1576,1028,684
6748,4240,3904,1576,1024,684
6752,4244,3908,1576,1028,684
6752,4248,3908,1576,1024,684
6752,4252,3912,1576,1028,684
6756,4256,3916,1576,1028,684
6752,4260,3916,1576,1028,684
6756,4260,3916,1576,1028,684
6756,4256,3916,1576,1028,684
6752,4252,3912,1576,1028,684
6748,4240,3904,1576,1028,684
6744,4228,3896,1576,1024,684
6744,4224,3896,1572,1024,684
6744,4220,3892,1576,1024,684
6740,4220,3892,1576,1024,684
6740,4220,3892,1576,1024,684
6740,4224,3892,1572,1024,684
6740,4224,3892,1576,1024,684
6744,4228,3896,1572,1024,684
6744,4228,3900,1576,1024,684
6744,4232,3900,1576,1024,684
6744,4228,3896,1576,1024,684
6740,4228,3896,1576,1024,684
6736,4228,3892,1576,1024,684
6740,4232,3896,1576,1024,684
6744,4232,3900,1576,1024,684
6744,4236,3900,1576,1024,684
6744,4240,3904,1576,1024,684
6744,4240,3904,1576,1028,684
6744,4244,3904,1576,1024,684
6748,4248,3908,1576,1024,684
6744,4248,3908,1576,1024,684
6744,4244,3904,1576,1028,684
6740,4236,3900,1576,1024,684
6736,4228,3896,1576,1024,684
6736,4220,3892,1576,1024,684
6732,4216,3888,1572,1024,684
6732,4212,3884,1572,1024,684
6732,4212,3884,1576,1024,684
6736,4216,3888,1576,1024,684
6736,4220,3888,1576,1024,684
6740,4224,3892,1576,1024,684
6736,4224,3892,1576,1024,684
6740,4228,3896,1576,1024,684
6740,4228,3896,1576,1024,684
6740,4232,3896,1576,1024,684
6740,4232,3900,1576,1024,684
6740,4236,3900,1576,1024,684
6744,4236,3900,1576,1024,684
6740,4236,3900,1576,1024,684
6744,4240,3904,1576,1024,684
6740,4244,3904,1576,1024,684
6748,4252,3908,1576,1024,684
6748,4256,3912,1576,1024,684
6748,4260,3916,1576,1024,684
6752,4264,3920,1576,1024,684
6756,4268,3920,1576,1024,684
6752,4256,3916,1576,1024,684
6748,4248,3908,1576,1024,684
6744,4244,3904,1576,1024,684
6744,4240,3904,1576,1024,684
6740,4236,3900,1576,1024,684
6740,4236,3900,1576,1024,684
6744,4240,3904,1576,1024,684
6744,4244,3904,1576,1024,684
6748,4248,3908,1576,1024,684
6748,4252,3908,1576,1024,684
6752,4256,3916,1576,1024,684
6748,4256,3912,1576,1024,684
6748,4260,3912,1576,1024,684
6748,4260,3916,1576,1024,684
6752,4264,3916,1576,1024,684
6752,4264,3920,1576,1024,684
6752,4268,3920,1576,1024,684
6752,4272,3924,1576,1024,684
6760,4280,3928,1576,1024,684
6760,4284,3932,1576,1024,684
6764,4292,3936,1576,1028,684
6764,4296,3940,1576,1028,684
6768,4296,3940,1576,1028,684
6764,4292,3936,1576,1028,684
6760,4284,3932,1576,1028,684
6756,4276,3924,1576,1028,684
6752,4268,3920,1576,1028,684
6752,4268,3920,1576,1028,684
6756,4268,3920,1576,1024,684
6756,4268,3920,1576,1024,684
6756,4272,3924,1576,1024,684
6756,4276,3924,1576,1028,684
6760,4284,3932,1576,1028,684
6760,4284,3932,1576,1028,684
6760,4288,3932,1576,1028,684
6760,4288,3936,1576,1028,684
6760,4292,3936,1576,1028,684
6764,4296,3936,1576,1028,684
6764,4296,3940,1576,1028,684
6764,4296,3940,1576,1028,684
6768,4304,3944,1576,1028,684
6768,4304,3944,1576,1028,684
6776,4316,3952,1576,1028,684
6776,4320,3956,1576,1028,684
6780,4328,3960,1576,1028,684
6780,4328,3960,1576,1028,684
6776,4324,3956,1576,1028,684
6772,4320,3952,1576,1028,684
6772,4312,3948,1580,1028,688
6768,4304,3944,1576,1028,688
6768,4300,3944,1576,1028,684
6768,4300,3940,1576,1028,684
6768,4300,3940,1576,1028,684
6768,4300,3940,1576,1028,688
6772,4304,3944,1576,1028,684
6772,4308,3948,1576,1028,684
6772,4312,3948,1576,1028,684
6776,4316,3952,1576,1028,684
6776,4320,3952,1576,1028,684
6776,4320,3952,1580,1028,688
6776,4320,3956,1576,1028,688
6776,4324,3956,1580,1028,688
6776,4328,3956,1580,1032,688
6776,4328,3960,1580,1032,688
6784,4336,3964,1580,1028,688
6780,4336,3964,1580,1032,688
6780,4340,3968,1580,1032,688
6784,4344,3972,1580,1032,688
6788,4352,3976,1580,1032,688
6788,4352,3976,1580,1032,688
6784,4348,3972,1580,1032,688
6780,4336,3964,1580,1032,688
6776,4332,3960,1580,1032,688
6772,4320,3952,1580,1032,688
6772,4316,3952,1580,1032,688
6772,4316,3948,1580,1032,688
6772,4316,3948,1580,1032,688
6772,4320,3952,1580,1032,688
6772,4320,3952,1580,1032,688
6780,4324,3956,1580,1032,688
6776,4324,3956,1580,1032,688
6776,4328,3956,1580,1032,688
6776,4328,3960,1580,1032,688
6776,4328,3960,1580,1032,688
6776,4328,3960,1580,1032,688
6784,4336,3964,1580,1032,688
6784,4336,3964,1580,1032,688
6784,4340,3968,1580,1032,688
6784,4340,3968,1580,1032,688
6784,4344,3968,1580,1032,688
6784,4348,3972,1580,1032,688
6788,4352,3976,1580,1032,688
6788,4356,3976,1580,1032,688
6784,4352,3972,1580,1032,688
6784,4348,3972,1580,1032,688
6784,4344,3968,1580,1032,688
6780,4332,3960,1580,1032,688
6780,4328,3956,1580,1032,688
6772,4320,3952,1580,1032,688
6772,4316,3952,1580,1032,688
6768,4316,3948,1580,1032,688
6772,4316,3952,1580,1032,688
6772,4320,3952,1580,1032,688
6772,4324,3952,1580,1032,688
6772,4324,3956,1580,1032,688
6776,4328,3956,1580,1032,688
6768,4324,3952,1580,1032,688
6776,4328,3956,1580,1032,688
6768,4324,3956,1580,1032,688
6768,4324,3956,1580,1032,688
6768,4324,3956,1580,1032,688
6772,4328,3956,1580,1032,688
6772,4328,3956,1580,1032,688
6772,4332,3960,1580,1032,688
6776,4340,3964,1580,1032,688
6780,4344,3968,1580,1032,688
6776,4344,3968,1580,1032,688
6776,4344,3964,1580,1032,688
6772,4332,3960,1580,1032,688
6768,4328,3956,1580,1032,688
6764,4316,3948,1580,1032,688
6760,4308,3940,1580,1032,688
6760,4300,3940,1580,1032,688
6752,4296,3932,1580,1032,688
6756,4296,3936,1580,1032,688
6752,4296,3932,1580,1032,688
6756,4300,3936,1580,1032,688
6756,4300,3936,1580,1032,688
6756,4300,3936,1576,1032,688
6756,4300,3940,1580,1032,688
6752,4300,3936,1580,1032,688
6760,4304,3940,1576,1032,688
6756,4300,3936,1580,1032,688
6756,4300,3936,1580,1032,688
6756,4304,3940,1580,1032,688
6756,4304,3940,1580,1032,688
6760,4308,3944,1580,1032,688
6760,4312,3944,1580,1032,688
6756,4312,3944,1580,1032,688
6760,4320,3948,1580,1032,688
6760,4320,3948,1580,1032,688
6756,4316,3948,1580,1032,688
6752,4312,3944,1580,1032,688
6752,4304,3940,1580,1032,688
6748,4296,3936,1580,1032,688
6748,4292,3932,1580,1032,688
6748,4288,3928,1576,1032,688
6748,4284,3928,1576,1032,688
6748,4284,3928,1576,1032,688
6748,4288,3928,1580,1032,688
6748,4292,3932,1576,1032,688
6752,4292,3932,1580,1032,688
6752,4296,3936,1576,1032,688
6756,4300,3936,1580,1032,688
6756,4304,3940,1580,1032,688
6756,4304,3940,1580,1032,688
6756,4304,3940,1580,1032,688
6756,4304,3940,1580,1032,688
6752,4304,3940,1580,1032,688
6756,4308,3944,1580,1032,688
6760,4312,3948,1580,1032,688
6760,4316,3948,1580,1032,688
6760,4320,3952,1580,1032,688
6764,4328,3956,1580,1032,688
6764,4328,3956,1580,1032,688
6760,4328,3956,1580,1032,688
6760,4324,3952,1580,1032,688
6760,4316,3948,1580,1032,688
6752,4304,3940,1580,1032,688
6752,4296,3936,1580,1032,688
6748,4292,3932,1580,1032,688
6752,4292,3932,1580,1032,688
6752,4292,3932,1580,1032,688
6752,4292,3932,1580,1032,688
6748,4292,3932,1580,1032,688
6752,4296,3936,1580,1032,688
6756,4300,3940,1580,1032,688
6756,4300,3940,1580,1032,688
6756,4300,3940,1580,1032,688
6752,4300,3936,1580,1032,688
6752,4300,3936,1580,1032,688
6752,4300,3936,1580,1032,688
6752,4300,3936,1580,1032,688
6752,4300,3940,1580,1032,688
6756,4304,3940,1580,1032,688
6756,4308,3940,1580,1032,688
6756,4308,3944,1580,1032,688
6760,4312,3948,1580,1032,688
6760,4316,3948,1580,1032,688
6760,4316,3948,1580,1032,688
6760,4308,3944,1580,1032,688
6756,4300,3940,1580,1032,688
6748,4288,3928,1576,1032,688
6748,4280,3924,1576,1032,688
6744,4272,3920,1576,1032,688
6740,4268,3916,1576,1032,688
6740,4268,3916,1580,1032,688
6740,4268,3916,1576,1032,688
6744,4272,3920,1576,1032,688
6744,4272,3920,1576,1032,688
6744,4276,3924,1576,1032,688
6740,4272,3920,1576,1032,688
6740,4272,3920,1576,1032,688
6740,4272,3920,1580,1032,688
6740,4268,3920,1580,1032,688
6740,4268,3916,1580,1032,688
6740,4272,3920,1580,1032,688
6744,4272,3924,1576,1032,688
6740,4272,3920,1576,1032,688
6744,4276,3924,1580,1032,688
6744,4276,3924,1576,1032,688
6744,4280,3924,1580,1032,688
6744,4280,3924,1580,1032,688
6740,4276,3920,1580,1032,688
6740,4268,3920,1576,1032,688
6732,4256,3912,1576,1032,688
6728,4244,3904,1576,1032,688
6724,4236,3896,1576,1032,688
6720,4232,3892,1576,1032,688
6724,4232,3892,1576,1032,688
6724,4232,3892,1576,1028,688
6728,4236,3896,1576,1028,688
6728,4240,3900,1576,1032,688
6728,4244,3900,1576,1028,688
6728,4244,3900,1576,1028,688
6728,4244,3900,1576,1032,688
6724,4244,3900,1576,1028,688
6728,4248,3904,1576,1028,688
6728,4248,3904,1576,1032,688
6728,4248,3904,1576,1028,688
6732,4252,3908,1576,1028,688
6732,4252,3908,1576,1032,688
6732,4256,3908,1576,1032,688
6732,4260,3908,1576,1032,688
6736,4264,3916,1576,1032,688
6736,4268,3916,1576,1032,688
6740,4272,3920,1576,1032,688
6736,4268,3916,1576,1032,688
6728,4256,3908,1576,1032,688
6728,4248,3904,1576,1028,688
6724,4240,3900,1576,1032,688
6720,4236,3896,1576,1028,688
6720,4232,3892,1576,1028,688
6720,4236,3896,1576,1028,688
6720,4236,3896,1576,1028,688
6724,4240,3896,1576,1028,688
6728,4244,3900,1576,1028,688
6728,4248,3904,1576,1028,688
6728,4252,3904,1576,1028,688
6728,4252,3908,1576,1032,688
6724,4252,3904,1576,1028,688
6728,4256,3908,1576,1028,688
6732,4260,3908,1576,1028,688
6728,4260,3908,1576,1032,688
6732,4260,3912,1576,1032,688
6732,4268,3916,1576,1032,688
6732,4268,3916,1576,1032,688
6732,4272,3916,1576,1032,688
6736,4276,3920,1576,1032,688
6736,4284,3924,1576,1032,688
6736,4284,3928,1576,1032,688
6740,4288,3928,1576,1032,688
6740,4284,3928,1576,1032,688
6736,4276,3924,1580,1032,688
6732,4268,3916,1576,1032,688
6732,4260,3912,1576,1032,688
6732,4260,3912,1576,1032,688
6728,4256,3908,1576,1032,688
6732,4260,3912,1576,1032,688
6736,4264,3916,1576,1032,688
6736,4268,3916,1576,1032,688
6736,4272,3920,1576,1032,688
6736,4276,3920,1576,1032,688
6732,4276,3920,1576,1032,688
6736,4280,3924,1576,1032,688
6736,4280,3924,1576,1032,688
6736,4280,3924,1576,1032,688
6740,4284,3924,1576,1032,688
6740,4288,3928,1576,1032,688
6744,4292,3932,1576,1032,688
6740,4292,3932,1576,1032,688
6744,4296,3932,1576,1032,688
6744,4300,3936,1576,1032,688
6744,4304,3940,1576,1032,688
6744,4308,3944,1576,1032,688
6748,4312,3944,1576,1032,688
6748,4312,3944,1576,1032,688
6744,4308,3940,1576,1032,688
6748,4300,3940,1576,1032,688
6736,4288,3932,1576,1032,688
6740,4288,3928,1576,1032,688
6744,4288,3928,1576,1032,688
6736,4284,3924,1576,1032,688
6740,4288,3928,1576,1032,688
6744,4292,3932,1576,1032,688
6744,4296,3932,1576,1032,688
6748,4300,3936,1576,1032,688
6748,4304,3940,1576,1032,688
6748,4304,3940,1576,1032,688
6748,4308,3940,1576,1032,688
6752,4312,3944,1576,1032,688
6752,4312,3944,1576,1032,688
6752,4316,3944,1576,1032,688
6752,4316,3948,1580,1032,688
6752,4320,3952,1576,1032,688
6756,4328,3956,1580,1036,688
6756,4332,3956,1576,1032,688
6760,4336,3960,1580,1036,688
6760,4340,3964,1580,1036,688
6764,4344,3968,1580,1036,688
6772,4352,3972,1580,1036,688
6768,4352,3972,1580,1036,688
6764,4344,3964,1580,1036,688
6760,4336,3960,1580,1036,688
6760,4332,3956,1580,1036,688
6760,4328,3956,1580,1036,688
6760,4328,3956,1576,1036,688
6764,4328,3956,1576,1036,688
6764,4332,3960,1580,1036,688
6764,4336,3960,1576,1036,688
6764,4340,3960,1580,1036,688
6768,4344,3964,1580,1036,688
6768,4348,3968,1580,1036,688
6768,4352,3968,1580,1036,688
6768,4352,3972,1580,1036,688
6772,4352,3972,1580,1036,688
6772,4356,3972,1580,1036,688
6768,4356,3972,1580,1036,688
6768,4360,3976,1580,1036,688
6772,4364,3980,1580,1036,688
6776,4368,3980,1580,1036,688
6776,4372,3984,1580,1036,688
6776,4380,3988,1580,1036,688
6780,4384,3992,1580,1036,692
6776,4384,3992,1580,1036,692
6780,4384,3992,1580,1036,692
6776,4380,3988,1580,1036,692
6780,4380,3988,1580,1036,692
6768,4368,3980,1580,1036,692
6776,4368,3980,1580,1036,692
6772,4368,3980,1580,1036,692
6772,4368,3980,1580,1036,692
6780,4372,3984,1580,1036,692
6780,4376,3984,1580,1036,692
6780,4380,3988,1580,1036,692
6780,4380,3988,1580,1036,692
6780,4384,3992,1580,1036,692
6780,4384,3992,1580,1036,692
6780,4384,3992,1580,1036,692
6780,4388,3992,1580,1036,692
6780,4388,3992,1580,1036,692
6784,4392,3996,1580,1040,692
6784,4396,4000,1584,1040,692
6788,4400,4000,1584,1040,692
6784,4400,4000,1580,1040,692
6784,4404,4004,1580,1040,692
6792,4412,4008,1580,1040,692
6784,4412,4008,1580,1040,692
6792,4416,4012,1584,1040,692
6788,4416,4008,1580,1040,692
6788,4412,4008,1580,1040,692
6784,4404,4004,1580,1040,692
6780,4400,4000,1580,1040,692
6784,4396,3996,1580,1040,692
6780,4392,3996,1580,1040,692
6780,4392,3996,1580,1040,692
6784,4396,3996,1580,1040,692
6784,4400,4000,1580,1040,692
6788,4404,4000,1580,1040,692
6792,4408,4008,1580,1040,692
6792,4412,4008,1580,1040,692
6792,4416,4008,1580,1040,692
6788,4412,4004,1580,1040,692
6788,4412,4008,1580,1040,692
6788,4416,4008,1580,1040,692
6788,4416,4008,1580,1040,692
6792,4420,4012,1584,1040,692
6792,4424,4012,1580,1040,692
6796,4428,4016,1580,1040,692
6792,4428,4020,1584,1040,692
6792,4432,4020,1584,1040,692
6796,4436,4020,1580,1040,692
6796,4436,4020,1584,1040,692
6796,4436,4024,1584,1040,692
6792,4432,4020,1584,1040,692
6792,4424,4012,1580,1040,692
6788,4420,4012,1580,1040,692
6788,4416,4008,1580,1040,692
6788,4416,4008,1580,1040,692
6788,4416,4008,1580,1040,692
6788,4416,4008,1580,1040,692
6788,4420,4012,1580,1040,692
6788,4424,4012,1580,1040,692
6788,4424,4012,1580,1040,692
6788,4428,4016,1580,1040,692
6788,4428,4016,1580,1040,692
6792,4432,4020,1580,1040,692
6788,4428,4016,1584,1040,692
6792,4432,4020,1584,1040,692
6792,4436,4020,1584,1044,692
6792,4436,4020,1584,1044,692
6796,4440,4024,1584,1044,692
6796,4440,4024,1584,1044,692
6796,4444,4028,1584,1044,692
6800,4448,4028,1584,1044,692
6800,4452,4032,1584,1044,692
6796,4452,4032,1584,1044,692
6792,4444,4028,1584,1044,692
6792,4440,4024,1584,1044,692
6788,4432,4016,1584,1044,692
6784,4428,4012,1584,1040,692
6788,4424,4012,1584,1040,692
6788,4424,4012,1584,1040,692
6784,4424,4012,1584,1044,692
6784,4428,4012,1584,1044,692
6788,4428,4016,1584,1040,692
6792,4432,4020,1584,1044,692
6788,4432,4020,1584,1040,692
6792,4436,4020,1584,1044,692
6788,4436,4020,1584,1040,692
6784,4432,4016,1580,1040,692
6788,4436,4020,1580,1040,692
6788,4436,4020,1580,1040,692
6788,4436,4020,1580,1040,692
6788,4440,4024,1580,1040,692
6788,4444,4024,1580,1040,692
6788,4444,4024,1580,1040,692
6788,4444,4024,1580,1040,692
6792,4452,4028,1580,1040,692
6796,4456,4032,1580,1044,692
6788,4448,4028,1584,1044,692
6788,4444,4024,1580,1044,692
6784,4436,4020,1584,1044,692
6784,4432,4016,1580,1040,692
6784,4428,4016,1580,1040,692
6780,4424,4012,1580,1040,692
6780,4424,4012,1584,1044,692
6780,4424,4012,1580,1040,692
6780,4424,4012,1580,1040,692
6780,4428,4012,1580,1040,692
6780,4428,4016,1580,1040,692
6784,4432,4016,1580,1040,692
6784,4432,4016,1580,1040,692
6784,4432,4016,1580,1040,692
6780,4428,4016,1580,1040,692
6780,4428,4016,1580,1040,692
6784,4432,4016,1580,1040,692
6780,4432,4016,1580,1040,692
6776,4428,4012,1580,1040,692
6776,4428,4012,1580,1044,692
6776,4428,4012,1580,1040,692
6776,4432,4016,1580,1040,692
6776,4436,4016,1580,1040,692
6776,4436,4016,1580,1040,692
6776,4428,4012,1580,1044,692
6768,4424,4008,1580,1040,692
6768,4416,4004,1580,1040,692
6764,4408,4000,1580,1040,692
6764,4400,3996,1580,1040,692
6764,4400,3996,1580,1040,692
6760,4400,3992,1580,1040,692
6756,4396,3992,1580,1040,692
6760,4400,3992,1580,1040,692
6760,4400,3996,1580,1040,692
6764,4404,3996,1580,1040,692
6760,4404,3996,1580,1040,692
6760,4400,3996,1580,1040,692
6760,4400,3992,1580,1040,692
6760,4400,3992,1580,1040,692
6764,4404,3996,1580,1040,692
6764,4400,3996,1580,1040,692
6760,4400,3992,1580,1040,692
6760,4400,3996,1580,1040,692
6756,4400,3992,1580,1040,692
6756,4400,3992,1580,1040,692
6756,4400,3992,1580,1040,692
6752,4400,3992,1580,1040,692
6752,4400,3992,1580,1040,692
6748,4392,3988,1580,1040,692
6748,4384,3980,1580,1040,692
6748,4380,3980,1580,1040,692
6744,4372,3976,1580,1040,692
6748,4372,3976,1580,1040,692
6748,4372,3976,1580,1040,692
6748,4372,3976,1580,1040,692
6752,4376,3976,1580,1040,692
6748,4376,3980,1580,1040,692
6748,4380,3980,1580,1040,692
6748,4380,3980,1580,1040,692
6752,4380,3980,1580,1040,692
6756,4384,3984,1580,1040,692
6756,4384,3984,1580,1040,692
6756,4384,3984,1580,1040,692
6756,4384,3984,1580,1040,692
6756,4384,3984,1580,1040,692
6756,4388,3984,1580,1040,692
6752,4388,3984,1580,1040,692
6752,4392,3988,1580,1040,692
6760,4396,3992,1580,1040,692
6756,4396,3992,1580,1040,692
6756,4392,3988,1580,1040,692
6752,4384,3984,1580,1040,692
6748,4376,3980,1580,1040,692
6748,4372,3976,1580,1040,692
6748,4368,3972,1580,1040,692
6752,4368,3976,1580,1040,692
6748,4368,3976,1580,1040,692
6756,4376,3976,1580,1040,692
6752,4376,3980,1580,1040,692
6756,4376,3980,1580,1040,692
6756,4380,3980,1580,1040,692
6756,4384,3984,1580,1040,692
6752,4380,3980,1580,1040,692
6752,4380,3980,1580,1040,692
6752,4380,3980,1580,1040,692
6756,4384,3984,1580,1040,692
6752,4384,3984,1580,1040,692
6756,4388,3984,1580,1040,692
6756,4388,3988,1580,1040,692
6764,4396,3992,1580,1040,692
6760,4396,3992,1580,1040,692
6764,4400,3996,1580,1040,692
6760,4400,3992,1580,1040,692
6760,4392,3992,1580,1040,692
6756,4384,3984,1580,1040,692
6756,4380,3980,1580,1040,692
6756,4376,3980,1580,1040,692
6756,4372,3976,1580,1040,692
6752,4372,3976,1580,1040,692
6756,4376,3980,1580,1040,692
6756,4376,3980,1580,1040,692
6752,4380,3980,1580,1040,692
6756,4384,3984,1580,1040,692
6756,4384,3984,1580,1040,692
6764,4388,3988,1580,1040,692
6764,4388,3988,1580,1040,692
6760,4388,3988,1580,1040,692
6760,4388,3988,1580,1040,692
6764,4392,3992,1580,1040,692
6764,4396,3992,1580,1040,692
6768,4400,3996,1580,1040,692
6768,4400,3996,1580,1040,692
6768,4404,4000,1580,1040,692
6768,4408,4000,1580,1040,692
6764,4408,4000,1580,1040,692
6764,4404,4000,1580,1040,692
6764,4396,3992,1580,1040,692
6760,4384,3988,1580,1040,692
6760,4380,3984,1580,1040,692
6756,4376,3980,1580,1040,692
6760,4380,3984,1580,1040,692
6764,4384,3988,1580,1036,692
6760,4384,3984,1580,1040,692
6768,4388,3988,1580,1040,692
6764,4388,3988,1580,1040,692
6764,4392,3992,1580,1040,692
6764,4392,3992,1580,1040,692
6764,4392,3992,1580,1040,692
6764,4392,3992,1580,1040,692
6768,4392,3992,1580,1040,692
6768,4396,3992,1580,1040,692
6768,4396,3996,1580,1040,692
6768,4396,3996,1580,1040,692
6768,4404,4000,1580,1040,692
6772,4404,4000,1580,1040,692
6772,4408,4004,1580,1040,692
6772,4412,4004,1580,1040,692
6772,4412,4004,1580,1040,692
6764,4400,3996,1580,1040,692
6764,4392,3992,1580,1040,692
6764,4384,3988,1580,1040,692
6760,4380,3984,1580,1040,692
6760,4376,3984,1580,1040,692
6760,4376,3984,1580,1040,692
6764,4380,3984,1580,1036,692
6764,4380,3984,1580,1036,692
6764,4384,3988,1580,1036,692
6768,4388,3988,1580,1036,692
6764,4388,3988,1580,1036,692
6764,4388,3988,1580,1040,692
6764,4388,3988,1580,1036,692
6764,4388,3992,1580,1040,692
6764,4388,3992,1580,1036,692
6768,4392,3992,1580,1036,692
6764,4392,3992,1580,1036,692
6768,4396,3996,1580,1036,692
6768,4396,3996,1580,1036,692
6764,4400,3996,1580,1040,692
6772,4404,4000,1580,1036,692
6768,4404,4000,1580,1036,692
6764,4404,3996,1580,1036,692
6764,4400,3996,1580,1040,692
6760,4388,3988,1580,1040,692
6760,4380,3984,1580,1036,692
6756,4376,3980,1580,1036,692
6760,4372,3980,1580,1036,692
6760,4372,3980,1580,1036,692
6756,4372,3976,1580,1036,692
6756,4376,3980,1580,1036,692
6760,4376,3984,1580,1036,692
6756,4380,3980,1580,1036,692
6760,4380,3984,1580,1036,692
6760,4380,3984,1580,1036,692
6760,4384,3984,1580,1036,692
6756,4380,3984,1580,1036,692
6760,4384,3984,1580,1036,692
6756,4380,3984,1580,1036,688
6756,4380,3984,1580,1036,688
6756,4384,3984,1580,1036,688
6760,4388,3988,1580,1036,688
6756,4388,3988,1580,1036,692
6756,4392,3988,1580,1036,692
6760,4396,3992,1580,1036,692
6760,4392,3992,1580,1036,688
6756,4388,3988,1580,1036,688
6752,4376,3980,1580,1036,688
6752,4372,3980,1580,1036,688
6752,4364,3972,1580,1036,688
6748,4360,3972,1580,1036,688
6748,4360,3968,1580,1036,688
6748,4360,3972,1580,1036,688
6748,4360,3972,1580,1036,688
6752,4364,3972,1580,1036,688
6748,4364,3972,1580,1036,688
6744,4364,3972,1580,1036,688
6748,4364,3972,1580,1036,688
6752,4368,3976,1580,1036,688
6748,4364,3972,1580,1036,688
6744,4364,3972,1580,1036,688
6744,4360,3972,1580,1036,688
6748,4364,3972,1580,1036,688
6748,4368,3976,1580,1036,688
6748,4368,3976,1580,1036,688
6748,4372,3976,1580,1036,688
6748,4372,3980,1580,1036,688
6752,4376,3980,1580,1036,688
6748,4372,3980,1580,1036,688
6748,4372,3976,1580,1036,688
6740,4360,3968,1580,1036,688
6740,4352,3964,1580,1036,688
6744,4348,3964,1580,1036,688
6736,4344,3956,1576,1032,688
6740,4344,3960,1576,1032,688
6744,4348,3960,1576,1032,688
6744,4348,3964,1580,1032,688
6748,4352,3968,1580,1032,688
6752,4356,3968,1580,1032,688
6748,4356,3968,1580,1032,688
6748,4360,3968,1576,1032,688
6748,4360,3968,1580,1032,688
6748,4360,3972,1576,1032,688
6748,4360,3968,1576,1032,688
6748,4360,3972,1576,1032,688
6748,4364,3972,1580,1032,688
6752,4368,3976,1580,1032,688
6752,4372,3980,1576,1032,688
6752,4372,3980,1580,1032,688
6752,4376,3980,1580,1036,688
6752,4380,3984,1580,1036,688
6756,4384,3984,1580,1036,688
6756,4380,3984,1580,1036,688
6752,4372,3980,1580,1032,688
6748,4364,3972,1580,1036,688
6748,4360,3972,1580,1032,688
6748,4360,3968,1576,1032,688
6748,4356,3968,1580,1032,688
6752,4360,3972,1576,1032,688
6752,4364,3972,1580,1032,688
6752,4364,3976,1576,1032,688
6756,4372,3976,1580,1032,688
6756,4372,3980,1580,1032,688
6756,4376,3980,1580,1032,688
6756,4376,3980,1580,1032,688
6756,4376,3980,1580,1032,688
6756,4380,3980,1580,1032,688
6756,4376,3980,1580,1032,688
6756,4380,3980,1580,1032,688
6756,4384,3984,1580,1032,688
6756,4384,3988,1580,1032,688
6760,4392,3988,1580,1032,688
6760,4392,3992,1580,1032,688
6760,4396,3992,1580,1036,688
6764,4396,3992,1580,1036,688
6760,4392,3992,1580,1036,688
6756,4384,3984,1580,1036,688
6756,4376,3980,1580,1032,688
6752,4372,3976,1580,1032,688
6756,4368,3976,1576,1032,688
6756,4368,3976,1580,1032,688
6756,4372,3976,1580,1032,688
6752,4372,3976,1580,1032,688
6756,4376,3980,1580,1032,688
6756,4376,3980,1580,1032,688
6764,4384,3984,1580,1032,688
6760,4384,3984,1580,1036,688
6760,4380,3984,1580,1032,688
6760,4380,3984,1580,1032,688
6760,4384,3984,1580,1032,688
6760,4384,3984,1580,1032,688
6760,4384,3988,1580,1032,688
6760,4388,3988,1580,1032,688
6764,4392,3988,1580,1032,688
6760,4392,3988,1580,1032,688
6760,4396,3992,1580,1032,688
6760,4396,3992,1580,1036,688
6764,4400,3996,1580,1032,688
6760,4396,3992,1580,1036,688
6756,4388,3988,1580,1036,688
6752,4376,3980,1580,1032,688
6752,4372,3976,1580,1032,688
6752,4368,3976,1576,1032,688
6748,4364,3972,1580,1032,688
6748,4364,3972,1576,1032,688
6756,4368,3976,1576,1032,688
6756,4372,3976,1576,1032,688
6760,4376,3980,1580,1032,688
6760,4380,3980,1580,1032,688
6760,4380,3980,1580,1032,688
6760,4380,3984,1580,1032,688
6756,4376,3980,1580,1032,688
6760,4380,3984,1580,1032,688
6764,4380,3984,1580,1032,688
6760,4384,3984,1580,1032,688
6760,4384,3984,1580,1032,688
6760,4384,3984,1580,1032,688
6760,4384,3988,1580,1032,688
6764,4392,3992,1580,1032,688
6764,4392,3992,1580,1032,688
6764,4396,3992,1580,1032,688
6760,4392,3992,1580,1032,688
6756,4388,3988,1580,1032,688
6756,4376,3980,1580,1032,688
6756,4372,3976,1580,1032,688
6752,4360,3972,1576,1032,688
6752,4356,3968,1576,1032,688
6752,4360,3972,1576,1032,688
6752,4356,3968,1576,1032,688
6752,4360,3968,1576,1032,688
6752,4360,3972,1580,1032,688
6748,4360,3968,1580,1032,688
6752,4364,3972,1576,1032,688
6748,4360,3972,1580,1032,688
6752,4360,3972,1580,1032,688
6748,4360,3972,1580,1032,688
6752,4360,3972,1576,1032,688
6752,4360,3972,1580,1032,688
6752,4360,3972,1576,1032,688
6748,4364,3972,1576,1032,688
6756,4368,3976,1576,1032,688
6756,4372,3980,1580,1032,688
6756,4372,3980,1580,1032,688
6756,4376,3980,1580,1032,688
6756,4376,3984,1580,1032,688
6756,4376,3980,1580,1032,688
6752,4368,3976,1580,1032,688
6748,4356,3968,1580,1032,688
6744,4344,3964,1576,1032,688
6744,4340,3960,1576,1032,688
6744,4336,3956,1576,1032,688
6740,4332,3956,1576,1032,684
6744,4336,3956,1576,1032,688
6744,4336,3956,1576,1028,684
6744,4340,3956,1576,1032,684
6744,4340,3960,1576,1032,688
6744,4344,3960,1576,1032,688
6744,4344,3960,1580,1032,688
6748,4344,3960,1576,1032,688
6744,4340,3960,1576,1032,688
6744,4340,3960,1576,1032,688
6744,4344,3960,1576,1032,684
6744,4344,3960,1576,1032,684
6744,4344,3964,1580,1032,688
6748,4348,3964,1580,1032,688
6748,4352,3964,1576,1032,688
6744,4352,3968,1576,1032,688
6744,4352,3968,1576,1032,688
6748,4356,3968,1576,1032,688
6744,4356,3968,1580,1032,688
6748,4352,3968,1576,1032,688
6740,4340,3960,1576,1032,684
6740,4328,3952,1576,1032,688
6736,4320,3944,1576,1028,688
6732,4316,3944,1576,1028,684
6736,4316,3944,1576,1028,684
6736,4316,3944,1576,1028,684
6736,4320,3944,1576,1028,684
6736,4320,3948,1576,1028,684
6736,4320,3948,1576,1028,684
6736,4324,3948,1576,1028,684
6736,4324,3948,1576,1028,684
6736,4324,3948,1576,1028,684
6736,4324,3948,1576,1028,684
6736,4320,3944,1576,1028,684
6732,4320,3944,1576,1028,684
6732,4316,3944,1576,1028,684
6736,4320,3948,1576,1028,684
6732,4324,3948,1576,1032,688
6740,4328,3952,1576,1028,684
6740,4332,3952,1576,1028,684
6736,4328,3952,1576,1028,684
6736,4332,3952,1576,1032,688
6736,4332,3956,1576,1028,684
6732,4324,3948,1576,1028,684
6728,4312,3940,1576,1028,684
6724,4300,3932,1576,1028,684
6720,4292,3928,1576,1028,684
6720,4288,3924,1576,1028,684
6720,4288,3924,1576,1028,684
6728,4292,3928,1576,1028,684
6724,4292,3928,1576,1028,684
6724,4296,3928,1576,1028,684
6728,4300,3932,1576,1028,684
6724,4300,3932,1576,1028,684
6728,4300,3932,1576,1028,684
6728,4300,3932,1576,1028,684
6728,4300,3932,1576,1028,684
6728,4296,3932,1576,1028,684
6724,4296,3932,1576,1028,684
6724,4296,3932,1576,1028,684
6728,4300,3932,1576,1028,684
6732,4304,3936,1576,1028,684
6728,4304,3936,1576,1028,684
6732,4308,3940,1576,1028,684
6736,4312,3944,1576,1028,684
6736,4316,3944,1580,1032,688
6736,4312,3940,1576,1032,688
6732,4300,3936,1576,1028,688
6724,4288,3924,1576,1028,688
6724,4280,3920,1576,1028,684
6728,4280,3920,1576,1028,684
6724,4276,3916,1576,1028,684
6728,4280,3920,1576,1028,684
6732,4284,3924,1576,1028,684
6736,4288,3928,1576,1028,684
6736,4292,3928,1576,1028,688
6736,4296,3932,1576,1028,688
6736,4296,3932,1576,1028,684
6736,4300,3932,1576,1028,688
6736,4296,3932,1576,1028,684
6740,4300,3932,1576,1028,684
6740,4300,3932,1576,1028,684
6740,4300,3936,1576,1028,684
6744,4308,3940,1576,1028,684
6744,4312,3940,1576,1028,684
6744,4312,3940,1576,1028,688
6748,4316,3944,1576,1032,688
6748,4320,3948,1580,1032,688
6752,4324,3952,1580,1032,688
6752,4320,3948,1576,1032,688
6744,4312,3944,1576,1032,688
6744,4300,3936,1580,1032,688
6744,4292,3932,1580,1032,688
6744,4292,3928,1576,1028,688
6744,4288,3928,1576,1028,688
6744,4288,3928,1576,1028,684
6748,4296,3932,1576,1028,684
6752,4300,3936,1580,1032,688
6756,4308,3940,1576,1028,688
6752,4308,3940,1580,1032,688
6756,4312,3944,1576,1028,688
6752,4312,3944,1580,1032,688
6756,4312,3944,1576,1032,688
6756,4316,3944,1576,1032,688
6764,4320,3948,1580,1032,688
6760,4320,3948,1576,1032,688
6756,4320,3948,1580,1032,688
6760,4324,3952,1580,1032,688
6764,4328,3952,1580,1032,688
6760,4332,3956,1580,1032,688
6764,4336,3956,1580,1032,688
6764,4336,3960,1580,1032,688
6764,4336,3956,1580,1032,688
6760,4324,3952,1580,1032,688
6760,4316,3944,1580,1032,688
6756,4304,3936,1580,1032,688
6756,4304,3936,1580,1032,688
6756,4304,3936,1580,1032,688
6756,4304,3936,1580,1032,688
6760,4312,3940,1580,1032,688
6764,4316,3944,1580,1032,688
6764,4320,3948,1580,1032,688
6764,4324,3948,1580,1032,688
6764,4324,3948,1580,1032,688
6772,4332,3956,1580,1032,688
6764,4328,3952,1580,1032,688
6768,4328,3952,1580,1032,688
6764,4328,3952,1580,1032,688
6772,4332,3956,1580,1032,688
6772,4336,3956,1580,1032,688
6772,4340,3960,1580,1032,688
6772,4344,3964,1580,1032,688
6772,4348,3964,1580,1032,688
6772,4352,3968,1580,1032,688
6776,4352,3968,1580,1032,688
6772,4348,3964,1580,1032,688
6772,4340,3960,1580,1036,688
6768,4328,3952,1580,1032,688
6764,4316,3944,1580,1032,688
6760,4312,3940,1580,1032,688
6764,4312,3940,1580,1032,688
6764,4316,3940,1580,1032,688
6760,4316,3940,1580,1032,688
6768,4324,3948,1580,1032,688
6772,4328,3952,1580,1032,688
6772,4332,3952,1580,1032,688
6768,4332,3952,1580,1032,688
6768,4332,3952,1580,1032,688
6772,4336,3956,1580,1032,688
6772,4336,3952,1580,1032,688
6772,4336,3956,1580,1032,688
6772,4336,3956,1584,1036,688
6776,4344,3960,1580,1036,688
6780,4348,3964,1580,1036,688
6780,4352,3964,1580,1036,688
6780,4356,3968,1580,1036,688
6780,4356,3968,1584,1036,688
6776,4356,3968,1584,1036,688
6776,4352,3968,1584,1036,688
6776,4344,3960,1580,1036,688
6772,4332,3952,1580,1036,688
6764,4324,3944,1580,1036,688
6764,4316,3944,1580,1036,688
6768,4320,3944,1584,1036,688
6776,4324,3948,1580,1036,688
6772,4328,3948,1584,1036,688
6776,4332,3952,1580,1036,688
6776,4336,3956,1584,1036,688
6780,4340,3960,1580,1032,688
6776,4340,3960,1580,1032,688
6780,4344,3960,1580,1036,688
6780,4344,3960,1580,1036,688
6776,4340,3960,1580,1036,688
6776,4340,3960,1580,1036,688
6776,4344,3960,1580,1036,688
6776,4348,3960,1580,1036,688
6784,4352,3968,1580,1036,688
6780,4352,3968,1580,1036,688
6784,4360,3972,1584,1036,688
6784,4364,3972,1584,1036,688
6784,4364,3976,1580,1036,688
6780,4364,3972,1580,1036,688
6776,4352,3964,1580,1036,688
6772,4340,3960,1580,1036,688
6772,4332,3952,1580,1036,688
6772,4328,3952,1580,1036,688
6768,4324,3948,1580,1032,688
6772,4328,3948,1580,1032,688
6772,4332,3952,1580,1032,688
6772,4336,3952,1580,1036,688
6776,4340,3956,1580,1036,688
6780,4348,3960,1584,1036,688
6776,4344,3960,1580,1036,688
6776,4348,3960,1580,1036,688
6776,4348,3960,1580,1036,688
6776,4348,3960,1580,1036,688
6776,4348,3960,1580,1036,688
6776,4348,3964,1580,1036,688
6780,4356,3968,1580,1036,688
6780,4356,3964,1580,1036,688
6780,4360,3968,1580,1036,688
6784,4364,3972,1580,1036,688
6788,4372,3976,1580,1036,688
6784,4372,3976,1580,1036,688
6780,4368,3972,1580,1036,688
6780,4360,3968,1584,1036,688
6776,4352,3964,1580,1036,688
6776,4340,3960,1580,1036,688
6772,4332,3952,1580,1036,688
6776,4336,3952,1580,1036,688
6776,4336,3956,1580,1036,688
6776,4336,3956,1580,1036,688
6776,4340,3956,1584,1036,688
6776,4344,3960,1584,1036,688
6780,4348,3964,1584,1036,688
6780,4352,3964,1584,1036,688
6780,4356,3964,1584,1036,688
6780,4352,3964,1580,1036,688
6776,4352,3964,1584,1036,688
6780,4352,3964,1584,1036,688
6776,4352,3964,1584,1036,688
6776,4352,3964,1584,1036,688
6776,4356,3964,1580,1036,688
6780,4360,3968,1580,1036,688
6780,4364,3972,1584,1036,688
6780,4368,3972,1580,1036,688
6780,4368,3972,1580,1036,688
6780,4368,3976,1584,1036,688
6776,4360,3968,1580,1036,688
6772,4348,3960,1584,1036,688
6768,4340,3956,1584,1036,688
6764,4332,3948,1584,1036,688
6764,4328,3948,1580,1032,688
6764,4328,3948,1584,1036,688
6768,4328,3948,1584,1036,688
6764,4328,3948,1580,1032,688
6764,4336,3952,1580,1036,688
6772,4344,3956,1580,1036,688
6772,4344,3956,1580,1036,688
6768,4344,3956,1580,1036,688
6768,4344,3956,1580,1032,688
6772,4344,3960,1580,1036,688
6768,4340,3956,1580,1032,688
6768,4340,3956,1580,1036,688
6768,4340,3956,1580,1032,688
6764,4340,3956,1580,1036,688
6768,4344,3956,1580,1036,688
6764,4344,3956,1580,1036,688
6768,4352,3964,1580,1036,688
6772,4356,3964,1580,1036,688
6772,4356,3968,1580,1036,688
6768,4352,3964,1580,1036,688
6764,4340,3956,1580,1032,688
6760,4328,3948,1580,1032,688
6756,4320,3940,1580,1032,688
6756,4316,3940,1580,1032,688
6756,4316,3940,1580,1032,688
6760,4316,3940,1580,1032,688
6764,4320,3944,1580,1032,688
6764,4324,3944,1580,1032,688
6764,4328,3948,1580,1032,688
6764,4332,3948,1580,1032,688
6764,4332,3948,1580,1032,688
6764,4332,3952,1580,1032,688
6764,4332,3952,1580,1032,688
6768,4332,3952,1580,1032,688
6768,4332,3952,1580,1032,688
6772,4336,3956,1580,1032,688
6772,4340,3956,1580,1032,688
6772,4344,3960,1580,1032,688
6776,4348,3964,1580,1032,688
6772,4348,3960,1584,1036,688
6772,4352,3964,1580,1032,688
6776,4356,3968,1584,1036,688
6776,4348,3964,1584,1036,688
6772,4344,3960,1584,1036,688
6772,4332,3956,1584,1036,688
6772,4324,3948,1584,1036,688
6764,4316,3944,1584,1036,688
6768,4316,3944,1580,1032,688
6768,4320,3944,1584,1032,688
6768,4324,3948,1580,1032,688
6772,4328,3952,1584,1036,688
6772,4332,3952,1580,1032,688
6772,4336,3956,1584,1036,688
6772,4336,3956,1584,1036,688
6776,4340,3960,1584,1036,688
6776,4340,3960,1584,1036,688
6776,4340,3960,1584,1036,688
6776,4340,3960,1584,1036,688
6780,4344,3960,1584,1036,688
6780,4348,3964,1584,1036,688
6780,4352,3968,1584,1036,688
6780,4352,3968,1584,1036,688
6780,4356,3968,1584,1036,688
6784,4360,3972,1584,1036,688
6784,4364,3976,1584,1036,692
6784,4356,3972,1584,1036,688
6780,4348,3964,1584,1036,688
6776,4336,3960,1584,1036,688
6772,4324,3952,1584,1036,688
6768,4316,3944,1584,1036,688
6764,4316,3944,1580,1032,688
6768,4316,3944,1584,1032,688
6768,4320,3944,1580,1032,688
6772,4324,3952,1580,1032,688
6772,4328,3952,1580,1032,688
6772,4332,3952,1584,1036,688
6776,4336,3956,1584,1036,688
6772,4332,3956,1584,1036,688
6772,4332,3952,1584,1036,688
6772,4332,3952,1584,1036,688
6776,4332,3956,1580,1032,688
6772,4332,3956,1584,1036,688
6772,4336,3956,1580,1032,688
6776,4340,3960,1580,1036,688
6776,4340,3960,1584,1036,688
6776,4344,3960,1584,1036,688
6776,4348,3964,1584,1036,688
6780,4352,3968,1584,1036,688
6776,4344,3964,1584,1036,688
6776,4332,3956,1584,1036,688
6764,4316,3944,1584,1036,688
6768,4308,3940,1584,1036,688
6764,4300,3936,1580,1032,688
6768,4300,3936,1580,1032,688
6768,4300,3936,1580,1032,688
6768,4304,3936,1580,1032,688
6768,4308,3940,1580,1032,688
6768,4308,3940,1580,1032,688
6772,4312,3940,1580,1032,688
6772,4316,3944,1580,1032,688
6772,4312,3944,1584,1032,688
6768,4312,3940,1580,1032,688
6768,4312,3940,1580,1032,688
6768,4308,3940,1580,1032,688
6764,4308,3936,1580,1032,688
6768,4312,3940,1580,1032,688
6768,4316,3944,1580,1032,688
6768,4316,3944,1580,1032,688
6772,4320,3948,1580,1032,688
6772,4324,3948,1580,1032,688
6776,4328,3952,1584,1032,688
6776,4324,3952,1584,1036,688
6768,4312,3944,1584,1032,688
6768,4300,3936,1580,1032,688
6760,4284,3924,1580,1032,688
6760,4276,3920,1580,1032,688
6756,4272,3916,1580,1032,688
6756,4272,3916,1580,1032,688
6756,4272,3916,1580,1032,688
6760,4280,3920,1580,1032,688
6764,4284,3924,1580,1032,688
6764,4284,3924,1580,1032,688
6760,4284,3924,1580,1032,688
6760,4284,3924,1580,1032,688
6764,4284,3924,1580,1032,688
6756,4280,3920,1580,1032,688
6760,4280,3920,1580,1032,688
6764,4280,3924,1580,1032,688
6764,4284,3924,1580,1032,688
6764,4288,3924,1580,1032,688
6764,4288,3928,1580,1032,688
6764,4292,3928,1580,1032,688
6768,4296,3932,1580,1032,688
6768,4300,3932,1580,1032,688
6764,4296,3932,1580,1032,688
6764,4292,3928,1580,1032,688
6760,4276,3920,1580,1032,688
6752,4260,3908,1580,1032,688
6748,4248,3900,1580,1032,688
6748,4240,3896,1580,1032,688
6748,4240,3896,1580,1032,688
6748,4244,3896,1580,1032,688
6752,4248,3900,1580,1032,688
6752,4248,3900,1580,1032,688
6756,4256,3904,1580,1028,688
6756,4256,3904,1580,1032,688
6756,4260,3908,1580,1032,688
6756,4256,3908,1580,1032,688
6752,4252,3904,1580,1032,688
6748,4252,3900,1580,1028,688
6748,4252,3900,1580,1032,688
6752,4252,3900,1580,1032,688
6756,4256,3904,1580,1032,688
6756,4256,3908,1580,1032,688
6752,4256,3904,1580,1032,688
6756,4264,3908,1580,1028,688
6752,4264,3908,1580,1032,688
6752,4264,3908,1580,1032,688
6752,4260,3904,1580,1032,688
6744,4244,3896,1580,1032,688
6736,4228,3888,1580,1028,688
6732,4220,3880,1580,1028,688
6732,4208,3872,1580,1028,684
6728,4204,3868,1580,1028,684
6732,4208,3872,1580,1028,684
6740,4212,3876,1580,1028,688
6736,4212,3876,1580,1028,684
6736,4216,3876,1580,1028,684
6740,4224,3880,1580,1028,684
6740,4220,3880,1580,1028,684
6740,4224,3880,1580,1028,684
6740,4220,3880,1580,1028,684
6740,4220,3880,1580,1028,684
6736,4216,3880,1580,1028,684
6740,4216,3880,1580,1028,684
6736,4216,3876,1580,1028,684
6736,4220,3880,1580,1028,684
6740,4224,3884,1580,1028,684
6744,4228,3888,1580,1028,684
6740,4232,3888,1580,1028,684
6748,4240,3892,1580,1028,684
6748,4240,3892,1580,1028,684
6744,4228,3888,1580,1028,684
6740,4216,3876,1580,1028,684
6732,4200,3868,1580,1028,684
6736,4192,3864,1580,1028,684
6736,4188,3864,1580,1024,684
6736,4188,3864,1580,1024,684
6740,4192,3864,1580,1024,684
6740,4200,3868,1580,1024,684
6740,4204,3872,1580,1028,684
6744,4208,3876,1580,1028,684
6748,4212,3876,1580,1028,684
6744,4216,3876,1580,1028,684
6744,4216,3880,1580,1028,684
6744,4212,3876,1580,1028,684
6744,4212,3876,1580,1028,684
6744,4216,3876,1580,1028,684
6744,4216,3880,1580,1028,684
6748,4224,3884,1580,1028,684
6752,4228,3884,1580,1028,684
6756,4232,3892,1580,1028,684
6760,4240,3896,1580,1028,684
6764,4244,3900,1580,1028,684
6756,4240,3896,1584,1028,684
6756,4236,3892,1584,1028,684
6756,4224,3884,1580,1028,684
6752,4212,3880,1580,1028,684
6748,4204,3872,1584,1028,684
6752,4204,3872,1580,1028,684
6752,4204,3872,1580,1024,684
6748,4204,3872,1584,1028,684
6752,4212,3876,1580,1028,684
6756,4220,3880,1584,1028,684
6760,4224,3884,1580,1028,684
6756,4228,3884,1584,1028,684
6760,4228,3888,1584,1028,684
6760,4228,3888,1584,1028,684
6760,4232,3892,1580,1028,684
6756,4228,3888,1580,1028,684
6760,4232,3888,1580,1028,684
6760,4232,3892,1580,1028,684
6764,4240,3896,1584,1028,684
6768,4244,3900,1584,1028,684
6768,4248,3900,1580,1028,684
6772,4256,3908,1584,1028,684
6768,4256,3904,1584,1028,684
6768,4256,3904,1584,1028,684
6768,4248,3900,1584,1028,684
6760,4232,3892,1580,1028,684
6756,4220,3884,1584,1028,684
6752,4212,3876,1580,1028,684
6752,4208,3876,1580,1024,684
6752,4208,3876,1580,1024,684
6756,4212,3876,1580,1024,684
6760,4220,3884,1580,1024,684
6756,4220,3884,1580,1024,684
6756,4224,3884,1580,1024,684
6760,4228,3888,1580,1028,684
6764,4232,3892,1584,1028,684
6764,4232,3892,1580,1028,684
6764,4232,3892,1584,1028,684
6760,4228,3888,1584,1028,684
6764,4232,3888,1584,1028,684
6764,4236,3892,1584,1028,684
6764,4236,3892,1584,1028,684
6760,4240,3892,1584,1028,684
6764,4244,3896,1584,1028,684
6768,4252,3900,1584,1028,684
6768,4252,3904,1584,1028,684
6768,4256,3904,1584,1028,684
6764,4244,3896,1584,1028,684
6764,4232,3892,1584,1028,684
6756,4216,3880,1584,1028,684
6752,4208,3876,1584,1028,684
6752,4204,3872,1580,1024,684
6748,4200,3868,1584,1024,684
6756,4208,3876,1584,1024,684
6752,4208,3876,1584,1028,684
6756,4216,3880,1584,1028,684
6760,4220,3884,1584,1028,684
6760,4224,3884,1584,1028,684
6760,4224,3884,1584,1028,684
6760,4224,3884,1584,1028,684
6760,4224,3884,1580,1028,684
6760,4224,3884,1584,1028,684
6760,4224,3884,1584,1028,684
6760,4228,3884,1584,1028,684
6768,4236,3892,1584,1028,684
6768,4236,3892,1584,1028,684
6768,4240,3896,1584,1028,684
6764,4240,3892,1584,1028,684
6764,4244,3896,1584,1028,684
6764,4248,3900,1584,1028,684
6764,4244,3896,1584,1028,684
6756,4228,3884,1584,1028,684
6756,4216,3880,1580,1028,684
6752,4204,3872,1580,1024,684
6752,4200,3868,1580,1024,684
6752,4196,3868,1580,1024,684
6752,4200,3868,1580,1024,684
6756,4204,3872,1580,1024,684
6756,4208,3872,1584,1024,684
6760,4216,3876,1584,1024,684
6760,4216,3880,1584,1024,684
6760,4220,3884,1584,1028,684
6760,4220,3880,1584,1028,684
6760,4220,3880,1584,1024,684
6752,4216,3876,1584,1024,684
6760,4220,3880,1584,1024,684
6760,4220,3880,1580,1024,684
6760,4224,3884,1580,1024,684
6756,4224,3880,1584,1028,684
6760,4228,3888,1580,1028,684
6760,4232,3888,1584,1028,684
6760,4236,3892,1584,1028,684
6764,4240,3892,1584,1028,684
6764,4240,3896,1584,1028,684
6760,4232,3888,1584,1028,684
6752,4220,3880,1584,1028,684
6748,4204,3872,1580,1028,684
6744,4192,3864,1580,1028,684
6744,4188,3860,1580,1024,684
6744,4188,3860,1580,1024,684
6740,4188,3860,1580,1024,684
6748,4192,3864,1580,1024,684
6752,4200,3868,1584,1024,684
6748,4200,3868,1584,1024,684
6748,4204,3868,1580,1024,684
6748,4204,3868,1580,1024,684
6748,4204,3868,1580,1024,684
6748,4200,3868,1580,1024,684
6748,4200,3868,1580,1024,684
6748,4200,3868,1580,1024,684
6748,4200,3868,1580,1024,684
6744,4200,3868,1580,1024,684
6740,4204,3868,1580,1024,684
6744,4208,3872,1580,1024,684
6752,4212,3876,1584,1028,684
6752,4220,3880,1580,1024,684
6748,4220,3880,1580,1024,684
6748,4216,3876,1584,1028,684
6744,4208,3872,1584,1028,684
6740,4196,3864,1584,1028,684
6736,4184,3856,1580,1024,684
6732,4172,3848,1580,1024,684
6732,4168,3848,1580,1024,684
6736,4172,3848,1580,1024,684
6736,4176,3852,1580,1024,684
6740,4180,3856,1580,1024,684
6736,4184,3856,1580,1024,684
6740,4188,3860,1580,1024,684
6736,4188,3860,1580,1024,684
6740,4192,3860,1580,1024,684
6740,4192,3860,1580,1024,684
6740,4192,3860,1580,1024,684
6740,4188,3860,1580,1024,684
6740,4192,3860,1580,1024,684
6740,4192,3864,1580,1024,684
6740,4196,3864,1580,1024,684
6744,4200,3868,1580,1024,684
6744,4204,3872,1580,1028,684
6748,4212,3876,1580,1028,684
6748,4216,3876,1584,1028,684
6752,4220,3880,1584,1028,684
6752,4220,3880,1580,1028,684
6744,4204,3868,1580,1028,684
6740,4192,3864,1580,1024,684
6740,4184,3856,1580,1024,684
6740,4180,3856,1580,1024,684
6740,4180,3856,1580,1024,684
6740,4180,3856,1580,1024,684
6740,4184,3856,1580,1024,684
6744,4196,3864,1580,1024,684
6744,4200,3868,1584,1028,684
6748,4204,3872,1580,1024,684
6748,4208,3872,1584,1028,684
6752,4212,3876,1580,1028,684
6752,4212,3876,1580,1028,684
6752,4212,3876,1584,1028,684
6752,4216,3876,1580,1028,684
6756,4220,3880,1584,1028,684
6752,4220,3880,1584,1028,684
6756,4224,3884,1584,1028,684
6760,4228,3888,1584,1028,684
6760,4236,3892,1584,1028,684
6760,4236,3892,1584,1028,684
6760,4240,3896,1584,1028,684
6760,4240,3892,1584,1028,684
6756,4232,3888,1584,1028,684
6752,4216,3880,1584,1028,684
6752,4208,3872,1584,1028,684
6744,4200,3868,1584,1028,684
6748,4200,3868,1584,1028,684
6748,4200,3868,1584,1028,684
6752,4208,3872,1584,1028,684
6752,4208,3872,1580,1028,684
6752,4216,3876,1580,1028,684
6756,4220,3880,1584,1028,684
6756,4224,3884,1584,1028,684
6752,4224,3884,1584,1028,684
6760,4228,3884,1584,1028,684
6756,4228,3884,1584,1028,684
6756,4228,3884,1584,1028,684
6760,4232,3888,1584,1028,684
6760,4236,3892,1584,1028,684
6768,4240,3896,1584,1028,684
6764,4244,3896,1584,1028,684
6768,4248,3900,1584,1028,684
6764,4252,3900,1584,1028,688
6772,4256,3904,1584,1028,688
6768,4260,3904,1584,1028,688
6764,4252,3900,1584,1032,688
6764,4240,3896,1584,1032,688
6760,4228,3888,1584,1028,688
6756,4216,3880,1584,1028,688
6752,4212,3876,1584,1028,688
6752,4208,3872,1584,1028,684
6752,4212,3876,1584,1028,688
6752,4216,3880,1584,1028,684
6756,4224,3880,1584,1028,688
6756,4228,3884,1584,1028,688
6760,4232,3888,1584,1028,688
6760,4232,3888,1584,1032,688
6756,4232,3888,1584,1032,688
6760,4232,3888,1584,1032,688
6760,4232,3888,1584,1032,688
6760,4232,3888,1584,1032,688
6756,4232,3888,1584,1032,688
6760,4236,3892,1584,1032,688
6764,4244,3896,1584,1032,688
6764,4248,3900,1584,1032,688
6768,4256,3904,1584,1032,688
6768,4260,3908,1584,1032,688
6768,4264,3908,1584,1032,688
6768,4260,3908,1584,1032,688
6764,4256,3904,1584,1032,688
6760,4244,3896,1584,1032,688
6748,4228,3884,1584,1032,688
6752,4220,3880,1584,1032,688
6752,4220,3880,1584,1032,688
6756,4220,3880,1584,1032,688
6760,4220,3880,1584,1032,688
6756,4224,3880,1584,1032,688
6756,4228,3884,1584,1032,688
6760,4232,3888,1584,1032,688
6756,4236,3888,1584,1032,688
6756,4236,3888,1584,1032,688
6760,4236,3892,1584,1032,688
6760,4240,3892,1584,1032,688
6756,4236,3888,1584,1032,688
6756,4236,3888,1584,1032,688
6756,4240,3892,1584,1032,688
6760,4244,3892,1584,1032,688
6760,4248,3896,1588,1032,688
6764,4252,3900,1584,1032,688
6764,4256,3904,1584,1032,688
6764,4260,3908,1584,1032,688
6764,4264,3908,1584,1032,688
6764,4264,3908,1584,1032,688
6760,4256,3900,1584,1032,688
6756,4244,3892,1584,1032,688
6756,4232,3888,1584,1032,688
6756,4228,3884,1584,1032,688
6752,4220,3880,1584,1032,688
6748,4220,3880,1584,1032,688
6752,4220,3880,1584,1032,688
6756,4228,3884,1584,1032,688
6760,4232,3888,1584,1032,688
6756,4236,3892,1584,1032,688
6756,4240,3892,1584,1032,688
6760,4244,3892,1584,1032,688
6760,4244,3892,1584,1032,688
6760,4244,3896,1584,1032,688
6756,4240,3892,1584,1032,688
6756,4244,3892,1584,1032,688
6756,4244,3896,1584,1032,688
6756,4248,3896,1584,1032,688
6760,4248,3896,1584,1032,688
6760,4252,3900,1584,1032,688
6760,4256,3904,1584,1032,688
6764,4264,3908,1584,1032,688
6764,4268,3908,1584,1036,688
6760,4264,3908,1584,1036,688
6756,4256,3900,1584,1036,688
6752,4244,3892,1584,1036,688
6752,4232,3888,1584,1036,688
6744,4224,3880,1584,1032,688
6748,4220,3880,1584,1032,688
6748,4220,3880,1584,1032,688
6748,4224,3880,1584,1032,688
6748,4224,3880,1584,1032,688
6752,4232,3884,1584,1032,688
6752,4232,3884,1584,1032,688
6748,4232,3884,1584,1032,688
6752,4236,3888,1584,1032,688
6748,4236,3888,1584,1032,688
6748,4232,3884,1584,1032,688
6756,4240,3888,1584,1032,688
6752,4236,3888,1584,1032,688
6752,4240,3892,1584,1032,688
6752,4240,3892,1584,1036,688
6752,4244,3892,1584,1032,688
6752,4244,3892,1584,1032,688
6748,4248,3896,1584,1036,688
6752,4252,3896,1584,1036,688
6752,4252,3896,1584,1036,688
6752,4252,3900,1584,1036,688
6748,4248,3896,1584,1036,688
6744,4232,3884,1584,1036,688
6736,4220,3876,1584,1036,688
6736,4216,3872,1584,1032,688
6740,4216,3872,1584,1032,688
6744,4216,3876,1584,1032,688
6744,4220,3876,1584,1032,688
6744,4224,3880,1584,1032,688
6748,4224,3880,1584,1032,688
6744,4228,3880,1584,1036,688
6744,4228,3880,1584,1036,688
6744,4232,3884,1584,1036,688
6744,4236,3884,1584,1036,688
6748,4236,3888,1584,1036,688
6748,4236,3888,1584,1036,688
6744,4232,3884,1584,1036,688
6744,4236,3888,1584,1036,688
6748,4244,3892,1584,1036,688
6752,4248,3892,1588,1036,692
6748,4248,3896,1588,1036,688
6748,4252,3896,1584,1036,688
6752,4260,3900,1584,1036,688
6756,4264,3904,1584,1036,688
6756,4260,3904,1588,1036,688
6752,4256,3900,1588,1036,692
6752,4244,3892,1584,1036,688
6748,4236,3888,1584,1036,688
6744,4228,3884,1584,1036,688
6748,4232,3884,1584,1036,688
6748,4232,3884,1588,1036,688
6752,4240,3888,1588,1036,688
6752,4244,3892,1584,1036,688
6752,4248,3892,1588,1036,688
6756,4252,3896,1588,1036,692
6756,4256,3900,1588,1036,692
6756,4256,3900,1588,1036,692
6756,4256,3900,1588,1036,692
6752,4256,3900,1588,1036,692
6756,4256,3900,1588,1036,692
6752,4260,3900,1588,1036,692
6756,4260,3904,1588,1036,692
6756,4264,3904,1588,1036,692
6764,4272,3912,1588,1036,692
6760,4276,3912,1588,1040,692
6760,4280,3916,1588,1040,692
6764,4284,3916,1588,1040,692
6764,4284,3920,1588,1040,692
6760,4272,3912,1588,1040,692
6756,4264,3904,1588,1040,692
6752,4256,3900,1588,1040,692
6748,4244,3892,1584,1036,692
6748,4244,3892,1588,1036,692
6748,4244,3892,1588,1036,692
6756,4248,3896,1588,1036,692
6752,4252,3896,1588,1036,692
6752,4256,3896,1588,1036,692
6756,4260,3900,1588,1036,692
6756,4264,3904,1588,1040,692
6756,4264,3904,1588,1036,692
6752,4264,3904,1588,1040,692
6752,4264,3904,1588,1040,692
6756,4264,3904,1588,1036,692
6756,4264,3904,1588,1040,692
6756,4268,3904,1588,1040,692
6756,4268,3904,1588,1040,692
6760,4276,3912,1588,1040,692
6756,4276,3912,1588,1040,692
6760,4280,3916,1588,1040,692
6760,4284,3916,1588,1040,692
6760,4288,3920,1588,1040,692
6756,4280,3912,1588,1040,692
6756,4272,3908,1588,1040,692
6748,4260,3900,1588,1040,692
6752,4252,3896,1588,1040,692
6748,4244,3892,1588,1036,692
6752,4244,3892,1588,1040,692
6752,4244,3892,1588,1036,692
6748,4244,3892,1588,1036,692
6748,4248,3892,1588,1036,692
6752,4252,3896,1588,1040,692
6752,4252,3896,1588,1040,692
6752,4256,3900,1588,1040,692
6752,4256,3896,1588,1040,692
6752,4256,3896,1588,1040,692
6748,4252,3896,1588,1040,692
6748,4252,3896,1588,1040,692
6748,4252,3896,1588,1040,692
6748,4256,3896,1588,1040,692
6752,4260,3900,1588,1040,692
6752,4260,3900,1588,1040,692
6752,4264,3904,1588,1040,692
6756,4272,3908,1588,1040,692
6756,4272,3908,1588,1040,692
6752,4272,3908,1588,1040,692
6752,4264,3904,1588,1040,692
6744,4252,3896,1588,1040,692
6740,4240,3888,1588,1040,692
6740,4232,3880,1588,1040,692
6736,4224,3876,1588,1040,692
6736,4224,3876,1588,1040,692
6740,4224,3876,1588,1040,692
6740,4228,3880,1588,1040,692
6740,4228,3880,1588,1040,692
6740,4232,3884,1588,1040,692
6744,4236,3884,1588,1040,692
6740,4236,3884,1588,1040,692
6740,4236,3884,1588,1040,692
6740,4236,3884,1588,1040,692
6744,4236,3884,1588,1040,692
6740,4236,3884,1584,1036,692
6740,4236,3884,1588,1040,692
6744,4240,3888,1588,1040,692
6744,4240,3888,1588,1040,692
6744,4244,3892,1588,1040,692
6744,4248,3892,1588,1040,692
6744,4248,3896,1588,1040,692
6744,4252,3896,1588,1040,692
6744,4252,3896,1588,1040,692
6740,4240,3888,1588,1040,692
6740,4232,3884,1588,1040,692
6732,4216,3872,1584,1036,692
6728,4208,3868,1584,1036,692
6724,4204,3864,1584,1036,692
6724,4200,3864,1584,1036,692
6724,4200,3864,1584,1036,692
6728,4208,3868,1584,1036,692
6728,4208,3868,1584,1036,692
6732,4212,3872,1584,1036,692
6728,4212,3868,1584,1036,692
6728,4212,3872,1584,1036,688
6728,4212,3868,1584,1036,692
6724,4208,3868,1584,1036,692
6728,4208,3868,1584,1036,692
6728,4208,3868,1584,1036,692
6724,4208,3868,1584,1036,692
6724,4208,3868,1584,1036,688
6724,4212,3868,1584,1036,688
6724,4212,3868,1584,1036,692
6724,4216,3872,1584,1036,692
6724,4216,3872,1584,1036,692
6724,4220,3872,1584,1036,692
6720,4212,3868,1584,1036,692
6720,4200,3864,1584,1036,692
6716,4192,3856,1584,1036,688
6712,4180,3848,1584,1036,688
6712,4172,3844,1584,1036,688
6708,4168,3840,1584,1036,688
6708,4168,3840,1584,1036,688
6712,4172,3844,1584,1036,688
6712,4176,3844,1584,1036,688
6712,4176,3848,1584,1036,688
6712,4180,3848,1584,1036,688
6712,4180,3848,1584,1036,688
6712,4180,3848,1584,1036,688
6716,4184,3852,1584,1036,688
6712,4180,3848,1584,1036,688
6708,4180,3848,1584,1036,688
6716,4184,3852,1584,1036,688
6716,4184,3852,1584,1036,688
6716,4188,3856,1584,1036,688
6716,4192,3856,1584,1036,688
6720,4196,3860,1584,1036,688
6720,4200,3864,1584,1036,688
6724,4204,3868,1584,1036,688
6720,4204,3864,1584,1036,688
6716,4196,3860,1584,1036,692
6716,4184,3852,1584,1036,688
6712,4172,3844,1584,1036,688
6708,4164,3840,1584,1032,688
6700,4160,3836,1584,1032,688
6708,4160,3840,1584,1032,688
6708,4164,3840,1584,1032,688
6708,4168,3844,1584,1032,688
6712,4172,3844,1584,1036,688
6716,4180,3848,1584,1036,688
6712,4184,3852,1584,1036,688
6712,4184,3852,1584,1036,688
6712,4184,3852,1584,1036,688
6716,4188,3856,1584,1036,688
6716,4188,3856,1584,1036,688
6712,4188,3856,1584,1036,688
6712,4188,3856,1584,1036,688
6720,4196,3860,1584,1036,688
6720,4200,3864,1584,1036,688
6720,4204,3868,1584,1036,688
6724,4212,3872,1584,1036,688
6728,4216,3876,1584,1036,688
6720,4216,3872,1588,1036,692
6720,4212,3872,1584,1036,692
6720,4204,3868,1584,1036,692
6716,4192,3860,1584,1036,692
6712,4184,3852,1584,1036,692
6712,4176,3848,1584,1036,688
6712,4176,3848,1584,1036,688
6716,4176,3848,1584,1036,688
6716,4184,3852,1584,1036,688
6716,4184,3852,1588,1036,688
6720,4192,3860,1584,1036,688
6724,4200,3864,1584,1036,688
6724,4200,3864,1584,1036,688
6724,4200,3864,1584,1036,688
6724,4204,3868,1584,1036,688
6724,4200,3864,1588,1036,692
6724,4200,3864,1584,1036,688
6724,4204,3868,1584,1036,688
6724,4208,3868,1588,1036,692
6728,4212,3872,1588,1036,692
6728,4216,3876,1588,1036,692
6732,4220,3880,1584,1036,692
6736,4228,3884,1584,1036,692
6736,4228,3884,1588,1036,692
6732,4224,3880,1584,1036,692
6728,4216,3876,1584,1036,692
6724,4200,3864,1584,1036,688
6720,4188,3860,1584,1036,688
6720,4184,3856,1584,1036,688
6716,4180,3852,1584,1032,688
6716,4180,3852,1584,1036,688
6716,4180,3852,1584,1032,688
6720,4188,3856,1584,1032,688
6716,4188,3856,1584,1032,688
6720,4192,3860,1584,1032,688
6724,4196,3864,1584,1032,688
6724,4196,3864,1584,1032,688
6720,4196,3864,1584,1036,688
6724,4196,3864,1584,1036,688
6724,4196,3864,1584,1036,688
6724,4200,3864,1584,1036,688
6724,4200,3868,1584,1036,688
6724,4204,3868,1584,1036,688
6728,4208,3872,1584,1036,688
6728,4212,3876,1584,1036,688
6728,4216,3876,1584,1036,688
6732,4224,3880,1584,1036,688
6732,4220,3880,1584,1036,688
6728,4212,3872,1584,1036,688
6724,4200,3868,1584,1036,688
6720,4188,3856,1584,1032,688
6716,4176,3852,1584,1032,688
6716,4172,3848,1584,1032,688
6716,4172,3848,1584,1032,688
6712,4172,3848,1584,1032,688
6716,4176,3848,1584,1032,688
6716,4180,3852,1584,1032,688
6716,4184,3856,1584,1032,688
6720,4188,3856,1584,1032,688
6716,4188,3856,1584,1032,688
6720,4188,3856,1584,1032,688
6720,4188,3860,1584,1032,688
6720,4188,3856,1584,1032,688
6720,4188,3860,1584,1032,688
6724,4192,3860,1584,1032,688
6724,4196,3864,1584,1032,688
6728,4200,3868,1584,1032,688
6728,4204,3868,1584,1032,688
6728,4208,3872,1584,1032,688
6728,4212,3876,1584,1032,688
6732,4216,3876,1584,1036,688
6728,4212,3876,1584,1036,688
6724,4200,3868,1584,1036,688
6720,4188,3856,1584,1032,688
6712,4172,3848,1584,1032,688
6716,4168,3844,1584,1032,688
6712,4164,3840,1584,1032,688
6716,4164,3844,1584,1032,688
6716,4168,3844,1584,1032,688
6716,4168,3848,1584,1032,688
6720,4176,3852,1584,1032,688
6720,4180,3852,1584,1032,688
6720,4180,3852,1584,1032,688
6720,4184,3856,1584,1032,688
6720,4184,3856,1584,1032,688
6724,4184,3856,1584,1032,688
6720,4184,3856,1584,1032,688
6720,4184,3856,1584,1032,688
6720,4184,3856,1584,1032,688
6724,4192,3860,1584,1032,688
6724,4192,3860,1584,1032,688
6728,4200,3864,1584,1032,688
6724,4200,3864,1584,1032,688
6724,4204,3868,1584,1032,688
6724,4208,3868,1584,1032,688
6724,4204,3868,1584,1032,688
6724,4196,3864,1584,1032,688
6720,4184,3856,1584,1032,688
6716,4172,3848,1584,1032,688
6712,4160,3840,1584,1032,688
6708,4156,3836,1580,1032,688
6712,4156,3836,1584,1032,688
6712,4160,3840,1584,1032,688
6716,4164,3840,1584,1032,688
6712,4164,3840,1584,1032,688
6716,4168,3844,1584,1032,688
6716,4172,3848,1584,1032,688
6716,4172,3848,1584,1032,688
6716,4176,3848,1584,1032,688
6716,4172,3848,1584,1032,688
6716,4172,3848,1584,1032,688
6716,4176,3848,1584,1032,688
6716,4176,3852,1584,1032,688
6720,4180,3852,1584,1032,688
6716,4184,3852,1584,1032,688
6720,4184,3856,1584,1032,688
6724,4192,3860,1584,1032,688
6724,4196,3860,1584,1032,688
6724,4200,3864,1584,1032,688
6724,4200,3864,1584,1032,688
6724,4196,3864,1584,1032,688
6716,4184,3856,1584,1032,688
6712,4168,3844,1584,1032,688
6708,4156,3836,1584,1032,688
6700,4144,3828,1584,1032,688
6704,4144,3828,1584,1028,688
6704,4144,3828,1580,1028,688
6704,4148,3828,1584,1032,688
6700,4148,3828,1584,1028,688
6704,4152,3832,1580,1028,688
6704,4156,3836,1584,1028,688
6704,4156,3836,1584,1032,688
6704,4156,3836,1584,1028,688
6704,4156,3836,1584,1032,688
6704,4152,3832,1584,1032,688
6704,4152,3832,1580,1028,688
6704,4152,3836,1584,1028,688
6704,4156,3832,1584,1032,688
6704,4160,3836,1584,1028,688
6704,4164,3840,1580,1028,688
6708,4168,3844,1584,1032,688
6708,4172,3844,1584,1032,688
6712,4176,3848,1584,1032,688
6712,4180,3852,1584,1032,688
6712,4180,3852,1584,1032,688
6712,4176,3848,1584,1032,688
6704,4160,3840,1584,1032,688
6700,4148,3832,1584,1028,688
6696,4136,3824,1580,1028,688
6692,4132,3820,1584,1028,688
6696,4132,3820,1584,1028,688
6696,4136,3824,1584,1028,688
6704,4144,3828,1584,1028,688
6700,4148,3828,1584,1028,688
6704,4152,3832,1584,1028,688
6704,4156,3836,1584,1032,688
6704,4156,3836,1584,1032,688
6708,4160,3840,1584,1032,688
6708,4160,3840,1584,1032,688
6704,4160,3836,1584,1032,688
6704,4160,3836,1584,1032,688
6708,4164,3840,1584,1032,688
6708,4168,3844,1584,1032,688
6712,4172,3848,1584,1032,688
6712,4176,3848,1584,1032,688
6720,4184,3856,1584,1032,688
6724,4192,3860,1584,1032,688
6724,4196,3864,1584,1032,688
6716,4196,3860,1584,1032,688
6712,4188,3856,1584,1032,688
6712,4184,3852,1584,1032,688
6708,4168,3844,1584,1032,688
6708,4160,3840,1584,1032,688
6708,4156,3836,1584,1032,688
6708,4156,3836,1584,1032,688
6712,4160,3836,1584,1032,688
6712,4160,3840,1584,1032,688
6712,4168,3844,1584,1032,688
6716,4172,3848,1584,1032,688
6716,4176,3852,1584,1032,688
6716,4180,3852,1584,1032,688
6716,4180,3852,1584,1032,688
6720,4184,3852,1584,1032,688
6720,4184,3852,1584,1032,688
6716,4184,3852,1584,1032,688
6716,4184,3852,1584,1032,688
6716,4188,3856,1584,1032,688
6720,4192,3860,1584,1032,688
6724,4196,3864,1584,1032,688
6720,4200,3864,1584,1032,688
6724,4204,3868,1584,1032,688
6728,4212,3872,1584,1036,688
6724,4212,3872,1584,1036,688
6724,4208,3868,1584,1036,688
6720,4196,3860,1584,1036,688
6712,4180,3852,1584,1036,688
6712,4172,3844,1584,1036,688
6716,4168,3844,1584,1032,688
6712,4164,3840,1584,1032,688
6716,4168,3844,1584,1032,688
6720,4172,3848,1584,1032,688
6720,4180,3852,1584,1032,688
6728,4188,3856,1584,1032,688
6728,4188,3856,1588,1036,688
6728,4192,3860,1584,1036,688
6728,4192,3860,1584,1036,688
6728,4192,3860,1584,1036,688
6728,4192,3860,1584,1036,688
6728,4192,3860,1584,1036,688
6732,4196,3864,1584,1036,688
6732,4200,3864,1584,1036,688
6732,4200,3868,1588,1036,688
6736,4208,3872,1584,1036,688
6736,4212,3876,1584,1036,688
6736,4216,3876,1584,1036,688
6736,4220,3876,1584,1036,688
6732,4220,3876,1584,1036,688
6736,4220,3876,1588,1036,692
6724,4204,3868,1584,1036,688
6724,4192,3860,1584,1036,688
6720,4180,3852,1584,1036,688
6720,4172,3848,1584,1036,688
6720,4172,3844,1584,1036,688
6720,4172,3848,1584,1036,688
6720,4176,3848,1588,1036,688
6720,4176,3852,1588,1036,688
6720,4184,3852,1584,1036,688
6724,4188,3856,1584,1036,688
6724,4192,3860,1584,1036,688
6728,4192,3860,1584,1036,692
6728,4192,3860,1588,1036,692
6728,4192,3860,1588,1036,692
6728,4196,3860,1588,1036,692
6728,4196,3864,1584,1036,692
6728,4200,3864,1588,1036,692
6728,4204,3868,1588,1036,692
6728,4208,3868,1588,1036,692
6732,4212,3872,1588,1036,692
6728,4212,3872,1588,1036,692
6736,4220,3876,1588,1036,692
6732,4224,3880,1588,1040,692
6732,4220,3876,1588,1036,692
6732,4212,3872,1588,1040,692
6728,4196,3864,1588,1036,692
6720,4184,3852,1588,1036,692
6716,4176,3848,1584,1036,692
6716,4172,3844,1588,1036,692
6716,4172,3848,1584,1036,692
6716,4176,3848,1584,1036,692
6724,4184,3852,1584,1036,692
6724,4184,3856,1588,1036,692
6724,4192,3856,1588,1036,692
6724,4192,3860,1588,1036,692
6724,4196,3860,1584,1036,692
6724,4196,3860,1588,1036,692
6728,4196,3860,1584,1036,692
6724,4196,3860,1584,1036,692
6724,4196,3864,1588,1036,692
6728,4200,3864,1588,1036,692
6724,4200,3864,1588,1040,692
6728,4208,3868,1588,1040,692
6728,4208,3872,1588,1040,692
6732,4216,3876,1588,1040,692
6732,4220,3876,1588,1040,692
6732,4224,3880,1588,1040,692
6732,4220,3876,1588,1040,692
6728,4212,3872,1588,1040,692
6720,4196,3860,1588,1040,692
6712,4180,3848,1588,1040,692
6712,4172,3844,1588,1040,692
6712,4168,3844,1588,1036,692
6712,4168,3844,1588,1040,692
6708,4168,3840,1584,1036,692
6712,4172,3844,1584,1036,692
6712,4176,3848,1588,1040,692
6716,4184,3852,1588,1036,692
6712,4180,3852,1588,1040,692
6712,4184,3852,1584,1040,692
6712,4184,3852,1588,1040,692
6708,4180,3848,1588,1040,692
6712,4184,3852,1588,1040,692
6712,4184,3852,1584,1040,692
6716,4188,3852,1588,1040,692
6716,4188,3856,1588,1040,692
6716,4192,3860,1584,1040,692
6720,4200,3864,1588,1040,692
6720,4204,3864,1588,1040,692
6720,4208,3868,1588,1040,692
6724,4216,3872,1588,1040,692
6720,4212,3868,1588,1040,692
6720,4204,3864,1588,1040,692
6712,4192,3856,1588,1040,692
6708,4180,3848,1588,1040,692
6704,4172,3844,1584,1040,692
6708,4172,3844,1584,1040,692
6708,4172,3844,1588,1040,692
6708,4176,3848,1584,1040,692
6716,4184,3852,1588,1040,692
6716,4192,3856,1588,1040,692
6720,4200,3860,1588,1040,692
6720,4200,3864,1588,1040,692
6720,4204,3864,1588,1040,692
6716,4204,3864,1588,1040,692
6716,4204,3864,1588,1040,692
6716,4204,3864,1588,1040,692
6716,4204,3864,1588,1040,692
6720,4212,3868,1588,1040,692
6724,4216,3872,1588,1040,692
6724,4220,3876,1588,1040,692
6724,4228,3880,1588,1044,692
6724,4232,3884,1588,1040,692
6728,4240,3888,1588,1040,692
6732,4240,3888,1588,1044,692
6732,4240,3888,1588,1044,696
6724,4224,3880,1588,1044,692
6720,4216,3872,1588,1044,692
6716,4204,3864,1588,1044,696
6716,4200,3864,1588,1044,692
6720,4204,3864,1588,1044,692
6720,4208,3868,1588,1044,692
6728,4212,3872,1588,1044,692
6728,4220,3876,1588,1044,696
6732,4228,3880,1588,1044,692
6728,4228,3884,1588,1044,696
6736,4236,3888,1588,1044,696
6736,4240,3888,1588,1044,696
6736,4240,3888,1588,1044,696
6740,4244,3892,1588,1044,696
6740,4244,3892,1592,1044,696
6740,4248,3892,1592,1044,696
6740,4252,3896,1592,1044,696
6744,4256,3900,1592,1044,696
6744,4260,3904,1588,1044,696
6744,4264,3904,1588,1044,696
6744,4268,3908,1588,1044,696
6748,4272,3912,1588,1044,696
6744,4272,3912,1588,1048,696
6740,4264,3904,1592,1048,696
6740,4252,3896,1592,1048,696
6736,4240,3888,1592,1048,696
6736,4236,3888,1588,1044,696
6736,4232,3884,1588,1044,696
6736,4232,3884,1588,1044,696
6732,4236,3884,1588,1044,696
6736,4240,3888,1592,1044,696
6740,4244,3892,1592,1048,696
6740,4252,3896,1592,1048,696
6744,4256,3900,1588,1044,696
6744,4260,3900,1592,1048,696
6744,4260,3900,1592,1048,696
6744,4256,3900,1592,1048,696
6740,4256,3900,1592,1048,696
6744,4260,3900,1592,1048,696
6744,4264,3904,1592,1048,696
6744,4268,3908,1592,1048,696
6744,4272,3908,1592,1048,696
6744,4276,3912,1592,1048,696
6748,4280,3912,1592,1048,696
6752,4288,3920,1592,1048,696
6752,4288,3920,1592,1048,696
6752,4284,3920,1592,1048,696
6748,4276,3912,1592,1048,696
6744,4260,3904,1592,1048,696
6736,4244,3892,1588,1048,696
6736,4240,3888,1588,1048,696
6736,4240,3888,1588,1048,696
6736,4240,3888,1588,1048,696
6740,4244,3892,1588,1048,696
6740,4248,3896,1588,1048,696
6740,4252,3896,1588,1048,696
6736,4252,3896,1588,1048,696
6744,4256,3900,1592,1048,696
6748,4260,3904,1592,1048,696
6744,4260,3900,1592,1048,696
6748,4260,3904,1592,1048,696
6744,4260,3904,1588,1048,696
6744,4260,3904,1588,1048,696
6744,4264,3904,1592,1048,696
6744,4268,3908,1592,1048,696
6748,4272,3908,1592,1048,696
6748,4276,3912,1592,1048,696
6748,4280,3916,1592,1048,696
6748,4284,3916,1592,1048,696
6748,4284,3920,1592,1052,696
6748,4284,3916,1592,1048,696
6744,4272,3908,1592,1048,696
6740,4256,3900,1592,1048,696
6740,4244,3892,1592,1048,696
6732,4236,3884,1588,1048,696
6732,4232,3884,1588,1048,696
6736,4236,3888,1588,1048,696
6740,4240,3888,1588,1048,696
6740,4244,3892,1592,1048,696
6740,4248,3896,1592,1048,696
6744,4252,3896,1592,1048,696
6744,4252,3900,1592,1048,696
6744,4256,3900,1592,1048,696
6744,4256,3900,1592,1048,696
6740,4252,3896,1592,1048,696
6740,4252,3896,1592,1048,696
6740,4256,3896,1588,1048,696
6740,4256,3900,1592,1048,696
6740,4256,3900,1592,1048,696
6740,4264,3904,1592,1048,696
6748,4272,3908,1592,1048,696
6744,4272,3908,1592,1048,696
6744,4276,3912,1592,1048,696
6748,4276,3912,1592,1048,696
6744,4272,3908,1592,1052,696
6736,4252,3896,1592,1048,696
6728,4236,3884,1592,1048,696
6724,4228,3880,1588,1048,696
6720,4220,3876,1588,1048,696
6720,4216,3872,1588,1048,696
6728,4220,3876,1588,1048,696
6724,4220,3876,1588,1048,696
6732,4228,3880,1588,1048,696
6728,4228,3880,1588,1048,696
6728,4232,3880,1588,1048,696
6728,4232,3880,1588,1048,696
6724,4232,3880,1588,1048,696
6724,4228,3880,1588,1048,696
6728,4228,3880,1592,1048,696
6724,4228,3880,1588,1048,696
6724,4228,3880,1592,1048,696
6724,4232,3880,1588,1048,696
6728,4236,3884,1588,1048,696
6728,4240,3888,1588,1048,696
6724,4240,3888,1588,1048,696
6728,4248,3892,1588,1048,696
6732,4252,3896,1588,1048,696
6732,4252,3896,1588,1048,696
6728,4248,3892,1588,1048,696
6724,4236,3888,1588,1048,696
6720,4220,3876,1592,1048,696
6716,4212,3868,1588,1048,696
6716,4208,3868,1592,1048,696
6716,4204,3864,1588,1048,696
6716,4208,3868,1588,1048,696
6720,4212,3868,1588,1048,696
6724,4216,3872,1588,1048,696
6724,4224,3876,1588,1048,696
6724,4228,3880,1592,1048,696
6724,4228,3880,1592,1048,696
6724,4232,3880,1588,1048,696
6724,4228,3880,1592,1048,696
6724,4232,3880,1592,1048,696
6724,4228,3880,1592,1048,696
6728,4236,3884,1592,1048,696
6732,4240,3888,1588,1048,696
6732,4244,3892,1592,1048,696
6728,4244,3888,1592,1048,696
6732,4252,3896,1588,1048,696
6736,4256,3900,1592,1048,696
6736,4260,3900,1592,1052,700
6732,4260,3900,1592,1052,700
6732,4256,3896,1592,1052,700
6728,4240,3888,1592,1052,700
6728,4232,3884,1592,1048,700
6724,4220,3876,1588,1048,696
6720,4216,3872,1588,1048,696
6724,4220,3876,1588,1048,696
6724,4220,3876,1588,1048,696
6724,4224,3880,1592,1048,696
6728,4232,3884,1592,1048,696
6732,4240,3888,1592,1048,696
6732,4244,3888,1592,1048,696
6732,4244,3892,1592,1052,700
6732,4248,3892,1592,1048,700
6732,4244,3892,1592,1052,700
6736,4248,3892,1592,1052,700
6736,4252,3896,1592,1052,700
6736,4252,3896,1592,1052,700
6736,4256,3900,1588,1048,696
6732,4256,3896,1592,1052,700
6740,4264,3904,1592,1052,700
6740,4268,3908,1592,1052,700
6740,4272,3908,1592,1052,700
6744,4276,3912,1592,1052,700
6740,4268,3908,1592,1052,700
6736,4256,3900,1592,1052,700
6736,4248,3892,1592,1052,700
6732,4236,3884,1592,1052,700
6728,4228,3880,1592,1048,700
6724,4224,3876,1592,1048,696
6728,4228,3880,1588,1048,696
6732,4232,3884,1592,1048,700
6736,4240,3888,1592,1052,700
6736,4244,3892,1592,1052,700
6740,4248,3896,1592,1048,700
6736,4248,3896,1592,1052,700
6740,4252,3896,1592,1048,696
6740,4252,3896,1592,1052,700
6740,4252,3900,1592,1052,700
6736,4252,3896,1592,1052,700
6740,4256,3896,1592,1052,700
6736,4256,3900,1592,1052,700
6740,4260,3904,1592,1052,696
6744,4268,3908,1592,1052,700
6748,4272,3912,1592,1052,700
6752,4280,3916,1592,1052,700
6752,4284,3916,1592,1052,700
6748,4280,3916,1592,1052,700
6736,4264,3904,1592,1052,700
6736,4256,3896,1592,1052,700
6736,4244,3892,1592,1052,700
6732,4236,3884,1592,1052,700
6728,4228,3880,1592,1048,700
6732,4232,3884,1588,1048,696
6728,4232,3880,1592,1048,696
6728,4232,3884,1592,1048,696
6732,4240,3888,1592,1048,696
6736,4244,3892,1592,1052,700
6736,4248,3892,1592,1048,696
6736,4248,3892,1592,1052,700
6736,4252,3896,1592,1052,700
6736,4248,3896,1592,1052,700
6732,4248,3892,1592,1052,700
6736,4252,3896,1592,1052,700
6732,4252,3896,1592,1048,696
6736,4256,3900,1592,1052,696
6736,4260,3900,1592,1052,700
6740,4268,3904,1592,1052,700
6740,4272,3908,1592,1052,700
6740,4276,3912,1592,1052,700
6744,4276,3912,1592,1052,700
6740,4268,3908,1592,1052,700
6736,4256,3900,1592,1052,700
6732,4244,3892,1592,1052,696
6724,4232,3880,1588,1048,696
6724,4228,3880,1588,1048,696
6724,4228,3880,1588,1048,696
6732,4232,3884,1592,1048,696
6732,4236,3884,1588,1048,696
6728,4236,3884,1588,1048,696
6732,4244,3892,1592,1048,696
6732,4244,3892,1588,1048,696
6736,4248,3892,1588,1048,696
6732,4248,3892,1588,1048,696
6732,4248,3892,1588,1048,696
6736,4248,3892,1588,1048,696
6732,4248,3892,1588,1048,696
6736,4252,3896,1588,1048,696
6736,4252,3896,1588,1048,696
6732,4252,3896,1588,1048,696
6732,4256,3900,1588,1048,696
6732,4260,3900,1588,1048,696
6740,4268,3904,1588,1048,696
6732,4268,3904,1588,1048,696
6732,4264,3900,1588,1048,696
6724,4248,3892,1588,1048,696
6720,4236,3884,1588,1048,696
6716,4224,3876,1588,1048,696
6712,4216,3872,1588,1048,696
6716,4216,3872,1588,1048,696
6716,4216,3872,1588,1048,696
6716,4216,3872,1588,1048,696
6716,4220,3876,1588,1048,696
6720,4228,3876,1588,1048,696
6720,4228,3880,1588,1048,696
6720,4232,3884,1588,1048,696
6716,4232,3880,1588,1048,696
6720,4232,3880,1588,1048,696
6720,4232,3880,1588,1048,696
6716,4232,3880,1588,1048,696
6724,4236,3884,1588,1048,696
6724,4240,3888,1588,1048,696
6720,4240,3888,1588,1048,696
6724,4244,3888,1588,1048,696
6724,4248,3892,1588,1048,696
6728,4256,3896,1588,1048,696
6728,4260,3900,1588,1048,696
6728,4260,3900,1588,1048,696
6724,4252,3896,1592,1048,696
6720,4240,3888,1588,1048,696
6720,4232,3884,1588,1048,696
6720,4228,3880,1588,1048,696
6716,4224,3876,1588,1048,696
6716,4224,3876,1588,1048,696
6716,4228,3880,1588,1048,696
6724,4236,3884,1588,1048,696
6724,4240,3888,1588,1048,696
6732,4248,3892,1588,1048,696
6732,4252,3896,1588,1048,696
6728,4252,3896,1588,1048,696
6732,4256,3900,1588,1048,696
6732,4256,3900,1592,1048,696
6728,4256,3900,1588,1048,696
6732,4260,3900,1588,1048,696
6736,4264,3904,1588,1048,696
6736,4268,3908,1588,1048,696
6736,4272,3908,1588,1048,696
6736,4280,3912,1588,1048,696
6740,4284,3916,1588,1048,696
6740,4288,3920,1588,1048,696
6736,4284,3916,1592,1048,696
6736,4280,3912,1588,1048,696
6732,4268,3904,1592,1048,696
6728,4260,3900,1588,1048,696
6732,4256,3896,1588,1048,696
6728,4252,3896,1588,1048,696
6732,4252,3896,1588,1048,696
6732,4256,3896,1592,1048,696
6736,4260,3900,1588,1048,696
6736,4268,3904,1588,1048,696
6740,4272,3908,1588,1048,696
6740,4276,3912,1588,1048,696
6736,4276,3912,1588,1048,696
6740,4276,3912,1588,1048,696
6740,4280,3912,1588,1048,696
6736,4280,3912,1588,1048,696
6740,4280,3912,1588,1048,696
6740,4284,3916,1588,1048,696
6740,4284,3916,1588,1048,696
6740,4288,3920,1588,1048,696
6744,4296,3924,1592,1048,696
6744,4300,3924,1592,1048,696
6744,4300,3928,1592,1048,696
6744,4304,3928,1588,1048,696
6740,4296,3924,1588,1048,696
6740,4288,3920,1588,1048,696
6736,4276,3908,1588,1048,696
6732,4268,3904,1588,1048,696
6728,4260,3900,1588,1048,696
6728,4260,3900,1588,1048,696
6732,4260,3900,1588,1048,696
6736,4268,3904,1588,1048,696
6736,4272,3908,1588,1048,696
6736,4272,3908,1588,1048,696
6736,4276,3912,1588,1048,696
6740,4280,3912,1588,1048,696
6740,4280,3912,1588,1048,696
6736,4276,3908,1588,1048,696
6736,4276,3912,1588,1048,696
