4656,5500,5500,1672,1144,744,23
4656,5500,5500,1672,1144,744,23
4656,5496,5496,1672,1144,744,24
4656,5496,5500,1672,1144,744,23
4656,5496,5496,1672,1144,744,24
4656,5496,5496,1672,1144,744,23
4656,5496,5500,1672,1144,744,23
4656,5496,5496,1672,1144,744,24
4656,5496,5496,1672,1144,744,23
4656,5500,5496,1672,1144,744,23
4656,5500,5500,1672,1144,740,24
4656,5500,5496,1672,1144,744,23
4652,5496,5500,1672,1144,744,23
4652,5496,5496,1672,1144,744,24
4652,5496,5500,1672,1144,740,23
4656,5500,5500,1672,1144,740,24
4656,5500,5500,1672,1144,744,23
4656,5500,5500,1672,1144,744,23
4656,5500,5500,1672,1144,744,24
4656,5508,5500,1672,1144,744,23
4660,5512,5500,1672,1144,744,23
4660,5512,5500,1672,1144,744,24
4660,5516,5504,1672,1144,744,23
4656,5512,5500,1672,1144,744,23
4656,5516,5500,1672,1144,744,24
4660,5516,5504,1672,1144,744,23
4656,5512,5500,1672,1144,744,23
4656,5508,5500,1672,1144,744,24
4652,5500,5500,1672,1144,744,23
4652,5496,5500,1672,1144,744,24
4652,5488,5492,1672,1144,744,23
4652,5484,5488,1672,1144,744,23
4652,5480,5488,1672,1144,744,24
4648,5476,5480,1672,1144,744,23
4652,5476,5484,1672,1144,744,23
4652,5476,5480,1672,1144,744,24
4652,5476,5484,1672,1144,744,23
4656,5484,5488,1672,1144,744,23
4656,5480,5488,1672,1144,744,24
4656,5480,5488,1672,1144,744,23
4652,5476,5484,1672,1144,744,23
4656,5476,5488,1672,1144,744,24
4652,5476,5484,1672,1144,744,23
4652,5476,5484,1676,1148,744,23
4656,5476,5488,1672,1144,744,24
4652,5476,5484,1676,1148,744,23
4656,5480,5488,1676,1144,744,24
4656,5480,5492,1676,1148,744,23
4656,5480,5492,1672,1144,744,23
4656,5484,5496,1676,1148,744,24
4656,5488,5500,1676,1148,744,23
4656,5492,5500,1676,1148,744,23
4660,5492,5500,1676,1148,744,24
4656,5492,5500,1676,1148,744,23
4656,5488,5500,1672,1148,744,23
4656,5484,5488,1676,1148,744,24
4652,5476,5484,1672,1148,744,23
4652,5468,5480,1672,1144,744,23
4648,5460,5472,1676,1148,744,24
4652,5460,5472,1672,1148,744,23
4652,5456,5468,1672,1148,744,24
4652,5456,5468,1672,1144,744,23
4652,5452,5468,1672,1144,744,23
4652,5456,5468,1672,1144,744,24
4652,5452,5468,1672,1144,744,23
4652,5452,5468,1672,1144,744,23
4652,5456,5468,1672,1144,744,24
4656,5456,5472,1672,1144,744,23
4652,5456,5468,1672,1144,744,23
4652,5456,5468,1672,1144,744,24
4656,5460,5472,1672,1144,744,23
4656,5460,5472,1672,1144,744,24
4652,5460,5468,1672,1144,744,23
4656,5464,5472,1672,1144,744,23
4656,5464,5476,1672,1144,744,24
4656,5468,5480,1672,1148,744,23
4660,5472,5484,1672,1144,744,23
4660,5476,5488,1676,1148,744,24
4660,5476,5488,1672,1148,744,23
4660,5480,5488,1672,1144,744,23
4656,5476,5488,1672,1144,744,24
4656,5476,5488,1672,1144,744,23
4660,5476,5484,1672,1144,744,23
4656,5468,5480,1672,1144,744,24
4652,5456,5472,1672,1144,744,23
4652,5452,5464,1672,1144,744,24
4652,5448,5464,1676,1148,744,23
4648,5440,5456,1672,1144,744,23
4648,5432,5456,1672,1144,744,24
4652,5432,5456,1672,1144,744,23
4652,5432,5452,1672,1144,744,23
4648,5424,5448,1672,1144,744,24
4652,5428,5452,1672,1144,744,23
4644,5420,5444,1672,1144,744,23
4648,5424,5448,1672,1144,744,24
4648,5420,5444,1672,1144,744,23
4644,5420,5444,1672,1144,744,23
4644,5420,5444,1672,1144,744,24
4648,5420,5444,1672,1144,744,23
4644,5416,5440,1672,1144,744,23
4644,5420,5444,1672,1144,744,24
4648,5428,5448,1672,1144,744,23
4652,5428,5452,1672,1144,744,24
4648,5432,5452,1672,1144,744,23
4652,5436,5456,1672,1144,744,23
4652,5440,5460,1672,1144,744,24
4652,5440,5460,1672,1144,744,23
4656,5444,5464,1672,1144,744,23
4656,5444,5464,1672,1144,744,24
4648,5436,5456,1672,1144,744,23
4648,5432,5452,1672,1144,744,23
4648,5428,5452,1672,1144,744,24
4648,5416,5444,1672,1144,744,23
4648,5416,5440,1672,1144,744,24
4648,5408,5436,1672,1144,744,23
4644,5400,5432,1672,1144,744,23
4648,5400,5428,1672,1144,744,24
4644,5396,5428,1672,1144,744,23
4644,5396,5428,1672,1144,744,23
4644,5396,5428,1672,1144,744,24
4648,5400,5432,1672,1144,744,23
4644,5396,5428,1672,1144,744,23
4648,5400,5428,1672,1144,744,24
4648,5400,5432,1672,1144,744,23
4648,5400,5432,1672,1144,744,23
4648,5400,5428,1672,1144,744,24
4648,5404,5432,1672,1144,744,23
4648,5404,5436,1672,1144,744,23
4648,5408,5436,1672,1144,740,24
4656,5416,5444,1672,1144,744,23
4656,5416,5444,1672,1144,744,24
4656,5420,5448,1672,1144,740,23
4652,5416,5444,1672,1144,740,23
4652,5420,5448,1672,1144,740,24
4652,5424,5448,1672,1144,744,23
4652,5424,5448,1672,1144,744,23
4652,5424,5448,1672,1144,744,24
4652,5420,5448,1672,1144,744,23
4648,5412,5440,1672,1144,744,23
4648,5404,5436,1672,1144,744,24
4648,5396,5428,1672,1144,744,23
4648,5392,5424,1672,1144,740,23
4644,5384,5420,1672,1144,744,24
4644,5380,5420,1672,1144,744,23
4644,5376,5416,1672,1144,744,24
4644,5376,5416,1672,1144,740,23
4644,5376,5416,1672,1144,740,23
4648,5380,5420,1672,1144,740,24
4644,5380,5420,1672,1144,740,23
4648,5380,5420,1672,1144,740,23
4644,5380,5420,1672,1144,740,24
4644,5376,5420,1672,1144,740,23
4648,5380,5420,1672,1140,740,23
4644,5380,5420,1672,1144,740,24
4644,5380,5420,1672,1144,740,23
4644,5384,5420,1672,1144,740,23
4648,5388,5424,1672,1144,740,24
4652,5392,5428,1672,1144,740,23
4652,5396,5432,1672,1144,740,24
4652,5400,5436,1672,1144,744,23
4652,5404,5440,1672,1144,744,23
4652,5408,5440,1672,1144,740,24
4652,5408,5440,1672,1144,744,23
4652,5412,5444,1672,1144,740,23
4652,5412,5444,1672,1144,740,24
4656,5412,5444,1672,1144,740,23
4656,5404,5440,1672,1144,740,23
4652,5396,5436,1672,1144,740,24
4652,5388,5428,1672,1144,740,23
4648,5380,5424,1672,1144,740,24
4648,5372,5416,1672,1140,740,23
4648,5372,5416,1672,1140,740,23
4648,5368,5412,1672,1140,740,24
4648,5368,5416,1672,1144,740,23
4648,5368,5412,1672,1140,740,23
4648,5368,5416,1672,1140,740,24
4648,5368,5416,1672,1140,740,23
4648,5372,5416,1672,1140,740,23
4648,5372,5420,1672,1144,740,24
4648,5372,5416,1672,1140,740,23
4652,5376,5420,1672,1140,740,23
4648,5376,5420,1672,1140,740,24
4648,5376,5420,1672,1140,740,23
4648,5380,5420,1672,1140,740,24
4652,5384,5428,1672,1144,740,23
4652,5388,5428,1672,1140,740,23
4652,5392,5432,1672,1140,740,24
4652,5396,5436,1672,1140,740,23
4652,5396,5436,1672,1140,740,23
4656,5404,5440,1672,1140,740,24
4652,5404,5440,1672,1140,740,23
4656,5408,5444,1672,1140,740,23
4656,5412,5448,1672,1140,740,24
4656,5416,5448,1672,1140,740,23
4656,5408,5444,1672,1140,740,23
4656,5404,5440,1672,1140,740,24
4652,5396,5436,1672,1140,740,23
4652,5388,5428,1672,1140,740,23
4648,5380,5424,1672,1140,740,24
4648,5372,5420,1672,1140,740,23
4648,5368,5416,1672,1140,740,24
4644,5360,5412,1672,1140,740,23
4644,5360,5412,1672,1140,740,23
4648,5364,5412,1672,1140,740,24
4648,5364,5412,1672,1140,740,23
4648,5368,5416,1672,1140,740,23
4648,5368,5416,1672,1140,740,24
4648,5368,5416,1672,1140,740,23
4648,5368,5420,1672,1140,740,23
4648,5368,5416,1672,1140,740,24
4648,5372,5420,1672,1140,740,23
4648,5376,5420,1672,1140,740,23
4652,5376,5424,1672,1140,740,24
4652,5380,5428,1672,1140,740,23
4648,5380,5424,1672,1140,740,24
4648,5384,5428,1672,1140,740,23
4648,5384,5432,1672,1140,740,23
4652,5388,5432,1672,1140,740,24
4652,5396,5436,1672,1140,740,23
4652,5396,5436,1672,1140,740,23
4652,5400,5440,1672,1140,740,24
4652,5400,5440,1672,1140,740,23
4652,5404,5444,1676,1140,740,23
4652,5400,5440,1676,1140,740,24
4652,5396,5436,1672,1140,740,23
4648,5384,5428,1672,1140,740,23
4648,5380,5428,1672,1140,740,24
4644,5368,5420,1672,1140,740,23
4644,5364,5416,1672,1140,740,24
4644,5364,5416,1672,1140,740,23
4640,5356,5408,1672,1140,740,23
4640,5356,5408,1672,1140,740,24
4644,5356,5412,1672,1140,740,23
4644,5360,5412,1672,1140,740,23
4644,5360,5412,1672,1140,740,24
4644,5360,5412,1672,1140,740,23
4640,5360,5408,1672,1140,740,23
4640,5360,5412,1672,1140,740,24
4644,5364,5416,1672,1140,740,23
4640,5364,5412,1672,1140,740,24
4644,5364,5416,1672,1140,740,23
4644,5368,5416,1672,1140,740,23
4644,5372,5420,1672,1140,740,24
4644,5372,5420,1672,1140,740,23
4644,5376,5424,1672,1140,740,23
4644,5380,5424,1676,1140,740,24
4644,5384,5428,1672,1140,740,23
4644,5384,5432,1672,1140,740,23
4648,5392,5432,1672,1140,740,24
4648,5396,5436,1672,1140,740,23
4648,5400,5440,1672,1140,740,23
4648,5400,5440,1672,1140,740,24
4652,5404,5440,1672,1140,740,23
4648,5396,5436,1672,1140,740,23
4648,5388,5432,1672,1140,740,24
4648,5380,5424,1672,1140,740,23
4644,5376,5424,1672,1140,740,24
4644,5368,5416,1672,1140,740,23
4644,5368,5420,1672,1140,740,23
4648,5368,5416,1672,1140,740,24
4648,5368,5420,1672,1140,740,23
4648,5368,5420,1672,1140,740,23
4644,5368,5416,1672,1140,740,24
4648,5372,5420,1672,1140,740,23
4648,5372,5420,1672,1140,740,23
4648,5376,5424,1672,1140,740,24
4652,5380,5428,1672,1140,740,23
4652,5380,5428,1672,1140,740,24
4652,5384,5428,1672,1140,740,23
4648,5384,5428,1672,1140,740,23
4652,5388,5432,1672,1140,740,24
4652,5392,5436,1672,1140,740,23
4652,5396,5436,1672,1140,740,23
4652,5400,5440,1672,1140,740,24
4656,5404,5444,1672,1140,740,23
4652,5404,5444,1672,1140,740,23
4652,5412,5448,1672,1140,740,24
4656,5416,5456,1672,1140,740,23
4660,5424,5460,1672,1140,740,23
4664,5432,5464,1672,1140,740,24
4660,5428,5460,1672,1140,740,23
4660,5428,5464,1672,1140,740,23
4656,5424,5456,1672,1140,740,24
4660,5416,5456,1672,1140,740,23
4652,5404,5444,1672,1140,740,24
4652,5400,5440,1672,1140,740,23
4652,5392,5436,1676,1140,740,23
4648,5388,5432,1672,1140,740,24
4652,5388,5432,1672,1140,740,23
4648,5384,5428,1672,1140,740,23
4648,5384,5428,1672,1140,740,24
4652,5388,5432,1672,1140,740,23
4652,5388,5432,1672,1140,740,23
4652,5392,5436,1672,1140,740,24
4652,5392,5436,1672,1140,740,23
4656,5396,5436,1672,1140,740,23
4652,5396,5436,1676,1140,740,24
4656,5400,5440,1672,1140,740,23
4656,5400,5440,1672,1140,740,24
4652,5400,5440,1672,1140,740,23
4656,5408,5444,1676,1140,740,23
4652,5408,5444,1676,1140,740,24
4656,5412,5448,1672,1140,740,23
4656,5416,5452,1676,1140,740,23
4660,5420,5456,1676,1140,740,24
4660,5428,5460,1672,1140,740,23
4664,5432,5464,1672,1140,740,23
4664,5436,5468,1676,1140,740,24
4664,5440,5468,1676,1140,740,23
4664,5440,5468,1676,1140,740,23
4664,5440,5472,1676,1140,740,24
4660,5440,5468,1676,1144,740,23
4664,5436,5464,1676,1140,740,24
4660,5428,5460,1676,1140,740,23
4660,5416,5452,1676,1140,740,23
4656,5412,5448,1676,1140,740,24
4656,5408,5444,1672,1140,740,23
4656,5404,5440,1676,1140,740,23
4652,5396,5436,1672,1140,740,24
4656,5400,5440,1672,1140,740,23
4652,5396,5436,1672,1140,740,23
4656,5400,5440,1676,1140,740,24
4656,5400,5440,1676,1140,740,23
4660,5404,5444,1672,1140,740,24
4656,5404,5444,1672,1140,740,23
4656,5404,5444,1672,1140,740,23
4656,5404,5444,1672,1140,740,24
4656,5408,5444,1676,1140,740,23
4656,5408,5448,1672,1140,740,23
4656,5412,5448,1672,1140,740,24
4660,5416,5452,1672,1140,740,23
4660,5420,5452,1676,1140,740,23
4664,5424,5460,1676,1140,740,24
4664,5432,5464,1676,1144,740,23
4660,5428,5460,1676,1144,740,23
4660,5432,5464,1676,1144,740,24
4660,5436,5464,1676,1140,740,23
4664,5444,5472,1676,1144,740,23
4664,5444,5472,1676,1144,740,24
4664,5448,5472,1676,1144,740,23
4668,5452,5476,1676,1144,740,24
4664,5444,5472,1676,1144,740,23
4664,5440,5468,1676,1144,740,23
4660,5432,5460,1676,1144,740,24
4660,5424,5456,1676,1144,740,23
4660,5416,5452,1676,1144,744,23
4660,5412,5448,1676,1144,740,24
4656,5408,5444,1676,1144,740,23
4656,5408,5444,1676,1144,744,23
4656,5404,5444,1676,1144,740,24
4660,5408,5444,1676,1144,740,23
4656,5408,5444,1676,1140,740,23
4656,5408,5444,1672,1140,740,24
4656,5408,5444,1676,1140,740,23
4656,5408,5444,1676,1140,740,24
4660,5412,5448,1676,1144,740,23
4660,5416,5448,1676,1140,740,23
4660,5416,5448,1672,1140,740,24
4660,5416,5452,1676,1140,740,23
4664,5424,5456,1676,1144,740,23
4660,5416,5452,1676,1144,740,24
4660,5420,5452,1676,1144,740,23
4660,5424,5456,1676,1144,740,23
4660,5424,5456,1676,1144,740,24
4660,5428,5456,1676,1144,740,23
4660,5432,5460,1676,1144,740,23
4660,5436,5464,1676,1144,740,24
4660,5436,5464,1676,1144,740,23
4664,5444,5468,1676,1144,740,24
4664,5444,5468,1676,1144,740,23
4660,5440,5468,1676,1144,744,23
4660,5440,5464,1676,1144,744,24
4664,5436,5464,1676,1144,740,23
4656,5424,5456,1676,1144,744,23
4656,5420,5452,1676,1144,744,24
4656,5412,5448,1676,1144,740,23
4652,5404,5440,1676,1144,744,23
4652,5400,5436,1676,1144,744,24
4652,5400,5436,1676,1144,740,23
4652,5396,5432,1676,1144,744,23
4652,5396,5432,1676,1144,740,24
4652,5400,5436,1676,1144,744,23
4652,5400,5436,1676,1144,744,24
4652,5400,5436,1676,1144,740,23
4652,5396,5432,1676,1144,740,23
4652,5400,5436,1676,1144,744,24
4656,5404,5440,1676,1144,740,23
4656,5404,5440,1676,1144,744,23
4652,5404,5440,1676,1144,744,24
4652,5408,5440,1676,1144,744,23
4656,5408,5444,1676,1144,744,23
4656,5416,5448,1676,1144,744,24
4652,5412,5444,1676,1144,744,23
4656,5420,5448,1676,1144,740,23
4652,5420,5448,1676,1144,744,24
4656,5424,5456,1676,1144,744,23
4656,5428,5456,1676,1144,744,24
4656,5428,5456,1676,1144,744,23
4656,5432,5460,1676,1144,744,23
4656,5432,5460,1676,1144,744,24
4656,5432,5456,1676,1144,744,23
4656,5424,5452,1676,1144,744,23
4652,5420,5448,1676,1144,744,24
4652,5408,5440,1676,1144,744,23
4652,5404,5436,1676,1144,744,23
4652,5400,5436,1676,1144,744,24
4652,5400,5432,1676,1144,744,23
4648,5392,5428,1676,1144,744,23
4652,5396,5432,1676,1144,744,24
4652,5400,5436,1676,1144,744,23
4652,5400,5436,1676,1144,744,24
4652,5404,5436,1676,1144,744,23
4652,5404,5436,1676,1144,744,23
4652,5404,5436,1676,1144,744,24
4656,5408,5440,1676,1144,744,23
4656,5408,5440,1676,1144,744,23
4652,5408,5440,1676,1144,744,24
4652,5408,5440,1676,1144,744,23
4652,5412,5444,1676,1144,744,23
4656,5420,5448,1676,1144,744,24
4652,5416,5448,1676,1144,744,23
4656,5424,5448,1676,1144,744,23
4652,5424,5452,1676,1144,744,24
4656,5432,5452,1676,1144,744,23
4660,5436,5460,1676,1144,744,24
4660,5440,5460,1676,1148,744,23
4660,5440,5464,1676,1144,744,23
4660,5444,5464,1676,1144,744,24
4660,5448,5468,1676,1148,744,23
4660,5444,5464,1676,1148,744,23
4656,5440,5460,1676,1148,744,24
4656,5432,5452,1676,1148,744,23
4660,5428,5452,1676,1148,744,23
4656,5420,5448,1676,1148,744,24
4652,5412,5436,1676,1144,744,23
4652,5408,5436,1676,1144,744,23
4652,5408,5436,1676,1144,744,24
4652,5404,5436,1676,1144,744,23
4652,5408,5436,1676,1144,744,23
4652,5408,5436,1676,1144,744,24
4652,5408,5436,1676,1144,744,23
4652,5408,5436,1676,1144,744,24
4652,5412,5440,1676,1144,744,23
4652,5412,5440,1676,1148,744,23
4652,5416,5440,1676,1144,744,24
4652,5416,5444,1676,1144,744,23
4652,5416,5444,1676,1148,744,23
4652,5420,5444,1676,1144,744,24
4656,5424,5448,1676,1148,744,23
4656,5424,5448,1680,1148,744,23
4656,5428,5452,1676,1148,744,24
4656,5432,5456,1676,1148,744,23
4656,5436,5456,1676,1148,744,23
4656,5440,5460,1676,1148,744,24
4660,5444,5460,1676,1148,744,23
4660,5448,5464,1676,1148,744,24
4660,5452,5468,1676,1148,744,23
4664,5456,5472,1676,1148,744,23
4660,5452,5468,1676,1148,744,24
4664,5452,5472,1676,1148,744,23
4660,5444,5464,1676,1148,744,23
4656,5432,5452,1676,1148,744,24
4652,5424,5444,1676,1148,744,23
4652,5416,5440,1676,1148,744,23
4648,5412,5436,1676,1148,744,24
4648,5408,5436,1676,1148,744,23
4648,5404,5432,1676,1148,744,23
4648,5404,5432,1676,1148,744,24
4648,5404,5432,1676,1148,744,23
4652,5408,5432,1676,1148,744,24
4652,5408,5436,1676,1148,744,23
4652,5408,5432,1676,1148,744,23
4652,5412,5436,1676,1148,744,24
4648,5408,5432,1676,1148,744,23
4652,5412,5436,1676,1148,744,23
4648,5412,5432,1676,1148,744,24
4652,5416,5440,1676,1148,744,23
4652,5416,5440,1676,1148,744,23
4648,5416,5440,1676,1148,744,24
4652,5424,5444,1676,1148,744,23
4656,5428,5448,1676,1148,744,23
4656,5432,5452,1676,1148,744,24
4656,5436,5452,1676,1148,744,23
4656,5432,5452,1676,1148,744,24
4656,5440,5456,1676,1148,744,23
4656,5440,5456,1676,1148,744,23
4660,5448,5460,1676,1148,744,24
4660,5448,5464,1676,1148,744,23
4656,5440,5460,1676,1148,744,23
4656,5436,5456,1676,1148,744,24
4652,5428,5448,1676,1148,744,23
4652,5416,5440,1676,1148,744,23
4652,5412,5436,1676,1148,744,24
4652,5408,5432,1676,1148,744,23
4652,5404,5432,1676,1148,744,23
4648,5396,5428,1676,1148,744,24
4648,5396,5424,1676,1148,744,23
4644,5392,5420,1676,1148,744,24
4644,5392,5420,1676,1148,744,23
4648,5396,5424,1676,1148,744,23
4644,5396,5424,1676,1148,744,24
4648,5396,5424,1676,1148,744,23
4648,5396,5424,1676,1148,744,23
4644,5396,5424,1676,1148,744,24
4648,5396,5424,1676,1148,744,23
4644,5396,5424,1676,1148,744,23
4644,5396,5424,1676,1148,744,24
4644,5396,5424,1676,1148,744,23
4644,5400,5424,1676,1148,744,23
4644,5404,5428,1676,1148,744,24
4648,5408,5432,1676,1148,744,23
4648,5408,5432,1676,1148,744,23
4648,5412,5436,1676,1148,744,24
4648,5412,5436,1676,1148,744,23
4652,5424,5444,1676,1148,744,24
4652,5420,5444,1676,1148,744,23
4648,5420,5440,1676,1148,744,23
4648,5416,5436,1676,1148,744,24
4648,5408,5432,1676,1148,744,23
4644,5400,5428,1676,1148,744,23
4640,5392,5420,1676,1148,744,24
4640,5384,5412,1676,1148,744,23
4640,5380,5412,1676,1148,744,23
4640,5376,5408,1676,1148,744,24
4636,5372,5404,1676,1148,744,23
4636,5372,5404,1676,1148,744,23
4636,5372,5400,1676,1148,744,24
4636,5372,5404,1676,1148,744,23
4636,5368,5400,1676,1148,744,24
4636,5372,5400,1676,1148,744,23
4640,5376,5408,1676,1148,744,23
4640,5380,5408,1676,1148,744,24
4636,5380,5408,1676,1148,744,23
4636,5380,5408,1676,1148,744,23
4636,5376,5404,1676,1148,744,24
4636,5380,5408,1676,1148,744,23
4636,5384,5412,1676,1148,744,23
4636,5388,5412,1676,1148,744,24
4636,5392,5416,1676,1148,744,23
4636,5396,5416,1676,1148,744,23
4640,5400,5424,1676,1148,744,24
4640,5400,5424,1676,1148,744,23
4644,5408,5428,1676,1148,744,24
4644,5412,5432,1676,1148,744,23
4648,5420,5436,1676,1148,744,23
4648,5420,5440,1676,1148,744,24
4648,5416,5436,1676,1148,744,23
4644,5412,5432,1676,1148,744,23
4648,5408,5428,1676,1148,744,24
4644,5400,5424,1676,1148,744,23
4640,5392,5416,1676,1148,744,23
4640,5388,5412,1676,1148,744,24
4640,5384,5408,1676,1148,744,23
4640,5380,5408,1676,1148,744,23
4636,5376,5404,1676,1148,744,24
4636,5376,5404,1676,1148,744,23
4636,5376,5404,1676,1148,744,24
4636,5380,5408,1676,1148,744,23
4640,5380,5408,1676,1148,744,23
4640,5380,5408,1676,1148,744,24
4636,5384,5408,1676,1148,744,23
4636,5384,5408,1676,1148,744,23
4636,5384,5408,1676,1148,744,24
4636,5384,5408,1676,1148,744,23
4636,5388,5412,1676,1148,744,23
4640,5396,5416,1676,1148,744,24
4644,5400,5420,1676,1148,744,23
4640,5400,5420,1676,1148,744,23
4640,5400,5420,1676,1148,744,24
4644,5408,5424,1676,1148,744,23
4644,5408,5424,1676,1148,744,24
4644,5416,5428,1676,1148,744,23
4644,5420,5432,1676,1148,744,23
4644,5420,5436,1676,1148,744,24
4648,5424,5436,1676,1148,744,23
4644,5424,5436,1676,1148,744,23
4644,5420,5436,1676,1148,744,24
4648,5420,5432,1676,1148,744,23
4644,5408,5428,1680,1148,744,23
4640,5400,5420,1676,1148,744,24
4640,5396,5416,1676,1148,744,23
4636,5388,5408,1676,1148,744,23
4636,5384,5408,1676,1148,744,24
4636,5384,5404,1676,1148,744,23
4636,5380,5404,1676,1148,744,24
4636,5380,5404,1676,1148,744,23
4636,5380,5404,1676,1148,744,23
4636,5384,5404,1676,1148,744,24
4640,5384,5408,1676,1148,744,23
4636,5384,5404,1676,1148,744,23
4640,5388,5408,1676,1148,744,24
4640,5388,5408,1676,1148,744,23
4640,5392,5416,1676,1148,744,23
4640,5396,5416,1676,1148,744,24
4644,5400,5420,1676,1148,744,23
4640,5400,5420,1676,1148,744,23
4644,5404,5420,1676,1148,744,24
4644,5404,5424,1676,1148,744,23
4644,5408,5424,1676,1148,744,23
4644,5412,5424,1676,1148,744,24
4644,5416,5428,1676,1148,744,23
4644,5416,5428,1676,1148,744,24
4648,5424,5436,1676,1148,744,23
4648,5424,5436,1676,1148,744,23
4648,5428,5440,1676,1148,744,24
4648,5428,5440,1676,1148,744,23
4648,5428,5440,1676,1148,744,23
4644,5416,5432,1676,1148,744,24
4644,5412,5428,1676,1148,744,23
4640,5404,5420,1676,1148,744,23
4640,5396,5416,1676,1148,744,24
4640,5392,5408,1676,1148,744,23
4636,5384,5404,1676,1148,744,23
4636,5384,5404,1676,1148,744,24
4636,5384,5404,1676,1148,744,23
4640,5388,5408,1676,1148,744,24
4636,5384,5404,1676,1148,744,23
4640,5388,5408,1676,1148,744,23
4640,5392,5412,1676,1148,744,24
4640,5392,5412,1676,1148,744,23
4632,5384,5404,1676,1148,744,23
4636,5388,5408,1676,1148,744,24
4636,5388,5408,1676,1148,744,23
4636,5392,5408,1676,1148,744,23
4636,5396,5412,1676,1148,744,24
4640,5400,5416,1676,1148,744,23
4640,5400,5416,1676,1148,744,23
4640,5404,5420,1676,1148,744,24
4640,5404,5420,1676,1148,744,23
4640,5408,5424,1676,1148,744,24
4644,5416,5428,1676,1148,744,23
4644,5416,5432,1676,1148,744,23
4644,5424,5432,1676,1148,744,24
4644,5420,5432,1676,1148,744,23
4648,5428,5440,1676,1148,744,23
4648,5428,5440,1676,1148,744,24
4644,5424,5436,1676,1148,744,23
4644,5420,5432,1676,1148,744,23
4640,5408,5424,1676,1148,744,24
4640,5400,5416,1676,1148,744,23
4636,5392,5412,1676,1148,744,23
4636,5388,5408,1676,1148,744,24
4636,5384,5408,1676,1148,744,23
4632,5380,5400,1676,1148,744,24
4636,5384,5408,1676,1148,744,23
4636,5384,5408,1676,1148,744,23
4636,5384,5404,1676,1148,744,24
4632,5384,5404,1676,1148,744,23
4632,5384,5404,1676,1148,744,23
4636,5384,5404,1676,1148,744,24
4632,5380,5400,1676,1148,744,23
4632,5380,5404,1676,1148,744,23
4632,5384,5404,1676,1148,744,24
4632,5388,5408,1676,1148,744,23
4632,5384,5404,1676,1148,744,23
4632,5388,5408,1676,1148,744,24
4636,5392,5408,1676,1148,744,23
4632,5392,5408,1676,1148,744,24
4636,5396,5412,1676,1148,744,23
4636,5400,5416,1676,1148,744,23
4640,5404,5420,1676,1148,744,24
4640,5408,5424,1676,1148,744,23
4640,5412,5424,1676,1148,744,23
4640,5412,5424,1676,1148,744,24
4640,5412,5424,1676,1148,744,23
4636,5412,5424,1676,1148,744,23
4636,5404,5420,1676,1148,744,24
4640,5400,5420,1676,1148,744,23
4636,5392,5412,1676,1148,744,23
4636,5388,5408,1676,1148,744,24
4632,5384,5404,1676,1148,744,23
4628,5372,5396,1676,1148,744,23
4628,5368,5392,1676,1148,744,24
4628,5368,5392,1676,1148,744,23
4628,5368,5392,1676,1148,744,24
4624,5368,5392,1676,1148,744,23
4628,5372,5396,1676,1148,744,23
4628,5372,5392,1676,1148,744,24
4628,5372,5396,1676,1148,744,23
4628,5372,5396,1676,1148,744,23
4628,5376,5396,1676,1148,744,24
4632,5380,5404,1676,1148,744,23
4632,5384,5404,1676,1148,744,23
4628,5384,5400,1676,1148,744,24
4632,5388,5408,1676,1148,744,23
4632,5388,5408,1676,1148,744,23
4632,5392,5412,1676,1148,744,24
4632,5396,5412,1676,1148,744,23
4632,5400,5416,1676,1148,744,24
4640,5408,5424,1676,1148,744,23
4640,5416,5428,1676,1148,744,23
4640,5420,5432,1676,1148,744,24
4644,5420,5432,1676,1148,744,23
4640,5424,5432,1676,1148,744,23
4640,5424,5432,1676,1148,744,24
4640,5420,5432,1676,1148,744,23
4640,5416,5428,1676,1148,744,23
4640,5412,5424,1676,1148,744,24
4636,5400,5416,1676,1148,744,23
4632,5396,5412,1680,1152,744,23
4632,5388,5408,1676,1148,744,24
4632,5384,5404,1676,1148,744,23
4632,5384,5404,1676,1148,744,24
4632,5384,5400,1676,1148,744,23
4628,5384,5404,1676,1148,744,23
4632,5388,5404,1676,1148,744,24
4632,5388,5404,1676,1148,744,23
4632,5392,5408,1676,1148,744,23
4632,5392,5408,1676,1148,744,24
4632,5392,5408,1676,1148,744,23
4632,5396,5412,1676,1148,744,23
4636,5396,5412,1676,1148,744,24
4636,5404,5416,1676,1148,744,23
4636,5404,5416,1676,1148,744,23
4636,5408,5420,1676,1148,744,24
4640,5412,5424,1676,1148,744,23
4640,5412,5424,1676,1148,744,24
4640,5416,5428,1676,1148,744,23
4640,5420,5432,1676,1148,744,23
4644,5424,5436,1676,1148,744,24
4644,5432,5440,1676,1148,744,23
4644,5432,5444,1676,1148,744,23
4648,5440,5448,1676,1148,744,24
4648,5440,5448,1676,1152,744,23
4648,5440,5448,1676,1148,744,23
4648,5436,5444,1676,1152,744,24
4644,5428,5436,1676,1148,744,23
4644,5420,5432,1676,1148,744,23
4640,5412,5428,1676,1152,744,24
4640,5408,5420,1676,1148,744,23
4636,5400,5416,1676,1148,744,23
4636,5396,5412,1676,1148,744,24
4636,5396,5412,1676,1148,744,23
4636,5396,5412,1676,1148,744,24
4632,5396,5412,1676,1148,744,23
4636,5396,5412,1676,1148,744,23
4636,5396,5412,1676,1148,744,24
4636,5396,5412,1676,1148,744,23
4632,5396,5412,1676,1148,744,23
4636,5400,5416,1676,1148,744,24
4636,5404,5416,1676,1148,744,23
4636,5404,5416,1676,1148,744,23
4632,5404,5416,1676,1148,744,24
4636,5408,5424,1676,1148,744,23
4640,5416,5428,1676,1148,744,24
4644,5420,5432,1676,1148,744,23
4640,5420,5432,1676,1148,744,23
4644,5428,5436,1676,1148,744,24
4644,5432,5440,1676,1148,744,23
4644,5432,5440,1676,1148,744,23
4644,5436,5440,1676,1148,744,24
4644,5440,5444,1676,1148,744,23
4644,5444,5448,1676,1148,744,23
4648,5444,5448,1676,1152,744,24
4644,5444,5448,1676,1152,744,23
4648,5440,5444,1676,1152,744,23
4644,5432,5440,1676,1152,744,24
4644,5424,5432,1676,1152,744,23
4640,5416,5428,1676,1152,744,23
4640,5412,5424,1676,1152,744,24
4636,5404,5420,1676,1152,744,23
4636,5404,5416,1676,1148,744,24
4636,5400,5416,1676,1148,744,23
4636,5404,5420,1676,1148,744,23
4636,5404,5416,1676,1148,744,24
4636,5404,5416,1676,1148,744,23
4636,5404,5416,1676,1148,744,23
4640,5408,5420,1676,1148,744,24
4636,5408,5420,1676,1148,744,23
4636,5408,5420,1676,1148,744,23
4640,5412,5424,1676,1148,744,24
4636,5412,5424,1676,1148,744,23
4636,5412,5424,1676,1148,744,24
4640,5416,5428,1676,1148,744,23
4640,5416,5428,1676,1148,744,23
4640,5424,5432,1676,1152,744,24
4640,5424,5436,1676,1148,744,23
4644,5432,5436,1676,1152,744,23
4644,5432,5440,1676,1148,744,24
4644,5440,5444,1676,1148,744,23
4644,5440,5444,1676,1148,744,23
4644,5440,5444,1676,1152,744,24
4644,5440,5444,1676,1152,744,23
4644,5444,5448,1676,1148,744,23
4644,5440,5448,1676,1152,748,24
4644,5436,5444,1676,1152,744,23
4640,5428,5436,1676,1152,744,23
4636,5416,5428,1676,1152,744,24
4636,5412,5420,1676,1152,744,23
4636,5408,5420,1676,1152,744,24
4636,5400,5416,1676,1148,744,23
4632,5396,5412,1676,1148,744,23
4636,5400,5416,1676,1148,744,24
4632,5400,5412,1676,1148,744,23
4632,5396,5412,1676,1148,744,23
4632,5396,5412,1676,1148,744,24
4636,5400,5416,1676,1148,744,23
4632,5400,5416,1676,1148,744,23
4632,5400,5412,1676,1148,744,24
4632,5400,5416,1676,1148,744,23
4636,5404,5416,1676,1148,744,23
4636,5404,5420,1676,1148,744,24
4636,5408,5420,1676,1148,744,23
4636,5408,5420,1676,1148,744,24
4636,5408,5420,1676,1152,744,23
4636,5416,5424,1676,1148,744,23
4636,5416,5428,1676,1148,744,24
4640,5420,5432,1676,1152,744,23
4644,5428,5436,1676,1148,744,23
4640,5424,5436,1676,1148,744,24
4640,5428,5436,1676,1148,744,23
4640,5432,5440,1676,1152,744,23
4640,5432,5436,1676,1148,744,24
4640,5432,5436,1676,1152,744,23
4640,5428,5436,1676,1148,744,23
4636,5416,5428,1676,1148,744,24
4632,5408,5420,1676,1148,744,23
4632,5400,5416,1676,1148,744,23
4628,5392,5408,1676,1148,744,24
4628,5392,5408,1676,1148,744,23
4628,5384,5404,1676,1148,744,24
4628,5384,5400,1676,1148,744,23
4624,5384,5400,1676,1148,744,23
4628,5388,5404,1676,1148,744,24
4628,5388,5404,1676,1148,744,23
4628,5392,5408,1676,1148,744,23
4632,5396,5408,1676,1148,744,24
4628,5392,5408,1676,1148,744,23
4628,5396,5408,1676,1148,744,23
4628,5396,5412,1676,1148,744,24
4628,5400,5412,1676,1148,744,23
4632,5404,5416,1676,1148,744,23
4632,5408,5416,1676,1148,744,24
4632,5408,5420,1676,1148,744,23
4636,5416,5424,1676,1148,744,24
4640,5420,5428,1676,1148,744,23
4640,5424,5432,1676,1148,744,23
4640,5428,5432,1676,1148,744,24
4636,5428,5432,1676,1148,744,23
4644,5436,5444,1676,1148,744,23
4640,5436,5440,1676,1148,744,24
4640,5440,5444,1676,1148,744,23
4644,5440,5444,1676,1148,744,23
4644,5436,5444,1676,1148,744,24
4640,5428,5436,1676,1148,744,23
4636,5420,5428,1676,1148,744,23
4636,5416,5424,1676,1148,744,24
4632,5404,5416,1676,1148,744,23
4632,5404,5416,1676,1148,744,24
4628,5400,5408,1676,1148,744,23
4632,5400,5412,1676,1148,744,23
4632,5400,5412,1676,1148,744,24
4632,5400,5412,1676,1148,744,23
4632,5400,5412,1676,1148,744,23
4632,5404,5416,1676,1148,744,24
4632,5404,5416,1676,1148,744,23
4632,5408,5416,1676,1148,744,23
4636,5408,5420,1676,1148,744,24
4632,5408,5416,1676,1148,744,23
4636,5412,5420,1676,1148,744,23
4636,5412,5420,1676,1148,744,24
4636,5416,5424,1676,1148,744,23
4636,5420,5424,1676,1148,744,24
4640,5424,5432,1676,1148,744,23
4640,5428,5436,1676,1148,744,23
4640,5432,5436,1676,1148,744,24
4644,5440,5444,1676,1148,744,23
4644,5440,5444,1676,1148,744,23
4644,5444,5448,1676,1148,744,24
4644,5452,5452,1676,1148,744,23
4644,5448,5448,1676,1148,744,23
4644,5452,5452,1676,1148,744,24
4644,5448,5448,1676,1148,744,23
4644,5440,5444,1676,1148,744,23
4640,5436,5440,1676,1148,744,24
4640,5428,5432,1676,1148,744,23
4636,5420,5428,1676,1148,744,24
4636,5416,5424,1676,1148,744,23
4636,5412,5420,1676,1148,744,23
4636,5408,5420,1676,1148,744,24
4636,5412,5420,1676,1148,744,23
4632,5408,5416,1676,1148,744,23
4636,5408,5416,1676,1148,744,24
4632,5408,5420,1676,1148,744,23
4636,5412,5420,1676,1148,744,23
4636,5412,5420,1676,1148,744,24
4636,5412,5420,1676,1148,744,23
4636,5416,5424,1676,1148,744,23
4640,5420,5428,1676,1148,744,24
4640,5420,5428,1676,1144,744,23
4640,5424,5428,1676,1144,744,23
4640,5428,5432,1676,1148,744,24
4640,5428,5428,1676,1148,744,23
4640,5432,5432,1676,1148,744,24
4640,5436,5436,1676,1148,744,23
4644,5440,5440,1676,1148,744,23
4644,5444,5444,1676,1148,744,24
4644,5448,5444,1676,1148,744,23
4648,5452,5452,1676,1148,744,23
4648,5456,5452,1676,1148,744,24
4648,5456,5456,1676,1148,744,23
4648,5452,5452,1676,1148,744,23
4648,5452,5448,1676,1148,744,24
4644,5444,5444,1676,1148,744,23
4644,5440,5440,1676,1148,744,24
4640,5428,5432,1676,1148,744,23
4636,5420,5428,1676,1148,744,23
4640,5420,5424,1676,1148,744,24
4636,5412,5420,1676,1148,744,23
4636,5412,5420,1676,1148,744,23
4636,5412,5420,1676,1148,744,24
4632,5408,5416,1676,1148,744,23
4636,5412,5420,1676,1144,744,23
4636,5412,5420,1676,1148,744,24
4636,5412,5420,1676,1148,744,23
4636,5416,5420,1676,1148,744,23
4636,5416,5424,1676,1148,744,24
4636,5416,5424,1676,1148,744,23
4636,5420,5424,1676,1148,744,23
4640,5424,5428,1676,1148,744,24
4644,5428,5436,1676,1148,744,23
4644,5432,5436,1676,1148,744,24
4644,5432,5436,1676,1148,744,23
4644,5436,5440,1676,1148,744,23
4644,5436,5440,1676,1148,744,24
4644,5440,5444,1676,1148,744,23
4644,5444,5444,1676,1148,744,23
4644,5448,5448,1676,1148,744,24
4644,5452,5448,1676,1148,744,23
4644,5452,5448,1676,1148,744,23
4644,5452,5448,1676,1148,744,24
4640,5444,5444,1676,1148,744,23
4640,5440,5440,1676,1148,744,23
4640,5432,5436,1676,1148,744,24
4636,5424,5428,1676,1148,744,23
4636,5416,5424,1676,1148,744,24
4636,5412,5420,1676,1148,744,23
4632,5404,5416,1676,1148,744,23
4632,5404,5412,1676,1144,744,24
4632,5404,5412,1676,1144,744,23
4628,5400,5412,1676,1144,744,23
4632,5404,5412,1676,1144,744,24
4628,5400,5412,1676,1144,744,23
4628,5404,5412,1676,1144,744,23
4628,5400,5412,1676,1148,744,24
4632,5404,5416,1676,1144,744,23
4632,5408,5416,1676,1148,744,23
4632,5408,5420,1676,1144,744,24
4632,5412,5420,1676,1144,744,23
4632,5412,5420,1676,1148,744,24
4632,5412,5420,1676,1148,744,23
4632,5412,5420,1676,1148,744,23
4632,5416,5424,1676,1148,744,24
4632,5420,5424,1676,1144,744,23
4636,5424,5432,1676,1148,744,23
4636,5428,5432,1676,1148,744,24
4640,5432,5440,1676,1148,744,23
4636,5432,5436,1676,1148,744,23
4640,5436,5440,1676,1148,744,24
4640,5436,5440,1676,1148,744,23
4636,5428,5432,1676,1148,744,23
4636,5420,5428,1676,1148,744,24
4632,5412,5424,1676,1148,744,23
4632,5404,5416,1676,1144,744,24
4628,5400,5412,1676,1148,744,23
4628,5392,5408,1676,1148,744,23
4628,5392,5404,1676,1148,744,24
4628,5388,5404,1676,1148,744,23
4624,5384,5404,1676,1144,744,23
4624,5388,5404,1676,1148,744,24
4628,5388,5404,1676,1148,744,23
4624,5388,5404,1676,1144,744,23
4628,5392,5408,1676,1148,744,24
4628,5396,5408,1676,1144,744,23
4624,5392,5404,1676,1144,744,23
4628,5396,5412,1676,1144,744,24
4628,5400,5412,1676,1144,744,23
4628,5400,5412,1672,1144,744,24
4628,5404,5412,1672,1144,744,23
4632,5408,5416,1672,1144,744,23
4632,5408,5420,1672,1144,744,24
4632,5412,5424,1676,1144,744,23
4632,5416,5424,1676,1144,744,23
4632,5420,5428,1676,1144,744,24
4636,5424,5432,1676,1148,744,23
4636,5428,5436,1676,1148,744,23
4636,5432,5436,1676,1148,744,24
4636,5432,5436,1676,1148,744,23
4632,5424,5432,1676,1148,744,23
4632,5420,5428,1676,1148,744,24
4632,5412,5420,1676,1144,744,23
4628,5400,5412,1676,1144,744,24
4628,5400,5412,1672,1144,744,23
4628,5396,5412,1676,1144,744,23
4628,5392,5404,1676,1144,744,24
4628,5392,5404,1676,1144,744,23
4628,5392,5408,1676,1144,744,23
4628,5392,5408,1676,1144,744,24
4628,5392,5408,1676,1144,744,23
4628,5396,5412,1676,1144,744,23
4628,5396,5408,1672,1144,744,24
4624,5392,5408,1676,1144,744,23
4628,5396,5408,1676,1144,744,23
4628,5400,5412,1676,1144,744,24
4632,5404,5416,1676,1144,744,23
4628,5404,5416,1676,1144,744,23
4628,5404,5416,1676,1144,744,24
4628,5408,5416,1676,1144,744,23
4636,5416,5424,1676,1144,744,24
4632,5416,5424,1672,1144,744,23
4632,5420,5428,1676,1144,744,23
4636,5424,5432,1672,1144,744,24
4636,5428,5432,1672,1144,744,23
4636,5432,5436,1676,1148,744,23
4636,5436,5440,1676,1148,744,24
4636,5436,5440,1676,1148,744,23
4636,5432,5436,1676,1148,744,23
4636,5428,5432,1676,1148,744,24
4632,5420,5424,1676,1148,744,23
4628,5412,5420,1676,1148,744,23
4628,5408,5416,1676,1148,744,24
4628,5404,5416,1676,1148,744,23
4624,5396,5408,1676,1148,744,24
4628,5392,5408,1676,1144,744,23
4624,5392,5408,1672,1144,744,23
4624,5392,5404,1672,1144,744,24
4624,5388,5404,1672,1144,744,23
4624,5392,5408,1672,1144,744,23
4628,5392,5408,1676,1144,744,24
4628,5396,5412,1676,1144,744,23
4628,5396,5412,1676,1144,744,23
4632,5404,5416,1676,1148,744,24
4632,5404,5416,1676,1144,744,23
4628,5404,5416,1676,1144,744,23
4632,5408,5416,1672,1144,744,24
4632,5412,5420,1676,1144,744,23
4636,5416,5424,1676,1144,744,24
4636,5420,5428,1676,1144,744,23
4636,5420,5428,1676,1144,744,23
4632,5424,5428,1676,1148,744,24
4636,5428,5436,1676,1148,744,23
4640,5436,5440,1676,1148,744,23
4636,5436,5440,1676,1148,744,24
4640,5440,5440,1676,1148,744,23
4636,5436,5440,1676,1148,744,23
4640,5436,5440,1676,1148,744,24
4636,5424,5432,1676,1144,744,23
4636,5420,5428,1676,1144,744,23
4628,5408,5416,1676,1144,744,24
4628,5400,5412,1676,1144,744,23
4628,5400,5412,1676,1144,744,24
4628,5396,5408,1676,1144,744,23
4624,5388,5404,1676,1144,744,23
4628,5392,5408,1676,1148,744,24
4624,5388,5404,1676,1144,744,23
4628,5392,5408,1676,1144,744,23
4624,5392,5404,1676,1148,744,24
4628,5392,5408,1676,1144,744,23
4628,5396,5408,1676,1144,744,23
4628,5392,5408,1676,1144,744,24
4628,5396,5408,1676,1144,744,23
4628,5400,5412,1676,1144,744,23
4628,5396,5412,1676,1144,744,24
4628,5400,5412,1676,1144,744,23
4628,5400,5412,1676,1148,744,24
4628,5404,5416,1676,1148,744,23
4628,5408,5416,1676,1144,744,23
4628,5412,5420,1676,1148,744,24
4632,5416,5424,1676,1148,744,23
4632,5420,5428,1676,1144,744,23
4632,5420,5428,1676,1144,744,24
4632,5424,5428,1676,1148,744,23
4632,5420,5428,1676,1148,744,23
4632,5420,5428,1676,1148,744,24
4628,5412,5420,1676,1148,744,23
4624,5404,5416,1676,1148,744,23
4624,5396,5408,1676,1148,744,24
4620,5392,5404,1676,1144,744,23
4620,5384,5400,1676,1144,744,23
4616,5376,5392,1676,1148,744,24
4620,5376,5396,1676,1144,744,23
4620,5380,5396,1676,1144,744,24
4620,5380,5396,1676,1144,744,23
4620,5380,5396,1676,1144,744,23
4616,5380,5396,1676,1144,744,24
4620,5380,5396,1676,1144,744,23
4620,5380,5396,1676,1144,744,23
4620,5384,5400,1676,1144,744,24
4620,5380,5396,1676,1144,744,23
4616,5384,5396,1676,1144,744,23
4620,5388,5404,1672,1144,744,24
4620,5388,5404,1672,1144,744,23
4620,5392,5408,1676,1144,744,23
4624,5396,5408,1676,1144,744,24
4624,5404,5412,1676,1148,744,23
4624,5404,5416,1676,1144,744,24
4628,5412,5416,1676,1144,744,23
4628,5412,5420,1676,1148,744,23
4624,5412,5420,1676,1144,744,24
4628,5420,5424,1676,1148,744,23
4628,5420,5428,1676,1148,744,23
4628,5420,5424,1676,1148,744,24
4624,5416,5420,1676,1148,744,23
4620,5404,5412,1676,1148,744,23
4620,5400,5408,1676,1148,744,24
4620,5396,5404,1676,1148,744,23
4620,5392,5404,1676,1148,744,23
4620,5388,5400,1676,1148,744,24
4620,5388,5400,1676,1144,744,23
4616,5384,5396,1676,1144,744,24
4616,5384,5396,1676,1144,744,23
4616,5384,5396,1676,1144,744,23
4620,5388,5400,1676,1144,744,24
4620,5388,5400,1672,1144,744,23
4620,5388,5400,1676,1144,744,23
4620,5396,5404,1676,1144,744,24
4620,5396,5404,1676,1144,744,23
4620,5396,5404,1676,1144,744,23
4624,5400,5408,1676,1144,744,24
4624,5404,5412,1676,1144,744,23
4624,5408,5416,1676,1144,744,23
4624,5408,5416,1676,1148,744,24
4624,5408,5416,1676,1148,744,23
4628,5416,5424,1676,1144,744,24
4628,5420,5424,1676,1148,744,23
4628,5428,5428,1676,1148,744,23
4632,5432,5432,1676,1148,744,24
4632,5436,5436,1676,1148,744,23
4628,5436,5432,1676,1148,744,23
4628,5440,5436,1676,1148,744,24
4628,5436,5436,1676,1148,744,23
4632,5436,5436,1676,1148,744,23
4624,5424,5424,1676,1148,744,24
4624,5416,5420,1676,1148,744,23
4620,5412,5416,1676,1148,744,24
4624,5408,5412,1676,1148,744,23
4620,5404,5408,1676,1148,744,23
4616,5400,5404,1676,1148,744,24
4616,5396,5404,1676,1144,744,23
4620,5400,5408,1676,1144,744,23
4620,5404,5408,1676,1144,744,24
4624,5408,5412,1676,1148,744,23
4624,5408,5412,1676,1148,744,23
4624,5408,5412,1676,1144,744,24
4624,5412,5416,1676,1148,744,23
4628,5416,5416,1676,1144,744,23
4628,5416,5420,1676,1148,744,24
4628,5420,5424,1676,1148,744,23
4628,5420,5420,1676,1148,744,23
4628,5424,5428,1676,1148,744,24
4632,5432,5432,1676,1144,744,23
4628,5428,5428,1676,1144,744,24
4628,5432,5432,1676,1144,744,23
4628,5432,5432,1676,1148,744,23
4628,5436,5432,1676,1148,744,24
4632,5444,5440,1676,1148,744,23
4632,5452,5444,1676,1148,744,23
4632,5452,5448,1676,1148,744,24
4632,5452,5448,1676,1148,744,23
4632,5452,5448,1676,1148,744,23
4628,5444,5440,1676,1148,744,24
4628,5440,5436,1676,1148,744,23
4628,5432,5432,1676,1148,744,23
4624,5428,5428,1676,1148,744,24
4624,5420,5420,1676,1148,744,23
4624,5420,5420,1676,1144,744,24
4624,5412,5416,1676,1148,744,23
4624,5412,5416,1676,1148,744,23
4624,5412,5416,1676,1144,744,24
4620,5412,5412,1676,1148,744,23
4624,5416,5416,1676,1144,744,23
4624,5416,5420,1672,1144,744,24
4624,5416,5420,1676,1144,744,23
4624,5420,5420,1676,1148,744,23
4628,5420,5424,1676,1148,744,24
4624,5420,5424,1676,1148,744,23
4624,5420,5420,1676,1144,744,24
4624,5424,5424,1672,1144,744,23
4628,5428,5428,1676,1144,744,23
4628,5428,5428,1676,1148,744,24
4628,5432,5432,1676,1144,744,23
4628,5436,5436,1676,1148,744,23
4628,5440,5436,1676,1148,744,24
4632,5448,5440,1676,1148,744,23
4632,5452,5444,1676,1148,744,23
4632,5452,5444,1676,1148,744,24
4632,5456,5448,1676,1148,744,23
4632,5460,5448,1676,1148,744,23
4632,5460,5448,1676,1148,744,24
4632,5456,5448,1676,1148,744,23
4632,5456,5448,1676,1148,744,23
4632,5444,5440,1676,1148,744,24
4628,5436,5436,1676,1148,744,23
4628,5432,5428,1676,1148,744,24
4628,5428,5428,1676,1148,744,23
4624,5424,5424,1676,1148,744,23
4624,5416,5420,1672,1144,744,24
4624,5416,5420,1672,1144,744,23
4624,5416,5420,1676,1148,744,23
4624,5416,5420,1672,1144,744,24
4620,5416,5416,1672,1144,744,23
4624,5416,5420,1672,1144,744,23
4624,5420,5420,1676,1144,744,24
4624,5416,5416,1676,1144,744,23
4620,5416,5416,1672,1144,744,23
4624,5416,5420,1676,1144,744,24
4620,5416,5416,1676,1144,744,23
4624,5420,5424,1676,1144,744,24
4628,5428,5424,1676,1144,744,23
4628,5428,5428,1676,1144,744,23
4624,5432,5428,1676,1148,744,24
4624,5432,5432,1676,1144,744,23
4624,5432,5432,1676,1144,744,23
4628,5440,5436,1676,1144,744,24
4628,5440,5436,1676,1148,744,23
4628,5440,5436,1676,1148,744,23
4628,5448,5440,1676,1148,744,24
4628,5448,5440,1676,1148,744,23
4628,5448,5444,1676,1148,744,23
4628,5448,5444,1676,1148,744,24
4628,5444,5440,1676,1148,744,23
4624,5432,5428,1676,1148,744,24
4620,5424,5424,1676,1148,744,23
4620,5416,5420,1676,1144,744,23
4620,5412,5416,1676,1144,744,24
4616,5404,5412,1676,1144,744,23
4616,5400,5408,1676,1144,744,23
4616,5400,5408,1676,1144,744,24
4616,5400,5408,1676,1144,744,23
4616,5400,5408,1676,1144,744,23
4616,5400,5408,1676,1144,744,24
4620,5400,5408,1676,1148,744,23
4616,5400,5408,1672,1144,744,23
4616,5400,5408,1672,1144,744,24
4616,5396,5408,1676,1144,744,23
4616,5400,5408,1676,1144,744,24
4616,5400,5408,1676,1144,744,23
4616,5404,5408,1676,1144,744,23
4620,5404,5412,1676,1144,744,24
4620,5408,5412,1676,1144,744,23
4616,5408,5416,1676,1144,744,23
4620,5416,5420,1672,1144,744,24
4620,5416,5420,1672,1144,744,23
4620,5420,5424,1676,1148,744,23
4620,5420,5424,1676,1148,744,24
4620,5424,5428,1676,1144,744,23
4620,5424,5424,1676,1148,744,23
4620,5428,5428,1676,1144,744,24
4624,5432,5432,1676,1148,744,23
4620,5428,5432,1676,1148,744,24
4624,5424,5428,1676,1148,744,23
4620,5416,5420,1676,1148,744,23
4616,5408,5416,1676,1148,744,24
4612,5400,5408,1676,1144,744,23
4608,5388,5400,1676,1148,744,23
4612,5388,5400,1676,1148,744,24
4612,5384,5396,1676,1144,744,23
4612,5384,5396,1676,1144,744,23
4612,5384,5396,1676,1144,744,24
4612,5384,5396,1676,1144,744,23
4612,5388,5396,1676,1144,744,24
4612,5388,5396,1676,1144,744,23
4612,5388,5400,1672,1144,744,23
4612,5388,5400,1672,1144,744,24
4616,5388,5400,1672,1144,744,23
4612,5388,5400,1672,1144,744,23
4616,5392,5400,1672,1144,744,24
4616,5396,5408,1672,1144,744,23
4620,5400,5408,1672,1144,744,23
4620,5404,5412,1672,1144,744,24
4620,5408,5416,1672,1144,744,23
4620,5412,5416,1672,1144,744,23
4624,5416,5424,1676,1144,744,24
4624,5420,5424,1676,1144,744,23
4624,5424,5424,1676,1144,744,23
4624,5424,5424,1672,1144,744,24
4624,5428,5432,1672,1144,744,23
4624,5432,5432,1676,1148,744,24
4624,5432,5432,1676,1144,744,23
4624,5432,5432,1676,1144,744,23
4624,5424,5424,1676,1144,744,24
4620,5416,5420,1676,1148,744,23
4620,5408,5416,1676,1148,744,23
4616,5400,5408,1676,1144,744,24
4616,5396,5404,1676,1148,744,23
4616,5392,5400,1676,1144,744,23
4616,5388,5400,1676,1144,744,24
4612,5388,5400,1672,1144,744,23
4616,5388,5400,1672,1144,744,24
4616,5392,5400,1672,1144,744,23
4616,5392,5400,1672,1144,744,23
4616,5392,5404,1672,1144,744,24
4616,5392,5404,1676,1144,744,23
4616,5392,5404,1672,1144,744,23
4620,5396,5408,1672,1144,744,24
4620,5396,5408,1676,1144,744,23
4620,5404,5412,1676,1144,744,23
4620,5400,5408,1676,1144,744,24
4620,5404,5412,1676,1148,744,23
4620,5412,5416,1676,1148,744,23
4620,5412,5416,1676,1148,744,24
4624,5420,5424,1676,1148,744,23
4628,5424,5428,1676,1148,744,23
4628,5428,5432,1676,1144,744,24
4628,5428,5432,1676,1144,744,23
4624,5432,5428,1676,1148,744,24
4628,5436,5436,1676,1148,744,23
4624,5436,5436,1676,1148,744,23
4628,5440,5436,1676,1148,744,24
4624,5432,5432,1676,1148,744,23
4628,5428,5432,1676,1148,744,23
4624,5424,5424,1676,1148,744,24
4620,5412,5416,1676,1148,744,23
4620,5404,5412,1676,1148,744,23
4616,5400,5408,1676,1148,744,24
4616,5396,5404,1676,1148,744,23
4616,5396,5404,1676,1148,744,23
4620,5400,5408,1676,1144,744,24
4620,5400,5408,1676,1144,744,23
4620,5400,5408,1676,1144,744,24
4620,5400,5408,1676,1148,744,23
4620,5400,5408,1676,1148,744,23
4624,5408,5416,1676,1144,744,24
4620,5404,5412,1676,1144,744,23
4624,5408,5416,1676,1144,744,23
4624,5412,5420,1672,1144,744,24
4624,5412,5420,1676,1148,744,23
4624,5412,5420,1676,1144,744,23
4624,5416,5420,1676,1144,744,24
4628,5420,5424,1676,1148,744,23
4628,5428,5428,1676,1148,744,24
4628,5428,5432,1676,1148,744,23
4628,5432,5432,1676,1148,744,23
4628,5436,5432,1676,1148,744,24
4632,5440,5436,1676,1148,744,23
4628,5440,5436,1676,1148,744,23
4632,5444,5440,1676,1148,744,24
4628,5444,5440,1676,1148,744,23
4628,5436,5436,1676,1148,744,23
4628,5432,5432,1676,1148,744,24
4620,5420,5424,1676,1148,744,23
4624,5416,5420,1676,1148,744,23
4620,5412,5416,1676,1148,744,24
4620,5404,5412,1676,1148,744,23
4616,5400,5408,1676,1144,744,23
4620,5400,5408,1676,1148,744,24
4616,5396,5408,1676,1144,744,23
4616,5400,5408,1676,1148,744,24
4616,5400,5408,1676,1144,744,23
4616,5396,5404,1676,1148,744,23
4620,5400,5408,1676,1144,744,24
4620,5400,5408,1676,1144,744,23
4620,5400,5408,1676,1144,744,23
4620,5404,5412,1672,1144,744,24
4620,5404,5412,1676,1144,744,23
4620,5408,5412,1676,1148,744,23
4620,5408,5416,1676,1144,744,24
4620,5412,5416,1676,1148,744,23
4620,5412,5416,1676,1148,744,23
4624,5416,5420,1676,1148,744,24
4620,5416,5420,1676,1144,744,23
4624,5420,5424,1676,1144,744,24
4620,5424,5424,1676,1148,744,23
4624,5424,5428,1672,1144,744,23
4624,5428,5432,1676,1148,744,24
4624,5432,5432,1676,1148,744,23
4624,5428,5428,1676,1148,744,23
4620,5424,5424,1676,1148,744,24
4616,5416,5416,1676,1148,744,23
4616,5408,5412,1676,1148,744,23
4612,5396,5404,1676,1148,744,24
4612,5392,5400,1676,1148,744,23
4612,5388,5400,1676,1148,744,23
4612,5384,5396,1672,1144,744,24
4612,5384,5396,1672,1144,744,23
4608,5380,5392,1672,1144,744,24
4608,5384,5396,1672,1144,744,23
4608,5384,5396,1676,1144,744,23
4608,5384,5392,1672,1144,744,24
4608,5384,5396,1672,1144,744,23
4612,5388,5396,1672,1144,744,23
4612,5388,5400,1676,1144,744,24
4612,5392,5400,1672,1144,744,23
4612,5392,5400,1672,1144,744,23
4612,5392,5400,1676,1144,744,24
4612,5396,5404,1676,1144,744,23
4612,5396,5404,1676,1144,744,23
4616,5400,5408,1676,1148,744,24
4616,5408,5412,1676,1148,744,23
4616,5412,5416,1676,1148,744,24
4620,5416,5416,1676,1148,744,23
4616,5416,5420,1676,1148,744,23
4620,5420,5420,1676,1148,744,24
4620,5424,5424,1676,1148,744,23
4620,5424,5424,1676,1148,744,23
4616,5420,5420,1676,1148,744,24
4616,5412,5416,1676,1148,744,23
4612,5404,5408,1676,1148,744,23
4612,5396,5404,1676,1148,744,24
4612,5392,5400,1676,1148,744,23
4612,5388,5396,1676,1148,744,23
4612,5384,5396,1676,1144,744,24
4608,5376,5388,1676,1144,744,23
4608,5376,5388,1676,1144,744,23
4608,5376,5388,1676,1144,744,24
4608,5380,5392,1676,1144,744,23
4608,5380,5392,1676,1144,744,24
4608,5380,5392,1676,1144,744,23
4608,5380,5392,1676,1144,744,23
4612,5384,5396,1676,1144,744,24
4608,5380,5392,1672,1144,744,23
4612,5384,5396,1672,1144,744,23
4612,5388,5400,1672,1144,744,24
4616,5392,5400,1672,1144,744,23
4616,5392,5404,1672,1144,744,23
4616,5396,5404,1672,1144,744,24
4616,5400,5408,1672,1144,744,23
4616,5404,5412,1672,1144,744,23
4616,5404,5412,1676,1144,744,24
4616,5408,5412,1676,1144,744,23
4616,5412,5416,1676,1144,744,24
4620,5416,5420,1676,1144,744,23
4620,5412,5416,1676,1144,744,23
4616,5412,5416,1676,1144,744,24
4616,5408,5412,1676,1144,744,23
4616,5400,5408,1676,1144,744,23
4612,5388,5400,1676,1144,744,24
4608,5380,5392,1676,1144,744,23
4612,5372,5388,1676,1144,744,23
4612,5372,5388,1672,1144,744,24
4608,5364,5380,1676,1144,744,23
4604,5360,5376,1672,1144,744,23
4608,5360,5380,1672,1144,744,24
4608,5360,5380,1672,1144,744,23
4608,5360,5380,1676,1144,744,23
4604,5356,5376,1676,1144,744,24
4608,5360,5380,1672,1144,744,23
4608,5360,5380,1676,1144,744,24
4604,5356,5376,1672,1144,744,23
4608,5356,5380,1672,1144,744,23
4608,5360,5380,1676,1144,744,24
4608,5360,5380,1672,1144,744,23
4612,5364,5384,1672,1144,744,23
4612,5368,5388,1672,1144,740,24
4612,5368,5388,1672,1144,744,23
4612,5372,5392,1672,1144,740,23
4612,5376,5396,1672,1144,744,24
4612,5380,5396,1672,1144,740,23
4616,5384,5400,1672,1144,740,23
4616,5384,5404,1672,1144,744,24
4616,5388,5404,1672,1144,744,23
4616,5384,5404,1672,1144,744,24
4616,5380,5400,1672,1144,744,23
4612,5372,5392,1672,1144,740,23
4612,5360,5384,1672,1144,740,24
4608,5352,5376,1676,1144,744,23
4604,5340,5372,1672,1144,744,23
4604,5336,5364,1672,1140,740,24
4604,5328,5364,1672,1140,740,23
4604,5324,5360,1672,1140,740,23
4600,5320,5356,1672,1140,740,24
4604,5324,5360,1672,1140,740,23
4604,5324,5364,1672,1140,740,23
4608,5328,5360,1672,1140,740,24
4604,5328,5364,1672,1140,740,23
4604,5324,5360,1672,1140,740,23
4604,5324,5360,1672,1140,740,24
4604,5324,5360,1672,1140,740,23
4604,5324,5364,1672,1140,740,24
4604,5324,5364,1672,1140,740,23
4604,5328,5364,1672,1140,740,23
4608,5332,5368,1672,1140,740,24
4608,5336,5372,1672,1140,740,23
4608,5340,5372,1672,1140,740,23
4612,5344,5376,1672,1140,740,24
4608,5344,5376,1672,1140,740,23
4608,5344,5380,1672,1140,740,23
4608,5348,5380,1672,1140,740,24
4612,5352,5384,1672,1140,740,23
4612,5356,5384,1672,1140,740,23
4612,5356,5384,1672,1140,740,24
4612,5352,5384,1672,1140,740,23
4608,5340,5376,1676,1140,740,24
4604,5332,5368,1672,1140,740,23
4604,5324,5364,1672,1140,740,23
4596,5312,5352,1672,1140,740,24
4596,5300,5348,1672,1140,740,23
4592,5296,5340,1672,1140,740,23
4596,5296,5344,1672,1140,740,24
4592,5292,5340,1672,1140,740,23
4592,5292,5340,1672,1140,740,23
4596,5292,5340,1672,1140,740,24
4600,5296,5344,1672,1140,740,23
4596,5296,5344,1672,1140,740,23
4596,5296,5344,1672,1140,740,24
4600,5300,5348,1672,1140,740,23
4596,5296,5344,1672,1140,740,23
4596,5296,5344,1672,1140,740,24
4596,5300,5348,1672,1140,740,23
4600,5304,5348,1672,1140,740,24
4600,5304,5352,1672,1140,740,23
4600,5308,5356,1672,1140,740,23
4600,5312,5356,1672,1140,740,24
4600,5312,5356,1672,1140,740,23
4600,5316,5360,1672,1140,740,23
4604,5320,5364,1672,1140,740,24
4604,5324,5368,1672,1140,740,23
4604,5328,5368,1672,1140,740,23
4604,5328,5368,1672,1140,740,24
4608,5336,5372,1672,1140,740,23
4604,5328,5368,1672,1140,740,24
4604,5320,5364,1672,1140,740,23
4600,5312,5356,1672,1140,740,23
4596,5300,5348,1672,1140,740,24
4592,5288,5340,1672,1140,740,23
4588,5284,5336,1672,1140,740,23
4588,5280,5332,1672,1140,740,24
4588,5276,5332,1672,1140,740,23
4588,5276,5332,1672,1140,740,23
4588,5280,5332,1672,1140,740,24
4588,5280,5332,1672,1140,740,23
4588,5280,5332,1672,1140,740,23
4588,5280,5332,1672,1140,740,24
4588,5280,5332,1672,1140,740,23
4592,5288,5340,1672,1140,740,23
4592,5288,5340,1672,1140,740,24
4592,5288,5340,1672,1140,740,23
4596,5296,5344,1672,1140,740,24
4596,5296,5344,1672,1140,740,23
4600,5304,5352,1672,1140,740,23
4596,5304,5352,1672,1140,740,24
4600,5312,5356,1672,1140,740,23
4600,5316,5360,1672,1140,740,23
4600,5320,5364,1672,1140,740,24
4604,5324,5364,1672,1140,740,23
4604,5328,5372,1672,1140,740,23
4604,5332,5372,1672,1140,740,24
4600,5332,5372,1672,1140,740,23
4604,5336,5376,1672,1140,740,23
4604,5336,5376,1676,1140,740,24
4604,5332,5372,1676,1140,740,23
4600,5320,5364,1676,1140,740,24
4596,5312,5356,1672,1140,740,23
4596,5304,5352,1672,1140,740,23
4592,5296,5344,1672,1140,740,24
4592,5292,5340,1672,1140,740,23
4592,5292,5340,1672,1140,740,23
4596,5296,5344,1672,1140,740,24
4596,5292,5344,1672,1140,740,23
4596,5296,5344,1676,1140,740,23
4596,5296,5344,1672,1140,740,24
4596,5300,5348,1672,1140,740,23
4596,5304,5348,1672,1140,740,23
4600,5308,5356,1672,1140,740,24
4600,5308,5352,1672,1140,740,23
4600,5312,5356,1672,1140,740,24
4600,5312,5356,1672,1140,740,23
4604,5316,5360,1672,1140,740,23
4604,5320,5364,1672,1140,740,24
4604,5324,5368,1676,1140,740,23
4604,5328,5368,1676,1140,740,23
4608,5332,5372,1672,1140,740,24
4608,5340,5372,1672,1140,740,23
4608,5344,5380,1672,1140,740,23
4612,5348,5384,1676,1144,740,24
4608,5352,5384,1672,1140,740,23
4612,5360,5388,1676,1144,740,23
4612,5360,5388,1676,1144,740,24
4612,5364,5392,1676,1144,740,23
4608,5360,5388,1676,1144,740,24
4608,5356,5388,1676,1144,744,23
4608,5348,5380,1676,1144,744,23
4604,5336,5372,1676,1144,740,24
4604,5332,5368,1676,1144,740,23
4600,5324,5364,1676,1144,740,23
4600,5320,5364,1676,1140,740,24
4600,5316,5360,1676,1144,740,23
4600,5316,5356,1676,1140,740,23
4600,5316,5356,1676,1140,740,24
4604,5320,5360,1676,1140,740,23
4600,5320,5360,1676,1140,740,23
4604,5324,5364,1676,1144,740,24
4604,5324,5364,1676,1144,740,23
4604,5328,5364,1676,1144,744,23
4604,5324,5364,1676,1144,744,24
4604,5328,5364,1676,1144,740,23
4604,5328,5364,1676,1144,740,24
4604,5332,5372,1676,1144,740,23
4608,5340,5372,1676,1144,740,23
4612,5348,5380,1676,1144,744,24
4612,5348,5384,1676,1144,744,23
4612,5352,5384,1676,1144,744,23
4608,5356,5384,1676,1144,744,24
4612,5360,5388,1676,1144,744,23
4612,5364,5392,1676,1144,744,23
4612,5368,5396,1676,1144,744,24
4616,5376,5400,1676,1144,744,23
4612,5376,5400,1676,1144,744,24
4616,5380,5404,1676,1144,744,23
4616,5384,5404,1676,1144,744,23
4616,5380,5404,1676,1144,744,24
4612,5376,5400,1676,1144,744,23
4612,5368,5396,1676,1144,744,23
4612,5360,5388,1676,1144,744,24
4608,5352,5384,1676,1144,744,23
4604,5344,5376,1676,1144,744,23
4608,5344,5376,1676,1144,744,24
4604,5336,5372,1676,1144,744,23
4604,5336,5372,1676,1144,744,23
4604,5340,5372,1676,1144,744,24
4604,5340,5372,1676,1144,744,23
4600,5336,5368,1676,1144,744,23
4604,5340,5372,1676,1144,744,24
4604,5344,5376,1676,1144,744,23
4608,5348,5376,1676,1144,744,24
4608,5348,5376,1676,1144,744,23
4608,5352,5380,1676,1144,744,23
4608,5352,5380,1676,1144,744,24
4608,5356,5384,1676,1144,744,23
4612,5360,5388,1676,1144,744,23
4612,5364,5392,1676,1144,744,24
4612,5368,5392,1676,1144,744,23
4612,5372,5396,1676,1144,744,23
4612,5376,5396,1676,1144,744,24
4616,5380,5404,1676,1148,744,23
4616,5384,5404,1676,1144,744,23
4620,5392,5412,1676,1148,744,24
4620,5392,5412,1676,1148,744,23
4616,5392,5412,1676,1148,744,24
4616,5396,5412,1676,1148,744,23
4620,5400,5416,1676,1148,744,23
4616,5396,5412,1676,1148,744,24
4616,5392,5408,1676,1148,744,23
4616,5384,5400,1676,1148,744,23
4608,5372,5392,1676,1148,744,24
4608,5364,5388,1676,1148,744,23
4604,5356,5384,1676,1148,744,23
4608,5356,5380,1676,1148,744,24
4604,5352,5380,1676,1148,744,23
4604,5352,5376,1676,1148,744,24
4604,5352,5380,1676,1148,744,23
4604,5352,5380,1676,1148,744,23
4608,5356,5384,1676,1148,744,24
4608,5360,5384,1676,1148,744,23
4608,5356,5384,1676,1148,744,23
4608,5356,5384,1676,1148,744,24
4608,5360,5384,1676,1148,744,23
4608,5360,5384,1676,1148,744,23
4608,5360,5388,1676,1148,744,24
4608,5364,5388,1680,1148,744,23
4608,5368,5392,1676,1148,744,23
4612,5372,5396,1676,1148,744,24
4612,5376,5396,1676,1148,744,23
4616,5380,5400,1676,1148,744,24
4616,5384,5404,1676,1148,744,23
4616,5388,5408,1676,1148,744,23
4616,5392,5408,1676,1148,744,24
4616,5396,5412,1676,1148,744,23
4616,5396,5412,1676,1148,744,23
4616,5400,5412,1676,1148,744,24
4616,5400,5416,1676,1148,744,23
4616,5400,5412,1676,1148,744,23
4612,5392,5408,1676,1148,744,24
4612,5384,5404,1676,1148,744,23
4608,5376,5396,1676,1148,744,23
4604,5368,5388,1676,1148,744,24
4604,5360,5384,1680,1148,744,23
4604,5356,5380,1680,1148,744,23
4604,5356,5380,1676,1148,744,24
4604,5356,5380,1676,1148,744,23
4604,5360,5384,1676,1148,744,24
4604,5360,5380,1680,1148,744,23
4604,5360,5380,1676,1148,744,23
4608,5364,5388,1676,1148,744,24
4604,5364,5384,1676,1148,744,23
4608,5364,5384,1676,1148,744,23
4604,5368,5388,1676,1148,744,24
4608,5372,5388,1676,1148,744,23
4608,5372,5388,1676,1148,744,23
4608,5372,5392,1676,1148,744,24
4608,5380,5396,1676,1148,744,23
4612,5380,5396,1676,1148,744,23
4612,5388,5404,1676,1148,744,24
4612,5392,5404,1676,1148,744,23
4612,5396,5408,1676,1148,744,24
4612,5400,5412,1676,1148,744,23
4616,5404,5412,1676,1148,744,23
4616,5408,5420,1676,1148,744,24
4616,5412,5420,1680,1152,744,23
4616,5416,5420,1676,1148,744,23
4616,5416,5420,1676,1148,744,24
4616,5412,5420,1676,1148,744,23
4616,5408,5416,1676,1148,744,23
4616,5400,5412,1676,1152,744,24
4616,5392,5408,1676,1148,744,23
4612,5384,5400,1676,1148,744,23
4612,5380,5396,1676,1148,744,24
4608,5376,5392,1676,1148,744,23
4608,5372,5392,1676,1148,744,24
4608,5372,5388,1676,1148,744,23
4612,5376,5392,1676,1148,744,23
4612,5376,5392,1676,1148,744,24
4612,5380,5392,1676,1148,744,23
4612,5380,5396,1676,1148,744,23
4612,5384,5396,1676,1148,744,24
4612,5380,5396,1676,1148,744,23
4612,5384,5400,1676,1148,744,23
4616,5388,5400,1676,1148,744,24
4616,5388,5400,1676,1148,744,23
4616,5388,5400,1676,1148,744,23
4616,5396,5408,1676,1148,744,24
4616,5396,5408,1680,1152,748,23
4616,5400,5408,1680,1152,744,24
4616,5404,5412,1676,1148,744,23
4616,5404,5412,1676,1148,744,23
4624,5416,5424,1676,1148,744,24
4624,5416,5424,1676,1148,744,23
4620,5420,5424,1676,1152,744,23
4620,5420,5424,1676,1152,744,24
4620,5424,5428,1676,1152,744,23
4620,5424,5424,1680,1152,748,23
4620,5420,5424,1676,1152,744,24
4620,5412,5416,1676,1152,748,23
4616,5400,5408,1676,1152,744,23
4612,5392,5400,1676,1152,748,24
4608,5384,5392,1676,1152,744,23
4612,5380,5392,1676,1152,744,24
4608,5376,5388,1676,1148,744,23
4608,5372,5384,1676,1148,744,23
4612,5376,5392,1676,1148,744,24
4608,5376,5388,1676,1148,744,23
4612,5376,5388,1676,1148,744,23
4612,5380,5392,1676,1152,744,24
4616,5384,5396,1676,1148,744,23
4612,5380,5396,1676,1152,744,23
4616,5388,5396,1676,1148,744,24
4616,5384,5396,1676,1148,744,23
4616,5388,5400,1676,1148,744,23
4612,5384,5396,1676,1148,744,24
4616,5392,5400,1676,1148,744,23
4620,5396,5404,1676,1148,744,24
4616,5396,5404,1676,1148,744,23
4620,5400,5408,1676,1148,744,23
4616,5404,5408,1680,1152,748,24
4616,5404,5408,1676,1152,744,23
4616,5408,5412,1676,1152,744,23
4616,5408,5412,1680,1152,748,24
4620,5416,5420,1680,1152,748,23
4620,5420,5420,1676,1152,744,23
4620,5420,5424,1676,1152,744,24
4620,5416,5416,1676,1152,744,23
4620,5408,5412,1676,1152,744,23
4616,5400,5408,1676,1152,744,24
4612,5392,5400,1676,1152,744,23
4612,5388,5396,1676,1152,748,24
4612,5380,5392,1680,1152,748,23
4608,5376,5388,1676,1148,744,23
4608,5372,5384,1676,1148,744,24
4608,5372,5384,1676,1148,744,23
4612,5372,5388,1676,1148,744,23
4608,5372,5384,1680,1152,748,24
4604,5368,5380,1676,1148,744,23
4604,5368,5384,1676,1148,744,23
4604,5368,5384,1676,1152,744,24
4608,5368,5384,1676,1148,744,23
4608,5372,5384,1676,1148,744,23
4608,5372,5384,1676,1148,744,24
4608,5372,5388,1676,1148,744,23
4608,5372,5384,1676,1148,744,23
4608,5376,5388,1676,1148,744,24
4608,5380,5392,1676,1148,744,23
4612,5384,5396,1676,1152,744,24
4608,5384,5396,1676,1148,744,23
4612,5388,5396,1676,1148,744,23
4612,5392,5400,1676,1148,744,24
4612,5396,5404,1680,1152,748,23
4612,5396,5404,1676,1148,744,23
4612,5396,5404,1676,1152,744,24
4612,5396,5404,1676,1152,744,23
4612,5392,5400,1676,1152,744,23
4612,5388,5400,1676,1152,748,24
4608,5376,5388,1676,1148,744,23
4604,5368,5380,1676,1148,744,24
4600,5356,5372,1676,1148,744,23
4600,5348,5368,1676,1148,744,23
4596,5348,5364,1676,1148,744,24
4596,5344,5364,1676,1148,744,23
4596,5344,5364,1676,1148,744,23
4596,5344,5364,1676,1148,744,24
4596,5344,5364,1676,1148,744,23
4596,5348,5364,1676,1148,744,23
4600,5352,5368,1676,1148,744,24
4596,5348,5368,1676,1148,744,23
4596,5344,5364,1676,1148,744,23
4596,5348,5368,1676,1148,744,24
4596,5348,5368,1676,1148,744,23
4600,5352,5372,1676,1148,744,23
4604,5356,5376,1676,1148,744,24
4600,5356,5372,1676,1148,744,23
4600,5360,5376,1676,1148,744,24
4600,5360,5376,1676,1148,744,23
4604,5368,5384,1676,1148,744,23
4604,5372,5384,1676,1148,744,24
4604,5368,5384,1676,1148,744,23
4604,5372,5384,1676,1148,744,23
4604,5372,5384,1676,1148,744,24
4604,5372,5384,1676,1148,744,23
4604,5368,5384,1676,1148,744,23
4600,5360,5376,1676,1148,744,24
4596,5348,5368,1676,1148,744,23
4596,5344,5364,1676,1148,744,24
4596,5340,5360,1676,1148,744,23
4596,5336,5356,1676,1148,744,23
4592,5332,5352,1676,1148,744,24
4592,5328,5348,1676,1148,744,23
4592,5332,5352,1676,1148,744,23
4592,5332,5352,1676,1148,744,24
4592,5332,5352,1676,1148,744,23
4596,5336,5356,1676,1148,744,23
4596,5336,5356,1676,1148,744,24
4596,5336,5360,1676,1148,744,23
4596,5336,5356,1676,1148,744,23
4596,5340,5360,1676,1148,744,24
4596,5340,5360,1676,1148,744,23
4596,5344,5364,1676,1148,744,23
4600,5348,5368,1676,1148,744,24
4600,5352,5368,1676,1148,744,23
4600,5356,5372,1676,1148,744,24
4604,5360,5372,1676,1148,744,23
4604,5364,5376,1676,1148,744,23
4604,5368,5380,1676,1148,744,24
4608,5376,5384,1676,1148,744,23
4608,5376,5388,1676,1148,744,23
4604,5376,5384,1676,1148,744,24
4604,5372,5384,1676,1148,744,23
4604,5368,5380,1676,1148,744,23
4604,5360,5376,1676,1148,744,24
4600,5352,5372,1676,1148,744,23
4596,5344,5360,1676,1148,744,23
4592,5336,5356,1676,1148,744,24
4596,5332,5352,1676,1148,744,23
4592,5328,5348,1676,1148,744,24
4592,5324,5348,1676,1148,744,23
4592,5328,5348,1676,1148,744,23
4596,5332,5352,1676,1148,744,24
4592,5328,5348,1676,1148,744,23
4596,5328,5352,1676,1148,744,23
4596,5332,5352,1676,1148,744,24
4592,5328,5348,1676,1148,744,23
4596,5332,5352,1676,1148,744,23
4596,5336,5356,1676,1148,744,24
4596,5336,5356,1676,1148,744,23
4596,5336,5356,1676,1148,744,23
4600,5340,5360,1676,1148,744,24
4600,5348,5364,1676,1148,744,23
4600,5348,5364,1676,1148,744,24
4600,5352,5364,1676,1148,744,23
4600,5352,5368,1676,1148,744,23
4600,5356,5372,1676,1148,744,24
4604,5364,5376,1676,1148,744,23
4604,5368,5380,1676,1148,744,23
4600,5364,5376,1676,1148,744,24
4600,5360,5372,1676,1148,744,23
4600,5352,5368,1676,1148,744,23
4596,5340,5360,1676,1148,744,24
4592,5336,5352,1676,1148,744,23
4592,5328,5348,1676,1148,744,23
4592,5324,5344,1676,1148,744,24
4588,5316,5340,1676,1148,744,23
4588,5312,5336,1676,1148,744,24
4588,5312,5336,1676,1148,744,23
4588,5312,5336,1676,1148,744,23
4588,5316,5336,1676,1148,744,24
4592,5316,5340,1676,1148,744,23
4592,5316,5340,1676,1148,744,23
4592,5320,5340,1676,1148,744,24
4592,5320,5340,1676,1148,744,23
4596,5324,5344,1676,1148,744,23
4596,5328,5348,1676,1148,744,24
4596,5328,5348,1676,1148,744,23
4596,5332,5352,1676,1148,744,23
4596,5332,5352,1676,1148,744,24
4600,5336,5356,1676,1148,744,23
4600,5340,5356,1676,1148,744,24
4600,5344,5364,1676,1148,744,23
4600,5348,5364,1676,1148,744,23
4604,5352,5368,1676,1148,744,24
4600,5356,5368,1676,1148,744,23
4604,5360,5372,1676,1148,744,23
4604,5360,5372,1676,1148,744,24
4604,5360,5372,1676,1148,744,23
4600,5356,5368,1676,1148,744,23
4600,5348,5364,1676,1148,744,24
4596,5336,5356,1676,1148,744,23
4592,5328,5348,1676,1148,744,23
4592,5324,5344,1676,1148,744,24
4588,5316,5336,1676,1148,744,23
4588,5312,5332,1676,1148,744,24
4592,5316,5336,1676,1148,744,23
4588,5312,5336,1676,1148,744,23
4592,5312,5336,1676,1148,744,24
4592,5312,5336,1676,1148,744,23
4592,5316,5340,1676,1148,744,23
4592,5316,5336,1676,1148,744,24
4592,5316,5336,1676,1148,744,23
4592,5316,5340,1676,1148,744,23
4592,5320,5340,1676,1148,744,24
4592,5320,5344,1676,1148,744,23
4596,5324,5344,1676,1148,744,23
4592,5324,5344,1676,1148,744,24
4592,5324,5344,1676,1148,744,23
4596,5332,5352,1676,1148,744,24
4596,5336,5352,1676,1148,744,23
4596,5336,5356,1676,1148,744,23
4600,5344,5360,1676,1148,744,24
4596,5344,5360,1676,1148,744,23
4600,5348,5364,1676,1148,744,23
4596,5352,5364,1676,1148,744,24
4600,5356,5368,1676,1148,744,23
4596,5348,5360,1676,1148,744,23
4592,5340,5356,1676,1148,744,24
4588,5332,5348,1676,1148,744,23
4592,5328,5348,1676,1148,744,23
4584,5320,5340,1676,1148,744,24
4584,5312,5332,1676,1148,744,23
4584,5308,5328,1676,1148,744,23
4580,5304,5328,1676,1148,744,24
4580,5300,5324,1676,1148,744,23
4580,5300,5324,1676,1148,744,24
4584,5304,5328,1676,1148,744,23
4580,5304,5328,1676,1148,744,23
4580,5304,5328,1676,1148,744,24
4580,5304,5328,1676,1148,744,23
4584,5308,5332,1676,1148,744,23
4584,5308,5328,1676,1148,744,24
4584,5312,5336,1676,1148,744,23
4588,5320,5340,1676,1148,744,23
4588,5320,5340,1676,1148,744,24
4588,5328,5344,1676,1148,744,23
4592,5332,5348,1676,1148,744,23
4588,5332,5348,1676,1148,744,24
4588,5336,5352,1676,1148,744,23
4592,5340,5352,1676,1148,744,24
4592,5348,5356,1676,1148,744,23
4596,5356,5364,1676,1148,744,23
4596,5360,5368,1676,1148,744,24
4600,5364,5372,1676,1148,744,23
4600,5368,5372,1676,1148,744,23
4592,5360,5368,1676,1148,744,24
4592,5356,5364,1676,1148,744,23
4592,5352,5360,1676,1148,744,23
4588,5348,5356,1676,1148,744,24
4588,5340,5348,1676,1148,744,23
4588,5336,5348,1676,1148,744,23
4584,5332,5344,1676,1148,744,24
4584,5332,5344,1676,1148,744,23
4584,5328,5344,1676,1148,744,24
4584,5328,5344,1676,1148,744,23
4584,5328,5340,1676,1148,744,23
4584,5332,5344,1676,1148,744,24
4584,5332,5344,1676,1148,744,23
4588,5336,5348,1676,1148,744,23
4588,5340,5352,1676,1148,744,24
4588,5340,5352,1676,1148,744,23
4588,5344,5352,1676,1148,744,23
4588,5344,5352,1676,1148,744,24
4592,5352,5360,1676,1148,744,23
4592,5356,5364,1676,1148,744,23
4592,5360,5364,1676,1148,744,24
4596,5368,5368,1676,1148,744,23
4596,5372,5372,1676,1148,744,24
4596,5376,5376,1676,1148,744,23
4600,5384,5380,1676,1148,744,23
4600,5384,5384,1676,1148,744,24
4600,5392,5384,1676,1148,744,23
4600,5392,5388,1676,1148,744,23
4600,5396,5392,1676,1148,744,24
4600,5396,5392,1676,1148,744,23
4600,5396,5388,1676,1148,744,23
4600,5392,5388,1676,1148,744,24
4600,5388,5384,1676,1148,744,23
4596,5380,5376,1676,1148,744,23
4596,5376,5372,1676,1148,744,24
4592,5368,5368,1676,1148,744,23
4592,5364,5368,1676,1148,744,23
4592,5364,5368,1676,1148,744,24
4592,5364,5368,1676,1148,744,23
4592,5364,5368,1676,1148,744,24
4592,5364,5364,1676,1148,744,23
4592,5368,5372,1676,1148,744,23
4596,5372,5372,1676,1148,744,24
4596,5372,5372,1676,1148,744,23
4596,5376,5372,1676,1148,744,23
4596,5380,5376,1676,1148,744,24
4596,5380,5380,1676,1148,744,23
4596,5384,5380,1676,1148,744,23
4600,5388,5380,1676,1148,744,24
4600,5392,5388,1676,1148,744,23
4600,5396,5392,1676,1148,744,23
4600,5400,5392,1676,1148,744,24
4604,5404,5396,1676,1148,744,23
4604,5408,5400,1676,1148,744,24
4604,5412,5400,1676,1148,744,23
4608,5420,5408,1676,1148,744,23
4608,5424,5412,1676,1148,744,24
4604,5424,5408,1676,1148,744,23
4608,5428,5412,1676,1152,744,23
4608,5432,5412,1676,1148,744,24
4604,5428,5412,1676,1152,744,23
4604,5424,5408,1676,1148,744,23
4600,5416,5404,1676,1148,744,24
4600,5408,5396,1676,1148,744,23
4600,5404,5392,1676,1148,744,23
4592,5396,5384,1676,1148,744,24
4596,5392,5384,1676,1152,744,23
4596,5388,5384,1676,1148,744,23
4596,5392,5384,1676,1148,744,24
4596,5388,5384,1676,1148,744,23
4596,5392,5384,1676,1148,744,24
4596,5396,5388,1676,1148,744,23
4600,5400,5392,1676,1148,744,23
4600,5400,5392,1676,1148,744,24
4600,5400,5392,1676,1148,744,23
4600,5400,5392,1676,1152,744,23
4600,5404,5392,1676,1152,744,24
4600,5404,5392,1676,1148,744,23
4600,5408,5396,1676,1148,744,23
4600,5408,5400,1676,1148,744,24
4600,5412,5400,1676,1148,744,23
4604,5416,5404,1676,1148,744,23
4604,5420,5404,1676,1148,744,24
4604,5424,5412,1676,1148,744,23
4604,5428,5412,1676,1152,744,24
4604,5428,5412,1676,1148,744,23
4604,5432,5416,1676,1152,744,23
4604,5436,5416,1676,1152,744,24
4604,5440,5420,1676,1152,744,23
4608,5444,5424,1676,1152,744,23
4608,5444,5424,1676,1152,744,24
4604,5440,5420,1676,1152,748,23
4604,5436,5416,1676,1152,744,23
4600,5424,5408,1676,1152,744,24
4596,5416,5400,1676,1152,748,23
4592,5408,5392,1676,1152,748,23
4592,5400,5392,1676,1152,744,24
4596,5404,5396,1676,1152,744,23
4596,5400,5388,1676,1148,744,24
4592,5396,5384,1676,1152,744,23
4588,5392,5384,1676,1148,744,23
4592,5396,5384,1676,1152,744,24
4596,5400,5392,1676,1148,744,23
4596,5400,5392,1676,1152,744,23
4596,5400,5392,1676,1148,744,24
4596,5404,5392,1676,1152,744,23
4596,5404,5396,1676,1148,744,23
4596,5404,5392,1676,1148,744,24
4596,5408,5396,1676,1148,744,23
4596,5412,5400,1676,1148,744,23
4596,5416,5404,1676,1148,744,24
4600,5420,5404,1676,1148,744,23
4604,5424,5412,1676,1148,744,24
4600,5428,5412,1676,1148,744,23
4600,5428,5412,1676,1152,744,23
4600,5432,5412,1676,1152,748,24
4600,5436,5416,1676,1152,744,23
4600,5436,5416,1676,1152,744,23
4600,5440,5420,1676,1152,744,24
4604,5448,5424,1676,1152,744,23
4600,5444,5424,1676,1152,744,23
4600,5444,5424,1676,1152,744,24
4600,5436,5416,1676,1152,744,23
4596,5432,5412,1676,1152,744,23
4592,5424,5408,1676,1152,744,24
4592,5420,5404,1676,1152,744,23
4592,5416,5400,1676,1152,744,24
4592,5416,5400,1676,1152,744,23
4596,5416,5400,1676,1152,748,23
4592,5412,5396,1676,1152,748,24
4592,5416,5400,1676,1152,744,23
4596,5416,5400,1676,1152,748,23
4596,5416,5404,1676,1152,744,24
4596,5420,5404,1676,1148,744,23
4596,5420,5404,1676,1152,748,23
4600,5428,5408,1676,1152,744,24
4596,5424,5408,1676,1148,744,23
4600,5428,5412,1676,1148,744,23
4600,5432,5416,1676,1152,744,24
4600,5436,5416,1676,1152,744,23
4604,5440,5420,1676,1152,744,24
4604,5444,5420,1676,1152,744,23
4604,5444,5424,1676,1152,744,23
4604,5452,5428,1676,1152,744,24
4604,5456,5432,1676,1152,748,23
4608,5460,5436,1676,1152,744,23
4608,5464,5436,1676,1152,748,24
4604,5468,5436,1676,1152,744,23
4608,5472,5440,1676,1152,744,23
4608,5476,5444,1676,1152,748,24
4608,5476,5444,1676,1152,748,23
4608,5472,5444,1676,1152,748,23
4608,5468,5440,1676,1152,744,24
4604,5460,5432,1676,1152,748,23
4600,5452,5428,1676,1152,744,23
4600,5448,5424,1676,1152,748,24
4596,5440,5416,1676,1152,748,23
4596,5440,5416,1676,1152,748,24
4600,5440,5416,1676,1152,744,23
4600,5440,5420,1676,1152,744,23
4600,5440,5416,1676,1152,748,24
4600,5436,5416,1676,1152,744,23
4600,5440,5420,1676,1152,744,23
4604,5444,5420,1676,1152,748,24
4604,5444,5420,1676,1152,744,23
4604,5448,5424,1676,1152,744,23
4604,5448,5424,1676,1152,744,24
4600,5448,5424,1676,1152,744,23
4604,5452,5428,1676,1152,744,23
4608,5460,5432,1676,1152,748,24
4604,5460,5432,1676,1152,748,23
4608,5460,5436,1676,1152,748,24
4608,5464,5436,1676,1152,748,23
4608,5468,5440,1676,1152,748,23
4612,5476,5444,1676,1152,748,24
4612,5484,5452,1676,1152,748,23
4612,5484,5452,1676,1152,748,23
4612,5488,5456,1676,1152,748,24
4612,5492,5456,1676,1152,748,23
4612,5496,5460,1676,1152,748,23
4612,5496,5460,1676,1152,748,24
4616,5496,5460,1676,1152,748,23
4616,5496,5460,1676,1152,748,23
4608,5484,5448,1676,1152,748,24
4608,5476,5444,1676,1152,748,23
4604,5468,5436,1676,1152,748,24
4604,5464,5436,1676,1152,748,23
4600,5456,5428,1676,1152,748,23
4600,5452,5424,1676,1152,744,24
4600,5452,5424,1676,1152,744,23
4600,5452,5428,1676,1152,748,23
4604,5456,5428,1676,1152,748,24
4604,5456,5428,1680,1152,748,23
4604,5456,5428,1676,1152,748,23
4604,5460,5432,1676,1152,748,24
4604,5460,5432,1676,1152,744,23
4608,5464,5436,1676,1152,748,23
4604,5460,5436,1676,1152,748,24
4608,5468,5440,1676,1152,748,23
4608,5468,5440,1676,1152,748,24
4608,5472,5444,1676,1152,748,23
4608,5468,5440,1676,1152,748,23
4608,5472,5444,1676,1152,748,24
4608,5476,5448,1676,1152,744,23
4608,5480,5448,1676,1152,744,23
4608,5484,5452,1676,1152,748,24
4612,5488,5456,1676,1152,748,23
4612,5488,5456,1676,1152,748,23
4612,5496,5460,1676,1152,748,24
4612,5496,5460,1676,1152,748,23
4612,5500,5464,1676,1152,748,23
4612,5496,5460,1676,1152,748,24
4612,5496,5460,1676,1152,748,23
4612,5488,5456,1676,1152,748,24
4608,5480,5448,1676,1152,744,23
4604,5468,5440,1676,1152,748,23
4600,5460,5432,1676,1152,744,24
4600,5452,5428,1676,1152,748,23
4600,5448,5428,1676,1152,748,23
4596,5444,5424,1676,1148,744,24
4600,5444,5424,1676,1152,744,23
4596,5440,5420,1676,1148,744,23
4596,5440,5420,1676,1152,744,24
4596,5440,5420,1676,1148,744,23
4596,5440,5420,1676,1148,744,23
4596,5440,5420,1676,1152,744,24
4596,5440,5420,1676,1152,748,23
4600,5440,5420,1676,1152,744,24
4600,5444,5424,1676,1148,744,23
4600,5444,5424,1676,1148,744,23
4600,5444,5424,1676,1152,744,24
4600,5444,5424,1676,1152,744,23
4600,5448,5428,1676,1148,744,23
4600,5452,5432,1676,1152,744,24
4604,5452,5432,1676,1152,744,23
4596,5448,5428,1676,1152,748,23
4600,5452,5432,1676,1148,744,24
4604,5460,5436,1676,1152,744,23
4604,5460,5440,1676,1152,744,23
4600,5460,5436,1676,1152,744,24
4600,5460,5436,1676,1152,748,23
4600,5460,5436,1676,1152,748,23
4600,5452,5432,1676,1152,744,24
4596,5444,5424,1676,1152,748,23
4596,5432,5420,1676,1148,744,24
4596,5428,5416,1676,1152,744,23
4592,5420,5408,1676,1148,744,23
4588,5412,5400,1676,1148,744,24
4588,5408,5400,1676,1148,744,23
4588,5404,5400,1676,1148,744,23
4588,5404,5396,1676,1148,744,24
4588,5400,5396,1676,1148,744,23
4588,5400,5396,1672,1148,744,23
4588,5400,5396,1676,1148,744,24
4588,5400,5396,1676,1148,744,23
4588,5396,5392,1676,1148,744,23
4588,5396,5392,1676,1148,744,24
4588,5396,5396,1676,1148,744,23
4588,5396,5396,1676,1148,744,24
4588,5400,5400,1676,1148,744,23
4588,5404,5400,1676,1148,744,23
4588,5404,5400,1676,1148,744,24
4592,5408,5404,1676,1148,744,23
4596,5412,5408,1676,1148,744,23
4596,5416,5412,1676,1148,744,24
4596,5420,5416,1676,1148,744,23
4596,5420,5412,1676,1148,744,23
4596,5428,5416,1676,1148,744,24
4596,5428,5420,1676,1148,744,23
4596,5424,5416,1676,1148,744,24
4596,5424,5416,1676,1148,744,23
4596,5420,5412,1676,1148,744,23
4592,5412,5408,1676,1148,744,24
4588,5400,5400,1676,1148,744,23
4592,5396,5396,1676,1148,744,23
4588,5384,5388,1676,1148,744,24
4588,5380,5384,1676,1148,744,23
4584,5372,5380,1676,1148,744,23
4580,5368,5376,1676,1148,744,24
4584,5368,5376,1676,1148,744,23
4588,5372,5380,1676,1148,744,23
4584,5372,5380,1676,1148,744,24
4588,5372,5384,1676,1148,744,23
4584,5368,5380,1676,1148,744,23
4588,5372,5380,1676,1148,744,24
4588,5372,5380,1676,1148,744,23
4588,5372,5384,1676,1148,744,24
4588,5376,5384,1676,1148,744,23
4588,5376,5384,1676,1148,744,23
4592,5380,5388,1676,1148,744,24
4596,5388,5396,1676,1148,744,23
4596,5388,5392,1676,1148,744,23
4596,5392,5400,1676,1148,744,24
4596,5396,5400,1676,1148,744,23
4600,5400,5404,1676,1148,744,23
4600,5404,5408,1676,1148,744,24
4596,5400,5404,1676,1148,744,23
4596,5404,5408,1676,1148,744,24
4596,5404,5408,1676,1148,744,23
4600,5404,5408,1676,1148,744,23
4596,5396,5400,1676,1148,744,24
4592,5384,5392,1676,1148,744,23
4588,5372,5388,1676,1148,744,23
4588,5364,5376,1676,1148,744,24
4588,5360,5376,1676,1148,744,23
4584,5352,5372,1676,1148,744,23
4584,5348,5368,1676,1148,744,24
4584,5348,5368,1676,1148,744,23
4584,5348,5364,1676,1148,744,23
4584,5348,5368,1676,1148,744,24
4584,5352,5372,1676,1148,744,23
4584,5348,5368,1676,1148,744,23
4584,5352,5372,1676,1148,744,24
4588,5352,5372,1676,1148,744,23
4588,5356,5376,1676,1148,744,24
4588,5356,5376,1676,1148,744,23
4588,5360,5376,1676,1148,744,23
4592,5360,5376,1676,1148,744,24
4588,5364,5380,1676,1148,744,23
4588,5364,5380,1676,1148,744,23
4592,5368,5384,1676,1148,744,24
4592,5376,5388,1676,1148,744,23
4592,5376,5388,1676,1148,744,23
4596,5380,5392,1676,1148,744,24
4600,5388,5400,1676,1148,744,23
4596,5388,5400,1676,1148,744,23
4596,5392,5400,1676,1148,744,24
4596,5392,5400,1676,1148,744,23
4596,5392,5400,1676,1148,744,24
4592,5384,5396,1676,1148,744,23
4592,5376,5388,1676,1148,744,23
4592,5368,5384,1676,1148,744,24
4588,5360,5376,1676,1148,744,23
4584,5348,5368,1676,1148,744,23
4584,5348,5368,1676,1148,744,24
4584,5344,5364,1676,1148,744,23
4584,5344,5368,1676,1148,744,23
4584,5340,5364,1676,1148,744,24
4584,5344,5364,1676,1148,744,23
4584,5344,5364,1676,1148,744,23
4584,5344,5364,1676,1148,744,24
4584,5344,5364,1676,1148,744,23
4584,5344,5368,1676,1148,744,24
4584,5344,5368,1676,1148,744,23
4584,5344,5364,1676,1148,744,23
4584,5352,5372,1676,1148,744,24
4588,5356,5372,1676,1148,744,23
4588,5356,5372,1676,1148,744,23
4588,5356,5376,1676,1148,744,24
4588,5360,5380,1676,1148,744,23
4592,5364,5384,1676,1148,744,23
4588,5368,5380,1676,1148,744,24
4592,5372,5384,1676,1148,744,23
4592,5376,5388,1676,1148,744,23
4588,5376,5388,1676,1148,744,24
4592,5380,5392,1676,1148,744,23
4592,5384,5392,1676,1148,744,24
4588,5380,5392,1676,1148,744,23
4592,5380,5392,1676,1148,744,23
4588,5372,5388,1676,1148,744,24
4588,5364,5380,1676,1148,744,23
4584,5356,5372,1676,1148,744,23
4584,5352,5372,1676,1148,744,24
4580,5344,5364,1676,1148,744,23
4580,5340,5360,1676,1148,744,23
4580,5336,5360,1676,1148,744,24
4580,5336,5360,1676,1148,744,23
4580,5336,5360,1676,1148,744,23
4584,5340,5364,1676,1144,744,24
4584,5344,5368,1672,1144,744,23
4584,5344,5364,1676,1148,744,23
4584,5344,5368,1676,1148,744,24
4580,5344,5364,1676,1144,744,23
4584,5344,5368,1676,1148,744,24
4584,5348,5368,1676,1144,744,23
4580,5344,5368,1676,1144,744,23
4584,5352,5372,1676,1148,744,24
4584,5356,5372,1676,1148,744,23
4588,5360,5376,1676,1144,744,23
4588,5360,5380,1676,1144,744,24
4588,5364,5380,1676,1148,744,23
4588,5368,5384,1676,1148,744,23
4588,5372,5384,1676,1148,744,24
4588,5372,5384,1676,1148,744,23
4588,5376,5388,1676,1148,744,24
4588,5380,5392,1676,1148,744,23
4588,5380,5392,1676,1148,744,23
4588,5376,5388,1676,1148,744,24
4584,5368,5384,1676,1148,744,23
4584,5364,5380,1676,1148,744,23
4580,5356,5372,1676,1148,744,24
4580,5352,5368,1676,1148,744,23
4576,5344,5360,1676,1148,744,23
4576,5340,5360,1672,1144,744,24
4576,5340,5360,1672,1144,744,23
4580,5344,5364,1672,1144,744,23
4580,5344,5364,1676,1144,744,24
4580,5348,5368,1676,1144,744,23
4580,5348,5368,1676,1144,744,23
4584,5352,5372,1672,1144,744,24
4580,5352,5368,1676,1148,744,23
4584,5352,5368,1676,1148,744,24
4584,5356,5372,1676,1144,744,23
4584,5356,5372,1676,1144,744,23
4588,5364,5376,1676,1144,744,24
4588,5368,5380,1676,1144,744,23
4592,5372,5384,1676,1144,744,23
4592,5376,5388,1676,1144,744,24
4596,5384,5392,1676,1148,744,23
4592,5384,5392,1676,1148,744,23
4596,5392,5396,1676,1148,744,24
4596,5396,5404,1676,1148,744,23
4600,5404,5408,1676,1144,744,24
4600,5408,5408,1676,1148,744,23
4600,5412,5412,1676,1148,744,23
4600,5412,5412,1672,1144,744,24
4600,5408,5412,1672,1144,744,23
4596,5404,5408,1676,1148,744,23
4596,5396,5400,1676,1148,744,24
4592,5388,5392,1676,1148,744,23
4596,5388,5396,1676,1148,744,23
4592,5380,5392,1676,1144,744,24
4588,5376,5384,1672,1144,744,23
4592,5376,5384,1672,1144,744,23
4588,5372,5384,1672,1144,744,24
4592,5376,5384,1672,1144,744,23
4592,5376,5384,1672,1144,744,24
4592,5376,5388,1676,1144,744,23
4592,5380,5384,1676,1144,744,23
4596,5380,5388,1672,1144,744,24
4592,5380,5388,1676,1148,744,23
4596,5384,5392,1676,1148,744,23
4596,5388,5396,1676,1148,744,24
4596,5388,5396,1676,1148,744,23
4596,5396,5396,1676,1148,744,23
4596,5396,5400,1676,1148,744,24
4600,5400,5400,1676,1148,744,23
4600,5404,5404,1676,1148,744,23
4604,5408,5408,1676,1148,744,24
4600,5412,5412,1676,1148,744,23
4604,5416,5416,1676,1148,744,24
4604,5420,5416,1676,1148,744,23
4604,5424,5420,1676,1148,744,23
4604,5424,5420,1676,1148,744,24
4604,5424,5424,1676,1148,744,23
4604,5424,5420,1676,1148,744,23
4604,5424,5420,1676,1148,744,24
4600,5412,5412,1676,1148,744,23
4600,5404,5404,1676,1148,744,23
4596,5396,5396,1676,1148,744,24
4596,5388,5396,1676,1148,744,23
4596,5388,5392,1676,1148,744,23
4596,5384,5392,1676,1148,744,24
4592,5384,5388,1676,1148,744,23
4596,5384,5392,1676,1148,744,23
4596,5384,5392,1676,1148,744,24
4596,5384,5392,1676,1148,744,23
4596,5388,5392,1676,1148,744,24
4596,5388,5392,1676,1148,744,23
4600,5392,5396,1676,1148,744,23
4596,5392,5392,1676,1148,744,24
4596,5392,5396,1676,1148,744,23
4596,5392,5392,1676,1148,744,23
4600,5392,5396,1676,1148,744,24
4600,5400,5400,1676,1148,744,23
4600,5400,5400,1676,1148,744,23
4600,5400,5404,1676,1148,744,24
4600,5404,5404,1676,1148,744,23
4600,5408,5408,1676,1148,744,23
4600,5408,5408,1676,1148,744,24
4600,5412,5412,1676,1148,744,23
4604,5420,5416,1676,1148,744,24
4604,5424,5416,1676,1148,744,23
4604,5424,5416,1676,1148,744,23
4604,5420,5416,1676,1148,744,24
4604,5416,5412,1676,1148,744,23
4600,5408,5408,1676,1148,744,23
4596,5400,5400,1676,1148,744,24
4592,5392,5392,1676,1148,744,23
4592,5388,5392,1676,1148,744,23
4592,5380,5384,1676,1148,744,24
4592,5376,5384,1676,1148,744,23
4588,5372,5380,1676,1148,744,23
4588,5372,5380,1676,1148,744,24
4588,5372,5380,1676,1148,744,23
4588,5372,5380,1676,1148,744,24
4588,5372,5380,1676,1148,744,23
4588,5376,5380,1676,1148,744,23
4588,5372,5380,1676,1148,744,24
4588,5372,5380,1676,1148,744,23
4592,5380,5384,1676,1148,744,23
4592,5380,5388,1676,1148,744,24
4596,5384,5392,1676,1148,744,23
4592,5384,5388,1676,1148,744,23
4596,5388,5392,1676,1148,744,24
4596,5392,5392,1676,1148,744,23
4596,5392,5396,1676,1148,744,24
4596,5396,5400,1676,1148,744,23
4596,5400,5400,1676,1148,744,23
4596,5400,5400,1676,1148,744,24
4596,5404,5404,1676,1148,744,23
4596,5408,5404,1676,1148,744,23
4596,5412,5408,1676,1148,744,24
4600,5412,5412,1676,1148,744,23
4592,5400,5400,1676,1148,744,23
4592,5396,5396,1676,1148,744,24
4588,5384,5388,1676,1148,744,23
4588,5380,5384,1676,1148,744,23
4584,5372,5376,1676,1148,744,24
4584,5368,5376,1676,1148,744,23
4584,5364,5372,1676,1148,744,24
4584,5364,5372,1676,1148,744,23
4584,5364,5372,1676,1148,744,23
4584,5364,5372,1676,1148,744,24
4584,5368,5372,1676,1148,744,23
4588,5372,5376,1676,1148,744,23
4588,5368,5372,1676,1148,744,24
4588,5368,5376,1676,1148,744,23
4588,5372,5380,1676,1148,744,23
4592,5380,5384,1676,1148,744,24
4588,5376,5380,1676,1148,744,23
4592,5384,5388,1676,1148,744,23
4592,5384,5384,1676,1148,744,24
4592,5388,5388,1676,1148,744,23
4596,5392,5392,1676,1148,744,23
4596,5396,5396,1676,1148,744,24
4596,5400,5396,1676,1148,744,23
4596,5404,5400,1676,1148,744,24
4600,5408,5404,1676,1148,744,23
4604,5416,5412,1676,1148,744,23
4604,5420,5412,1676,1148,744,24
4604,5420,5412,1676,1148,744,23
4600,5416,5408,1676,1148,744,23
4600,5412,5408,1676,1148,744,24
4596,5404,5400,1676,1148,744,23
4592,5392,5388,1676,1148,744,23
4592,5388,5388,1676,1148,744,24
4592,5384,5384,1676,1148,744,23
4592,5380,5380,1676,1148,744,23
4588,5376,5380,1676,1148,744,24
4592,5380,5380,1676,1148,744,23
4592,5380,5380,1676,1148,744,24
4592,5380,5380,1676,1148,744,23
4592,5384,5384,1676,1148,744,23
4592,5384,5388,1676,1148,744,24
4592,5388,5388,1676,1148,744,23
4592,5388,5388,1676,1148,744,23
4596,5392,5392,1676,1148,744,24
4596,5392,5392,1676,1148,744,23
4596,5396,5392,1676,1148,744,23
4596,5396,5392,1676,1148,744,24
4596,5400,5396,1676,1148,744,23
4600,5404,5400,1676,1148,744,24
4600,5408,5404,1676,1148,744,23
4600,5412,5404,1676,1148,744,23
4604,5420,5412,1676,1148,744,24
4604,5424,5412,1676,1148,744,23
4604,5424,5412,1676,1148,744,23
4604,5428,5416,1676,1148,744,24
4604,5432,5420,1676,1148,744,23
4604,5436,5420,1676,1148,744,23
4604,5432,5420,1676,1148,744,24
4604,5428,5416,1676,1148,744,23
4600,5420,5408,1676,1152,744,23
4596,5408,5400,1676,1148,744,24
4592,5400,5396,1676,1148,744,23
4592,5396,5388,1676,1148,744,24
4592,5392,5388,1676,1148,744,23
4592,5392,5388,1676,1148,744,23
4596,5396,5388,1676,1148,744,24
4596,5392,5388,1676,1148,744,23
4596,5396,5392,1676,1148,744,23
4596,5396,5392,1676,1148,744,24
4596,5396,5392,1676,1148,744,23
4600,5400,5392,1676,1148,744,23
4592,5396,5388,1676,1148,744,24
4596,5400,5392,1676,1148,744,23
4596,5400,5392,1676,1148,744,23
4596,5404,5396,1676,1148,744,24
4600,5408,5400,1676,1148,744,23
4604,5416,5404,1676,1148,744,24
4596,5412,5400,1676,1148,744,23
4596,5416,5404,1676,1148,744,23
4600,5420,5408,1676,1148,744,24
4600,5424,5412,1676,1148,744,23
4600,5424,5412,1676,1148,744,23
4600,5428,5412,1676,1148,744,24
4600,5432,5416,1676,1152,744,23
4600,5436,5420,1676,1152,744,23
4604,5444,5424,1676,1152,744,24
4604,5440,5424,1676,1152,744,23
4604,5440,5424,1676,1152,744,23
4600,5432,5416,1676,1152,744,24
4600,5424,5408,1680,1152,748,23
4596,5416,5400,1680,1152,748,23
4592,5408,5396,1676,1152,744,24
4592,5404,5396,1676,1152,744,23
4596,5404,5396,1676,1152,744,24
4596,5404,5396,1676,1152,744,23
4596,5404,5396,1676,1148,744,23
4596,5404,5396,1676,1152,744,24
4596,5408,5396,1676,1148,744,23
4596,5404,5396,1676,1152,744,23
4592,5404,5396,1676,1152,744,24
4592,5404,5396,1676,1152,744,23
4596,5408,5396,1676,1148,744,23
4596,5412,5400,1676,1152,744,24
4596,5408,5400,1676,1152,744,23
4596,5416,5404,1676,1152,744,23
4596,5416,5404,1676,1152,744,24
4596,5416,5404,1676,1152,744,23
4596,5420,5404,1676,1152,744,24
4596,5424,5408,1676,1152,744,23
4596,5428,5412,1676,1152,744,23
4596,5428,5412,1676,1152,748,24
4600,5436,5416,1676,1152,744,23
4600,5436,5420,1680,1152,748,23
4600,5444,5420,1676,1152,744,24
4604,5448,5428,1680,1152,748,23
4600,5448,5424,1676,1152,744,23
4600,5444,5424,1676,1152,744,24
4600,5444,5424,1680,1152,748,23
4596,5436,5416,1680,1152,748,24
4596,5428,5412,1676,1152,748,23
4592,5420,5404,1676,1152,744,23
4588,5416,5400,1676,1152,748,24
4588,5412,5396,1676,1152,748,23
4592,5408,5396,1676,1152,744,23
4592,5408,5396,1676,1152,744,24
4588,5408,5392,1676,1152,748,23
4592,5408,5396,1676,1152,744,23
4592,5408,5396,1676,1152,744,24
4592,5412,5400,1676,1152,744,23
4592,5408,5396,1676,1152,744,23
4592,5412,5400,1676,1152,744,24
4592,5412,5400,1676,1152,744,23
4592,5416,5400,1676,1152,744,24
4592,5412,5400,1676,1152,744,23
4592,5416,5404,1676,1152,744,23
4592,5416,5400,1676,1152,744,24
4592,5420,5404,1680,1152,748,23
4592,5424,5408,1676,1152,744,23
4596,5428,5412,1676,1152,744,24
4596,5432,5416,1676,1152,744,23
4596,5436,5416,1676,1152,744,23
4596,5440,5420,1680,1152,748,24
4592,5436,5416,1676,1152,744,23
4596,5444,5424,1676,1152,748,23
4596,5444,5424,1676,1152,744,24
4596,5448,5424,1676,1152,744,23
4596,5448,5424,1676,1152,748,23
4596,5444,5420,1676,1152,744,24
4592,5436,5416,1676,1152,748,23
4592,5428,5408,1676,1152,744,24
4588,5420,5404,1676,1152,744,23
4588,5416,5400,1676,1152,744,23
4588,5416,5400,1676,1152,744,24
4588,5412,5396,1676,1152,744,23
4588,5416,5400,1676,1152,744,23
4588,5416,5400,1676,1152,744,24
4588,5416,5400,1676,1152,748,23
4592,5420,5404,1676,1152,744,23
4588,5420,5400,1676,1152,744,24
4592,5420,5404,1676,1152,744,23
4592,5424,5404,1676,1152,744,23
4588,5420,5404,1676,1152,744,24
4592,5428,5408,1676,1152,744,23
4592,5428,5412,1676,1152,744,24
4596,5436,5416,1676,1152,744,23
4596,5436,5416,1676,1152,744,23
4596,5440,5420,1676,1152,744,24
4600,5448,5424,1676,1152,744,23
4600,5448,5424,1676,1152,744,23
4600,5452,5424,1676,1152,744,24
4600,5456,5432,1676,1152,744,23
4600,5460,5432,1676,1152,748,23
4600,5460,5432,1676,1152,748,24
4604,5468,5436,1676,1152,748,23
4604,5472,5440,1676,1152,748,23
4604,5472,5444,1676,1152,744,24
4600,5468,5440,1676,1152,748,23
4596,5460,5432,1676,1152,748,24
4596,5452,5424,1676,1152,748,23
4592,5448,5420,1676,1152,748,23
4592,5440,5416,1676,1152,748,24
4592,5436,5412,1676,1152,748,23
4592,5432,5412,1676,1152,748,23
4588,5428,5408,1676,1152,748,24
4588,5428,5408,1676,1152,748,23
4588,5428,5404,1676,1152,744,23
4588,5428,5408,1676,1152,744,24
4588,5428,5404,1676,1152,744,23
4592,5428,5408,1676,1152,744,23
4592,5428,5408,1676,1152,744,24
4592,5432,5408,1676,1152,744,23
4588,5432,5408,1676,1152,744,24
4592,5432,5408,1676,1152,748,23
4592,5436,5412,1676,1152,744,23
4596,5440,5416,1676,1152,744,24
4596,5440,5416,1676,1152,748,23
4596,5448,5420,1676,1152,748,23
4596,5452,5424,1676,1152,748,24
4600,5456,5428,1676,1152,748,23
4600,5460,5432,1676,1152,748,23
4600,5460,5432,1676,1152,748,24
4600,5464,5436,1676,1152,748,23
4600,5468,5436,1676,1152,748,23
4604,5472,5444,1676,1152,748,24
4604,5476,5440,1676,1152,748,23
4604,5476,5444,1676,1152,748,24
4608,5476,5444,1676,1152,748,23
4604,5468,5440,1676,1152,748,23
4604,5464,5436,1676,1152,748,24
4596,5448,5424,1676,1152,748,23
4592,5440,5416,1676,1152,748,23
4592,5432,5412,1676,1152,748,24
4592,5432,5412,1676,1152,748,23
4596,5432,5412,1676,1152,748,23
4592,5428,5408,1676,1152,744,24
4588,5424,5404,1676,1152,748,23
4592,5424,5408,1676,1152,744,23
4592,5424,5404,1676,1152,748,24
4596,5428,5408,1676,1152,744,23
4596,5428,5408,1676,1152,744,24
4596,5424,5408,1676,1152,748,23
4592,5424,5408,1676,1152,748,23
4596,5428,5412,1676,1152,748,24
4596,5428,5408,1676,1152,748,23
4596,5428,5412,1676,1152,748,23
4596,5432,5412,1676,1152,744,24
4596,5436,5416,1676,1152,748,23
4596,5436,5416,1676,1152,748,23
4592,5436,5416,1676,1152,744,24
4596,5440,5416,1676,1152,748,23
4600,5444,5420,1676,1152,748,23
4600,5448,5424,1676,1152,748,24
4596,5448,5424,1676,1152,748,23
4600,5448,5428,1676,1152,748,23
4596,5452,5428,1676,1152,748,24
4596,5452,5428,1676,1152,748,23
4600,5456,5428,1676,1152,748,24
4600,5452,5428,1676,1152,748,23
4596,5440,5420,1676,1152,748,23
4592,5432,5412,1680,1152,748,24
4592,5424,5408,1676,1152,748,23
4592,5416,5400,1680,1152,748,23
4588,5408,5396,1676,1152,748,24
4588,5404,5392,1676,1152,748,23
4584,5400,5388,1676,1152,748,23
4588,5400,5388,1676,1152,748,24
4588,5400,5388,1676,1152,748,23
4588,5400,5388,1676,1152,748,23
4592,5404,5392,1676,1152,744,24
4588,5396,5388,1676,1152,744,23
4588,5400,5388,1676,1152,748,24
4588,5396,5388,1676,1152,748,23
4588,5396,5388,1676,1152,744,23
4588,5400,5392,1676,1152,744,24
4588,5400,5392,1676,1152,748,23
4588,5400,5392,1676,1152,748,23
4588,5400,5392,1676,1152,744,24
4588,5404,5396,1676,1152,748,23
4592,5408,5400,1676,1152,748,23
4592,5412,5400,1676,1152,744,24
4592,5412,5400,1676,1152,748,23
4592,5412,5404,1676,1152,744,23
4592,5416,5404,1676,1152,748,24
4592,5420,5408,1676,1152,748,23
4592,5420,5408,1676,1152,748,23
4592,5424,5408,1676,1152,748,24
4592,5420,5408,1676,1152,748,23
4588,5412,5400,1676,1152,748,24
4588,5408,5396,1676,1152,748,23
4584,5396,5388,1676,1152,748,23
4576,5384,5376,1676,1152,748,24
4576,5372,5372,1676,1152,748,23
4576,5372,5372,1676,1152,748,23
4576,5368,5368,1676,1152,744,24
4576,5368,5368,1676,1152,748,23
4576,5364,5368,1676,1152,744,23
4580,5364,5368,1676,1152,748,24
4576,5364,5364,1676,1152,748,23
4580,5364,5368,1676,1152,744,24
4580,5364,5368,1676,1152,744,23
4580,5360,5364,1676,1152,744,23
4576,5360,5364,1676,1152,744,24
4580,5360,5364,1676,1152,744,23
4580,5364,5368,1676,1152,748,23
4580,5364,5368,1676,1152,744,24
4580,5368,5372,1676,1152,744,23
4580,5368,5372,1676,1152,748,23
4576,5364,5368,1676,1152,748,24
4580,5372,5372,1676,1152,748,23
4580,5372,5372,1676,1152,748,23
4580,5376,5376,1676,1152,748,24
4580,5380,5380,1676,1152,744,23
4584,5384,5380,1676,1152,748,24
4584,5388,5384,1676,1152,748,23
4584,5392,5388,1676,1152,748,23
4584,5392,5388,1676,1152,748,24
4588,5392,5388,1676,1152,744,23
4584,5384,5380,1676,1152,748,23
4580,5376,5376,1676,1152,748,24
4576,5368,5368,1676,1152,748,23
4576,5364,5364,1676,1152,748,23
4576,5356,5360,1676,1152,748,24
4572,5348,5356,1676,1152,748,23
4568,5340,5348,1676,1152,744,23
4568,5340,5344,1676,1152,748,24
4568,5340,5348,1676,1152,748,23
4568,5340,5348,1676,1152,748,23
4568,5340,5344,1676,1152,744,24
4568,5340,5348,1676,1152,744,23
4568,5340,5348,1676,1152,748,24
4572,5348,5352,1676,1152,748,23
4576,5348,5356,1676,1152,748,23
4576,5348,5356,1676,1152,748,24
4572,5352,5356,1676,1152,748,23
4576,5352,5360,1676,1152,744,23
4576,5356,5360,1676,1148,744,24
4580,5364,5364,1676,1152,744,23
4580,5364,5368,1676,1152,744,23
4580,5368,5368,1676,1148,744,24
4584,5376,5372,1676,1152,744,23
4580,5376,5372,1676,1152,748,24
4580,5380,5376,1676,1152,744,23
4584,5384,5380,1676,1152,748,23
4584,5388,5384,1676,1152,748,24
4588,5392,5388,1676,1152,748,23
4588,5392,5388,1676,1152,748,23
4584,5384,5384,1676,1152,748,24
4584,5380,5376,1676,1152,748,23
4580,5372,5372,1676,1152,748,23
4576,5360,5360,1676,1152,748,24
4576,5352,5356,1676,1148,744,23
4576,5348,5356,1676,1148,744,23
4576,5344,5352,1676,1152,748,24
4576,5348,5352,1676,1148,744,23
4576,5344,5352,1676,1148,744,24
4576,5344,5352,1676,1148,744,23
4580,5348,5356,1676,1152,744,23
4580,5348,5356,1676,1148,744,24
4580,5348,5356,1676,1152,744,23
4580,5352,5360,1676,1148,744,23
4580,5348,5356,1676,1152,744,24
4580,5352,5360,1676,1148,744,23
4580,5352,5360,1676,1148,744,23
4580,5352,5356,1676,1152,748,24
4580,5352,5360,1676,1152,744,23
4584,5356,5364,1676,1152,744,23
4584,5360,5368,1676,1152,744,24
4584,5364,5368,1676,1152,748,23
4588,5368,5372,1676,1152,748,24
4588,5372,5372,1676,1152,744,23
4588,5376,5376,1676,1152,748,23
4588,5376,5376,1676,1152,748,24
4588,5380,5376,1676,1152,748,23
4588,5384,5380,1676,1152,748,23
4588,5388,5384,1676,1152,748,24
4584,5380,5376,1676,1152,748,23
4588,5380,5376,1676,1152,748,23
4588,5372,5372,1676,1152,748,24
4584,5364,5368,1676,1152,748,23
4580,5356,5360,1676,1152,748,23
4576,5348,5352,1676,1152,748,24
4576,5344,5348,1676,1152,748,23
4580,5344,5352,1676,1152,748,24
4580,5340,5348,1676,1152,748,23
4576,5340,5348,1676,1152,748,23
4576,5340,5348,1676,1152,748,24
4580,5344,5352,1676,1152,748,23
4580,5344,5352,1676,1152,748,23
4576,5340,5348,1676,1152,744,24
4576,5340,5348,1676,1152,744,23
4580,5344,5352,1676,1152,744,23
4576,5344,5352,1676,1152,748,24
4576,5344,5352,1676,1152,748,23
4584,5352,5360,1676,1152,748,23
4584,5356,5360,1676,1152,748,24
4580,5356,5360,1676,1152,748,23
4584,5356,5364,1676,1152,748,23
4588,5364,5368,1676,1152,748,24
4588,5368,5368,1676,1152,748,23
4588,5372,5372,1676,1152,748,24
4588,5376,5376,1676,1152,748,23
4588,5376,5376,1676,1152,748,23
4588,5384,5380,1676,1152,748,24
4592,5388,5384,1676,1152,748,23
4588,5384,5384,1676,1152,748,23
4588,5384,5380,1676,1152,748,24
4588,5380,5376,1676,1152,748,23
4584,5372,5372,1676,1152,748,23
4584,5364,5364,1676,1152,748,24
4580,5356,5360,1676,1152,748,23
4580,5348,5352,1676,1152,748,23
4576,5344,5352,1676,1152,748,24
4576,5336,5344,1676,1152,748,23
4580,5340,5348,1676,1152,744,24
4580,5344,5352,1676,1152,744,23
4580,5344,5352,1676,1152,748,23
4580,5344,5352,1676,1152,744,24
4580,5344,5352,1676,1148,744,23
4580,5344,5352,1676,1148,744,23
4580,5344,5352,1676,1148,744,24
4580,5344,5352,1676,1152,744,23
4580,5344,5352,1676,1152,744,23
4584,5352,5356,1676,1152,748,24
4584,5352,5360,1676,1152,748,23
4584,5356,5360,1676,1152,744,23
4584,5360,5364,1676,1152,748,24
4584,5360,5364,1676,1152,748,23
4584,5364,5368,1676,1152,748,24
4584,5368,5368,1676,1152,748,23
4584,5372,5372,1676,1152,748,23
4588,5380,5376,1676,1152,748,24
4588,5380,5376,1676,1152,748,23
4588,5384,5380,1676,1152,748,23
4588,5384,5384,1676,1152,748,24
4584,5384,5380,1676,1152,748,23
4588,5384,5380,1676,1152,748,23
4584,5372,5372,1676,1152,748,24
4580,5364,5364,1676,1152,748,23
4576,5356,5360,1676,1152,748,23
4576,5352,5356,1676,1152,744,24
4572,5344,5348,1676,1148,744,23
4572,5340,5344,1676,1148,744,24
4572,5336,5344,1676,1148,744,23
4572,5336,5344,1676,1148,744,23
4572,5336,5344,1676,1148,744,24
4572,5336,5344,1676,1148,744,23
4576,5340,5348,1676,1148,744,23
4576,5340,5348,1676,1148,744,24
4576,5344,5348,1676,1148,744,23
4576,5340,5348,1676,1148,744,23
4576,5344,5348,1676,1148,744,24
4576,5344,5348,1676,1148,744,23
4576,5348,5352,1676,1148,744,23
4580,5352,5356,1676,1152,744,24
4580,5356,5360,1676,1148,744,23
4580,5360,5360,1676,1148,744,24
4580,5360,5364,1676,1148,744,23
4584,5368,5368,1676,1148,744,23
4584,5372,5368,1676,1148,744,24
4584,5376,5372,1676,1148,744,23
4584,5376,5372,1676,1152,744,23
4584,5380,5376,1676,1152,744,24
4588,5388,5380,1676,1152,744,23
4588,5388,5384,1676,1152,744,23
4584,5384,5380,1676,1152,744,24
4580,5376,5372,1676,1152,748,23
4580,5372,5368,1676,1152,748,23
4576,5364,5364,1676,1152,748,24
4572,5356,5356,1676,1152,748,23
4572,5352,5352,1676,1152,744,23
4572,5348,5348,1676,1148,744,24
4572,5344,5348,1676,1148,744,23
4568,5344,5344,1676,1148,744,24
4576,5348,5352,1676,1148,744,23
4576,5352,5352,1676,1148,744,23
4572,5348,5352,1676,1148,744,24
4576,5352,5352,1676,1148,744,23
4576,5352,5352,1676,1148,744,23
4580,5356,5356,1676,1148,744,24
4580,5360,5360,1676,1148,744,23
4580,5360,5360,1676,1148,744,23
4584,5368,5364,1676,1148,744,24
4584,5372,5368,1676,1148,744,23
4584,5376,5372,1676,1152,748,23
4584,5376,5372,1676,1148,744,24
4588,5384,5376,1676,1152,744,23
4588,5388,5380,1676,1152,744,24
4588,5392,5380,1676,1152,748,23
4588,5392,5384,1676,1152,744,23
4588,5396,5384,1676,1152,748,24
4588,5400,5388,1676,1152,744,23
4588,5404,5392,1676,1152,748,23
4588,5404,5392,1676,1152,748,24
4588,5408,5392,1676,1152,748,23
4588,5404,5388,1676,1152,748,23
4584,5396,5380,1676,1152,748,24
4584,5388,5376,1676,1152,748,23
4580,5380,5372,1676,1152,748,23
4580,5380,5368,1676,1152,744,24
4580,5376,5368,1676,1152,744,23
4576,5372,5364,1676,1148,744,24
4576,5368,5364,1676,1152,744,23
4576,5368,5360,1676,1148,744,23
4576,5368,5360,1676,1152,744,24
4584,5376,5372,1676,1152,744,23
4584,5380,5372,1676,1148,744,23
4588,5384,5376,1676,1152,748,24
4584,5384,5376,1676,1152,748,23
4584,5384,5372,1676,1152,744,23
4584,5388,5376,1676,1152,744,24
4588,5388,5376,1676,1152,744,23
4588,5396,5384,1676,1152,748,24
4588,5396,5384,1676,1152,744,23
4592,5404,5388,1676,1152,744,23
4592,5404,5392,1676,1152,748,24
4588,5408,5392,1676,1152,748,23
4592,5412,5396,1676,1152,748,23
4592,5416,5396,1676,1152,748,24
4596,5424,5404,1676,1152,744,23
4596,5424,5404,1676,1152,748,23
4596,5428,5408,1676,1152,748,24
4596,5432,5412,1676,1152,748,23
4596,5436,5412,1676,1152,744,23
4596,5432,5412,1676,1152,748,24
4596,5432,5408,1676,1152,748,23
4588,5420,5400,1676,1152,748,23
4592,5420,5396,1676,1152,748,24
4588,5412,5392,1676,1152,748,23
4588,5408,5388,1676,1152,748,24
4584,5404,5384,1676,1152,748,23
4592,5408,5392,1680,1152,748,23
4588,5404,5388,1676,1152,748,24
4588,5404,5388,1676,1152,748,23
4588,5404,5388,1676,1152,748,23
4592,5408,5392,1676,1152,748,24
4588,5404,5388,1676,1152,748,23
4588,5404,5388,1680,1152,748,23
4588,5408,5392,1676,1152,748,24
4588,5408,5388,1676,1152,744,23
4588,5412,5392,1676,1152,744,23
4588,5408,5392,1676,1152,744,24
4588,5412,5392,1676,1152,748,23
4592,5416,5396,1676,1152,744,24
4592,5420,5400,1676,1152,748,23
4592,5420,5400,1676,1152,744,23
4592,5428,5404,1676,1152,744,24
4592,5428,5408,1676,1152,744,23
4596,5440,5412,1676,1152,748,23
4596,5440,5416,1676,1152,748,24
4600,5448,5420,1676,1152,744,23
4600,5452,5420,1676,1152,744,23
4600,5452,5424,1676,1152,748,24
4600,5460,5428,1676,1152,748,23
4600,5460,5428,1676,1152,744,23
4600,5456,5428,1676,1152,744,24
4600,5456,5424,1676,1152,748,23
4596,5452,5420,1676,1152,748,24
4592,5440,5412,1676,1152,748,23
4588,5432,5408,1676,1152,748,23
4588,5428,5404,1676,1152,748,24
4592,5428,5404,1676,1152,744,23
4592,5428,5404,1676,1152,744,23
4592,5424,5404,1676,1152,744,24
4588,5420,5400,1676,1152,744,23
4588,5424,5400,1676,1152,744,23
4588,5424,5404,1676,1152,744,24
4592,5428,5404,1676,1152,744,23
4588,5424,5400,1676,1152,744,23
4588,5424,5404,1676,1148,744,24
4588,5424,5400,1676,1152,744,23
4588,5428,5404,1676,1152,744,23
4588,5428,5404,1676,1152,744,24
4592,5432,5408,1676,1152,744,23
4592,5436,5408,1676,1152,744,24
4592,5440,5412,1676,1152,744,23
4596,5444,5416,1676,1152,744,23
4596,5448,5420,1676,1152,748,24
4596,5452,5420,1676,1152,744,23
4596,5452,5424,1676,1152,748,23
4596,5456,5428,1676,1152,748,24
4600,5464,5432,1676,1152,748,23
4596,5464,5428,1676,1152,744,23
4600,5468,5436,1676,1152,744,24
4600,5472,5436,1676,1152,748,23
4600,5472,5440,1676,1152,748,23
4596,5468,5432,1676,1152,748,24
4596,5460,5428,1676,1152,748,23
4592,5452,5424,1676,1152,748,24
4592,5448,5416,1676,1152,748,23
4584,5440,5412,1676,1152,748,23
4584,5432,5408,1676,1152,748,24
4584,5432,5404,1676,1152,748,23
4584,5432,5404,1676,1152,744,23
4584,5432,5404,1676,1152,748,24
4584,5432,5404,1676,1152,748,23
4584,5428,5404,1676,1152,748,23
4584,5432,5408,1676,1152,744,24
4588,5436,5412,1676,1152,744,23
4584,5436,5408,1676,1152,748,23
4588,5436,5408,1676,1152,744,24
4588,5436,5408,1676,1152,744,23
4588,5440,5412,1676,1152,744,24
4588,5444,5412,1676,1152,748,23
4588,5444,5416,1676,1152,748,23
4588,5448,5416,1676,1152,744,24
4592,5452,5420,1676,1152,744,23
4592,5452,5420,1676,1152,744,23
4592,5460,5424,1676,1152,748,24
4592,5464,5428,1676,1152,744,23
4596,5472,5436,1676,1152,744,23
4596,5472,5432,1676,1152,744,24
4596,5476,5436,1676,1152,748,23
4600,5480,5440,1676,1152,748,23
4596,5480,5440,1676,1152,748,24
4600,5484,5444,1676,1152,748,23
4600,5484,5444,1676,1152,748,24
4596,5476,5436,1676,1152,748,23
4592,5468,5428,1676,1152,748,23
4592,5460,5428,1676,1152,748,24
4592,5456,5420,1676,1152,748,23
4592,5456,5424,1676,1152,748,23
4592,5452,5420,1676,1152,748,24
4592,5452,5420,1676,1152,748,23
4592,5452,5420,1676,1152,748,23
4592,5456,5424,1676,1152,748,24
4592,5452,5420,1676,1152,748,23
4592,5456,5424,1676,1152,748,24
4596,5460,5424,1676,1152,748,23
4592,5456,5424,1676,1152,748,23
4596,5460,5428,1680,1152,748,24
4592,5460,5424,1676,1152,748,23
4596,5460,5428,1676,1152,744,23
4596,5464,5432,1676,1152,744,24
4600,5472,5436,1676,1152,748,23
4600,5472,5436,1676,1152,748,23
4600,5476,5440,1676,1152,748,24
4600,5476,5440,1676,1152,748,23
4600,5484,5444,1676,1152,748,23
4604,5488,5448,1676,1152,748,24
4604,5492,5452,1676,1152,748,23
4604,5496,5452,1676,1152,748,24
4604,5496,5452,1676,1152,748,23
4604,5500,5456,1676,1152,748,23
4604,5500,5460,1676,1152,748,24
4608,5500,5460,1676,1152,748,23
4604,5500,5456,1676,1152,748,23
4604,5496,5452,1676,1152,748,24
4600,5484,5444,1676,1152,748,23
4600,5480,5444,1676,1152,748,23
4600,5472,5436,1676,1152,748,24
4596,5464,5432,1676,1152,748,23
4596,5460,5428,1676,1152,748,23
4596,5456,5428,1676,1152,748,24
4596,5456,5428,1676,1152,748,23
4596,5456,5428,1676,1152,748,23
4596,5456,5424,1676,1152,744,24
4600,5460,5428,1676,1152,744,23
4596,5460,5428,1676,1152,748,24
4596,5460,5428,1676,1152,748,23
4600,5460,5428,1676,1152,744,23
4596,5460,5428,1676,1152,744,24
4596,5460,5428,1676,1152,744,23
4596,5460,5428,1676,1152,744,23
4596,5460,5432,1676,1152,748,24
4600,5468,5436,1676,1152,744,23
4600,5468,5436,1676,1152,748,23
4604,5476,5444,1676,1152,748,24
4600,5476,5440,1676,1152,748,23
4600,5476,5440,1676,1152,748,23
4604,5480,5444,1676,1152,748,24
4604,5484,5444,1676,1152,744,23
4604,5488,5452,1676,1152,748,24
4604,5488,5452,1676,1152,748,23
4604,5492,5452,1676,1152,748,23
4604,5492,5452,1676,1152,748,24
4604,5488,5452,1676,1152,748,23
4608,5484,5448,1676,1152,748,23
4604,5476,5444,1676,1152,748,24
4600,5468,5436,1676,1152,748,23
4600,5456,5428,1676,1152,748,23
4600,5452,5424,1676,1152,748,24
4592,5440,5416,1676,1152,744,23
4592,5436,5412,1676,1152,744,23
4592,5436,5412,1676,1152,748,24
4596,5436,5416,1676,1148,744,23
4592,5432,5412,1676,1152,744,24
4596,5436,5416,1676,1148,744,23
4596,5436,5416,1676,1148,744,23
4596,5436,5412,1676,1148,744,24
4596,5432,5412,1676,1148,744,23
4592,5432,5412,1676,1148,744,23
4592,5432,5412,1676,1152,744,24
4592,5432,5412,1676,1148,744,23
4596,5432,5416,1676,1148,744,23
4596,5436,5416,1676,1148,744,24
4596,5436,5416,1676,1148,744,23
4596,5436,5420,1676,1148,744,23
4596,5440,5420,1676,1152,744,24
4596,5440,5420,1676,1152,744,23
4596,5444,5424,1676,1152,744,24
4596,5444,5424,1676,1152,744,23
4596,5448,5424,1676,1152,748,23
4600,5452,5428,1676,1152,748,24
4600,5456,5432,1676,1152,748,23
4600,5456,5436,1676,1152,748,23
4600,5452,5432,1676,1152,748,24
4600,5444,5424,1676,1152,748,23
4596,5436,5420,1676,1152,748,23
4596,5428,5412,1676,1152,748,24
4592,5416,5404,1676,1152,748,23
4588,5404,5396,1676,1152,748,23
4584,5396,5392,1676,1152,744,24
4584,5392,5388,1676,1148,744,23
4584,5388,5384,1676,1148,744,24
4584,5388,5384,1676,1152,744,23
4584,5384,5380,1676,1148,744,23
4584,5384,5380,1676,1148,744,24
4584,5388,5384,1676,1148,744,23
4584,5388,5384,1676,1148,744,23
4588,5388,5384,1676,1148,744,24
4584,5380,5380,1676,1148,744,23
4584,5380,5380,1676,1148,744,23
4584,5380,5380,1676,1148,744,24
4584,5384,5384,1676,1148,744,23
4584,5384,5384,1676,1148,744,23
4588,5388,5388,1676,1148,744,24
4588,5392,5388,1676,1148,744,23
4588,5392,5388,1676,1148,744,23
4584,5392,5388,1676,1148,744,24
4588,5396,5392,1676,1148,744,23
4588,5400,5396,1676,1148,744,24
4588,5400,5396,1676,1148,744,23
4592,5408,5400,1676,1148,744,23
4592,5408,5404,1676,1148,744,24
4588,5408,5400,1676,1148,744,23
4588,5400,5392,1676,1148,744,23
4584,5392,5388,1676,1148,744,24
4584,5380,5380,1676,1148,744,23
4580,5368,5372,1676,1148,744,23
4576,5360,5364,1676,1148,744,24
4576,5352,5360,1676,1148,744,23
4572,5344,5356,1676,1148,744,24
4572,5340,5352,1676,1148,744,23
4576,5340,5352,1676,1148,744,23
4572,5340,5352,1676,1148,744,24
4572,5340,5352,1676,1148,744,23
4576,5344,5356,1676,1148,744,23
4580,5348,5360,1676,1148,744,24
4576,5344,5356,1676,1148,744,23
4576,5344,5356,1676,1148,744,23
4576,5344,5356,1676,1148,744,24
4576,5348,5356,1676,1148,744,23
4576,5348,5356,1676,1148,744,23
4576,5352,5360,1676,1148,744,24
4580,5352,5364,1676,1148,744,23
4580,5356,5364,1676,1148,744,23
4580,5356,5364,1676,1148,744,24
4580,5360,5364,1676,1148,744,23
4580,5364,5368,1676,1148,744,24
4584,5372,5376,1676,1148,744,23
4584,5372,5376,1676,1148,744,23
4584,5376,5380,1676,1148,744,24
4584,5380,5384,1676,1148,744,23
4584,5380,5380,1676,1148,744,23
4584,5376,5376,1676,1148,744,24
4584,5368,5376,1676,1148,744,23
4584,5360,5372,1676,1148,744,23
4580,5348,5360,1676,1152,748,24
4576,5340,5352,1676,1148,744,23
4576,5332,5348,1676,1148,744,23
4576,5328,5344,1676,1148,744,24
4576,5328,5344,1676,1148,744,23
4576,5324,5344,1676,1148,744,24
4576,5328,5344,1676,1148,744,23
4576,5324,5344,1676,1148,744,23
4580,5328,5344,1676,1148,744,24
4580,5332,5348,1676,1148,744,23
4580,5332,5348,1676,1148,744,23
4580,5332,5348,1676,1148,744,24
4580,5332,5348,1676,1148,744,23
4580,5332,5348,1676,1148,744,23
4580,5332,5348,1676,1148,744,24
4580,5336,5352,1676,1148,744,23
4584,5344,5356,1676,1148,744,23
4584,5344,5360,1676,1148,744,24
4584,5348,5360,1676,1148,744,23
4584,5348,5360,1676,1148,744,24
4584,5352,5364,1676,1148,744,23
4584,5356,5368,1676,1148,744,23
4584,5360,5368,1676,1148,744,24
4588,5364,5372,1676,1148,744,23
4588,5368,5376,1676,1148,744,23
4588,5368,5376,1676,1148,744,24
4588,5368,5376,1676,1148,744,23
4584,5360,5368,1676,1148,744,23
4584,5348,5364,1676,1148,744,24
4584,5340,5356,1676,1148,744,23
4580,5328,5344,1676,1148,744,24
4580,5324,5344,1676,1148,744,23
4576,5320,5340,1676,1148,744,23
4576,5312,5332,1676,1148,744,24
4576,5308,5332,1676,1148,744,23
4576,5308,5332,1676,1148,744,23
4576,5308,5332,1676,1148,744,24
4576,5312,5332,1676,1148,744,23
4576,5312,5332,1676,1148,744,23
4576,5312,5332,1676,1148,744,24
4580,5316,5336,1676,1148,744,23
4580,5320,5340,1676,1148,744,23
4580,5320,5340,1676,1148,744,24
4580,5320,5340,1676,1148,744,23
4580,5324,5344,1676,1148,744,23
4580,5324,5344,1676,1148,744,24
4584,5328,5348,1676,1148,744,23
4584,5332,5348,1676,1148,744,24
4584,5336,5352,1676,1148,744,23
4584,5340,5356,1676,1148,744,23
4584,5340,5356,1676,1148,744,24
4588,5348,5360,1676,1148,744,23
4588,5352,5364,1676,1148,744,23
4588,5352,5364,1676,1148,744,24
4588,5356,5368,1676,1148,744,23
4588,5356,5368,1676,1148,744,23
4588,5348,5364,1676,1148,744,24
4588,5344,5356,1676,1148,744,23
4584,5332,5352,1676,1148,744,23
4580,5324,5344,1676,1148,744,24
4580,5320,5340,1676,1148,744,23
4576,5304,5328,1676,1148,744,24
4572,5300,5324,1676,1148,744,23
4576,5300,5324,1676,1148,744,23
4572,5296,5320,1676,1148,744,24
4576,5300,5324,1676,1148,744,23
4576,5300,5324,1676,1148,744,23
4576,5304,5328,1676,1148,744,24
4576,5300,5324,1676,1148,744,23
4576,5300,5324,1676,1148,744,23
4576,5300,5324,1676,1148,744,24
4576,5304,5324,1676,1148,744,23
4580,5308,5328,1676,1148,744,23
4576,5308,5328,1676,1148,744,24
4580,5312,5336,1676,1148,744,23
4580,5312,5336,1676,1148,744,24
4580,5316,5336,1676,1148,744,23
4580,5316,5340,1676,1148,744,23
4584,5324,5344,1676,1148,744,24
4584,5328,5348,1676,1148,744,23
4584,5332,5348,1676,1148,744,23
4584,5332,5352,1676,1148,744,24
4584,5336,5352,1676,1148,744,23
4588,5344,5356,1676,1148,744,23
4588,5344,5356,1676,1148,744,24
4584,5340,5356,1676,1148,744,23
4584,5336,5352,1676,1148,744,24
4584,5332,5352,1676,1148,744,23
4580,5320,5340,1676,1148,744,23
4576,5312,5332,1676,1148,744,24
4576,5304,5328,1676,1148,744,23
4572,5296,5320,1676,1148,744,23
4572,5292,5320,1676,1148,744,24
4572,5288,5316,1676,1148,744,23
4572,5288,5316,1676,1148,744,23
4572,5288,5316,1676,1148,744,24
4572,5292,5316,1676,1148,744,23
4572,5292,5316,1676,1148,744,23
4576,5292,5320,1676,1148,744,24
4576,5296,5324,1676,1148,744,23
4576,5300,5324,1676,1148,744,24
4576,5300,5324,1676,1148,744,23
4576,5300,5324,1676,1148,744,23
4576,5300,5324,1676,1148,744,24
4576,5308,5328,1676,1148,744,23
4576,5308,5328,1676,1148,744,23
4580,5312,5336,1676,1148,744,24
4580,5316,5336,1676,1148,744,23
4584,5324,5344,1676,1148,744,23
4584,5324,5344,1676,1148,744,24
4580,5328,5344,1676,1148,744,23
4584,5332,5348,1676,1148,744,23
4584,5336,5352,1676,1148,744,24
4584,5336,5352,1676,1148,744,23
4584,5340,5352,1676,1148,744,23
4584,5336,5352,1676,1148,744,24
4580,5328,5348,1676,1148,744,23
4580,5324,5340,1676,1148,744,24
4576,5312,5332,1676,1148,744,23
4572,5300,5324,1676,1148,744,23
4568,5296,5320,1676,1148,744,24
4568,5292,5316,1676,1148,744,23
4572,5292,5316,1676,1148,744,23
4568,5292,5316,1676,1148,744,24
4568,5292,5316,1676,1148,744,23
4572,5296,5320,1676,1148,744,23
4572,5296,5320,1676,1148,744,24
4572,5300,5324,1676,1148,744,23
4576,5300,5324,1676,1148,744,23
4576,5304,5324,1676,1148,744,24
4576,5308,5332,1676,1148,744,23
4580,5312,5332,1676,1148,744,24
4580,5312,5332,1676,1148,744,23
4580,5320,5336,1676,1148,744,23
4580,5320,5336,1676,1148,744,24
4580,5324,5336,1676,1148,744,23
4580,5328,5344,1676,1148,744,23
4584,5332,5348,1676,1148,744,24
4584,5336,5348,1676,1148,744,23
4584,5344,5356,1676,1148,744,23
4588,5348,5360,1676,1148,744,24
4584,5348,5356,1676,1148,744,23
4588,5356,5364,1676,1148,744,24
4588,5360,5368,1676,1148,744,23
4588,5360,5368,1676,1148,744,23
4588,5360,5364,1676,1148,744,24
4584,5352,5360,1676,1148,744,23
4588,5348,5356,1676,1148,744,23
4584,5336,5348,1676,1148,744,24
4580,5332,5344,1676,1148,744,23
4580,5332,5344,1676,1148,744,23
4576,5324,5336,1676,1148,744,24
4576,5320,5336,1676,1148,744,23
4580,5320,5336,1676,1148,744,23
4576,5320,5336,1676,1148,744,24
4580,5328,5340,1676,1148,744,23
4580,5324,5340,1676,1148,744,24
4584,5332,5344,1676,1148,744,23
4584,5332,5344,1676,1148,744,23
4584,5332,5344,1676,1148,744,24
4584,5336,5348,1676,1148,744,23
4584,5340,5348,1676,1148,744,23
4584,5340,5348,1676,1148,744,24
4584,5344,5352,1676,1148,744,23
4588,5352,5356,1676,1148,744,23
4588,5356,5360,1676,1148,744,24
4588,5360,5364,1676,1148,744,23
4588,5360,5364,1676,1148,744,23
4592,5368,5368,1676,1148,744,24
4592,5376,5372,1676,1148,744,23
4596,5380,5376,1676,1148,744,23
4592,5380,5376,1676,1148,744,24
4592,5380,5376,1676,1148,744,23
4592,5384,5384,1676,1148,744,24
4592,5384,5380,1676,1148,744,23
4592,5384,5380,1676,1152,744,23
4592,5376,5376,1676,1152,744,24
4588,5368,5368,1676,1152,744,23
4588,5364,5368,1676,1152,744,23
4588,5360,5360,1676,1148,744,24
4584,5356,5356,1676,1148,744,23
4584,5352,5356,1676,1148,744,23
4588,5356,5356,1676,1148,744,24
4588,5356,5360,1676,1148,744,23
4588,5360,5360,1676,1148,744,23
4592,5360,5364,1676,1148,744,24
4592,5364,5368,1676,1148,744,23
4592,5364,5368,1676,1148,744,24
4592,5368,5368,1676,1152,744,23
4592,5372,5372,1676,1148,744,23
4592,5368,5368,1676,1148,744,24
4592,5372,5368,1676,1148,744,23
4588,5372,5372,1676,1148,744,23
4592,5380,5372,1676,1148,744,24
4592,5380,5376,1676,1148,744,23
4596,5388,5384,1676,1148,744,23
4596,5392,5384,1676,1148,744,24
4600,5396,5388,1676,1148,744,23
4596,5400,5392,1676,1148,744,23
4596,5404,5392,1676,1148,744,24
4600,5408,5396,1676,1152,744,23
4600,5412,5400,1676,1152,744,24
4600,5416,5400,1680,1152,748,23
4600,5420,5404,1676,1152,744,23
4600,5416,5400,1676,1152,744,24
4600,5416,5400,1680,1152,748,23
4596,5408,5396,1676,1152,744,23
4592,5400,5388,1676,1152,744,24
4592,5396,5384,1676,1152,748,23
4592,5392,5380,1676,1152,744,23
4592,5392,5380,1676,1152,748,24
4592,5388,5380,1676,1152,744,23
4592,5388,5380,1676,1152,744,23
4588,5384,5376,1676,1152,744,24
4588,5384,5376,1676,1152,744,23
4588,5388,5376,1676,1152,744,24
4592,5392,5380,1676,1152,744,23
4592,5392,5380,1676,1152,744,23
4588,5388,5380,1676,1152,744,24
4592,5396,5384,1676,1148,744,23
4588,5392,5380,1676,1148,744,23
4592,5396,5384,1676,1148,744,24
4592,5400,5388,1676,1148,744,23
4592,5404,5392,1676,1148,744,23
4596,5412,5396,1676,1148,744,24
4596,5412,5396,1676,1148,744,23
4596,5416,5400,1676,1152,744,24
4596,5420,5404,1676,1148,744,23
4600,5424,5408,1676,1152,744,23
4600,5428,5408,1676,1152,744,24
4600,5432,5412,1676,1152,744,23
4596,5432,5412,1676,1152,744,23
4600,5436,5416,1676,1152,744,24
4600,5440,5416,1676,1152,744,23
4600,5440,5416,1676,1152,744,23
4596,5436,5412,1676,1152,744,24
4596,5432,5408,1676,1152,744,23
4592,5424,5404,1676,1148,744,23
4592,5416,5400,1676,1152,744,24
4588,5412,5392,1676,1152,744,23
4588,5408,5392,1676,1148,744,23
4588,5408,5388,1676,1148,744,24
4588,5408,5388,1676,1148,744,23
4584,5404,5388,1676,1152,744,24
4588,5408,5388,1676,1152,744,23
4584,5404,5388,1676,1148,744,23
4584,5408,5388,1676,1148,744,24
4588,5408,5392,1676,1148,744,23
4584,5408,5388,1676,1152,744,23
4588,5412,5392,1676,1148,744,24
4588,5412,5396,1676,1148,744,23
4588,5416,5396,1676,1148,744,23
4588,5420,5400,1676,1148,744,24
4592,5420,5400,1676,1148,744,23
4588,5424,5400,1676,1148,744,23
4592,5428,5404,1676,1152,744,24
4592,5428,5404,1676,1148,744,23
4592,5432,5408,1676,1148,744,24
4596,5440,5416,1676,1148,744,23
4596,5444,5416,1676,1152,744,23
4596,5444,5420,1676,1152,744,24
4596,5448,5420,1676,1152,744,23
4596,5456,5424,1676,1152,744,23
4596,5456,5428,1676,1152,744,24
4596,5452,5424,1676,1152,744,23
4596,5448,5420,1676,1152,744,23
4592,5444,5416,1676,1152,744,24
4592,5440,5412,1676,1152,744,23
4588,5432,5408,1676,1152,744,23
4584,5424,5400,1676,1152,744,24
4584,5424,5400,1676,1152,744,23
4584,5420,5396,1676,1152,744,24
4588,5424,5400,1676,1152,744,23
4588,5424,5400,1676,1152,744,23
4588,5424,5400,1676,1148,744,24
4588,5428,5404,1676,1152,744,23
4588,5432,5404,1676,1152,744,23
4592,5432,5404,1676,1152,744,24
4592,5436,5408,1676,1148,744,23
4592,5436,5408,1676,1148,744,23
4592,5440,5412,1676,1152,744,24
4596,5444,5412,1676,1148,744,23
4592,5444,5416,1676,1152,744,23
4596,5448,5420,1676,1152,744,24
4596,5452,5420,1676,1152,744,23
4600,5456,5424,1676,1152,748,24
4596,5460,5424,1676,1152,744,23
4596,5460,5428,1676,1152,744,23
4600,5468,5432,1676,1152,744,24
4600,5472,5432,1676,1152,744,23
4600,5476,5436,1676,1152,748,23
4604,5480,5440,1676,1152,744,24
4604,5480,5444,1676,1152,744,23
4608,5488,5448,1676,1152,748,23
4604,5484,5444,1676,1152,748,24
4604,5480,5440,1676,1152,748,23
4604,5472,5436,1676,1152,748,24
4596,5464,5428,1676,1152,748,23
4596,5460,5428,1676,1152,744,23
4596,5452,5420,1676,1152,748,24
4592,5448,5416,1676,1152,744,23
4596,5448,5416,1676,1152,744,23
4592,5448,5416,1676,1152,744,24
4596,5448,5416,1676,1152,744,23
4596,5448,5416,1676,1152,744,23
4592,5448,5416,1676,1152,744,24
4596,5452,5420,1676,1152,744,23
4596,5452,5420,1676,1152,748,23
4592,5452,5420,1676,1152,744,24
4596,5456,5420,1676,1152,744,23
4596,5456,5424,1676,1152,744,23
4600,5460,5428,1676,1152,744,24
4600,5464,5428,1676,1152,744,23
4596,5464,5428,1676,1152,744,24
4600,5468,5432,1676,1152,744,23
4600,5472,5432,1676,1152,748,23
4600,5476,5436,1676,1152,748,24
4600,5476,5440,1676,1152,748,23
4604,5484,5444,1676,1152,748,23
4600,5484,5440,1676,1152,748,24
4604,5488,5444,1676,1152,748,23
4604,5492,5448,1676,1152,748,23
4604,5496,5452,1676,1152,748,24
4604,5496,5452,1676,1152,748,23
4604,5492,5448,1676,1152,748,24
4604,5488,5444,1676,1152,748,23
4600,5476,5436,1680,1152,748,23
4600,5472,5436,1676,1152,748,24
4596,5468,5432,1676,1152,748,23
4596,5464,5428,1676,1152,744,23
4596,5460,5424,1676,1152,748,24
4596,5460,5424,1676,1152,748,23
4596,5460,5424,1676,1152,744,23
4596,5460,5424,1676,1152,748,24
4596,5460,5428,1676,1152,744,23
4596,5464,5428,1676,1152,748,23
4600,5468,5428,1676,1152,748,24
4596,5468,5432,1676,1152,748,23
4596,5468,5428,1676,1152,748,23
4596,5468,5432,1676,1152,744,24
4596,5472,5432,1676,1152,748,23
4596,5472,5432,1676,1152,748,24
4600,5480,5440,1676,1152,748,23
4600,5480,5440,1676,1152,748,23
4600,5484,5444,1680,1152,748,24
4604,5488,5444,1676,1152,748,23
4604,5492,5452,1676,1152,748,23
4600,5496,5448,1676,1152,748,24
4604,5500,5452,1676,1152,748,23
4604,5500,5456,1676,1152,748,23
4608,5508,5464,1676,1152,748,24
4608,5512,5464,1676,1152,748,23
4608,5512,5464,1676,1152,748,24
4608,5512,5464,1676,1152,748,23
4608,5512,5464,1676,1152,748,23
4604,5500,5460,1676,1152,748,24
4600,5496,5452,1676,1152,748,23
4600,5492,5448,1676,1152,748,23
4600,5492,5448,1676,1152,748,24
4600,5484,5440,1676,1152,748,23
4600,5488,5444,1676,1152,748,23
4600,5480,5440,1676,1152,748,24
4600,5484,5440,1676,1152,748,23
4600,5484,5440,1676,1152,748,23
4596,5484,5440,1676,1152,748,24
4596,5480,5440,1676,1152,748,23
4600,5488,5444,1676,1152,748,23
4596,5484,5440,1676,1152,748,24
4600,5488,5448,1676,1152,748,23
4596,5488,5444,1676,1152,748,24
4596,5484,5444,1676,1152,748,23
4596,5488,5444,1676,1152,748,23
4596,5488,5448,1676,1152,748,24
4596,5492,5448,1676,1152,744,23
4604,5500,5456,1676,1152,744,23
4600,5500,5456,1676,1152,748,24
4604,5504,5460,1676,1152,748,23
4600,5500,5456,1676,1152,748,23
4600,5504,5460,1676,1152,748,24
4600,5508,5464,1676,1152,748,23
4600,5512,5464,1676,1152,748,23
4600,5512,5468,1676,1152,748,24
4604,5516,5472,1676,1152,748,23
4600,5516,5468,1676,1152,748,24
4604,5516,5468,1676,1152,748,23
4604,5508,5464,1676,1152,748,23
4600,5500,5456,1676,1152,748,24
4596,5500,5452,1676,1152,748,23
4596,5492,5448,1676,1152,748,23
4596,5488,5444,1676,1152,748,24
4596,5484,5444,1676,1152,748,23
4592,5480,5440,1676,1152,748,23
4592,5480,5440,1676,1152,748,24
4592,5480,5440,1676,1152,748,23
4592,5480,5440,1676,1152,748,23
4592,5480,5444,1676,1152,748,24
4592,5480,5444,1676,1152,748,23
4592,5480,5440,1676,1152,748,24
4592,5480,5440,1676,1152,748,23
4592,5484,5444,1676,1152,744,23
4592,5480,5444,1676,1152,744,24
4592,5480,5440,1676,1152,744,23
4592,5484,5444,1676,1152,748,23
4592,5484,5448,1676,1152,748,24
4596,5492,5448,1676,1152,748,23
4596,5492,5452,1676,1152,748,23
4596,5496,5452,1676,1152,748,24
4596,5496,5452,1676,1152,748,23
4600,5500,5456,1676,1152,748,23
4600,5500,5460,1676,1152,748,24
4600,5500,5464,1676,1152,748,23
4600,5504,5464,1676,1152,748,23
4600,5504,5460,1676,1152,748,24
4596,5500,5456,1676,1152,748,23
4596,5492,5452,1676,1152,748,24
4592,5484,5444,1676,1152,748,23
4592,5476,5440,1676,1152,748,23
4592,5472,5436,1676,1152,748,24
4588,5464,5432,1676,1152,748,23
4592,5460,5428,1676,1152,748,23
4592,5456,5428,1676,1152,748,24
4592,5456,5428,1676,1152,748,23
4592,5456,5428,1676,1152,748,23
4588,5456,5424,1676,1152,748,24
4592,5452,5424,1676,1152,748,23
4588,5452,5424,1676,1152,748,23
4592,5452,5424,1676,1152,748,24
4592,5456,5428,1676,1152,748,23
4588,5452,5424,1676,1152,748,24
4592,5452,5424,1676,1152,748,23
4592,5452,5424,1676,1152,748,23
4592,5456,5428,1676,1152,748,24
4592,5456,5428,1676,1152,748,23
4596,5460,5432,1676,1152,748,23
4596,5460,5432,1676,1152,748,24
4596,5460,5432,1676,1152,748,23
4592,5460,5432,1676,1152,748,23
4596,5464,5436,1680,1152,748,24
4596,5468,5436,1676,1152,748,23
4596,5472,5440,1676,1152,748,23
4596,5468,5436,1676,1152,748,24
4596,5468,5436,1676,1152,748,23
4596,5464,5436,1676,1152,748,23
4596,5456,5428,1676,1152,748,24
4592,5444,5420,1676,1152,748,23
4592,5432,5412,1676,1152,748,24
4588,5424,5408,1676,1152,748,23
4588,5412,5400,1676,1152,748,23
4584,5408,5396,1676,1152,748,24
4584,5400,5392,1676,1152,748,23
4584,5396,5388,1680,1152,748,23
4588,5400,5392,1680,1152,748,24
4584,5392,5388,1676,1152,748,23
4584,5392,5384,1676,1152,748,23
4584,5392,5384,1676,1152,748,24
4584,5388,5384,1676,1152,748,23
4584,5388,5380,1676,1152,748,24
4580,5384,5380,1676,1152,748,23
4580,5384,5380,1676,1152,748,23
4584,5388,5384,1676,1152,748,24
4584,5388,5380,1676,1152,748,23
4584,5388,5384,1680,1152,748,23
4584,5388,5384,1676,1152,748,24
4584,5388,5384,1676,1152,748,23
4584,5388,5384,1676,1152,748,23
4584,5388,5384,1676,1152,748,24
4584,5392,5384,1680,1152,748,23
4588,5396,5392,1680,1152,748,23
4588,5400,5392,1676,1152,748,24
4588,5400,5392,1680,1152,748,23
4592,5400,5396,1676,1152,748,23
4588,5392,5388,1676,1152,748,24
4588,5384,5380,1680,1156,748,23
4584,5372,5372,1680,1156,748,24
4584,5364,5368,1676,1152,748,23
4580,5352,5360,1676,1152,748,23
4580,5344,5352,1676,1152,748,24
4580,5336,5348,1676,1152,748,23
4580,5332,5344,1680,1152,748,23
4580,5328,5344,1676,1152,748,24
4580,5324,5344,1676,1152,748,23
4580,5324,5340,1680,1152,748,23
4580,5324,5340,1676,1152,748,24
4580,5324,5340,1676,1152,748,23
4576,5320,5336,1676,1152,748,23
4576,5320,5336,1676,1152,748,24
4576,5320,5336,1676,1152,748,23
4576,5320,5336,1676,1152,748,24
4576,5316,5332,1676,1152,748,23
4576,5320,5336,1676,1152,748,23
4576,5320,5336,1676,1152,748,24
4580,5324,5340,1676,1152,748,23
4580,5328,5344,1676,1152,748,23
4580,5328,5344,1676,1152,748,24
4580,5332,5344,1676,1152,748,23
4580,5332,5348,1676,1152,748,23
4584,5340,5352,1676,1152,748,24
4584,5340,5352,1680,1152,748,23
4584,5344,5356,1680,1152,748,23
4584,5344,5356,1676,1152,748,24
4584,5348,5360,1676,1152,748,23
4584,5340,5352,1676,1152,748,24
4584,5332,5348,1680,1152,748,23
4580,5324,5340,1676,1152,748,23
4576,5312,5332,1676,1152,748,24
4572,5300,5324,1676,1152,748,23
4572,5292,5316,1676,1152,748,23
4576,5292,5316,1676,1152,748,24
4572,5284,5312,1676,1152,748,23
4572,5284,5312,1676,1152,748,23
4576,5288,5316,1676,1152,748,24
4572,5284,5312,1676,1152,748,23
4572,5284,5312,1676,1152,748,23
4572,5288,5312,1676,1152,748,24
4576,5292,5316,1676,1152,748,23
4572,5288,5312,1676,1152,748,24
4576,5288,5316,1676,1152,748,23
4576,5292,5320,1676,1152,748,23
4576,5296,5320,1676,1152,748,24
4580,5300,5324,1676,1152,748,23
4576,5296,5320,1676,1152,748,23
4580,5308,5328,1676,1152,748,24
4580,5308,5332,1676,1152,748,23
4584,5312,5336,1676,1152,748,23
4584,5316,5340,1680,1152,748,24
4584,5320,5340,1676,1152,748,23
4584,5324,5340,1676,1152,748,23
4580,5324,5340,1676,1152,748,24
4580,5324,5340,1676,1152,748,23
4580,5328,5344,1676,1152,748,23
4584,5332,5348,1676,1152,748,24
4580,5328,5344,1676,1152,748,23
4576,5316,5336,1676,1152,748,24
4576,5308,5328,1676,1152,748,23
4576,5300,5324,1676,1152,748,23
4572,5292,5316,1676,1152,748,24
4572,5284,5312,1676,1152,748,23
4568,5276,5308,1676,1152,748,23
4572,5280,5308,1676,1152,748,24
4572,5276,5308,1676,1152,748,23
4572,5276,5304,1676,1152,744,23
4572,5280,5308,1676,1152,748,24
4572,5280,5308,1676,1152,744,23
4572,5280,5308,1676,1152,748,23
4572,5280,5308,1676,1152,744,24
4572,5284,5312,1676,1152,748,23
4572,5284,5312,1676,1152,748,24
4572,5288,5312,1676,1152,744,23
4572,5288,5316,1676,1152,744,23
4576,5292,5316,1676,1152,744,24
4572,5292,5320,1676,1152,748,23
