59283,563289,556880,-47,-10,1027
60005,564553,558552,-47,-8,1024
59416,564536,558393,-49,-5,1024
58242,563718,557158,-50,-5,1018
59483,562633,556280,-50,-11,1018
59936,563276,557399,-48,-3,1018
59245,562681,556951,-48,-9,1027
57945,561305,555549,-48,-9,1020
59203,560529,554109,-55,-10,1020
59600,559891,555081,-47,-10,1024
58769,559485,554362,-47,-1,1035
57501,557950,552940,-47,-3,1020
59180,557044,552112,-43,-5,1020
59174,556548,551741,-51,-5,1027
58332,556247,551913,-51,-5,1014
57146,554768,550501,-34,-9,1014
58807,553652,549933,-49,-9,1027
59002,553319,549605,-49,-9,1032
58990,554198,550506,-51,-4,1032
57102,552145,548437,-45,-7,1033
58645,551297,548169,-45,-7,1020
58790,551077,547751,-43,-12,1023
58765,552010,548819,-51,-12,1023
57798,551627,548422,-45,0,1011
58493,550097,546957,-45,-9,1029
58829,550080,546853,-49,-3,1029
58612,551440,548257,-39,-3,1035
57698,551188,547903,-39,-3,1043
57028,549936,546923,-43,2,1043
58621,550241,546924,-50,2,1023
58469,551240,548258,-50,-9,1035
57641,551193,547811,-51,0,1035
57096,550002,546618,-51,0,1029
58430,550319,547071,-48,-12,1020
58378,551286,548167,-48,3,1020
57659,550883,547798,-48,3,1041
57109,549865,546524,-48,-12,1029
58516,550154,547066,-45,-7,1026
58449,550515,547345,-52,-3,1026
57663,551128,547578,-50,-3,994
57189,549944,546656,-50,-12,1037
58719,550403,547107,-45,-9,1037
58541,550987,547195,-36,-9,1017
58345,551845,548315,-36,-3,1026
57193,550551,546968,-52,-5,1026
58618,551036,547491,-50,-5,1024
58613,551342,547324,-42,-3,1021
58429,552411,548801,-42,-8,1021
57839,552452,548581,-42,-8,1013
57352,551839,548126,-42,-6,1027
58962,552185,547896,-48,-2,1027
58546,553025,549074,-48,-7,1027
57948,553156,548834,-40,-7,1024
57640,552189,548048,-40,-3,1014
58991,552706,548812,-47,-5,1014
58784,553884,549877,-44,-5,1005
58206,553814,549742,-44,-9,1017
57838,553077,548958,-51,-8,1017
59697,553515,549514,-42,-8,1020
59537,554768,550430,-45,-2,1027
58191,554681,550301,-45,-9,1027
58054,553835,549427,-44,-9,1026
60214,554386,550142,-44,-9,1018
59776,554823,550338,-53,-4,1014
58977,555533,550668,-47,-3,1014
58349,554798,549928,-53,-3,1008
60313,555142,550884,-53,-3,1010
59900,555699,550977,-49,0,1010
58846,556589,551691,-42,0,1020
58325,556548,550440,-42,-7,1005
60319,556340,551474,-47,-9,1005
59809,556661,551513,-57,-9,1027
58724,557023,552104,-53,0,1017
58334,556603,551451,-53,-1,1017
58396,555354,551467,-45,-1,1023
59798,556215,551120,-45,-4,1030
58486,555885,551243,-52,-3,1032
58111,554654,549924,-54,-9,1032
58100,552976,548489,-42,-9,1038
59563,553544,548818,-42,-7,1014
58103,552610,548642,-42,-3,1014
57827,551216,547287,-45,-3,1020
57638,549592,545739,-45,6,1044
59211,550181,546683,-54,-5,1044
59036,549988,546265,-38,-5,1030
57756,548223,545012,-38,0,1024
57232,546874,543922,-50,0,1023
59047,547388,544641,-50,0,1023
58747,547255,544388,-51,0,1023
57700,547076,544456,-51,-3,1041
57290,544689,542150,-42,-1,1041
58928,545388,543136,-49,-1,1035
58695,545446,542913,-49,-9,1007
57613,545176,542875,-53,3,1007
57554,544484,542101,-54,3,1037
58771,544348,542243,-54,-7,1017
58726,544817,542388,-36,1,1017
57526,544955,542561,-37,1,1011
57484,544570,542166,-37,-8,1023
57442,544261,541765,-45,2,1026
58743,545531,542810,-55,2,1026
57623,545446,543104,-48,-4,1023
57624,544871,542550,-48,3,1030
57766,544500,541935,-48,-2,1030
59225,545684,543534,-50,-2,1026
57706,545878,543446,-50,3,1051
57750,545529,542887,-48,-3,1051
58019,545267,542336,-48,-3,1023
59408,546450,543636,-48,-3,1023
59192,546941,543986,-43,-12,1023
57989,546633,543714,-50,-12,1032
58291,546368,543381,-50,-9,1008
59856,547590,544640,-48,-8,1018
59398,548196,544936,-45,-8,1018
57959,548497,545202,-45,-7,1002
58609,547734,544370,-45,-6,1030
60001,549059,545979,-48,-3,1030
59565,549617,546274,-45,-3,1044
58066,549846,546298,-45,-6,1029
58649,549594,546063,-45,-6,1029
60317,550799,547676,-47,-6,1032
59703,551389,547463,-47,-4,1032
58211,551317,547266,-51,-3,1032
58934,550970,546829,-51,-3,1035
59294,550956,546757,-45,-7,1023
60423,552790,548567,-45,5,1032
58322,552603,548266,-51,5,1032
58933,552332,547866,-44,-10,1041
59578,552347,547711,-44,-4,1029
60500,554121,549480,-59,-2,1029
59735,553521,548769,-42,-2,1027
59122,553261,548557,-42,-8,1027
59578,553381,548451,-47,0,1027
60516,555044,550250,-42,0,1040
59876,555397,550313,-42,0,1020
58560,554243,549220,-45,0,1020
59207,554487,549361,-57,0,1005
60428,556175,551087,-51,-12,1024
60012,556586,551178,-51,-3,1010
58695,556154,550706,-39,-3,1010
59412,556029,550540,-53,-10,1018
60548,557591,552210,-53,-2,1020
60070,557896,552202,-49,-4,1020
58792,557285,551566,-45,-4,1023
59538,557102,551473,-45,-4,1035
59523,557169,552196,-53,-3,1035
59976,557824,552054,-47,-3,1018
58683,556491,551009,-47,-5,1021
59388,555787,550373,-48,-13,1021
59557,555017,549431,-40,-2,1023
60301,555875,550296,-40,-2,1013
58617,554007,548951,-45,-3,1013
59436,553222,548477,-42,-3,1021
59610,552239,547641,-42,-7,1016
60197,553107,548802,-47,-4,1018
59473,553162,547286,-52,8,1018
59500,551233,546866,-41,8,1032
59742,550405,546140,-41,-5,1033
60177,551420,547400,-49,-7,1033
59298,551014,547053,-44,-7,1027
58049,549984,545454,-44,-7,1030
59644,548989,545000,-43,1,1030
60027,549740,546226,-42,-4,1017
59109,549690,545906,-42,-4,1026
57954,548517,544973,-42,-8,1040
59674,548499,544610,-42,-8,1040
60023,549727,546091,-42,-12,1037
59166,549825,545982,-42,-9,1026
58115,549198,545198,-39,-7,1026
60026,548968,545151,-43,-7,1017
60254,549613,545417,-43,-6,1018
59256,550732,546716,-45,-4,1018
58204,550009,545880,-37,-4,1029
60077,549873,545924,-37,-9,1037
60216,550174,545983,-38,-8,1037
60205,551654,547702,-51,-8,1043
58515,550848,546451,-48,1,1017
60245,550757,546568,-48,-3,1017
60364,551235,546646,-45,-3,1011
60291,552648,548291,-45,-9,1041
59406,552808,548099,-39,-12,1010
60422,551660,547259,-39,-14,1010
60386,552105,547564,-39,-14,1047
60530,553595,549151,-39,-2,1023
59553,553558,548709,-42,-1,1023
59117,552762,547900,-45,-1,1023
60560,553168,548352,-45,-3,1024
60630,554711,549704,-43,-6,1024
59674,554485,549362,-54,-6,1026
59088,553362,548106,-54,-9,1001
60581,553844,548897,-47,-15,1001
60533,555478,550286,-51,-2,1032
59745,555217,549930,-51,-2,1016
59183,554252,548692,-47,-9,1030
60832,554702,549363,-49,0,1030
60655,555348,549509,-41,0,1018
59719,555971,550232,-41,-7,1033
59162,554948,549071,-43,-10,1033
60834,555284,549527,-45,-10,1026
60621,555769,549481,-45,-5,1040
60497,556608,550842,-52,-9,1040
59806,555312,549459,-43,-9,1033
60702,555631,550002,-49,-3,1027
60784,555940,549868,-49,-2,1027
60582,557044,551080,-41,-2,1032
59928,557094,550876,-41,-7,1011
59479,556482,550540,-41,0,1047
61019,556592,550428,-43,-1,1047
60650,557714,551625,-42,-1,1040
59835,557632,551340,-42,-9,1035
59472,556820,550357,-56,-9,1035
61156,557185,550916,-51,-9,1020
60652,558112,551822,-51,-1,1024
59827,557788,551539,-36,-9,1024
59557,556503,550178,-51,-9,1044
61394,556358,550484,-51,-7,1037
61153,555945,550326,-51,-9,1037
59669,555111,549310,-57,0,1007
59405,553427,547800,-57,0,1035
61318,553138,547828,-42,-7,1011
60837,552793,547401,-51,-6,1011
59895,551492,546641,-54,-6,1024
58970,549758,544939,-54,-7,1038
61124,549640,545330,-47,-10,1038
60476,549458,545074,-51,-10,1027
59371,549444,545049,-51,-13,1024
58695,548596,542428,-49,-8,1024
60603,547103,543229,-51,-8,1020
60220,546977,542847,-51,-4,1038
59067,546867,542958,-43,-9,1038
58457,545703,541689,-52,-8,1047
58543,544230,541447,-52,-8,1024
60070,544682,541218,-48,0,1032
58739,544826,541329,-45,-8,1032
58326,544311,540572,-51,-8,1017
58486,543340,539686,-51,-3,1018
60211,544571,541089,-38,0,1018
58713,544966,541359,-49,0,1029
58556,544436,540477,-49,-3,1040
58482,543390,539664,-48,-3,1040
60217,544598,540981,-54,-3,1041
59855,544952,541692,-42,-7,1020
58630,544252,540683,-42,6,1020
58190,543680,539930,-47,6,1027
59979,544667,541274,-47,-6,1035
59789,544985,541162,-48,-5,1018
58570,545228,541583,-53,-3,1018
58242,543766,539950,-51,-3,1011
59992,544839,541199,-51,-5,1029
59773,545224,541181,-48,-10,1029
58733,545502,541549,-54,-10,1011
58681,544916,540910,-54,-3,1029
60121,545303,541586,-47,-9,1029
59912,545912,541646,-48,-9,1008
58618,546313,542089,-48,0,1023
58645,545526,541388,-50,-6,1026
58620,545229,541053,-52,-6,1026
60001,546740,542144,-52,0,1020
58808,546831,542447,-44,-3,1046
58673,546294,541986,-39,-6,1046
58787,545950,541473,-45,-6,1017
60230,547196,543005,-45,-3,1040
58807,547557,542928,-45,0,1040
58794,547178,542693,-45,0,1021
58980,546636,542007,-45,3,1017
60420,548014,543348,-50,-5,1017
60180,548506,543583,-48,-5,1037
58904,547753,543129,-48,1,1041
59210,547464,542706,-53,-9,1041
60740,548753,543970,-45,-9,1040
60313,549224,544264,-45,9,1029
58855,549388,544353,-53,-4,1018
59315,548379,543383,-51,-4,1018
60828,549662,544774,-45,-4,1043
60242,550222,544923,-45,-7,1026
58759,550316,544963,-57,-6,1026
59303,549829,544359,-51,-6,1018
60954,550647,545706,-51,-13,1033
60308,551130,545727,-45,-7,1033
58769,551175,545357,-44,-7,1033
59285,550875,544959,-44,-5,1014
59885,550795,544828,-51,-7,1016
60962,552184,546457,-45,0,1016
58875,551780,545987,-45,0,1032
59545,551019,545034,-49,-6,1032
59964,550302,544536,-54,-3,1029
61001,551625,546194,-45,-3,1020
60252,549699,544494,-45,-13,1044
59418,548332,543301,-49,-8,1044
59826,547441,542488,-53,-8,1027
60593,548389,543736,-53,-9,1013
59893,547642,542921,-39,-1,1013
58469,545056,540724,-49,-1,1032
59213,544400,540028,-49,1,1032
60293,545494,541192,-51,-7,1032
59605,544607,540600,-48,-7,1018
58319,543624,539436,-48,-6,1021
58960,541736,538039,-51,-8,1029
60080,542736,539178,-57,-12,1029
59621,542323,538564,-53,-12,1023
58224,541038,537547,-53,-1,1032
58854,540240,536950,-51,-1,1032
58701,540084,537671,-48,-1,1040
59505,540480,537191,-48,-3,1017
58187,539467,536420,-52,2,1017
58904,538973,536211,-48,2,1021
58975,538991,535643,-48,-9,1029
60054,540604,537336,-47,-4,1029
58379,539991,536814,-55,-4,1030
59140,539932,536640,-55,3,1018
59413,539809,536191,-54,-12,1018
60221,541183,537797,-45,-1,1016
59760,541649,537353,-45,-1,1017
59521,540872,537311,-45,1,1027
59731,540482,536855,-39,-12,1027
60484,541905,538428,-53,-12,1023
59961,542038,538391,-53,-3,1030
58627,541587,537760,-44,-3,1030
60298,541277,537542,-48,-3,1029
60702,542778,539150,-48,-7,1023
59946,543152,539523,-49,-5,1023
58673,542847,538867,-47,-5,1029
60363,543049,538656,-47,0,1011
60846,544271,540427,-55,-3,1029
59921,544875,540408,-49,-3,1029
58775,544305,539761,-54,-3,1024
60665,544237,539853,-54,-1,1023
60831,544663,539782,-51,-4,1023
59889,546386,541558,-48,-4,1021
58863,545570,540696,-48,-7,1033
60851,545578,540831,-43,-5,1033
61004,545712,540772,-47,-5,1023
61041,547368,542478,-47,-9,1038
59203,546823,541495,-50,-4,1038
61015,546928,541791,-55,-3,997
61363,547408,541868,-55,-3,1049
61237,548870,543552,-54,-9,1049
60240,549076,543599,-48,-8,1018
61103,548013,542729,-49,-8,1007
61433,548481,542868,-49,-8,1023
61312,550020,544646,-54,-8,1023
60323,550285,544501,-48,-8,1018
59694,549348,543427,-48,0,1032
61511,550206,544023,-51,-9,1032
61422,551557,545791,-48,-9,1032
60621,551594,545379,-48,-3,1017
60083,550471,544220,-51,-5,1017
61566,551090,544901,-49,-12,1032
61590,553105,546967,-49,-12,1024
60798,553137,546563,-47,-7,1024
60345,552060,545578,-45,2,1035
61774,552500,546079,-49,2,1035
61757,553500,546590,-49,-4,1024
60840,554017,547187,-48,0,1024
60374,552675,545839,-48,0,1040
61897,552838,546262,-48,-5,1032
61675,553048,546140,-48,-3,1032
61616,553480,546976,-50,-3,1002
60120,550796,544414,-50,-3,1016
61713,550426,544419,-48,3,1018
61589,550182,543734,-45,3,1018
61212,550371,544621,-48,-4,1033
60573,549516,543637,-48,0,1033
59848,547645,542230,-45,0,1024
61375,547042,541468,-48,-10,1023
61182,547593,542418,-48,-4,1014
60355,546866,541805,-42,-6,1014
59781,545531,540561,-51,-6,1005
61239,545163,540194,-51,-5,1016
60991,545752,541061,-47,-2,1016
60181,545143,540426,-45,-2,1020
59636,543743,539074,-45,-3,1011
61357,543889,539392,-47,-1,1011
61416,544451,539909,-45,-1,1027
59993,544198,539486,-45,-1,1018
59831,543041,538499,-36,-3,1018
61877,543558,538981,-41,-9,1043
61523,543891,539106,-51,-9,1017
60602,544792,539868,-51,-9,1008
59925,544008,538927,-48,0,1008
62056,544449,539656,-44,0,1014
61595,544863,539927,-44,-4,1032
60650,545749,540810,-47,-11,1032
59970,545564,539135,-40,-11,1037
62253,545372,540338,-40,2,1035
61710,545911,540678,-40,-8,1026
60483,546620,541320,-42,0,1026
60011,546192,540904,-42,0,1029
60237,545529,541107,-47,-5,1029
61770,547007,541428,-42,-7,1040
60564,547594,542131,-30,-7,1020
60137,547380,541718,-30,-3,1033
60268,546512,540534,-41,-6,1033
62159,547865,542278,-50,-6,1023
60670,548921,542852,-50,-4,1024
60295,548698,542378,-44,-6,1024
60496,547633,541444,-48,-6,1023
62151,548890,542840,-48,-10,1033
62100,549437,543693,-45,-8,1016
60767,549456,542988,-39,-8,1016
60607,548749,542180,-49,-7,1026
62314,550073,543579,-49,-11,1026
62167,550492,543963,-45,-11,1016
61068,551073,544519,-43,-5,1035
60608,549641,542758,-43,-5,1013
62397,550831,544312,-45,-4,1013
62252,551141,544373,-51,-4,1029
61131,551488,544757,-51,-4,1018
61145,550847,543980,-48,2,1018
62401,551131,544540,-53,2,1020
62253,551721,544626,-53,-2,1030
61103,551727,544893,-44,2,1017
61073,550994,544141,-45,2,1017
60823,550471,543423,-45,0,1044
62460,552041,544847,-45,-10,1044
61075,552197,545088,-45,-10,1020
61175,551508,544510,-45,-5,1017
61037,551038,543939,-45,-1,1041
62657,552265,545448,-45,-6,1041
61175,552442,545523,-57,-6,1005
61142,551966,544655,-57,-3,1008
61184,551350,544142,-45,-1,1008
62658,552466,545495,-51,-1,1017
62418,552712,545335,-51,-10,1018
60961,550883,543957,-50,-4,1007
61157,549856,542800,-51,-4,1007
62609,550339,543582,-48,-7,1026
62176,549603,542971,-48,-6,1026
60569,548830,542355,-39,-6,1027
60952,545895,539878,-45,-3,1020
62363,546343,540475,-45,-2,1020
61906,545733,539967,-52,3,1020
60273,544949,539414,-47,3,1013
60355,543629,538180,-47,-2,1018
62137,542817,537974,-42,-3,1018
61418,542374,537413,-45,-3,1024
59752,541667,536889,-45,-7,1023
60112,540490,535711,-54,-1,1023
60299,539623,534826,-39,-1,1014
61762,539759,535422,-39,-6,1010
59433,539199,534658,-51,-5,1010
60031,537953,533457,-45,-9,1020
60367,537271,532896,-42,-9,1021
61524,538143,534609,-42,2,1026
60804,537855,533607,-57,-2,1026
60053,537069,532791,-45,-2,1038
60455,536917,532524,-45,0,1027
61414,538479,534392,-53,-8,1027
60731,538647,534256,-42,-8,1008
59434,537291,533015,-42,0,1030
60590,537091,532717,-54,0,1010
61498,538656,534538,-45,-8,1010
60939,538685,534187,-39,-8,1018
59613,537971,533570,-39,-3,1029
60346,537388,533020,-48,-3,1029
61554,538763,534439,-51,-3,1018
61103,538828,534288,-51,-3,1038
59801,538088,533631,-54,-6,1038
60571,537909,533295,-54,-6,1032
60526,538019,535012,-54,-8,1010
61310,539727,534906,-48,-5,1010
60202,538833,534195,-44,-5,1018
60888,538429,534040,-44,-5,1052
60805,538664,534031,-48,-9,1052
62015,540294,535732,-43,-3,1020
60593,539896,535219,-43,-3,1018
61297,539593,535115,-52,-5,1018
61397,539855,534850,-50,0,1020
62460,541246,536465,-48,0,1018
61999,541634,535927,-48,0,1008
61569,540815,535845,-54,-6,1008
61958,540732,535401,-48,-6,1023
62954,542192,537147,-48,-4,1024
62312,542453,537218,-52,-4,1024
61004,541821,536421,-50,-4,1023
62414,541500,536107,-50,-3,1016
63137,542925,537775,-56,-7,1016
62426,543201,537815,-49,-8,1023
61239,542512,537072,-49,-8,1021
62416,542743,536852,-52,-3,1021
63456,543881,538463,-44,-9,1013
62580,544133,538600,-53,-9,1029
61112,543307,537751,-53,-3,1026
62826,543137,537424,-45,-3,1026
63049,543152,537505,-42,-3,1007
62420,544895,539078,-42,4,1015
61143,543895,538206,-44,-5,1015
62957,543812,538021,-45,-5,1017
63197,544013,537969,-45,-5,1047
63460,545631,539579,-48,-3,1047
61251,544998,538691,-48,-3,1027
63140,544699,538534,-48,-8,1029
63409,544815,538519,-47,-4,1029
63431,545812,539996,-48,1,1008
62330,545369,539497,-51,1,1020
62986,542954,537274,-51,-6,1021
63233,542527,536847,-45,-1,1021
63178,543008,537964,-49,-1,1018
61888,542231,537129,-49,-4,1030
60984,540433,535320,-42,-5,1030
62953,538933,534065,-52,-5,1027
62745,539456,535072,-52,-3,1027
61586,538736,534181,-54,-1,1017
60834,536967,532368,-55,-1,1017
62288,536209,532011,-55,-2,1035
62494,536526,532650,-48,-6,1024
61218,535849,531909,-43,-9,1024
60683,534037,530078,-49,-9,1029
62173,533446,529853,-49,0,1037
62348,532983,529661,-56,-3,1037
60850,533074,529544,-47,-3,1018
60328,531155,527779,-47,-1,1026
61800,530908,527857,-48,0,1026
61939,531078,527906,-60,0,1014
61702,532136,529033,-60,-8,1021
60676,530384,526890,-54,1,1021
61753,530529,527515,-50,-3,1029
61805,531343,528040,-50,-3,1024
61601,532291,529143,-55,-5,1023
60538,532027,528687,-54,-3,1023
60204,531047,527671,-55,-3,1027
61497,531619,527947,-55,-3,1023
61248,532531,528991,-48,0,1023
60359,532028,528468,-53,0,1032
59826,530912,527294,-53,-3,1016
61433,531746,527748,-49,-8,1016
61098,532861,529014,-47,-8,1018
60327,532497,528687,-47,0,1026
59637,531259,527676,-59,-3,1026
61250,531857,528291,-55,-2,1026
61501,533398,529562,-55,-2,1016
60240,533485,529356,-52,-7,1018
59780,532701,528530,-48,-3,1018
61380,533172,529133,-45,-3,1027
61651,533756,529200,-45,-6,1013
61163,535005,530451,-47,-6,1013
59960,534110,529430,-44,-6,1026
61771,534800,530203,-44,-4,1020
61837,535187,530476,-42,0,1020
61134,536589,531612,-61,0,1049
60318,536491,530562,-61,-7,1018
62305,536099,531121,-50,-12,1018
62030,536600,531591,-45,-8,1018
61262,537685,532533,-45,-8,1044
60361,537670,532230,-51,-12,1032
60355,536946,532174,-47,-3,1032
62170,538071,532487,-40,-3,1033
61124,538970,533501,-40,0,1032
60500,538717,532961,-42,0,1032
60545,537888,531967,-54,0,1037
62714,538428,533499,-54,-12,1017
61132,539893,534128,-42,-2,1017
60401,539722,533473,-51,-2,1023
60498,538566,532368,-48,-7,1029
62312,539541,533729,-48,-7,1029
62083,540246,534477,-45,-7,1014
59815,539898,533648,-45,-3,1020
59941,538960,532501,-45,-9,1032
61771,540193,533876,-42,-1,1032
61246,540492,534131,-48,-1,1030
59819,541112,534547,-48,-9,1032
59282,539175,532453,-50,-10,1032
60866,540126,533763,-48,-10,1017
60488,540165,533762,-48,-6,1035
58968,540099,533792,-45,-6,1035
58460,538714,532456,-51,-6,1016
59467,537242,531294,-48,1,1024
59104,536859,530866,-48,-10,1024
57502,536279,530441,-53,-10,1035
56956,534554,528702,-53,-9,1005
56379,532955,527187,-52,1,1024
57480,532917,527232,-47,-7,1024
55947,532060,526839,-51,-7,1013
55545,530497,525278,-51,-7,1021
54834,528816,523838,-48,-3,1021
56273,529200,524476,-48,-3,1018
54183,528148,523440,-48,-6,1010
53688,526500,521856,-54,-10,1010
53121,525234,520495,-51,-10,1035
54474,525521,521129,-48,-8,1027
53907,525490,520822,-48,-6,1027
51702,523381,518969,-40,-6,1024
51372,522099,517873,-40,-9,1035
52582,522934,518790,-42,-8,1024
52102,523020,518617,-40,0,1024
50320,522905,518501,-45,0,1021
49851,521313,516440,-45,-1,1014
51296,522323,517774,-48,-13,1014
50739,522460,517529,-50,-13,1029
48924,522353,517578,-50,-9,1021
48565,521571,516598,-49,-11,1021
49811,521499,516761,-38,-11,1026
49126,521570,516512,-48,-4,1024
47341,521312,516329,-48,0,1024
47022,520417,515490,-43,-12,1029
47084,519965,514503,-43,-12,1035
48356,520719,515483,-42,0,1030
45839,520517,515468,-49,-9,1030
45915,519550,514505,-51,-9,1035
46291,519045,513975,-51,-7,1050
47833,520315,515217,-41,-4,1050
47422,520881,515662,-42,-4,1024
46126,520192,514954,-42,-6,1026
46542,519992,514642,-59,-3,1026
48137,521042,515922,-52,-3,1011
47444,521676,516263,-52,0,1027
45833,521376,515579,-49,-7,1027
46979,521072,515402,-48,-7,1026
48409,522616,517517,-48,-9,1021
47772,523246,517492,-52,-3,1010
46239,523420,517258,-53,-7,1010
47034,522815,516697,-51,-7,1011
48929,524515,518861,-51,-15,1018
48281,525143,518714,-41,-10,1018
46679,524599,518156,-43,-10,1023
47499,524115,517801,-43,-5,1033
48206,524128,520022,-56,-12,1033
48626,526047,519780,-45,-12,1037
47232,525533,518860,-45,-6,1013
47889,524947,518367,-48,0,1013
48599,525086,518449,-50,-9,1013
49574,526975,520563,-50,-9,1030
47623,526570,519900,-43,-3,1013
48517,526112,519436,-51,-6,1013
49024,526387,519594,-45,-6,1016
50251,528149,521482,-45,-5,1024
49776,528617,520921,-50,-3,1024
49451,527551,520732,-53,-3,1030
49727,527939,520924,-53,-9,1052
51339,529614,522745,-41,-3,1052
50854,529966,522933,-47,-3,1026
49628,529253,521853,-51,-7,1041
50715,528472,521598,-51,-5,1041
52265,529664,522985,-50,-5,1026
51745,529322,522663,-50,-2,1033
50516,528042,521386,-47,-10,1016
51360,527178,519878,-50,-8,1016
53102,527186,521043,-51,-8,1016
52607,526463,520549,-51,-6,1014
51440,524934,519345,-51,-9,1014
52462,524083,518921,-54,-9,1010
53049,523225,518032,-54,-5,1010
53347,523742,518836,-40,-1,1010
52207,522399,517718,-56,-1,1013
53256,521752,517211,-49,-2,1021
53989,521059,516477,-49,-8,1021
54600,522081,517767,-48,-4,1010
52743,520620,516477,-48,-4,1033
54187,519904,515845,-51,-6,1027
54726,519223,515205,-42,-5,1027
55166,520360,516596,-45,-5,1023
54446,520342,516390,-45,-12,1024
54932,518884,515087,-52,-8,1024
55473,518907,514884,-44,-8,1029
55789,520222,516520,-44,3,1038
54865,520705,516696,-51,-3,1038
53621,519929,515928,-48,-3,1030
56016,519581,515521,-48,-2,1023
56307,520857,517203,-57,5,1026
55291,521052,517019,-44,5,1026
54154,520067,515997,-54,-5,1057
56169,519780,515800,-54,-2,1013
56531,521142,517532,-42,-8,1013
55362,521175,517408,-47,-8,1040
54459,520177,516202,-47,-3,1029
56366,520061,516154,-55,-3,1029
56772,520528,516338,-43,-3,1018
55681,521879,517767,-43,-9,1018
54921,520791,516493,-51,5,1018
56718,520840,516555,-44,3,1013
57095,521270,516813,-44,3,1008
57027,522871,518742,-45,-12,1008
55976,521482,516960,-48,-12,1029
56949,521493,517245,-48,1,1026
57353,521945,517357,-57,-4,1035
57224,523462,519097,-51,-6,1035
56046,523526,518883,-49,-6,1044
55663,522649,517955,-49,0,1035
57563,522918,518303,-57,-3,1035
57410,524367,519686,-54,-3,1035
56234,524313,519141,-54,3,1023
55763,522986,518085,-51,-2,1023
57319,523533,518717,-50,-2,1020
57286,524732,519970,-57,-9,1024
56346,524503,519447,-57,1,1026
55889,523226,518273,-47,1,1026
57418,523643,518686,-47,-3,1029
57470,525256,520236,-47,-3,1014
56212,524774,519595,-48,-3,1014
55774,523461,518347,-49,-3,1029
57506,523778,518822,-49,-4,1030
57313,524419,519022,-48,0,1030
57035,524898,519710,-53,0,1020
55540,523743,518439,-53,-3,1021
57255,523984,518862,-52,0,1032
57287,524497,518771,-45,0,1032
56904,525640,520198,-45,-10,1030
55959,525471,518882,-29,-7,1030
57065,524672,519260,-45,-7,1060
57234,524878,519191,-47,-3,1037
56747,526055,520608,-47,1,1007
55919,525687,520119,-53,-11,1007
55602,524309,518919,-54,-11,1017
57293,523898,518520,-54,-4,1040
56575,524264,519187,-44,2,1040
55599,523211,518097,-49,2,1037
55200,521217,516330,-49,-3,1024
56954,520868,515870,-48,0,1024
56191,520602,516416,-48,2,1032
55390,519891,515436,-48,2,1024
55165,518092,513673,-55,-9,1020
57161,517815,513707,-54,-3,1020
57002,517396,514068,-55,-3,1018
55035,516754,513056,-55,1,1023
54959,515187,511451,-60,-11,1023
57131,514999,511688,-54,-11,1020
56608,514793,511460,-54,0,1021
55444,514967,511745,-54,-2,1021
54851,512180,509003,-64,-2,1024
56863,512246,509774,-64,-2,1037
56480,512270,509472,-51,-8,1037
55312,512575,509955,-55,-8,1041
54624,511998,509036,-55,-7,1027
56869,511325,509192,-50,-4,1027
56501,511957,509343,-63,-6,1005
55148,512409,509836,-52,-6,1020
54672,512065,509243,-52,0,1020
54999,511180,508207,-55,-3,1020
56592,512784,509972,-56,-3,1016
55225,513101,510405,-56,-3,1035
54767,512359,509489,-54,0,1035
55047,511369,508409,-56,0,1030
56771,512603,510017,-56,-4,1035
55227,513197,510484,-51,1,1035
54920,512400,509518,-57,-3,1017
54833,511440,508707,-57,-3,1014
56596,512702,510042,-51,-7,1020
56432,513680,510598,-53,-7,1020
54983,513179,510124,-51,-7,1010
54728,512482,509409,-51,2,1021
56674,513973,510902,-56,-8,1021
56485,514559,511305,-61,-8,1027
55350,515003,511685,-61,4,1035
54934,513810,510376,-56,-2,1035
56830,515214,511803,-51,-2,1016
56647,515860,512041,-51,2,1032
55427,516232,512428,-59,-7,1037
55323,515735,511791,-49,-6,1037
56908,516577,512929,-49,-6,1026
56887,517384,513247,-60,-8,1017
55465,517477,513558,-49,1,1017
55338,516910,512874,-60,1,1011
55440,516833,512408,-60,-11,1038
57152,518777,514173,-55,0,1038
55539,518995,514444,-56,0,1038
55592,518619,513791,-56,-9,1029
55716,518232,513403,-57,6,1029
57435,519729,515066,-48,6,1011
57085,520574,515473,-48,6,1029
55549,519916,514873,-48,-7,1029
56098,519605,514158,-50,-7,1021
57737,521054,515871,-50,-6,1017
57285,521474,515976,-45,-9,1010
55752,520864,515533,-48,-2,1010
56069,520516,515050,-51,-2,1020
57868,521881,516509,-51,-6,1021
57288,522287,516929,-48,-5,1021
55684,522488,517223,-57,-5,1023
55833,521790,516096,-57,-2,1021
57934,522991,517472,-53,2,1021
57355,523570,517807,-57,2,1018
55672,523524,517750,-49,-3,1029
56084,522926,517083,-49,-1,1017
56431,522326,517731,-59,3,1017
57261,523055,517582,-54,3,1020
55455,522373,516713,-54,-7,1021
56006,520913,515516,-53,-8,1021
56483,519945,514627,-55,-8,1027
57761,520638,515234,-55,2,1013
55236,518942,514107,-48,-4,1013
55825,517603,512924,-54,-4,1011
56353,516648,512066,-54,2,1024
57416,517539,513653,-49,-8,1024
56649,517441,511834,-49,-8,1029
55595,514780,510718,-49,0,1008
56188,513920,509914,-54,-4,1008
57027,515253,511491,-52,-4,1018
56340,514676,510814,-50,-4,1033
54746,513479,508695,-50,-8,1005
55779,511820,508263,-50,-7,1005
56702,513214,509746,-49,-7,1038
56022,512825,509335,-49,0,1026
54494,511557,508190,-51,-4,1026
55256,510883,507396,-57,-4,1017
56611,512389,509176,-57,-3,1033
56013,512599,509072,-54,-9,1027
54651,511739,508475,-57,-9,1027
55304,511363,508048,-57,-4,1030
55364,511879,508278,-54,-3,1030
56062,513708,509999,-51,-3,1027
54575,512801,509162,-57,-3,1018
55377,512302,508965,-57,-7,1038
55474,512463,508518,-57,-2,1038
56619,513903,510313,-60,-2,1026
54582,513107,509407,-60,-4,1024
55480,512940,509329,-59,-5,1024
55949,513021,509029,-56,-5,1014
56740,514548,510845,-56,-3,1014
56285,515170,511105,-56,-4,1013
55848,514560,510607,-57,-4,1013
56227,514575,510234,-48,-4,1002
56925,516314,512239,-48,-3,1002
56198,516867,512414,-51,-3,1032
54862,516358,511787,-54,-8,1020
56409,516597,511747,-54,-12,1033
57071,518181,513570,-44,-3,1033
56231,518754,513602,-53,-3,1021
54833,518106,512900,-53,-3,1021
56473,518484,512977,-51,-5,1021
57352,520156,514892,-47,-5,1032
56328,520396,514918,-47,-3,1020
55068,519868,514252,-49,-2,1020
56764,519641,514258,-53,-12,1020
57174,520089,514440,-53,-12,1026
56405,522052,516203,-50,-6,1005
55152,521206,515177,-47,-9,1005
57151,521165,515343,-42,-9,1020
57494,521462,515578,-42,0,1015
57605,523059,517296,-51,0,1015
56504,522653,516340,-42,0,1034
57367,522619,516508,-42,-10,1017
57654,523176,516820,-39,-9,1017
57626,524761,518653,-51,-9,1046
56592,525255,518668,-51,0,1032
55751,524537,517904,-48,-7,1032
57924,524970,518107,-48,-7,1032
57691,526768,520025,-48,0,1032
56693,526878,519827,-42,-5,1032
56007,525768,518702,-49,-5,1005
57616,525866,518987,-47,-5,1040
57798,526862,520297,-47,-3,1023
56589,526409,519497,-44,-5,1023
56063,524526,517820,-47,-5,1037
57613,524174,517723,-47,-2,1043
57652,524104,518193,-48,-3,1043
56444,523113,517017,-47,-3,1027
55839,521129,515160,-47,-9,1027
57364,520553,515085,-50,-10,1027
57355,520432,514896,-47,-10,1037
57220,519919,514681,-47,-3,1010
55649,517906,512781,-47,-6,1041
57215,517432,512728,-48,2,1041
57304,517423,512648,-44,2,1008
56985,517943,513163,-44,-2,1021
56042,516951,510553,-51,-7,1021
57105,514644,510479,-52,-7,1021
57178,514696,510046,-52,-5,1007
56816,514938,510822,-49,-8,1007
55960,514232,510222,-51,-8,1011
55403,512602,509156,-51,1,1023
57229,513201,508967,-53,-3,1029
56804,514161,510310,-51,-3,1029
55995,513908,509955,-48,-3,1007
55534,512810,508936,-48,-1,1027
57201,513340,509310,-51,-3,1027
57028,514619,510520,-50,-3,999
56107,514387,510277,-50,-3,1013
55835,513304,509235,-48,-4,1013
57472,513736,509772,-54,-4,1046
57657,513790,510787,-54,-5,1035
56179,514505,510367,-54,-13,1035
56012,513605,509237,-53,-13,1013
57952,513869,509956,-53,-3,1014
57836,514441,510208,-45,-6,1035
56932,515498,511289,-43,-6,1035
56130,514098,509698,-50,-1,1037
58343,514500,510352,-50,-3,1002
57935,515143,510775,-54,1,1002
56835,515768,511377,-48,1,1023
56055,515510,511010,-48,-1,1027
58410,515194,511061,-56,-3,1027
58003,515899,511357,-60,-3,1033
56753,516426,511902,-60,-5,1029
56042,515879,511295,-48,-12,1029
56115,515202,510007,-60,-12,1023
57922,516393,511562,-60,-5,1029
56545,516866,512158,-55,-11,1004
55820,516169,511429,-52,-2,1004
56099,515148,510153,-45,-2,1027
58027,516263,511687,-45,0,1024
56450,517031,512344,-54,0,1024
55955,516464,511462,-54,0,1024
56143,515291,510256,-54,6,1037
57776,516492,511733,-60,-5,1037
57657,516998,512018,-63,-5,1023
56051,516564,511514,-63,3,998
55949,515604,510634,-61,-2,998
57731,516896,511904,-56,-2,1026
57668,517426,512187,-56,-7,1026
56215,517635,512516,-53,1,1032
55802,516048,510803,-52,1,1032
57635,517161,512059,-63,6,1014
57456,517766,512386,-63,-1,1017
56189,517863,512770,-52,0,1017
56042,517176,511776,-57,0,1030
57608,517158,512087,-57,-9,1023
57340,517406,511989,-57,-1,1023
55967,516914,511895,-61,-1,1030
55789,515498,510613,-61,-3,1035
55579,514166,509301,-66,1,1035
57265,513935,509412,-59,1,1034
55493,513109,508786,-59,0,1021
55369,511196,507322,-62,-8,1005
55344,509730,505880,-60,-8,1005
56857,510043,506470,-55,-2,1032
56534,508715,505489,-55,0,1018
54920,507103,503967,-51,-1,1018
55118,505830,502646,-63,-1,1044
56604,506246,503659,-63,4,1035
56256,506056,502992,-63,-10,1035
54764,504142,501530,-57,-10,1024
54982,502979,500358,-57,-4,1007
56572,503616,501400,-56,1,1007
56060,503284,500714,-57,1,1018
54448,502675,500610,-57,-3,1038
54451,500551,498717,-57,-7,1038
56486,501507,499868,-49,3,1033
56058,501734,500017,-49,3,1020
54352,501504,499631,-59,-2,1004
54622,500877,499068,-59,-3,1004
54964,500802,500028,-55,-3,1027
55975,502453,500434,-55,-3,1040
54395,502268,500298,-56,-2,1040
54663,501650,499490,-57,-2,1029
55111,501521,499158,-57,3,1027
56630,502376,500848,-53,-1,1027
54285,502738,500741,-55,-1,1035
55007,501933,499881,-56,-1,1007
55370,501577,499462,-56,-3,1026
56751,503039,501520,-57,-3,1026
56056,503579,500931,-57,2,1024
55091,502563,500252,-57,-4,1020
55612,502453,500088,-59,0,1020
56855,504444,502281,-57,0,1008
55970,504696,502122,-57,-3,1029
54410,504303,501219,-53,0,1029
55755,503790,501150,-54,0,1038
56760,505862,503349,-54,0,1023
56048,505969,503070,-62,-3,1023
54591,505584,502719,-59,-3,1011
55245,505382,502171,-57,7,1032
56818,507218,504158,-57,1,1034
56163,507577,504157,-57,1,1034
54779,507038,503570,-55,1,1026
55542,506583,503109,-55,0,1046
55439,506779,503210,-51,-9,1046
56214,508791,505141,-60,-9,1018
54824,508045,504391,-60,-3,1020
55468,507469,503979,-54,-6,1020
55553,507612,504150,-50,-6,1027
56946,509427,505777,-50,-9,1010
54830,508988,505062,-59,-3,1010
55607,508716,504874,-57,-3,1011
55880,508925,504508,-57,-3,1033
57011,510385,506195,-63,-2,1033
56412,510717,506656,-57,-2,1014
55913,509812,505767,-57,3,1004
56192,509789,505489,-56,0,1032
57084,511277,507151,-62,7,1032
56448,511614,507266,-52,7,1010
55165,511124,506610,-52,0,1038
56694,510911,506272,-61,-1,1038
57174,512578,507985,-54,-1,1023
56464,513057,508233,-54,0,1020
55139,512307,507619,-53,-8,1020
56541,512411,507590,-48,-9,1005
57262,513087,508556,-48,-9,1027
56377,512876,508254,-56,0,1027
54886,511358,506924,-59,0,1030
56598,510489,505958,-59,-3,1029
56856,509918,505571,-54,-3,1035
55937,510038,505815,-51,0,1035
54531,508181,504143,-62,0,1024
56329,507337,503506,-62,-3,1017
56601,506797,502969,-54,-3,1017
56729,507586,504291,-60,-3,1005
55538,505410,502035,-60,-7,1043
56159,504610,501435,-54,-3,1043
56482,504354,501204,-56,-8,1014
56240,505118,502460,-56,-8,1027
55229,504645,501830,-60,-5,1027
54123,502505,499906,-53,-5,1029
56148,502399,499719,-53,0,1027
55941,503350,501070,-64,-3,1029
54912,502897,500334,-52,-4,1029
54094,501432,498856,-51,-4,1029
55615,501419,498920,-51,-6,1037
55815,502768,500379,-48,3,1037
62375,346734,340791,-48,3,1029
62451,310890,303979,-48,-12,1030
62553,302715,295550,-45,0,1017
62581,300522,293182,-53,0,1017
62527,300451,292971,-54,2,998
62654,300422,293082,-54,-11,1037
62641,300404,293010,-51,-9,1037
62675,300498,293161,-39,-9,1024
62783,300514,293050,-39,-8,1017
62808,300602,293204,-40,-5,1017
62787,300604,293128,-54,-5,1033
62837,300642,293160,-54,-3,1035
62854,300897,293263,-47,-3,1035
62939,300772,293188,-50,-3,1024
63049,300846,293268,-50,7,1020
63050,300852,293239,-57,-1,1047
62964,300914,293228,-41,-1,1047
63103,301103,293341,-48,-3,1021
63177,301029,293375,-48,-3,1014
63161,301038,293355,-44,-9,1014
63158,301080,293402,-47,-9,1026
63234,301188,293500,-47,0,1037
63299,301202,293516,-45,-3,1037
63433,301334,293551,-56,-3,1029
63376,301298,293500,-56,-7,1033
63419,301379,293554,-45,-10,1033
63508,301474,293616,-48,-10,1026
63477,301492,293662,-48,-3,1032
63474,301579,293682,-56,-3,1016
63711,301568,293645,-49,-3,1016
63717,301719,293784,-48,0,1004
63776,301738,293797,-48,-1,1032
63789,301756,293780,-48,0,1032
63927,301828,293823,-49,0,1020
63908,301855,293836,-49,3,1023
63962,301897,293809,-47,3,1023
64028,302035,293912,-48,3,1040
64027,302057,293923,-48,0,1017
64215,302126,293962,-41,-1,1017
64152,302142,293979,-43,-1,1030
64224,302153,293970,-43,-5,1020
64262,302172,293995,-43,-11,1020
64269,302301,294101,-45,-11,1029
64380,302272,294150,-49,-6,1011
64471,302362,294209,-49,-1,1018
64525,302438,294176,-48,-11,1018
64515,302415,294216,-49,-11,1018
64533,302348,294228,-49,-8,1033
64601,302478,294085,-53,-7,1033
64350,302204,294014,-54,-7,1024
64383,302108,294008,-54,-8,1023
64275,301996,293896,-45,-12,1023
64245,301915,293885,-45,-4,1026
64170,301901,293817,-45,-4,1030
63970,301728,293769,-50,3,1024
63925,301610,293820,-62,-10,1024
63896,301625,293749,-43,-10,1021
63804,301547,293659,-43,-11,1018
63782,301568,293658,-42,1,1018
63562,301286,293600,-56,1,1013
63527,301314,293571,-56,-12,1030
63431,301214,293598,-48,3,1030
63347,301183,293522,-60,3,1013
63298,301180,293496,-60,-12,1020
63203,301022,293453,-56,0,1020
63184,300989,293436,-55,-17,1037
63110,300967,293433,-55,-17,1038
63066,300991,293431,-54,-3,994
63156,301167,293471,-50,0,994
63100,300950,293407,-56,0,1024
63136,300984,293424,-56,-3,1024
63136,301082,293417,-57,-8,1024
63171,301014,293380,-59,-8,1043
63269,301110,293403,-59,-9,1021
63205,301038,293370,-49,-1,1021
63192,301074,293471,-48,-1,1013
63192,300969,293333,-54,-2,1017
63144,300992,293292,-54,-4,1017
63172,301060,293336,-53,-4,1035
63222,300999,293392,-53,-6,1010
63298,301082,293445,-56,3,1021
63258,301027,293333,-51,-9,1021
63344,301091,293507,-42,-9,1011
63318,301178,293521,-42,-11,1011
63404,301264,293468,-54,4,1011
63340,301317,293469,-57,4,1038
63461,301267,293518,-57,1,1032
63453,301347,293574,-55,-3,1032
63480,301371,293618,-54,-3,1026
63529,301341,293513,-48,3,1023
63452,301394,293573,-48,-9,1023
63501,301337,293528,-55,2,1023
63567,301312,293544,-55,2,1017
63545,301480,293603,-51,-2,1037
63664,301364,293549,-52,-3,1037
63673,301402,293524,-56,-3,1018
63738,301424,293581,-56,-1,1020
63788,301468,293617,-60,-1,1020
63773,301406,293606,-51,-1,1027
63861,301403,293527,-51,-4,1027
63789,301443,293562,-52,-9,1027
63895,301434,293642,-57,-9,1026
63906,301411,293600,-53,-2,1021
63849,301435,293606,-53,-8,1041
64024,301389,293567,-52,1,1041
64013,301407,293515,-54,1,1021
63984,301439,293595,-54,-6,1005
64046,301511,293565,-56,-8,1005
64058,301462,293660,-62,-8,1014
64107,301487,293615,-62,-3,1041
64086,301422,293636,-57,-2,1041
64061,301452,293557,-63,-2,1023
64139,301379,293571,-63,0,1020
64033,301353,293650,-56,0,1020
64066,301259,293562,-59,0,1026
63981,301084,293451,-59,1,1011
63888,300999,293394,-55,4,1011
63739,300914,293345,-51,2,1041
63618,300806,293296,-53,2,1018
63463,300609,293274,-53,-3,1024
63398,300472,293137,-57,1,1024
63278,300509,293129,-55,1,1027
63127,300315,293083,-55,3,1030
63127,300292,293027,-64,-5,1030
62945,300112,293060,-60,-5,1021
62753,300085,292864,-60,4,1024
62627,299956,292949,-53,-10,1024
62502,299941,292900,-62,-10,1018
62441,299833,292790,-57,6,1013
62346,299779,292682,-57,-3,1033
62090,299622,292771,-51,-10,1033
62014,299628,292682,-59,-10,1032
61964,299586,292734,-59,-1,1023
61956,299583,292710,-57,0,1023
61841,299627,292703,-56,0,1032
61856,299556,292734,-56,-7,1008
61842,299539,292792,-54,1,1008
61890,299656,292728,-63,1,1024
61849,299630,292739,-63,0,1030
61896,299736,292805,-49,-2,1037
61913,299733,292788,-51,-2,1037
61865,299681,292739,-64,3,1027
61950,299732,292782,-64,-1,1046
61823,299687,292718,-56,1,1046
61900,299830,292878,-48,1,1032
61910,299746,292875,-48,0,1018
61950,299763,292772,-54,-9,1018
61950,299768,292776,-54,-9,1033
61963,299815,292770,-54,0,1032
61784,299915,292792,-55,3,1032
62067,299857,292810,-57,3,1005
62070,299812,292800,-57,1,1024
62087,299883,292836,-49,-9,1017
62062,299921,292875,-49,-9,1017
62194,299952,292911,-62,4,1017
62148,299970,292865,-62,0,1027
62178,299997,292885,-59,-1,1027
62207,300013,292826,-52,-1,1033
62255,300061,292867,-52,-9,1007
62292,300074,292964,-59,5,1007
62327,300180,292901,-59,5,1027
62326,300154,292890,-59,-3,1030
62373,300157,292908,-54,-3,1030
62487,300210,292911,-63,-3,1044
62478,300274,293011,-63,-6,1032
62565,300328,293069,-53,-6,1016
62728,300361,293075,-63,-6,1016
62658,300395,293131,-63,0,1029
62640,300404,293116,-51,-8,1011
62717,300511,293186,-55,2,1011
62770,300454,293019,-56,2,1029
62845,300471,293078,-56,3,1029
62844,300527,293158,-51,2,1029
62913,300604,293207,-56,2,1043
62887,300634,293150,-56,-4,1005
62939,300634,293192,-56,2,1005
63004,300697,293216,-54,2,1017
63012,300614,293204,-54,-6,1023
62999,300666,293199,-57,0,1023
63041,300806,293292,-53,0,1043
63001,300646,293254,-53,-3,1040
62972,300610,293170,-61,0,999
62966,300516,293162,-53,-7,999
62941,300318,293100,-57,-7,1024
62844,300291,293088,-57,0,1026
62699,300130,292904,-59,0,1026
62636,300042,292917,-50,0,1024
62551,299992,292936,-50,-6,1013
62398,299942,292797,-57,0,1013
62259,299921,292975,-59,0,1002
62180,299777,292804,-59,4,1023
61933,299639,292737,-59,1,1023
61859,299594,292807,-54,1,1023
61738,299505,292732,-54,2,1021
61608,299553,292657,-62,3,1004
61530,299405,292606,-60,-9,1004
61448,299384,292584,-59,-9,1008
61305,299318,292629,-59,3,1018
61266,299269,292579,-64,-2,1018
61159,299374,292656,-56,-2,1014
60967,299359,292626,-56,-3,1016
61067,299346,292659,-51,3,1016
60958,299324,292671,-51,3,1030
60942,299399,292633,-51,-4,1035
60967,299464,292629,-55,-3,1017
61030,299535,292734,-53,-3,1017
61009,299563,292697,-55,-3,1007
61041,299639,292715,-55,-3,1007
61061,299605,292765,-57,0,1007
61013,299652,292687,-54,0,1046
61059,299737,292805,-54,-2,1046
61137,299729,292787,-57,-1,1046
61134,299732,292753,-56,-1,1010
61132,299762,292771,-56,1,1021
61137,299867,292796,-50,-9,1021
61203,299934,292789,-57,-9,1004
61192,299947,292823,-52,0,1038
61331,300038,292887,-52,0,1038
61278,299989,292961,-44,0,1015
61340,300091,292898,-44,-9,1020
61422,300302,293059,-54,-2,1018
61430,300300,293078,-51,-5,1018
61480,300271,293078,-57,-5,1029
61582,300387,293126,-57,-4,1030
61584,300443,293221,-49,3,1030
61605,300549,293261,-45,3,1047
61708,300586,293289,-45,-5,1021
61703,300637,293238,-51,2,1021
61771,300595,293265,-60,2,1032
61834,300605,293316,-60,-3,1020
62007,300744,293391,-47,-4,1020
61985,300809,293399,-55,-3,1005
61963,300877,293453,-55,-3,1035
62096,300973,293476,-54,0,999
62130,300983,293512,-56,-5,999
62091,301097,293547,-56,-5,1026
62152,301085,293602,-56,-9,1035
62210,301097,293549,-55,-4,1035
62278,301089,293543,-52,-4,1007
62272,301133,293621,-52,1,1021
62312,301296,293748,-54,3,1021
62493,301419,293761,-52,3,1023
62518,301424,293794,-52,4,1026
62487,301474,293745,-51,0,1023
62563,301506,293889,-49,0,1023
62627,301734,294034,-47,-3,1033
62642,301679,293907,-47,3,1035
62655,301647,293919,-48,-3,1035
62842,301709,293979,-59,-3,1029
62747,301742,294036,-59,1,1032
62800,301771,294025,-50,-6,1032
62622,301450,293912,-48,-6,1023
62494,301333,293825,-48,-4,1035
62404,301304,293751,-57,-4,1035
62344,301314,293802,-42,-4,1024
62272,301188,293842,-42,0,1014
62080,301108,293648,-45,0,1026
62016,301027,293673,-55,0,1026
61926,300974,293628,-55,-3,1020
61837,300806,293632,-49,-3,1043
61759,300812,293561,-45,-9,1043
61549,300740,293540,-53,-9,1014
61497,300711,293533,-53,-12,1035
61410,300659,293468,-51,-3,1035
61361,300688,293486,-51,-3,1023
61336,300675,293538,-51,-7,1038
61266,300544,293453,-48,0,1038
61046,300531,293380,-52,-9,999
61061,300505,293395,-52,-9,1018
61029,300492,293389,-43,-8,1018
61020,300625,293403,-49,-8,1044
61098,300597,293441,-49,-3,1001
61177,300737,293514,-48,0,1020
61189,300659,293477,-50,-1,1020
61094,300737,293533,-55,-1,1026
61243,300767,293584,-55,-9,1026
61080,300795,293545,-51,-10,1026
61303,300746,293652,-50,-10,1040
61276,300758,293621,-50,-8,1004
61348,300754,293548,-49,1,1011
61354,300894,293547,-47,1,1011
61449,300970,293638,-55,1,1027
61390,300901,293611,-55,-9,1027
61446,300873,293607,-48,-15,1016
61457,300979,293620,-47,-15,1033
61510,300988,293710,-47,-3,1020
61518,301147,293645,-50,-4,1020
61556,301016,293599,-45,-4,1023
61588,301061,293705,-45,1,1024
61642,301084,293696,-51,-3,1024
61686,301088,293715,-53,-3,1035
61657,301149,293714,-53,-6,1020
61784,301110,293727,-50,-1,1024
61796,301184,293792,-57,-1,1024
61790,301215,293737,-51,-2,1029
61879,301157,293735,-51,-7,1041
61887,301155,293769,-52,3,1041
61870,301181,293718,-57,3,1008
61936,301193,293739,-57,3,1007
61931,301272,293774,-50,-2,1007
62000,301191,293806,-54,-2,1023
62006,301214,293858,-54,5,1027
62027,301252,293804,-54,-4,1027
62058,301215,293725,-51,-4,1013
62080,301221,293718,-51,-9,1004
62135,301240,293787,-53,-8,1004
62076,301384,293751,-57,-4,1026
62215,301227,293727,-57,-4,1016
62199,301253,293819,-56,-3,1023
62278,301240,293731,-52,1,1023
62273,301219,293840,-54,1,1027
62342,301185,293901,-54,-12,1017
62305,301253,293878,-57,-4,1017
62405,301289,293812,-54,-4,1035
62280,301140,293830,-54,-15,1017
62316,301138,293767,-56,1,1017
62351,301130,293826,-66,1,1032
62187,300800,293626,-66,0,1023
62176,300748,293621,-55,-12,1024
62024,300599,293466,-52,-12,1024
61880,300425,293379,-52,-2,1020
61750,300447,293530,-54,-8,1044
61416,300071,293297,-56,0,1044
61286,299949,293220,-56,0,1032
61172,299811,293156,-56,-7,1014
61046,299781,293169,-50,-2,1014
60899,299832,293167,-61,-2,1026
60715,299437,293023,-61,-3,1010
60573,299443,292977,-61,-2,1010
60409,299389,292977,-54,-2,1026
60249,299213,292878,-54,0,1020
60137,299297,292889,-64,-4,1020
59949,299079,292829,-64,-3,1002
59859,299102,292860,-63,-3,1052
59770,299046,292884,-63,-9,1023
59670,298900,292696,-66,-3,1023
59607,298894,292787,-60,-3,1029
59597,298942,292783,-60,-3,1027
59506,298966,292781,-63,-4,1027
59503,299039,292868,-63,-4,1013
59621,299007,292741,-63,-2,1010
59569,299004,292801,-63,0,1018
59601,299124,292913,-61,0,1018
59634,299091,292900,-60,-3,1024
59652,299113,292845,-60,-2,1024
59627,299012,292835,-51,-2,1026
59645,299107,292885,-56,-5,1023
59687,299201,292899,-56,-5,1014
59686,299198,292863,-54,0,1014
59676,299157,292889,-61,0,1005
59725,299265,292911,-61,-7,1035
59692,299305,292933,-54,5,1035
59708,299346,292856,-55,5,1013
59828,299307,292924,-55,-8,1033
59789,299443,292920,-60,-6,1033
59839,299375,292918,-59,-5,1029
59780,299537,293000,-55,-5,1018
59867,299542,292937,-55,1,1029
59975,299577,293026,-55,-7,1029
60009,299597,292999,-51,-7,1030
60013,299571,292995,-51,0,1027
60103,299600,293059,-52,-2,1027
60196,299816,293160,-54,-2,1026
60166,299823,293134,-54,6,1021
60274,299704,293107,-55,-10,1021
60209,299807,293093,-61,-10,1017
60363,299910,293084,-61,-2,1023
60395,299936,293151,-48,-1,1023
60473,299895,293203,-60,-3,1033
60457,299962,293097,-60,-3,1030
60531,299954,293171,-57,-6,1016
60586,299990,293222,-64,3,1016
60611,300084,293257,-57,3,999
60645,300130,293236,-57,0,1029
60761,300174,293293,-54,-4,1029
60749,300156,293265,-56,-4,1033
60769,300140,293236,-56,0,1020
60735,300246,293310,-63,-4,1020
60903,300351,293328,-45,-4,1029
60918,300304,293397,-53,2,1027
60976,300278,293344,-53,-1,1027
60945,300433,293458,-55,-1,1027
61035,300431,293562,-55,-7,1029
61050,300356,293434,-54,0,1024
61051,300243,293340,-61,0,1024
61004,300122,293317,-56,0,1026
60905,300011,293217,-56,0,1032
60820,299918,293187,-54,-3,1032
60561,299614,293105,-50,-3,1023
60430,299524,293024,-50,0,1032
60385,299440,292965,-55,-12,1032
60244,299355,293016,-60,-12,1029
60122,299323,292847,-63,-1,1041
59859,298983,292833,-63,-6,1041
59784,298939,292769,-60,-6,1032
59677,298847,292653,-60,6,1029
59528,298789,292686,-61,1,1017
59482,298664,292804,-57,2,1017
59224,298522,292629,-60,2,1002
59072,298516,292540,-60,1,1029
58981,298377,292481,-60,-9,1029
58851,298318,292456,-66,-9,1021
58761,298297,292538,-66,-6,1013
58695,298216,292499,-54,-3,1013
58739,298246,292408,-60,-3,1032
58653,298169,292438,-63,-4,1014
58654,298229,292456,-63,4,1014
58688,298331,292554,-60,4,1030
58684,298344,292466,-60,3,1030
58763,298344,292476,-54,1,1032
58727,298322,292514,-61,2,1032
58763,298335,292476,-51,2,1038
58842,298289,292556,-51,3,1029
58760,298330,292387,-65,8,1029
58733,298413,292435,-61,8,1018
58793,298374,292452,-61,3,1011
58893,298503,292545,-55,-2,1011
58856,298516,292610,-57,-2,1018
58730,298466,292504,-57,4,1021
58903,298585,292594,-60,3,1021
58924,298534,292537,-59,0,1040
58994,298622,292553,-59,0,1029
59033,298748,292629,-64,-5,1026
59162,298803,292712,-55,-9,1026
59199,298850,292793,-60,-9,1020
59211,298927,292700,-60,3,1026
59246,298874,292747,-51,-1,1026
59245,298976,292768,-60,-1,1026
59315,299074,292975,-60,-4,1004
59415,299068,292935,-56,0,1004
59368,299122,292831,-40,0,1027
59398,299093,292897,-40,-3,1033
59595,299307,292983,-53,-1,1017
59477,299320,293036,-60,-1,1017
59702,299325,293058,-59,-3,1020
59762,299354,293049,-59,6,1037
59708,299410,293031,-60,-2,1037
59792,299496,293135,-53,-2,1018
59845,299589,293142,-53,2,1041
60003,299567,293124,-54,-9,1041
59959,299641,293216,-59,-9,1033
60017,299706,293251,-59,1,1026
60047,299744,293261,-52,0,1026
60083,299776,293326,-48,-7,1046
60194,299865,293317,-48,-7,1018
60304,299815,293299,-55,-3,1018
60258,299912,293370,-48,-3,1026
60276,299812,293430,-48,5,1023
60338,299879,293408,-50,-4,1038
60393,299980,293476,-50,-1,1038
60471,300123,293483,-49,-1,1033
60439,299972,293423,-49,3,1024
60450,299935,293384,-54,-1,1024
60430,299934,293353,-48,-1,1018
60386,299719,293383,-48,-9,1038
60193,299654,293209,-60,-3,1038
60050,299464,293156,-53,-3,1024
60036,299406,293147,-49,-1,1008
59870,299526,293104,-49,-5,1027
59694,299145,293063,-54,-5,1027
59529,299108,293010,-48,-1,1023
59424,299003,292985,-48,-3,1044
59323,298993,292951,-57,-3,1044
59200,298893,292869,-52,-3,1021
59085,298803,292878,-52,3,1024
58954,298677,292851,-54,-3,1024
58927,298593,292785,-54,-3,1027
58811,298501,292665,-54,-6,1018
58758,298496,292747,-50,-3,1018
58560,298458,292713,-42,-3,1024
58568,298444,292704,-42,-9,1035
58526,298410,292701,-54,-5,1035
58490,298380,292720,-59,-5,1020
58465,298485,292761,-54,-5,1035
58610,298546,292819,-54,-4,1011
58611,298535,292715,-48,-2,1011
58673,298685,292819,-63,-2,1032
58649,298682,292807,-63,-3,1033
58687,298694,292941,-54,2,1033
58729,298829,292888,-47,2,1010
58734,298711,292786,-47,-4,1014
58784,298772,292833,-48,-8,1014
58751,298754,292926,-51,-8,1024
58751,298914,292986,-51,-8,1033
58872,298874,292944,-48,0,1033
58905,298997,292967,-59,-7,1023
59000,299008,293051,-45,-7,1010
58928,299094,293008,-45,-4,1026
59021,299227,293126,-55,-6,1026
59148,299197,293124,-51,-6,1027
59227,299279,293150,-51,0,1030
59152,299357,293140,-52,1,1030
59229,299328,293154,-48,1,1010
59231,299370,293263,-48,9,1018
59363,299501,293144,-53,-15,1018
59432,299427,293293,-45,-15,1023
59464,299477,293232,-45,0,1021
59568,299524,293311,-44,-1,1021
59575,299662,293350,-52,-9,1021
59642,299676,293338,-50,-9,1037
59745,299723,293367,-50,-9,1027
59787,299781,293434,-51,-2,1027
59844,299808,293345,-55,-2,1030
59859,299796,293412,-55,-5,1046
59926,299915,293352,-51,-5,1046
59937,299863,293377,-43,-5,1023
60033,299896,293464,-43,-3,1029
60014,299892,293495,-54,0,1029
60125,300003,293575,-57,0,1029
60063,299907,293441,-57,0,1018
60298,299943,293481,-55,-5,1026
60328,299934,293520,-57,-9,1026
60354,300066,293511,-50,-9,1038
60355,300131,293624,-50,-4,1011
60402,300010,293577,-55,-3,1011
60462,300031,293641,-57,-3,1018
60538,299983,293597,-57,-7,1027
60520,299980,293640,-51,0,1027
60479,300012,293617,-51,0,1017
60509,299975,293482,-51,2,1026
60339,299725,293435,-54,-5,1026
60235,299468,293364,-54,-5,1013
60231,299450,293222,-54,-5,1035
60013,299365,293144,-64,-1,1023
59943,299238,293180,-53,3,1023
59607,298950,293028,-53,3,1017
59533,298947,293088,-53,9,1032
59501,298844,292967,-52,-3,1032
59321,298668,293008,-65,-3,1010
59139,298741,292923,-65,2,1037
58957,298396,292860,-53,-4,1016
58888,298310,292765,-51,-1,1016
58737,298248,292725,-51,-1,1035
58652,298182,292650,-53,-3,1010
58536,298124,292636,-59,0,1010
58417,297877,292653,-51,0,1017
58322,297831,292576,-51,-3,1005
58280,297845,292591,-62,6,1005
58259,297774,292537,-51,6,1023
58159,297925,292599,-51,-6,1027
58178,297908,292585,-57,0,1027
58245,297783,292520,-57,0,1010
58261,297871,292597,-57,0,1004
58254,297813,292478,-56,2,1004
58310,297858,292556,-57,2,1015
58248,297838,292598,-56,3,1023
58248,297792,292545,-56,3,1037
58197,297834,292525,-53,-4,1037
58260,297837,292503,-57,-4,1040
58276,297898,292500,-57,-9,1024
58241,297794,292532,-62,-1,1024
58328,297797,292493,-61,-1,1018
58347,297869,292548,-61,-4,1023
58436,297894,292555,-55,-9,1023
58338,297865,292643,-55,-9,1016
58404,297783,292555,-62,2,1029
58417,297890,292503,-62,-6,1029
58499,297907,292536,-59,-6,1023
58460,297883,292485,-59,-3,1032
58423,297985,292584,-61,9,1054
58580,297965,292554,-52,4,1054
58598,298018,292492,-57,4,1049
58628,297946,292486,-57,-4,1035
58618,297939,292520,-54,-5,1035
58660,298071,292554,-62,-5,1020
58727,298092,292668,-62,0,1021
58740,298042,292577,-48,-7,1021
58709,298039,292601,-59,-7,1041
58777,298010,292589,-59,-3,1033
58832,298040,292632,-56,-2,1035
58818,298152,292663,-61,-2,1035
58868,298128,292632,-57,1,1026
58900,298123,292666,-57,-1,1030
58934,298214,292693,-51,-1,1030
58931,298273,292777,-54,-1,1029
58947,298198,292597,-54,4,1023
59014,298225,292660,-57,2,1023
59088,298327,292715,-64,2,1021
59093,298289,292710,-64,-6,1024
59142,298357,292755,-54,3,1024
59200,298395,292756,-55,-4,1024
59277,298331,292750,-55,-4,1013
59356,298414,292729,-56,2,1013
59329,298403,292780,-57,2,1037
59432,298445,292789,-57,5,1043
59351,298404,292732,-57,0,1020
59316,298340,292682,-56,-3,1020
59306,298192,292658,-51,-3,1026
59208,298018,292588,-51,1,1023
59032,298058,292575,-57,-1,1023
58827,297741,292474,-56,-1,1020
58683,297634,292354,-56,-3,1057
58599,297427,292305,-60,-4,1057
58442,297429,292305,-57,-4,1023
58340,297340,292303,-57,1,1024
58289,297401,292196,-57,-9,1024
57910,297115,292118,-55,-1,1040
57858,296970,292089,-54,-1,1041
57838,296933,292123,-54,2,1040
57682,296891,292090,-56,5,1040
57668,296795,292068,-56,5,1008
57404,296642,291998,-56,-2,1053
57308,296590,291903,-52,-5,1053
57278,296506,291924,-50,-5,1016
57182,296358,291874,-50,0,998
57127,296389,291858,-60,0,1032
57036,296371,291857,-56,0,1032
57083,296410,291883,-61,1,1021
57080,296461,291824,-61,3,1021
57088,296458,291805,-51,0,1026
57125,296488,291979,-63,0,1023
57195,296581,291827,-63,-1,1030
57185,296506,291883,-62,1,1030
57218,296592,291943,-57,1,1020
57252,296554,291876,-57,-3,1032
57273,296742,291915,-54,-3,1032
57256,296598,291962,-53,-3,1027
57296,296620,291978,-53,-3,1029
57356,296601,291939,-63,3,1029
57309,296690,291959,-60,3,1029
57428,296807,292024,-60,3,1023
57415,296793,291974,-56,-2,1018
57361,296793,291950,-54,-1,1018
57472,296772,291960,-60,-1,1030
57483,296817,292017,-60,0,1027
57524,296953,292107,-57,-4,1027
57624,297033,292133,-57,-4,1018
57694,297049,292204,-57,-2,1008
57730,297054,292178,-51,-2,1008
57831,297133,292298,-63,-2,1033
57812,297236,292277,-63,-10,1037
57928,297273,292212,-56,-3,1037
57938,297314,292261,-61,0,1001
58015,297374,292300,-61,0,1013
58083,297387,292295,-54,-3,1013
58050,297535,292466,-63,0,1035
58172,297467,292341,-63,0,1020
58183,297519,292437,-63,-12,1024
58259,297545,292527,-54,0,1024
58313,297662,292403,-54,0,1013
58295,297767,292547,-54,0,1020
58443,297804,292524,-62,3,1020
58494,297866,292575,-54,3,1050
58513,297897,292619,-54,6,1014
58542,297932,292648,-53,-3,1020
58599,297974,292699,-53,-3,1020
58618,298067,292739,-51,-2,1018
58709,298134,292749,-51,-5,1030
58780,298174,292762,-54,0,1030
58810,298223,292777,-61,0,1047
58883,298257,292796,-61,0,1026
58943,298269,292888,-54,-3,1026
58972,298332,292860,-54,-3,1033
58973,298259,292861,-54,1,1017
59005,298226,292866,-57,1,1017
58871,298161,292785,-48,1,1021
59012,298057,292674,-48,-1,1002
58827,297920,292687,-54,-1,1016
58722,297886,292648,-54,-1,1016
58570,297737,292659,-51,-13,988
58500,297738,292599,-51,-2,1032
58487,297576,292413,-57,-11,1032
58129,297446,292421,-54,-11,1037
58105,297403,292392,-54,-1,1040
58034,297316,292342,-55,-5,1040
58008,297286,292369,-55,-5,1026
57803,297215,292293,-55,-12,1040
57681,297062,292270,-59,-10,1040
57698,297026,292307,-51,-10,1011
57608,297011,292265,-51,-3,1037
57473,297028,292226,-59,-2,1037
57462,296906,292167,-48,-2,1030
57356,296958,292267,-48,6,1011
57325,296940,292142,-57,3,1020
57317,296881,292164,-54,-2,1020
57262,296982,292174,-51,-2,1024
57415,297111,292280,-51,0,1018
57376,297143,292308,-54,-2,1018
57463,297146,292332,-47,-2,1038
57451,297269,292246,-47,1,1034
57535,297219,292315,-51,0,1034
57560,297333,292326,-60,0,1030
57646,297353,292419,-60,-2,1026
57760,297417,292415,-51,3,1026
57695,297469,292412,-53,-3,1024
57694,297497,292478,-53,-3,1021
57784,297540,292560,-62,-7,1014
57813,297636,292529,-59,3,1014
57818,297644,292483,-53,3,1015
57904,297725,292522,-53,-3,1014
57908,297775,292579,-57,-14,1014
57973,297821,292596,-54,-14,1026
58041,297903,292557,-54,-5,1037
58055,298002,292666,-54,-8,1037
58131,297969,292741,-53,-8,1038
58253,297947,292716,-53,-9,1013
58273,298140,292792,-53,-3,1013
58365,298191,292812,-48,-3,1035
58373,298257,292887,-48,-4,1027
58391,298328,292878,-57,3,1017
58498,298322,292903,-55,-6,1017
58596,298378,292938,-57,-6,1032
58634,298499,292958,-57,-4,1032
58596,298510,292916,-57,0,1032
58740,298549,292995,-48,0,1015
58652,298600,293053,-48,-3,1004
58805,298673,293100,-51,-4,1004
58908,298680,293099,-47,-4,1035
59067,298751,293172,-54,-1,1010
59045,298832,293165,-54,-6,1010
59073,298802,293244,-50,-6,1014
59110,298878,293285,-50,-4,1026
59149,298810,293281,-42,-5,1027
59246,298989,293230,-48,0,1027
59378,298964,293363,-53,0,1027
59318,298908,293323,-53,1,1030
59385,299114,293367,-57,-3,1030
59516,299078,293348,-51,-3,1030
59590,299115,293375,-51,-4,1007
59568,299064,293242,-54,-4,1007
59604,298997,293349,-56,-4,1030
59639,299064,293336,-54,-5,1008
59604,298816,293171,-54,-8,1008
59553,298744,293156,-60,-8,1020
59460,298589,293121,-60,1,1018
59337,298518,293006,-57,-9,1014
59209,298406,293014,-59,1,1014
59047,298118,292904,-51,1,1017
58907,298092,292857,-51,-7,1032
58841,297929,292766,-57,-12,1032
58734,297840,292738,-61,-12,1008
58607,297803,292754,-61,-4,1017
58497,297607,292661,-56,0,1017
58336,297476,292581,-63,0,1017
58226,297439,292610,-63,0,1021
58174,297363,292551,-54,-9,1037
58025,297315,292475,-60,-9,1037
58039,297072,292405,-60,-3,1027
57899,297140,292378,-57,-1,1007
57761,297071,292432,-69,-5,1007
57688,297014,292344,-60,-5,1011
57774,297077,292460,-60,-3,1033
57748,296950,292350,-62,-5,1033
57723,296987,292289,-57,-5,1013
57684,296928,292378,-57,-1,1049
57669,296944,292310,-63,-2,1007
57694,296961,292376,-53,-2,1007
57561,297032,292420,-51,1,1015
57821,296939,292335,-51,-4,1015
57822,296948,292362,-64,2,1002
57841,296985,292310,-62,2,1032
57718,296992,292249,-62,-2,1021
57881,297039,292270,-60,4,1021
57843,296915,292232,-59,4,1008
57850,296912,292254,-59,-9,1004
57878,296970,292302,-51,-3,1004
57819,296995,292271,-60,-3,1005
57965,297053,292371,-60,0,1027
57911,297065,292190,-56,3,1027
58009,297114,292340,-59,-1,1011
58005,297131,292370,-59,-1,1032
57923,297018,292372,-57,0,1032
58069,297114,292288,-63,-6,1021
58099,297047,292305,-55,-6,1023
58140,297101,292327,-55,1,1015
58163,297089,292326,-60,-9,1015
58261,297082,292365,-63,-9,1043
58217,297246,292410,-63,0,1038
58261,297246,292373,-55,0,1038
58239,297133,292280,-57,0,1017
58300,297196,292386,-57,-4,1029
58350,297246,292453,-57,0,1008
58374,297410,292527,-54,0,1008
58469,297297,292430,-57,-9,1029
58450,297417,292389,-57,0,1023
58481,297326,292392,-60,-3,1023
58546,297441,292415,-63,-3,1030
58444,297493,292476,-63,0,1027
58637,297445,292492,-56,1,1027
58615,297509,292490,-55,1,1018
58664,297463,292495,-55,-4,1029
58626,297447,292470,-57,-2,1029
58782,297472,292551,-63,-2,1021
58658,297481,292475,-63,0,1021
58729,297491,292528,-62,0,1021
58786,297530,292625,-51,0,1030
58857,297591,292557,-51,-6,1016
58872,297519,292538,-61,-3,1035
58866,297354,292441,-62,2,1035
58749,297253,292386,-57,2,1032
58670,297187,292334,-57,-9,1027
58575,297081,292316,-57,0,1027
58499,297068,292332,-62,0,1043
58224,296760,292127,-62,-9,1032
58065,296685,292064,-60,-1,1032
57989,296548,292099,-53,-1,1021
57904,296467,292035,-53,-3,1011
57788,296524,292146,-57,-3,1020
57700,296246,291978,-60,-2,1020
57535,296138,291967,-60,-2,1026
57487,296096,291863,-68,4,1023
57263,296066,291809,-60,1,1023
57298,296088,291822,-57,1,1026
57000,295837,291706,-57,6,1027
57043,295805,291762,-56,-2,1027
56942,295720,291763,-57,-2,1017
56882,295664,291681,-57,1,1015
56769,295686,291692,-68,3,1015
56734,295646,291639,-57,3,1026
56754,295669,291657,-64,-3,1026
56720,295741,291694,-64,-6,1026
56727,295705,291655,-59,-6,1029
56829,295755,291725,-59,-1,1016
56775,295780,291688,-59,0,1015
56807,295815,291673,-59,-3,1015
56847,295753,291698,-59,-3,1035
56866,295838,291653,-59,-4,1040
56916,295906,291753,-57,-1,1040
56941,295888,291756,-53,-1,1035
56978,295842,291749,-53,-1,1032
57008,295863,291743,-66,-2,1032
57022,295909,291752,-56,-2,999
57033,295986,291792,-65,0,1014
57069,296032,291799,-65,4,1014
57109,296056,291739,-60,4,1038
57133,296071,291760,-60,-6,1032
57181,296094,291807,-57,3,1034
57282,296243,291888,-56,-1,1034
57309,296250,291911,-64,-1,1016
57401,296258,291894,-64,1,1018
57444,296239,292010,-66,6,1018
57497,296283,291947,-65,6,1026
57403,296240,291931,-65,0,1015
57610,296547,292025,-51,-10,1015
57571,296464,292020,-57,-4,1026
57585,296514,292046,-57,-4,1033
57705,296542,292052,-62,0,1033
57781,296506,292130,-61,0,1027
57729,296592,292131,-61,-3,1023
57861,296662,292189,-63,2,1037
57988,296792,292118,-57,-4,1037
57984,296828,292212,-56,-4,1018
58025,296837,292226,-56,-1,1020
58106,296958,292271,-60,0,1020
58131,296862,292247,-57,0,1010
58154,296938,292254,-57,-6,1027
58212,296969,292222,-63,0,1027
58228,296863,292247,-57,0,1037
58285,297033,292359,-57,-3,1018
58367,297063,292300,-63,0,1018
58409,297155,292408,-64,0,1018
58464,297141,292375,-54,3,1015
58492,297219,292363,-54,-3,1026
58495,297350,292563,-60,-9,1026
58561,297259,292490,-55,-9,1010
58583,297211,292422,-55,6,1032
58622,297182,292359,-56,0,1032
58628,297182,292368,-61,0,1013
58527,297063,292372,-61,-4,1027
58412,296915,292190,-59,-9,1027
58286,296829,292186,-63,3,1038
58185,296807,292192,-63,3,1040
58105,296648,292202,-62,-2,1020
57991,296661,292111,-55,6,1020
57862,296456,292055,-51,6,1008
57696,296410,291986,-51,0,1034
57632,296278,291993,-60,-2,1034
57572,296317,292015,-63,-2,1021
57451,296243,292020,-63,-2,1002
57348,296150,291941,-54,-10,1002
57258,296187,291964,-64,-10,1014
57188,296113,291900,-64,-2,1010
57188,296034,291880,-57,0,1015
57031,296224,292015,-66,0,1015
56988,296004,291814,-59,-2,1014
56991,296094,291922,-59,-2,1021
56960,296093,291837,-52,4,1021
56965,296088,291881,-50,4,1038
57041,296242,291952,-50,-3,1023
57078,296264,292022,-65,-3,1023
57119,296196,291942,-64,-3,1041
57201,296309,291996,-64,-1,1027
57222,296434,292014,-59,-3,1027
57176,296502,292202,-48,-3,1030
57300,296471,292127,-48,0,1032
57356,296527,292100,-66,-10,1021
57332,296519,292144,-52,-10,1021
57399,296544,292093,-52,-4,1041
57512,296735,292233,-61,0,1026
57422,296812,292294,-51,-3,1026
57509,296811,292247,-54,-3,1005
57603,296896,292359,-54,-1,1029
57603,296872,292424,-53,0,1029
57690,296947,292451,-51,0,1013
57805,297097,292546,-51,-5,1005
57846,297088,292477,-57,-5,1005
57785,297161,292440,-54,-5,1017
57886,297196,292473,-57,-3,1011
57991,297312,292623,-57,-7,1035
57966,297411,292600,-54,0,1035
58087,297366,292617,-57,0,1038
58119,297518,292711,-57,2,1032
58123,297504,292687,-52,-4,1032
58161,297666,292710,-54,-4,1040
58083,297706,292776,-54,-12,1029
58409,297771,292827,-60,2,1029
58518,297741,292809,-52,2,1027
58542,297829,292905,-52,0,1023
58533,297861,292907,-67,-10,1023
58742,298015,292938,-59,-10,1027
58753,298075,293055,-59,0,1032
58764,298088,293093,-49,-1,1032
58794,298142,293116,-57,-1,1023
58855,298223,293057,-48,-3,1017
59010,298369,293135,-48,-3,1014
58992,298303,293239,-54,-9,1014
59038,298403,293272,-54,-9,1035
59125,298467,293228,-54,-5,1024
59164,298462,293256,-55,-3,1024
59260,298510,293404,-54,-3,1021
59352,298618,293380,-54,-3,1021
59404,298614,293291,-50,-9,1021
59409,298689,293419,-53,-3,1029
59463,298732,293431,-53,-3,1013
59465,298731,293368,-55,-1,1013
59494,298616,293350,-51,-6,1035
59402,298574,293245,-48,-6,1016
59316,298447,293327,-48,-5,1026
59201,298407,293189,-49,-6,1026
59162,298396,293127,-56,-6,1030
58993,298109,293083,-56,-7,1035
58920,298118,293136,-52,-3,1035
58766,297965,293049,-52,-3,1016
58723,297864,292984,-52,-12,1032
58681,297966,293072,-51,-4,1032
58585,297764,292896,-62,-2,1029
58439,297653,292946,-62,-2,1023
58435,297618,292899,-50,3,1023
58262,297508,292833,-50,-3,998
58310,297550,292849,-51,-3,1065
58219,297374,292756,-51,3,1021
58106,297314,292765,-60,-5,1021
58052,297307,292686,-55,-5,1035
58089,297274,292799,-55,-9,1013
58004,297387,292743,-50,-3,1013
58127,297437,292759,-51,-3,1017
58116,297378,292731,-51,-7,1021
58119,297437,292817,-51,0,1021
58229,297495,292843,-57,-3,1021
58256,297499,292906,-57,-3,1018
58278,297528,292818,-51,0,1024
58232,297544,292907,-57,-3,1024
58259,297538,292821,-60,-3,1032
58302,297560,292838,-60,-8,1013
58249,297676,292917,-48,-3,1013
58309,297590,292923,-57,-3,1024
58431,297592,292912,-57,0,1005
58384,297701,292939,-63,-2,1005
58427,297652,292883,-54,-2,1013
58428,297809,292943,-51,-7,1029
58511,297668,292986,-51,-1,1029
58537,297695,292994,-49,-1,1021
58528,297710,292940,-49,-1,1030
58639,297659,293018,-56,0,1007
58598,297764,293058,-54,-3,1007
58689,297839,293000,-55,-3,1021
58758,297831,292978,-55,-9,1030
58753,297967,293075,-55,-6,1030
58727,297936,293023,-55,-6,1011
58746,298002,293150,-55,-1,1027
58869,298001,293129,-54,-4,1027
58875,298013,293113,-51,-1,1037
58895,298028,293118,-51,-1,1047
59020,298074,293168,-52,-2,1047
59016,298125,293243,-57,-2,1023
59099,298105,293220,-57,0,1005
59096,298163,293228,-54,6,1027
59204,298203,293288,-49,0,1027
59184,298146,293309,-57,0,1035
59204,298162,293377,-57,-4,1021
59367,298260,293330,-51,0,1021
59338,298193,293345,-51,0,1032
59365,298278,293306,-51,-11,1018
59400,298312,293331,-57,2,1018
59442,298357,293331,-57,2,1007
59379,298355,293480,-57,3,1030
59516,298356,293417,-49,8,1030
59553,298444,293419,-56,-2,1030
59610,298499,293497,-59,-2,1032
59611,298494,293480,-59,4,1021
59668,298449,293383,-55,5,1021
59648,298433,293385,-49,5,1034
59629,298349,293442,-49,-3,1016
59638,298229,293352,-57,4,1016
59491,298139,293351,-60,4,1013
59439,298175,293157,-60,-3,1027
59153,297826,293122,-50,-4,1027
59113,297702,293109,-52,-3,1027
58952,297699,293005,-60,-3,1017
58908,297558,293048,-60,2,1035
58810,297496,292954,-57,-3,1035
58490,297344,292865,-55,-3,1043
58448,297251,292806,-55,-3,1047
58378,297185,292875,-70,-5,1047
58306,297024,292784,-61,-5,1030
58160,297112,292788,-61,-2,1024
57962,296856,292693,-57,6,1024
57902,296838,292781,-59,6,1034
57800,296788,292752,-59,-3,1013
57780,296770,292736,-59,-4,1030
57668,296785,292718,-61,-4,1030
57660,296669,292645,-61,0,1024
57661,296654,292736,-55,3,1023
57644,296710,292626,-57,4,1023
57573,296727,292641,-56,4,1026
57618,296800,292746,-56,0,1017
57763,296744,292715,-54,0,1017
57709,296787,292722,-62,0,1040
57709,296764,292749,-62,4,1027
57735,296735,292700,-53,-2,1027
57747,296781,292709,-50,-2,1005
57705,296832,292676,-50,-2,1024
57787,296864,292747,-63,6,1029
57725,296826,292741,-52,6,1029
57829,296872,292717,-59,-8,1021
57793,296900,292763,-59,1,1013
57865,296978,292705,-57,3,1013
57864,297030,292798,-57,3,1037
57939,296973,292847,-57,-4,1040
58037,297037,292806,-60,3,1040
58035,297038,292889,-49,3,1037
58066,297085,292878,-49,1,1024
58137,297115,292881,-65,-3,1024
58156,297191,292865,-55,-3,1047
58210,297191,292867,-55,-4,1035
58231,297352,292977,-55,0,1035
58319,297289,292958,-54,0,1011
58314,297349,293057,-54,0,1035
58407,297312,293045,-63,-3,1007
58425,297416,293016,-55,1,1007
58480,297435,293060,-52,1,1027
58491,297513,293118,-52,0,1037
58639,297558,293125,-57,3,1037
58691,297700,293182,-56,3,1021
58678,297619,293116,-56,-6,1027
58731,297704,293128,-51,-6,1027
58785,297787,293144,-51,-6,1016
58823,297746,293249,-51,3,1024
58818,297781,293143,-54,1,1024
58946,297794,293204,-57,1,1015
58925,297900,293325,-48,4,1026
59110,298002,293347,-48,-4,1017
59026,297946,293289,-51,-4,1017
59146,297970,293335,-48,-4,1021
59096,298000,293362,-48,-3,1033
59170,298107,293499,-51,4,1033
59251,298191,293445,-53,4,1017
59377,298199,293435,-53,4,1018
59361,298191,293476,-57,0,1018
59386,298178,293451,-51,0,1038
59370,298261,293515,-51,0,1020
59309,298119,293407,-51,2,1018
59298,297986,293378,-54,3,1018
59183,297864,293332,-52,3,998
59099,297776,293250,-52,-1,1035
58964,297708,293236,-56,1,1035
58831,297396,293129,-59,1,1047
58707,297401,293171,-59,0,1027
58590,297379,293020,-62,-6,1027
58473,297212,293020,-51,-6,1010
58445,297238,293027,-52,-7,1030
58262,297181,293095,-52,-5,1030
58200,297020,292961,-54,-3,1029
58029,296880,292942,-54,-3,1029
57940,296938,292894,-52,0,1029
57877,296798,292875,-56,0,1029
57967,296881,292881,-56,0,1034
57703,296662,292786,-56,3,1037
57630,296666,292839,-56,-10,1037
57666,296660,292855,-53,-10,1040
57553,296635,292780,-53,4,1021
57622,296661,292760,-54,-6,1021
57651,296724,292800,-54,-6,1030
57592,296793,292852,-59,-6,1018
57650,296809,292848,-59,6,1018
57702,296842,292905,-59,6,1018
57685,296916,292975,-57,-6,1033
57758,296946,292931,-57,1,1043
57851,296958,292929,-56,-3,1043
57915,297034,292999,-48,-3,1011
57890,297127,292971,-48,1,1044
57979,297160,293144,-48,-3,1044
57970,297180,293086,-59,-3,1024
57968,297270,293156,-59,-2,1047
57981,297345,293163,-51,0,1041
58053,297346,293172,-55,0,1041
58090,297490,293300,-55,-1,1032
58179,297562,293290,-45,-9,1032
58203,297587,293258,-48,-9,1023
58289,297650,293278,-54,-8,1027
58299,297660,293325,-54,2,1026
58417,297909,293440,-56,0,1026
58477,297871,293423,-55,0,1030
58515,297938,293426,-55,-2,1033
58638,297984,293547,-54,-4,1033
58599,297993,293578,-57,-4,1029
58655,298059,293650,-57,-2,1017
58789,298155,293689,-52,-2,1017
58856,298165,293592,-48,-2,1029
58910,298254,293667,-48,-2,1027
58878,298237,293656,-54,-7,1041
59014,298294,293762,-57,6,1041
59087,298453,293830,-51,6,1024
59125,298441,293882,-51,4,1032
59142,298526,293819,-53,-10,1032
59187,298476,293888,-54,-10,1018
59277,298720,294039,-54,-1,1018
59340,298672,293969,-62,-5,1018
59386,298704,294033,-53,-5,1032
59482,298757,294077,-53,-3,1021
59511,298782,294075,-56,-1,1014
59528,298791,294034,-57,-8,1014
59670,298861,294182,-57,-8,1026
59693,298836,294150,-52,-3,1024
59693,298914,294194,-53,-4,1024
59801,298927,294136,-57,-4,1026
59840,298966,294257,-57,-5,1023
59874,298963,294176,-42,5,1023
59863,298978,294282,-57,5,1027
59834,298914,294232,-57,1,1037
59861,298863,294204,-45,-2,1037
59658,298846,294279,-60,-2,1030
59656,298576,293998,-60,-3,1027
59498,298532,294038,-60,-8,1027
59386,298393,293946,-52,-8,1038
59314,298345,293928,-52,3,1026
59201,298284,293920,-51,-2,1021
59163,298093,293826,-54,-3,1021
58942,298040,293772,-60,-3,1020
58842,297923,293718,-60,0,1007
58804,297866,293718,-52,-8,1007
58743,297902,293750,-54,-8,1014
58623,297763,293655,-54,-9,1021
58452,297683,293565,-50,-3,1040
58432,297658,293595,-42,-1,1040
58331,297604,293649,-42,-1,1026
58374,297649,293533,-50,0,1023
58204,297616,293605,-51,1,1023
58316,297749,293558,-47,1,1035
58353,297697,293613,-47,2,1030
58302,297695,293541,-60,1,1030
58321,297801,293633,-49,1,1018
58424,297814,293685,-49,-6,1018
58443,297829,293699,-51,-2,1018
58481,297810,293697,-51,-2,1035
58470,297891,293717,-51,-2,1017
58492,297913,293675,-55,-10,1017
58614,298032,293760,-63,-10,1010
58590,298040,293820,-51,-6,1024
58582,297987,293829,-51,-2,1044
58712,298051,293887,-56,-9,1044
58632,298002,293770,-53,-9,1018
58704,298154,293886,-53,-3,1026
58778,298045,293851,-57,-5,1026
58811,298163,293909,-51,-5,1035
58748,298144,293829,-51,-4,1018
58839,298142,293895,-56,0,1018
58985,298267,293916,-51,0,1046
59017,298288,293984,-51,-2,1035
59071,298349,294012,-62,-2,1014
59045,298267,293942,-47,-2,1014
59115,298344,293941,-55,-4,1021
59133,298381,293988,-55,-1,1044
59184,298452,294029,-55,0,1044
59246,298434,294064,-42,0,1026
59322,298474,294063,-42,2,1024
59399,298462,294033,-59,4,1024
59350,298608,294048,-56,4,1020
59509,298585,294124,-56,-7,999
59586,298545,294069,-57,0,1043
59498,298588,294047,-54,0,1043
59553,298543,294050,-50,-3,1040
59689,298690,294177,-50,3,1040
59633,298615,294166,-51,2,1040
59800,298707,294225,-54,2,1026
59792,298689,294210,-54,2,1020
59661,298710,294216,-49,0,1020
59841,298739,294219,-44,0,1010
59904,298787,294294,-44,0,1021
59874,298757,294197,-53,-1,1021
59979,298769,294300,-60,-1,1029
59914,298737,294287,-60,1,1020
59983,298794,294441,-55,-5,1014
60009,298675,294303,-53,-5,1014
60022,298663,294261,-53,5,1015
59995,298615,294179,-56,1,1040
59988,298521,294199,-43,-3,1040
59804,298607,294199,-54,-3,1029
59660,298194,293939,-54,-6,1037
59558,298072,293960,-54,3,1037
59523,297912,293840,-51,3,1014
59328,297838,293854,-51,1,1008
59194,297801,293796,-54,-2,1008
59053,297665,293702,-52,-3,1010
58877,297576,293597,-59,-3,1026
58768,297395,293586,-59,2,1029
58686,297332,293592,-55,3,1029
58630,297397,293636,-52,3,1030
58359,297020,293515,-52,-3,1007
58283,296858,293481,-61,-5,1007
58121,296874,293387,-65,-5,1037
58111,296700,293375,-65,-6,1032
57972,296717,293404,-53,0,1032
57844,296401,293264,-64,0,1027
57770,296393,293199,-64,4,1030
57790,296461,293173,-55,-6,1030
57771,296456,293240,-68,-3,1027
57766,296396,293172,-62,-3,1005
57763,296336,293144,-62,-3,1018
57744,296274,293162,-62,-3,1018
57675,296385,293189,-60,-3,1040
57710,296329,293205,-60,3,1030
57691,296353,293219,-60,3,1030
57682,296202,293087,-57,3,1021
57605,296226,293089,-57,-9,1040
57658,296205,293058,-60,0,1040
57617,296200,293018,-64,0,1020
57663,296182,293108,-64,2,1038
57607,296217,293021,-65,-1,1038
57694,296170,293050,-59,-1,1035
57700,296202,293020,-59,2,1020
57773,296224,292943,-71,-2,1033
57678,296293,293028,-55,-3,1033
57817,296373,293086,-60,-3,1023
57701,296240,293043,-60,-7,1035
57877,296328,293065,-59,2,1035
57714,296329,293050,-60,2,1018
57812,296353,293046,-60,4,1030
57836,296489,293147,-72,-3,1030
57911,296478,293174,-66,-3,972
57980,296594,293210,-72,0,1013
57964,296547,293223,-72,0,1013
58001,296638,293209,-60,0,1014
58057,296680,293221,-60,-9,1014
58069,296781,293223,-69,-1,1013
58137,296774,293315,-63,6,1013
58261,296854,293290,-63,6,1026
58224,296820,293357,-63,1,1021
58203,296906,293392,-64,-3,1021
58348,296965,293294,-50,-3,1017
58390,296965,293362,-50,0,1030
58449,297063,293457,-66,1,1030
58450,297127,293503,-66,1,1041
58487,297195,293503,-66,3,1014
58626,297211,293503,-57,-6,1014
58661,297161,293469,-59,-6,1043
58627,297246,293513,-68,-6,1033
58756,297333,293550,-68,3,1023
58755,297451,293563,-55,-2,1023
58782,297501,293631,-66,-2,1016
58905,297532,293683,-66,3,1037
58857,297519,293698,-57,0,1037
58792,297378,293640,-60,0,1035
58920,297400,293607,-60,-5,1016
58705,297152,293451,-59,3,1016
58723,297132,293507,-63,-4,1029
58624,297070,293315,-63,-4,1024
58487,296994,293375,-57,5,1024
58439,297000,293403,-65,5,1034
58244,296789,293279,-65,-1,1030
58187,296670,293177,-60,0,1020
58123,296540,293116,-61,2,1020
57951,296529,293157,-61,2,1018
57896,296522,293162,-61,1,1041
57692,296336,293116,-57,-3,1041
57625,296239,293088,-60,-3,1035
57532,296208,293004,-60,-3,1032
57551,296150,292987,-59,0,1018
57418,296252,293031,-63,0,1018
57377,296072,293011,-61,-4,1040
57375,296093,293045,-61,-3,1040
57240,296114,292988,-66,-3,1020
57249,296096,293007,-56,6,1027
57177,296080,293006,-56,-6,1035
57282,296069,292955,-61,0,1035
57296,296097,292972,-60,0,1018
57335,296156,293101,-60,4,1026
57332,296214,293004,-60,-8,1026
57421,296293,293056,-55,-8,1029
57441,296434,293167,-55,-3,1021
57487,296336,293074,-57,0,1021
57478,296407,293118,-72,0,1005
57506,296432,293156,-72,-6,1017
57570,296508,293275,-60,-10,1017
57672,296593,293202,-67,1,1020
57697,296560,293273,-69,1,1017
57644,296651,293186,-69,3,1010
57786,296687,293246,-67,-2,1010
57824,296741,293378,-64,-2,1035
57856,296935,293382,-64,-1,1014
57873,296922,293442,-57,-2,1014
57951,296966,293455,-61,-2,1027
58014,297037,293502,-61,-1,1040
58033,297148,293580,-66,0,1040
57987,297141,293538,-45,0,1013
58162,297136,293544,-45,-2,1016
58220,297264,293595,-60,-3,1020
58325,297331,293656,-64,-2,1020
58302,297427,293703,-62,-2,1033
58385,297488,293763,-62,-9,1024
58423,297597,293715,-61,-2,1024
58427,297516,293706,-50,-2,1017
58458,297575,293763,-50,-3,1023
58535,297640,293765,-66,-9,1023
58617,297737,293874,-52,-9,1016
58753,297818,293838,-56,-6,1016
58732,297805,293827,-56,-6,1016
58884,297814,293822,-53,-6,1023
58838,297850,293873,-53,-5,1024
58939,297962,293957,-55,3,1015
58996,297887,293919,-57,-7,1015
59029,297992,293989,-61,-7,1020
59118,298060,293979,-61,-4,1026
59140,298148,294086,-55,-2,1026
59288,298254,294200,-59,-2,1035
59374,298199,294214,-59,-7,1047
59405,298196,294196,-59,-3,1047
59524,298359,294202,-63,-3,1016
59525,298337,294187,-57,-2,1050
59485,298400,294175,-57,6,1050
59425,298231,294143,-64,1,1024
59418,298170,294148,-64,1,1018
59398,298067,294084,-60,3,1011
59315,297984,294073,-54,-4,1011
59169,298096,294082,-53,-4,1005
59151,297811,293940,-53,-6,1049
59058,297744,293919,-55,1,1049
58978,297629,293873,-60,1,1032
58869,297540,293811,-60,-6,1040
58853,297571,293794,-64,-5,1040
58654,297375,293753,-53,-5,1035
58533,297312,293800,-54,-3,1013
58448,297305,293706,-54,-4,1018
58415,297247,293692,-48,-2,1018
58288,297239,293765,-53,-2,1041
58212,297154,293615,-53,-4,1030
58179,297028,293605,-60,4,1030
58179,297087,293647,-66,4,1034
58099,297046,293594,-66,0,1018
58103,297000,293702,-51,-14,1018
58070,297098,293642,-65,-14,1050
58133,297050,293632,-65,-4,1024
58109,297123,293656,-54,-12,1037
58140,297201,293686,-54,0,1037
58145,297315,293782,-61,0,1020
58266,297279,293731,-61,-9,1020
58251,297320,293688,-54,-3,1032
58223,297249,293656,-55,-3,1035
58238,297318,293713,-55,-2,1049
58275,297461,293787,-54,0,1049
58312,297283,293772,-61,0,999
58377,297433,293780,-61,-3,1024
58346,297407,293734,-53,-10,1024
58358,297374,293652,-54,-10,1037
58469,297343,293801,-54,-3,1026
58479,297462,293736,-59,-3,1026
58531,297488,293792,-64,-3,1008
58568,297450,293766,-64,-3,1029
58652,297510,293791,-57,-5,1032
58619,297536,293841,-56,-8,1032
58461,297602,293823,-68,-8,1017
58835,297550,293797,-68,1,1013
58757,297516,293851,-53,-6,1013
58865,297555,293862,-55,-6,1052
58804,297636,293884,-55,0,1038
58903,297553,293846,-64,0,1038
58922,297548,293914,-51,0,1010
58998,297539,293860,-51,-8,1004
59019,297547,293903,-60,0,1004
59098,297622,293937,-59,0,1032
59085,297617,293908,-59,2,1046
59105,297516,293932,-62,3,1014
59064,297519,293876,-61,0,1014
59165,297548,293924,-63,0,1046
59263,297615,293947,-63,3,1023
59206,297614,293940,-62,-3,1023
59306,297574,293821,-57,-3,1023
59318,297594,293845,-57,1,1027
59345,297530,293858,-65,0,1027
59406,297648,293851,-54,0,1013
59506,297732,293896,-54,-4,1014
59510,297657,293903,-59,-4,1014
59506,297656,293906,-56,-4,1026
59589,297668,294014,-56,-1,1026
59504,297660,293943,-56,8,1017
59576,297664,293818,-60,6,1017
59524,297600,293840,-60,6,1035
59565,297589,293877,-60,-3,1029
59439,297435,293799,-67,0,1029
59426,297325,293796,-66,0,1032
59312,297327,293658,-66,7,1018
59033,297015,293537,-60,-4,1018
59025,296958,293529,-59,-5,1017
58883,296875,293567,-66,-5,1046
58844,296838,293523,-66,0,1026
58682,296781,293447,-75,4,1026
58464,296585,293332,-57,4,1004
58350,296495,293404,-57,6,1017
58331,296412,293343,-63,0,1017
58186,296419,293299,-59,0,1023
58144,296475,293276,-59,0,1021
57915,296267,293246,-52,0,1021
57864,296244,293288,-62,0,1040
57844,296182,293185,-62,1,1008
57815,296107,293212,-64,3,1008
57676,296198,293251,-67,3,1026
57686,296113,293150,-60,3,1029
57736,296117,293187,-60,2,1032
57637,296159,293206,-61,4,1032
57674,296226,293174,-57,4,1024
57783,296320,293298,-57,0,1023
57827,296389,293284,-59,1,1023
57817,296358,293283,-57,1,1040
57876,296458,293263,-57,0,1023
57858,296452,293265,-57,1,1023
57904,296492,293372,-57,1,1020
57978,296520,293351,-57,6,1023
58001,296543,293417,-64,-7,1018
58026,296560,293265,-56,-7,1018
58051,296640,293349,-57,5,1034
58118,296737,293588,-57,3,1030
58120,296710,293450,-53,0,1030
58169,296780,293419,-60,0,1017
58298,296791,293463,-60,-1,1013
58279,296939,293497,-64,-6,1013
58390,297003,293638,-61,-6,1035
58465,296995,293522,-61,-3,1032
58456,297094,293575,-62,4,1032
58602,297180,293696,-57,4,1017
58596,297185,293710,-63,4,1032
58614,297250,293620,-63,-1,1032
58706,297258,293733,-45,-1,1032
58738,297268,293680,-45,-1,1027
58801,297333,293751,-55,-5,1014
58845,297378,293744,-55,0,1014
58940,297434,293881,-61,0,1018
59076,297520,293879,-61,-7,1027
59059,297595,293885,-55,-6,1027
59063,297571,293865,-62,-6,1007
59101,297627,293912,-62,1,996
59085,297683,293935,-61,3,996
59277,297748,294034,-54,-10,1017
59365,297844,294044,-54,-10,1016
59398,297711,294060,-64,-4,1016
59456,297800,294023,-62,-4,1029
59474,297922,294164,-62,-1,1041
59503,297907,294164,-51,-3,1011
59568,297904,294082,-56,-3,1011
59591,297996,294099,-56,-3,1020
59755,298071,294227,-56,-1,1040
59672,298078,294198,-63,0,1040
59821,298167,294220,-60,0,1024
59771,298067,294197,-60,0,1029
59870,298078,294172,-52,0,1035
59829,298070,294229,-55,0,1035
59814,298087,294198,-55,4,1026
59685,297835,294178,-55,-1,1026
59573,297738,294074,-61,5,1023
59584,297658,294006,-50,5,1021
59485,297596,294091,-50,-7,1020
59472,297578,293993,-63,3,1020
59371,297559,293911,-57,3,1023
59162,297351,293925,-57,-4,1029
59012,297245,293786,-62,-5,1029
58947,297150,293819,-55,-5,1017
58890,297080,293728,-55,5,1027
58855,297055,293686,-57,-4,1027
58692,296876,293710,-64,-4,1029
58536,296811,293640,-64,-8,1023
58492,296804,293607,-62,1,1023
58413,296866,293619,-54,-2,1026
58429,296831,293583,-65,-2,1038
58355,296740,293583,-65,5,1030
58299,296765,293487,-55,-2,1030
58311,296731,293608,-54,-2,1030
58310,296828,293614,-54,0,1027
58341,296819,293667,-68,1,1027
58404,296982,293686,-61,1,1004
58406,297004,293667,-61,2,1027
58402,296969,293684,-56,-3,1024
58491,296977,293761,-56,-3,1024
58536,297192,293765,-62,-3,1029
58564,297101,293780,-62,-1,1020
58618,297077,293878,-57,-8,1020
58618,297106,293795,-61,-8,1033
58614,297223,293882,-61,5,1014
58776,297299,293845,-53,-11,1014
58721,297235,293845,-54,-11,1021
58758,297321,293891,-54,6,1017
58867,297469,294001,-61,3,1017
58833,297457,293946,-60,3,1010
58920,297623,294027,-60,-1,1030
58972,297618,294041,-62,-6,1030
59065,297702,294070,-57,-6,1013
59093,297628,294101,-57,-3,1020
59092,297731,294107,-60,-3,1008
59099,297798,294329,-56,3,1008
59244,297897,294274,-51,3,1010
59297,297864,294243,-51,-7,1014
59362,297908,294216,-48,-1,1014
59443,298023,294330,-63,-1,1033
59367,298160,294369,-63,-5,1011
59486,298131,294356,-51,-7,1011
59614,298124,294422,-51,-7,1016
59665,298193,294405,-51,1,1020
59721,298214,294424,-63,0,1020
59762,298404,294574,-56,0,1013
59808,298436,294495,-56,0,1017
59976,298475,294584,-51,-1,1038
59933,298445,294633,-57,-3,1038
60011,298567,294648,-56,-3,1016
60012,298567,294758,-56,-3,1017
60129,298701,294771,-54,-1,1017
60201,298727,294760,-51,-1,1011
60285,298704,294771,-51,2,1024
60243,298847,294800,-50,6,1024
60380,298833,294950,-57,6,1017
60238,298915,294811,-57,-1,1027
60479,298946,294837,-48,-3,1030
60474,298986,294935,-55,-3,1030
60524,299067,294953,-50,-4,1021
60507,299045,294955,-50,-6,1038
60581,298940,294871,-56,-2,1038
60471,298773,294849,-56,-2,1018
60350,298792,294800,-56,-1,1035
60313,298769,294696,-52,-11,1035
60213,298707,294759,-54,-11,1029
60114,298579,294680,-54,-5,1017
60023,298503,294645,-56,-1,1017
59927,298409,294622,-52,-1,1035
59781,298326,294529,-54,1,1015
59824,298402,294625,-54,-4,1015
59614,298190,294625,-53,-4,1030
59501,298108,294493,-53,-4,1024
59454,298137,294423,-51,-2,1029
59468,298049,294509,-54,-7,1029
59319,298071,294415,-45,-7,1040
59321,297938,294555,-45,-5,1010
59224,297912,294390,-50,-6,1010
59230,297926,294313,-48,-6,1026
59141,297912,294387,-48,-5,1032
59186,297959,294421,-57,-12,1032
59192,298069,294419,-45,-12,1014
59193,298053,294468,-53,3,1026
59228,298126,294491,-53,-12,1026
59305,298173,294484,-48,-12,1021
59334,298297,294582,-48,-4,1027
59311,298274,294585,-48,-6,1038
59372,298303,294591,-48,-8,1038
59403,298385,294503,-55,-8,1026
59365,298376,294556,-55,0,1021
59505,298364,294596,-54,1,1021
59457,298419,294709,-57,1,1005
59589,298432,294667,-57,4,1029
59627,298498,294730,-54,-4,1029
59618,298529,294737,-64,-4,1032
59627,298571,294773,-45,-2,1021
59703,298603,294777,-45,-7,1021
59807,298610,294780,-51,-7,1018
59774,298663,294819,-51,-8,1033
59875,298710,294814,-49,-5,1014
59835,298611,294837,-53,-10,1014
59804,298771,294892,-49,-10,1021
59991,298816,294843,-49,-4,1027
60113,298884,294891,-55,-8,1027
60062,298824,294892,-51,-8,1037
60085,298792,294923,-51,-3,1018
60203,298871,294986,-47,0,1018
60185,298891,294994,-63,0,1030
60211,298922,294981,-63,-8,1020
60267,298957,294939,-50,6,1020
60321,298896,294968,-57,-1,1026
60301,298976,294991,-54,-1,1030
60408,298991,294967,-54,-7,1026
60472,298964,295010,-51,-9,1026
60509,299030,295095,-52,-9,1020
60534,298984,295041,-52,1,1030
60574,299074,295186,-52,-8,1030
60564,299218,295107,-52,-8,1023
60687,299132,295192,-52,-3,1024
60715,299140,295147,-47,-4,1024
60778,299192,295118,-54,-3,1030
60816,299332,295266,-51,-3,1037
60790,299159,295107,-51,-4,1016
60824,299094,295073,-48,1,1016
60862,299116,295067,-50,1,1010
60931,299141,295133,-50,-5,1021
60833,299166,295128,-55,-1,1021
60817,298836,295016,-60,-1,1018
60734,298787,294994,-60,1,1020
60586,298715,294893,-52,-6,1020
60541,298634,294855,-53,-6,1013
60515,298511,294812,-53,-10,1013
60328,298173,294759,-51,0,1013
60118,298204,294642,-61,0,1047
60051,298079,294631,-48,-2,1023
59935,298056,294609,-48,0,1011
59842,297997,294599,-64,-10,1011
59599,297836,294510,-45,-10,1030
59567,297710,294479,-45,2,1002
59399,297670,294438,-45,-5,1002
59370,297594,294393,-51,-5,1047
59247,297553,294401,-51,-1,1020
59266,297482,294345,-56,-7,1020
59041,297544,294350,-59,-7,1017
58999,297358,294276,-59,5,1021
59017,297371,294328,-51,-6,1007
58988,297367,294266,-53,-6,1007
58928,297430,294244,-59,-1,1020
58869,297353,294229,-59,9,1038
58903,297385,294200,-61,-3,1038
58850,297368,294206,-56,-3,1033
58936,297407,294247,-56,-6,1023
58866,297445,294326,-62,2,1023
59033,297478,294286,-51,2,1032
58995,297530,294346,-51,9,1030
59030,297482,294266,-50,-4,1030
58931,297503,294253,-54,-4,1030
59090,297601,294350,-51,5,1018
59054,297527,294302,-51,1,1018
59098,297492,294269,-52,1,1008
59106,297595,294271,-52,-1,1026
59149,297662,294381,-49,1,1011
59204,297908,294452,-49,-2,1011
59226,297779,294373,-57,-2,1017
59287,297814,294389,-57,-3,1035
59372,297750,294434,-59,0,1035
59275,297765,294461,-49,0,1027
59346,297941,294449,-49,-6,1037
59390,297923,294504,-47,-6,1037
59443,297945,294461,-61,-6,1017
59485,298000,294557,-61,-8,1038
59548,298005,294541,-60,1,1038
59543,298154,294603,-54,1,1015
59703,298138,294653,-54,1,1027
59745,298162,294615,-52,-7,1032
59618,298201,294608,-52,1,1032
59724,298194,294709,-60,1,1021
59764,298335,294722,-60,-9,1020
59903,298457,294699,-51,0,1020
59898,298394,294812,-48,0,1034
59987,298440,294738,-48,3,1021
60034,298517,294776,-48,3,1021
59891,298559,294797,-51,3,1002
60088,298543,294791,-59,-8,1023
60174,298590,294903,-59,-2,1023
60163,298584,294857,-51,0,1026
60251,298622,294882,-57,0,1018
60248,298663,295039,-57,-9,1010
60365,298766,295037,-60,-9,1010
60356,298861,295014,-51,-9,1017
60394,298827,295031,-51,0,1032
60484,298821,295088,-51,-11,1032
60521,298941,295079,-57,-11,1026
60459,298770,294987,-57,-6,1013
60500,298782,294989,-53,-3,1013
60453,298701,294966,-60,-3,1018
60326,298617,294911,-60,0,1005
60339,298542,294963,-60,-1,1026
60063,298195,294762,-55,-3,1026
59985,298223,294724,-55,-3,1024
59870,298084,294710,-55,2,1032
59762,298053,294628,-51,2,1032
59688,297997,294659,-57,2,1024
59474,297786,294559,-57,5,1030
59360,297677,294563,-60,3,1030
59273,297681,294454,-54,-10,1032
59251,297563,294448,-54,-10,1027
59092,297677,294324,-61,-3,1027
58979,297344,294351,-51,-3,1010
58843,297327,294262,-51,6,1024
58828,297324,294228,-62,0,1021
58696,297292,294252,-49,-1,1021
58690,297177,294324,-55,-1,1016
58627,297232,294267,-55,0,1030
58588,297255,294303,-50,-2,1030
58723,297248,294356,-57,-2,1027
58671,297297,294304,-57,-2,1021
58665,297287,294376,-56,-3,1021
58599,297287,294299,-59,-3,1023
58749,297379,294311,-59,1,1023
58780,297394,294375,-61,-7,1023
58776,297393,294323,-54,6,999
58777,297452,294349,-52,6,1013
58885,297363,294377,-52,-5,1021
58856,297459,294341,-45,-1,1021
58926,297553,294381,-52,-1,1023
58954,297548,294407,-52,0,1023
58997,297627,294472,-50,2,1023
58964,297712,294509,-60,2,1029
58956,297641,294465,-60,-3,1027
59003,297693,294460,-61,-2,1027
59150,297826,294615,-51,-3,1021
59247,297971,294718,-51,-3,1037
59174,297917,294580,-55,0,1032
59284,298037,294618,-59,1,1032
59345,298005,294615,-52,1,1032
59361,298032,294693,-52,2,1027
59369,298122,294671,-53,0,1027
59515,298109,294726,-48,0,1023
59492,298213,294767,-48,-5,1035
59529,298300,294789,-51,-3,1035
59544,298283,294800,-48,-3,1020
59556,298265,294807,-48,-4,1035
59645,298391,294874,-61,2,1035
59750,298407,294880,-54,-3,1020
59826,298476,294931,-54,-3,1032
59904,298586,294993,-51,-3,1054
59846,298564,294951,-51,3,1054
59881,298625,295006,-67,3,1038
60055,298731,295068,-67,-2,1017
60104,298818,295127,-60,2,1017
60143,298847,295110,-51,2,1023
60235,298854,295123,-51,-12,1018
60217,298842,295154,-50,-3,1018
60269,298945,295191,-45,-3,1010
60291,299039,295162,-45,-2,1014
60347,299035,295186,-56,1,1030
60420,299063,295239,-51,1,1030
60373,299257,295304,-48,-2,1014
60470,299115,295234,-48,-1,1010
60473,299124,295205,-54,-1,1010
60475,299045,295254,-51,-1,1024
60374,298988,295206,-51,-3,1017
60322,299004,295188,-55,-12,1017
60175,298718,295084,-51,-12,1054
60039,298574,295015,-51,3,1015
59952,298488,295007,-49,-3,1015
59861,298475,294964,-55,-3,1033
59801,298510,295100,-51,-3,1053
59590,298308,294861,-51,-1,1053
59465,298178,294766,-49,-1,1027
59462,298110,294773,-48,-1,1037
59372,298139,294786,-48,-4,1040
59369,298021,294756,-45,0,1040
59106,298008,294741,-53,0,1034
59071,297894,294552,-53,-4,1021
58980,297835,294725,-52,-1,1021
58947,297768,294692,-57,-1,1020
58865,297898,294851,-57,-4,1017
58768,297740,294663,-47,0,1029
58800,297844,294654,-57,-4,1029
58841,297879,294627,-57,-4,1041
58821,297866,294749,-44,-3,1041
58879,298036,294822,-60,-9,1035
58944,298004,294748,-45,-9,1026
59009,298088,294779,-45,-11,1023
59003,298133,294805,-48,-7,1023
59032,298164,294791,-51,-7,1013
59066,298246,294906,-51,4,1032
59063,298218,294911,-54,0,1032
59144,298296,294951,-54,0,1018
59195,298321,294887,-54,-3,1021
59238,298355,294845,-51,-1,1021
59244,298461,294938,-54,-10,1032
59315,298530,295066,-57,-10,1032
59418,298611,295033,-57,1,1035
59387,298638,295072,-49,-1,1035
59460,298705,295137,-51,-1,1030
59459,298733,295164,-51,-5,1040
59520,298722,295189,-51,-10,1040
59614,298834,295213,-49,-10,1026
59651,298812,295278,-49,-11,1038
59708,298858,295254,-55,4,1038
59714,298902,295322,-45,4,1021
59826,298957,295257,-45,-10,1027
59889,299071,295332,-37,-9,1017
59918,299040,295293,-53,-9,1017
59944,299127,295379,-48,-3,1014
60006,299170,295450,-48,1,1024
60107,299237,295493,-51,-4,1024
60014,299235,295450,-48,-4,1037
60133,299286,295506,-48,-8,1016
60225,299311,295481,-48,-5,1016
60248,299447,295587,-56,-5,1008
60234,299433,295597,-56,-9,1026
60473,299492,295600,-47,1,1026
60489,299575,295541,-48,1,1029
60497,299543,295603,-47,-9,1008
60517,299646,295744,-47,-2,1008
60607,299692,295645,-38,-2,1024
60615,299624,295695,-38,-2,1033
60704,299731,295769,-56,-2,1005
60730,299767,295734,-51,-3,1005
60753,299670,295696,-53,-3,1027
60807,299801,295805,-53,4,999
60785,299688,295785,-42,-9,999
60801,299539,295754,-43,-9,1014
60711,299482,295638,-43,-3,1024
60573,299447,295654,-51,-6,1024
60659,299406,295507,-56,-6,1011
60428,299096,295532,-56,-7,1024
60287,299034,295454,-56,-2,1032
60141,298948,295421,-43,-2,1032
60172,298846,295366,-45,1,1030
60078,298691,295269,-45,0,1029
59821,298560,295205,-49,-3,1029
59732,298427,295154,-47,-3,1026
59624,298415,295166,-47,-10,1016
59476,298273,295096,-49,-10,1016
59479,298288,295093,-53,-10,1021
59303,298096,294985,-53,-8,1008
59225,298034,294916,-51,-2,1008
59119,298033,294949,-48,-6,1018
59099,297949,294864,-48,-6,1033
59019,298026,294883,-49,-2,1021
58999,297860,294894,-51,-1,1021
58943,297837,294904,-54,-1,1040
59012,297936,294947,-54,2,1035
58987,297951,294930,-55,1,1035
58991,297950,294950,-60,1,1021
59025,297921,294938,-60,0,1002
58990,297906,294940,-54,-3,1002
59060,297938,294872,-54,-3,1027
59099,297962,294905,-54,-1,1044
59093,297950,294953,-48,1,1044
59095,297986,294956,-51,-3,1032
59056,298055,294955,-51,-3,1021
59124,298051,294928,-52,-2,1026
59150,298059,294923,-49,-6,1026
59196,298154,295053,-56,-6,1001
59189,298096,295011,-56,1,1023
59173,298176,295054,-42,-9,1023
59223,298135,295039,-48,-9,1038
59307,298174,295091,-48,-7,1026
59339,298365,295125,-54,1,1026
59405,298318,295075,-51,1,1032
59431,298300,295121,-51,-2,1038
59465,298288,295051,-54,-3,1021
59518,298331,295117,-53,-3,1021
59532,298341,295122,-61,-1,1027
59475,298413,295134,-61,-2,1020
59653,298341,295162,-52,-2,1020
59623,298440,295172,-48,-2,1050
59681,298506,295229,-48,2,1013
59750,298555,295262,-57,-1,1013
59856,298603,295218,-50,-1,1027
59782,298588,295196,-50,-1,1026
59827,298578,295237,-63,-4,1026
59885,298692,295292,-53,-4,1032
59876,298690,295370,-51,0,1041
59946,298792,295358,-51,2,1041
59952,298718,295323,-49,2,1027
59979,298787,295314,-49,-6,1016
60060,298731,295332,-60,-1,1018
60013,298819,295411,-44,-2,1018
60097,298840,295448,-55,-2,1035
60162,298873,295414,-55,-4,1033
60176,298887,295406,-55,1,1033
60185,298887,295418,-60,1,1041
60176,298843,295463,-60,0,1041
60101,298738,295380,-51,1,1041
60105,298668,295287,-63,1,1021
60030,298511,295251,-63,-8,1024
59968,298384,295236,-56,3,1024
59894,298408,295249,-54,3,1032
59715,298161,295035,-54,0,1013
59525,298033,295036,-55,0,1032
59420,297943,294978,-44,0,1032
59303,297887,294952,-63,0,1008
59242,297866,294939,-63,0,1029
59121,297822,294772,-53,-4,1029
58838,297661,294825,-51,-4,1033
58821,297553,294829,-51,-10,1010
58690,297518,294750,-51,-6,1008
58678,297473,294735,-50,-6,1008
58618,297522,294725,-45,-5,1030
58415,297310,294706,-45,3,1030
58348,297251,294650,-54,4,1020
58350,297328,294630,-47,4,1030
58373,297315,294683,-47,0,1037
58343,297423,294724,-61,-8,1037
58287,297362,294737,-59,-8,1026
58383,297369,294805,-59,-7,1029
58333,297428,294730,-48,0,1029
58434,297532,294861,-48,0,1030
58436,297606,294919,-48,0,1015
58511,297721,294879,-55,1,1015
58465,297623,294894,-57,1,1024
58534,297703,294848,-57,-3,1035
58578,297731,294892,-57,-7,1029
58582,297907,295028,-55,-4,1029
58670,297819,294997,-55,-4,1017
58792,297934,295051,-55,1,1059
58732,297991,295075,-52,1,1059
58853,297992,295101,-47,1,1014
58874,298071,295148,-47,-1,1020
58907,298104,295175,-56,4,1020
58944,298182,295154,-52,4,1032
58948,298169,295189,-52,-1,1037
58953,298267,295194,-54,2,1046
59094,298399,295246,-57,2,1046
59178,298361,295273,-57,-4,1024
59180,298429,295246,-56,2,1035
59244,298483,295368,-57,-4,1035
59269,298576,295368,-57,-4,1023
59309,298601,295437,-57,-2,1027
59378,298690,295361,-54,3,1027
59426,298700,295447,-62,3,1029
59519,298687,295466,-62,-1,1014
59594,298770,295451,-52,2,1020
59551,298982,295667,-50,2,1020
59723,298964,295601,-50,3,1026
59736,298960,295618,-49,-1,1010
59779,298957,295671,-50,-1,1010
59811,299024,295618,-59,-1,1032
59928,299213,295725,-59,1,1023
60030,299169,295735,-54,-7,1023
60057,299226,295699,-52,-7,1046
60099,299209,295755,-52,-3,1024
60106,299321,295773,-53,1,1024
60171,299324,295870,-53,1,1007
60287,299372,295885,-53,0,1041
60317,299426,295873,-41,0,1041
60364,299450,295895,-53,0,1024
60381,299463,295890,-53,-3,1035
60370,299475,295935,-56,-3,1016
60182,299353,295823,-54,-3,1016
60236,299247,295784,-55,-3,1029
60262,299134,295746,-55,6,1029
60031,299085,295781,-60,3,1029
59992,298966,295677,-55,3,996
59880,298756,295570,-55,-3,1035
59658,298668,295492,-50,-5,1035
59561,298617,295549,-55,-5,1007
59501,298586,295474,-55,-10,1023
59348,298587,295481,-47,1,1023
59330,298390,295354,-47,-3,1040
59056,298210,295309,-47,-3,1021
59008,298215,295325,-54,-4,1018
58834,298167,295301,-53,-5,1018
58852,298278,295297,-48,-5,1016
58723,298078,295260,-48,-4,1040
58647,297964,295134,-45,9,1040
58522,297979,295181,-45,9,1018
58504,298035,295202,-45,-1,1017
58529,298082,295193,-47,4,1017
58582,298141,295236,-57,4,1032
58583,298238,295310,-57,-4,1020
58594,298227,295339,-48,-4,1033
58584,298272,295380,-51,-4,1033
58629,298328,295393,-56,-5,1020
58761,298483,295387,-56,-8,1030
58789,298419,295448,-45,-5,1030
58865,298522,295420,-57,-5,1035
58801,298629,295506,-57,-9,1017
58895,298613,295574,-45,-9,1017
58851,298619,295523,-49,-9,1023
58900,298727,295557,-49,-3,1024
58895,298776,295625,-54,-10,1024
59037,298806,295590,-60,-8,1014
58946,298858,295586,-60,-8,1030
59051,298861,295652,-51,-12,1030
59147,298909,295622,-49,-12,1014
59149,298964,295663,-49,1,1029
59203,299052,295682,-48,-4,1035
59296,299043,295761,-51,-9,1035
59324,299301,295847,-45,-9,1021
59411,299236,295884,-45,-3,1016
59449,299322,295903,-48,-3,1016
59561,299403,295909,-50,-3,1023
59642,299495,296027,-50,-5,1001
59568,299568,296047,-48,-3,1001
59685,299628,296061,-52,-3,1020
59775,299539,296094,-54,-2,1013
59776,299628,296045,-54,2,1029
59896,299739,296153,-44,2,1029
59961,299796,296140,-52,-3,1029
59908,299893,296274,-52,4,1018
60026,299929,296252,-44,-6,1018
60152,299951,296300,-62,-6,1035
60156,300034,296354,-62,-8,1020
60293,300110,296412,-61,-7,1020
60333,300092,296367,-52,-7,1020
60336,300148,296370,-52,-12,1018
60392,300268,296356,-45,-1,1018
60484,300235,296492,-51,-4,1037
60520,300444,296607,-51,-4,1021
60627,300411,296468,-54,-1,1021
60646,300462,296567,-55,-1,1011
60680,300461,296591,-55,-3,1021
60696,300448,296631,-54,3,1027
60648,300526,296623,-57,-13,1027
60646,300296,296473,-52,-13,1013
60565,300212,296437,-52,-9,1026
60541,300102,296429,-48,-8,1026
60475,300120,296414,-47,-8,1038
60313,299963,296369,-47,-12,1038
60204,299806,296234,-60,2,1038
59967,299723,296212,-45,2,1015
59858,299606,296164,-59,-6,1026
59718,299578,296172,-59,-2,1026
59721,299569,296198,-51,-4,1027
59493,299386,296080,-44,-4,1032
59344,299295,296026,-44,0,1027
59335,299187,296006,-47,-1,1027
59281,299203,296052,-50,-1,1023
59177,299167,295959,-50,0,1032
59124,299129,295964,-51,-1,1032
59027,299039,295822,-48,-1,1024
58960,298927,295826,-48,-14,1016
58950,298983,295881,-47,-14,1016
58926,299142,295926,-55,-14,1029
58979,299080,295908,-55,-4,1007
59068,299163,295943,-55,-3,1007
59022,299124,295903,-54,-9,1035
59090,299164,295875,-43,-9,1026
59071,299288,295919,-43,-6,1029
59112,299171,295894,-54,-9,1029
59124,299186,295968,-51,-9,1014
59134,299237,295995,-51,-3,1021
59138,299232,295905,-56,-4,1021
59219,299284,295990,-49,-4,1046
59141,299250,296019,-49,0,1032
59241,299286,296021,-48,0,1034
59322,299365,296109,-57,0,1034
59263,299338,296027,-57,-10,1029
59343,299348,296059,-53,-3,1030
59398,299516,296200,-54,-8,1030
59412,299348,296091,-47,-8,1005
59415,299455,296035,-47,-9,1017
59486,299454,296082,-57,7,1017
59536,299469,296132,-63,7,1032
59587,299566,296202,-63,-2,1007
59599,299557,296126,-50,-6,1007
59653,299513,296130,-45,-6,1027
59669,299575,296098,-45,-4,1018
59633,299596,296208,-50,-9,1018
59750,299702,296189,-48,-9,1017
59764,299590,296196,-48,3,1043
59883,299673,296271,-59,-8,1023
59898,299653,296300,-53,-2,1023
59933,299741,296236,-55,-2,1013
59950,299818,296318,-55,-7,1023
60092,299835,296291,-61,3,1023
60044,299761,296226,-51,3,1027
60125,299789,296336,-51,-10,1004
60177,299751,296351,-55,-2,1018
60175,299888,296495,-64,-2,1018
60222,299799,296404,-64,-11,1033
60264,299907,296377,-45,-1,1033
60304,299976,296413,-48,-1,1032
60330,299951,296432,-61,-2,1041
60422,299984,296496,-61,2,1029
60373,299885,296439,-56,-4,1029
60412,299858,296362,-54,-4,1026
60428,299829,296388,-54,0,1011
60254,299669,296319,-62,-1,1011
60216,299609,296309,-49,-1,1029
60032,299279,296184,-49,6,1027
59955,299159,296046,-60,-2,1037
59846,299196,296015,-57,-9,1037
59735,299098,295961,-53,-9,1018
59586,298987,296056,-53,0,1018
59356,298742,295880,-51,0,1017
59242,298636,295808,-53,0,1044
59169,298556,295792,-53,-6,1027
59000,298520,295707,-52,-5,1027
58933,298514,295826,-67,-5,1035
58714,298216,295597,-67,2,1004
58527,298187,295579,-54,1,1004
58442,298034,295540,-63,1,1029
58422,297973,295417,-63,1,1029
58287,298007,295483,-49,-1,1029
58185,297882,295480,-61,-1,1040
58121,297805,295425,-61,5,1026
58087,297832,295422,-49,-3,1020
58167,297832,295420,-62,-1,1020
58123,297735,295430,-63,-1,1013
58164,297811,295479,-63,1,1018
58077,297897,295413,-54,-2,1018
58092,297921,295446,-57,-2,999
58146,297880,295426,-57,-3,1020
58169,297863,295551,-55,-5,1020
58229,297948,295458,-49,-5,1020
58156,297868,295383,-49,-1,1032
58170,297932,295399,-57,-4,1032
58143,297941,295479,-53,-6,1024
58262,298053,295446,-53,-6,1007
58333,297991,295484,-54,-6,1007
58359,298085,295468,-60,0,1030
58359,298090,295527,-55,0,1013
58375,298206,295536,-55,-2,1018
58317,298157,295518,-62,-3,1018
58453,298243,295570,-52,-3,1038
58486,298222,295591,-52,-7,1021
58466,298254,295598,-60,-11,1021
58476,298263,295655,-61,-11,1037
58538,298398,295632,-61,-4,1017
58539,298377,295831,-66,-3,1023
58699,298527,295736,-64,-3,1023
58708,298406,295654,-51,5,1013
58780,298484,295696,-51,-3,1024
58769,298552,295775,-54,5,1024
58846,298625,295804,-60,5,1027
58896,298662,295764,-60,-7,1020
58831,298573,295691,-51,2,1020
58896,298607,295767,-51,2,1021
58959,298640,295819,-51,-3,1023
59107,298798,295829,-62,-5,1023
59095,298756,295854,-56,-5,1020
59173,298839,295824,-56,-2,1033
59184,298833,295939,-60,3,1033
59174,298845,295889,-61,3,1062
59279,298887,295876,-61,-3,1021
59324,298937,295872,-59,0,1027
59400,298884,295829,-57,-1,1027
59372,298977,295972,-55,-1,1021
59399,298975,295949,-55,-3,1017
59457,299015,295975,-57,-5,1017
59458,299034,296045,-54,-5,1021
59467,298940,295984,-54,0,1032
59400,298911,295929,-60,-2,1032
59344,298775,295852,-51,-2,1035
59224,298716,295778,-51,3,1032
59021,298444,295755,-57,3,1027
58975,298366,295682,-54,3,1027
58715,298205,295556,-57,3,1030
58627,298111,295501,-57,-7,1032
58436,298136,295539,-57,-2,1032
58402,297845,295393,-53,-2,1014
58258,297813,295400,-53,0,1030
58156,297724,295347,-60,-1,1030
58114,297667,295274,-51,-1,1026
58054,297664,295427,-51,0,1029
57786,297522,295268,-55,-1,1029
57775,297417,295193,-49,-1,1035
57599,297326,295211,-55,0,1029
57556,297249,295101,-55,4,1029
57454,297367,295181,-66,4,1013
57475,297288,295130,-66,-1,1018
57439,297254,295093,-54,-5,1020
57434,297277,295067,-57,6,1020
57443,297298,295128,-60,6,1013
57440,297414,295268,-60,0,1027
57459,297393,295116,-55,0,1027
57556,297519,295152,-52,0,1038
57592,297508,295334,-52,-2,1032
57566,297511,295302,-61,2,1032
57614,297641,295403,-59,2,1032
57651,297623,295269,-59,1,1038
57700,297611,295325,-60,3,1038
57709,297598,295262,-61,-2,1032
57737,297697,295241,-61,-2,1038
57761,297874,295364,-69,3,1001
57948,297891,295458,-60,2,1001
57940,297956,295389,-51,2,1013
57953,297940,295463,-51,-3,1017
58018,298051,295551,-54,1,1017
58080,298058,295584,-48,1,1021
58117,298120,295534,-48,0,1032
58195,298079,295616,-50,-2,1032
58255,298130,295600,-54,0,1021
58273,298220,295584,-54,0,1041
58303,298314,295671,-55,-9,1041
58261,298335,295628,-54,-9,1030
58398,298354,295639,-54,-7,1024
58459,298413,295711,-54,-11,1038
58491,298372,295668,-52,-3,1038
58496,298532,295832,-60,-3,1044
58673,298674,295881,-60,5,1018
58727,298699,295887,-56,-2,1018
58689,298723,295901,-59,-2,1020
58789,298700,295917,-59,-4,1023
58824,298799,295969,-56,-6,1023
58826,298837,296001,-52,-5,1016
58856,298856,295927,-52,-5,1020
58998,298919,295974,-54,-5,1020
59032,299023,296108,-61,-5,1008
59006,299101,296068,-61,6,1002
59015,299148,296138,-57,-8,1020
59187,299119,296102,-52,-6,1020
59235,299095,296072,-52,-6,1017
59340,299223,296216,-52,-4,1023
59337,299325,296235,-44,-9,1023
59396,299347,296247,-56,-9,1037
59414,299341,296214,-56,-3,1026
59385,299289,296195,-51,2,1026
59418,299269,296211,-45,2,1023
59329,299159,296237,-45,-2,1033
59328,299101,296065,-57,3,1033
59044,298915,295955,-52,3,1014
59036,298778,295921,-59,-8,1026
58892,298740,295973,-59,-12,1010
58755,298551,295855,-49,-4,1010
58685,298465,295789,-61,-4,1013
58404,298359,295708,-61,1,1008
58304,298300,295687,-57,-9,1008
58277,298256,295624,-54,-9,1029
58188,298089,295573,-54,3,1013
58073,298067,295590,-57,0,1013
58018,297960,295536,-60,0,1043
57850,298011,295529,-60,-7,1029
57811,297835,295450,-48,-2,1035
57634,297811,295424,-53,-4,1035
57655,297928,295479,-45,-4,1023
57500,297808,295404,-45,-1,1035
57637,297827,295449,-55,-1,1035
57607,297921,295494,-53,-1,1027
57654,298009,295508,-53,-3,1030
57639,298099,295545,-51,-4,1030
57682,298075,295605,-61,-4,1026
57689,298180,295603,-61,-5,1032
57846,298155,295662,-51,6,1015
57833,298256,295642,-53,6,1015
57912,298280,295704,-53,0,1020
57868,298300,295769,-53,-11,1008
57832,298335,295705,-56,-3,1008
57961,298433,295784,-54,-3,1038
57986,298528,295891,-54,-3,1035
58037,298520,295876,-53,-9,1035
58098,298604,295874,-48,-9,1030
58169,298664,295908,-48,0,1015
58151,298686,295875,-56,-4,1015
58261,298776,295990,-51,-4,1040
58300,298807,296087,-51,-1,1017
58375,298924,296060,-48,-6,1017
58410,298950,296006,-54,-9,1014
58487,298966,296072,-54,-9,1043
58542,299034,296132,-53,-4,1004
58612,299093,296195,-39,-3,1004
58578,299176,296041,-54,-3,1004
58691,299204,296243,-54,-1,1016
58737,299239,296262,-59,-3,1016
58848,299294,296231,-51,-3,1013
58862,299320,296276,-51,-3,1040
58913,299469,296400,-49,-12,1040
58953,299442,296367,-51,-12,1026
59021,299564,296437,-51,-4,1017
59115,299590,296430,-48,-8,1017
59075,299618,296487,-42,-3,1001
59292,299639,296430,-42,-3,1016
59243,299756,296493,-51,-4,1030
59270,299781,296532,-52,0,1030
59411,299782,296551,-51,0,1015
59418,299794,296605,-51,-5,990
59593,299853,296622,-54,0,990
59540,299893,296648,-45,0,1032
59648,299949,296659,-45,-7,1026
59643,299972,296605,-50,3,1026
59678,300070,296719,-54,3,1032
59822,299994,296705,-57,2,1037
59799,299994,296723,-57,-1,1037
59840,299963,296675,-54,-1,1020
59822,299967,296697,-54,0,1020
59861,299941,296668,-54,-5,1024
59653,299729,296618,-50,-15,1024
59643,299686,296577,-54,-15,1033
59570,299425,296404,-54,-3,1041
59404,299362,296343,-56,1,1041
59289,299300,296331,-52,1,1029
59136,299054,296202,-52,-6,1024
58954,298883,296137,-51,-4,1024
58838,298769,296039,-51,-4,1023
58631,298612,295901,-49,-3,1040
58623,298513,295936,-49,3,1040
58563,298572,295871,-54,3,1035
58196,298243,295819,-54,3,1032
58134,298179,295802,-57,-2,1035
58067,298125,295779,-57,-5,1035
58041,298073,295733,-59,-5,1033
57966,298070,295634,-59,3,1034
57865,297908,295650,-45,5,1034
57804,297909,295612,-54,5,1024
57804,297921,295596,-54,3,1018
57796,297943,295511,-52,-1,1018
57802,297976,295645,-55,-1,1035
57873,297924,295645,-55,-7,1016
57863,297966,295728,-55,2,1016
57953,298061,295665,-57,2,1035
57899,298023,295722,-57,-3,1008
57920,298024,295729,-51,8,1029
57954,298067,295638,-54,-7,1029
57954,298039,295601,-55,-7,1035
57990,298013,295676,-55,-3,1030
57990,298032,295706,-52,0,1030
58003,298230,295806,-57,0,1020
58083,298162,295808,-57,-3,1020
58067,298198,295768,-51,-4,1020
58044,298120,295706,-47,1,1046
58115,298161,295714,-47,1,1018
58200,298264,295843,-54,1,1018
58192,298255,295804,-61,1,1027
58255,298332,295881,-61,-5,1029
58211,298326,295851,-49,1,1008
58321,298475,295950,-52,-2,1008
58305,298484,295908,-54,-2,1010
58324,298487,295890,-54,-7,1035
58509,298514,295889,-48,1,1035
58448,298538,295894,-50,1,1035
58481,298538,295953,-50,-3,1032
58568,298569,295980,-53,-1,1032
58590,298527,295959,-54,0,1035
58640,298591,295996,-53,0,1034
58665,298576,296000,-53,1,1037
58801,298715,296028,-54,1,1037
58769,298807,296150,-56,5,1015
58740,298658,296054,-56,-10,1023
58866,298713,296061,-63,0,1023
58904,298752,296030,-59,0,1023
58928,298819,296051,-59,-2,1016
58995,298946,296157,-52,-5,1016
59096,298931,296284,-54,-5,1024
59085,299057,296217,-54,5,1024
59146,298938,296110,-54,5,1040
59200,299018,296196,-59,5,1040
59195,299111,296308,-59,-6,1035
59230,299027,296201,-65,1,1035
59283,298949,296192,-57,1,1034
59202,298945,296280,-57,-1,1026
59272,298978,296211,-57,1,1026
59217,298993,296237,-56,1,1026
59147,298776,296051,-63,1,1023
59065,298693,296028,-63,-4,1026
58947,298516,296011,-57,-3,1026
58797,298403,295996,-55,-3,1029
58704,298368,295990,-55,0,1020
58673,298073,295728,-61,-2,1020
58368,297923,295706,-57,-2,1037
58255,297822,295694,-57,-6,1038
58092,297796,295635,-53,0,1037
58009,297749,295604,-59,1,1037
57950,297604,295489,-57,1,1021
57641,297507,295441,-57,-2,1027
57654,297357,295455,-50,-6,1027
57537,297335,295486,-60,-6,1008
57444,297412,295445,-60,-4,1014
57186,297205,295361,-51,5,1014
57307,297190,295322,-55,5,1018
57215,297187,295297,-55,-5,1032
57219,297124,295250,-63,-6,1020
57212,297173,295379,-60,5,1020
57319,297298,295300,-53,5,1034
57225,297171,295368,-53,-5,1002
57245,297342,295365,-60,1,1002
57323,297355,295447,-60,1,1024
57313,297497,295406,-60,-3,1016
57401,297558,295416,-59,-3,1016
57463,297443,295420,-63,-3,1021
57417,297558,295499,-63,2,1027
57423,297574,295525,-54,-3,1027
57461,297593,295428,-60,-3,1029
57564,297670,295491,-60,-5,1035
57612,297649,295517,-53,1,1035
57757,297709,295566,-54,1,1021
57611,297829,295646,-54,1,1032
57713,297854,295615,-61,5,1032
57747,297924,295730,-60,2,1032
57824,297891,295669,-60,2,1017
57852,297948,295717,-60,0,1046
57933,298010,295764,-60,0,1046
57944,298057,295741,-56,0,1040
57991,298160,295788,-56,3,1023
58097,298210,295881,-54,2,1023
58131,298165,295922,-56,-7,1038
58200,298189,295829,-55,-7,1035
58227,298325,295871,-55,-5,1014
58205,298497,296035,-59,-4,1014
58409,298441,295990,-57,-4,1032
58380,298467,296030,-57,-5,1004
58398,298463,296027,-57,-4,1004
58497,298480,295964,-51,-4,1020
58560,298588,296117,-51,1,1011
58662,298639,296115,-62,-2,1011
58682,298651,296153,-63,-2,1035
58722,298773,296198,-63,-6,1020
58786,298754,296191,-51,-2,1021
58750,298769,296188,-51,-2,1021
58941,298913,296206,-53,-3,1013
59014,298931,296207,-53,2,1013
59016,298907,296293,-63,2,1026
59079,298880,296250,-57,-7,1023
59235,298959,296403,-57,-2,1043
59162,299055,296411,-53,0,1043
59258,299073,296302,-51,0,1029
59270,299016,296342,-51,-2,1023
59197,299017,296326,-60,-4,1023
59225,299124,296419,-65,-4,1033
59184,298772,296149,-65,-1,1007
59057,298751,296223,-54,-3,1007
58971,298612,296174,-60,-3,1030
58818,298483,296071,-60,1,1030
58697,298480,295944,-55,1,1015
58503,298147,295929,-59,1,1015
58320,298053,295875,-51,1,1021
58240,297986,295819,-51,-2,1008
58091,297805,295746,-53,0,1008
58047,297785,295842,-56,0,1023
57817,297734,295686,-56,-3,1013
57783,297698,295604,-55,-7,1013
57699,297634,295552,-57,-7,1035
57600,297521,295473,-57,6,996
57475,297504,295597,-57,-2,1035
57395,297349,295482,-43,-3,1035
57310,297367,295478,-59,-3,1049
57325,297354,295418,-59,-2,1032
57362,297413,295426,-55,1,1032
57297,297454,295540,-51,1,1029
57372,297487,295474,-51,-2,1021
57368,297636,295577,-57,-1,1021
57372,297622,295625,-53,-1,1035
57425,297738,295603,-53,-5,1017
57422,297779,295754,-55,-3,1017
57517,297892,295654,-56,-3,1021
57564,297895,295736,-56,-1,1013
57590,297962,295795,-43,-2,1013
57646,297969,295759,-53,-2,1027
57724,298004,295774,-53,-6,1013
57624,298155,295838,-52,-3,1020
57816,298118,295858,-53,-2,1020
57885,298213,295923,-57,-2,1023
57870,298277,295888,-57,3,1017
57884,298256,295920,-51,-6,1017
58003,298402,296002,-54,-6,1014
58101,298389,296022,-54,-7,1023
58038,298394,296022,-54,2,1023
58080,298426,296071,-54,2,1030
58134,298506,296061,-54,-3,1023
58179,298633,296064,-54,-4,1020
58342,298645,296123,-60,-4,1020
58389,298703,296151,-48,-3,1035
58415,298698,296164,-48,-12,1021
58418,298789,296243,-54,-6,1021
58522,298791,296268,-57,-6,1016
58586,298774,296205,-57,-3,1035
58612,298785,296208,-60,1,1035
58662,298820,296267,-51,1,1024
58672,298799,296287,-51,3,1015
58805,298928,296369,-60,1,1015
58843,299060,296305,-61,1,1014
58884,299001,296421,-54,-5,1021
58917,299064,296413,-54,-4,1021
58930,299145,296446,-60,-4,1041
58994,299235,296450,-60,1,1026
59063,299188,296486,-52,1,1034
59102,299221,296518,-54,-2,1034
59190,299238,296491,-52,-2,1030
59150,299310,296465,-52,-3,1035
59256,299502,296577,-53,-7,1035
59332,299454,296665,-54,-7,1035
59418,299499,296628,-54,-4,1026
59396,299485,296649,-57,0,1026
59454,299493,296612,-53,0,1032
59469,299496,296675,-53,-6,1001
59309,299330,296552,-51,-7,1029
59252,299260,296568,-51,-7,1029
59128,299147,296427,-48,-13,1023
59055,299062,296376,-48,3,1023
58903,298901,296310,-54,-5,1023
58750,298723,296288,-43,-5,1029
58667,298692,296210,-43,-6,1010
58501,298614,296123,-60,-3,1010
58388,298484,296089,-54,-3,1018
58346,298482,296192,-54,-5,1013
58115,298226,296045,-55,-5,1013
58006,298122,295938,-51,-5,1021
57905,298137,296026,-51,0,1038
57836,298113,295932,-52,1,1038
57834,298162,295966,-51,-5,1029
57656,298001,295824,-51,-5,1040
57676,297917,295785,-51,-1,1035
57610,297971,295793,-63,-1,1035
57609,297960,295900,-45,-1,1035
57694,297955,295854,-45,6,1029
57675,298003,295897,-47,-3,1029
57785,298045,295891,-51,-3,1035
57680,298064,295895,-51,-3,1002
57726,298049,295897,-56,-2,1002
57812,298133,295992,-45,0,1029
57825,298059,295883,-45,0,1014
57867,298108,295887,-51,-2,1010
57895,298109,295849,-51,3,1010
57841,298178,295846,-47,3,1029
57895,298212,296029,-47,-3,1026
58052,298108,295975,-54,3,1026
57975,298186,295884,-56,3,1021
57970,298233,295899,-56,-7,1002
58105,298276,296058,-55,-6,1002
58110,298273,296089,-50,-6,1043
58187,298252,296040,-50,-3,1027
58219,298303,296006,-62,0,1017
58192,298288,296053,-57,0,1017
58261,298360,296004,-54,-3,1016
58244,298385,296087,-54,5,1032
58207,298289,296090,-50,0,1032
58279,298343,296012,-54,0,1041
58392,298340,296109,-54,0,1030
58409,298361,296051,-66,0,1030
58444,298451,296136,-55,0,1021
58481,298493,296119,-55,2,1024
58561,298525,296105,-53,-3,1024
58467,298369,296056,-60,-3,1008
58573,298434,296127,-60,0,1030
58564,298372,296023,-51,-6,1030
58652,298518,296184,-54,3,1023
58629,298496,296116,-54,3,1026
58733,298475,296162,-63,-8,1046
58731,298396,296079,-65,0,1046
58709,298371,296052,-52,0,1032
58748,298444,296172,-52,-11,1014
58850,298442,296116,-60,-2,1014
58805,298536,296167,-57,-2,1021
58854,298498,296036,-57,0,1027
58914,298586,296161,-61,-2,1027
58914,298553,296248,-57,-2,1029
58997,298475,296086,-57,-9,1053
58951,298455,296144,-57,-5,1035
58863,298368,296010,-57,-5,1035
58788,298211,295996,-57,0,1013
58806,298190,295916,-59,-2,1004
58448,297817,295780,-57,-5,1004
58391,297753,295776,-66,-5,1038
58243,297626,295719,-66,0,1024
58080,297489,295590,-54,-2,1024
57905,297529,295698,-57,-2,1017
57678,297219,295414,-57,-9,1008
57605,297086,295434,-56,-3,1020
57485,296993,295432,-60,2,1020
57321,296904,295403,-60,2,1024
57327,296905,295303,-52,-8,1032
57030,296741,295240,-57,-1,1032
57028,296530,295194,-63,-1,1021
56842,296480,295124,-63,1,1015
56722,296386,295088,-67,0,1015
56691,296465,295103,-64,0,1032
56639,296295,295056,-64,-3,1021
56673,296286,294937,-53,3,1021
56554,296263,294983,-61,3,1020
56568,296202,294996,-61,-6,1020
56655,296311,295166,-60,-2,1017
56654,296417,295040,-68,-1,1017
56656,296398,294974,-68,-1,1010
56689,296398,295064,-60,2,1004
56684,296415,294989,-63,-2,1004
56716,296498,295171,-56,-2,1035
56687,296433,295029,-56,5,1040
56719,296509,294989,-50,0,1040
56751,296396,294994,-55,0,1010
56753,296474,295089,-55,0,1014
56856,296683,295139,-63,0,1014
56941,296606,295144,-60,-1,1030
56924,296608,295211,-60,-1,1033
56951,296626,295186,-57,1,1033
56967,296697,295199,-67,1,1011
56960,296725,295304,-66,-6,1024
57112,296802,295178,-66,-7,1023
57126,296863,295276,-59,-2,1023
57165,296833,295260,-57,-2,1004
57199,296923,295285,-57,-1,1030
57315,297029,295380,-64,-3,1030
57152,297032,295296,-61,-3,999
57333,297003,295262,-61,-4,1027
57419,297113,295266,-61,-1,1007
57469,297131,295348,-60,-3,1007
57379,297175,295467,-60,-3,1035
57632,297246,295398,-63,4,1035
57542,297221,295418,-65,-1,1017
57595,297258,295427,-65,-1,1018
57646,297294,295411,-65,1,1021
57656,297326,295494,-56,-2,1021
57749,297402,295533,-60,-2,1020
57790,297379,295529,-60,0,1035
57831,297472,295541,-54,0,1035
57907,297559,295557,-63,0,1034
57876,297563,295648,-63,1,1027
57824,297541,295682,-65,-8,1027
58067,297522,295621,-60,-8,1052
58048,297537,295633,-60,-2,1011
58143,297643,295616,-62,0,1041
58116,297673,295600,-53,0,1041
58266,297720,295701,-62,0,1044
58188,297581,295762,-62,-3,1035
58178,297636,295611,-64,1,1035
58135,297502,295592,-66,1,1037
58090,297439,295594,-66,-9,1026
58003,297487,295413,-54,-5,1026
57693,297035,295353,-57,-5,1038
57551,296900,295345,-57,1,1027
57540,296819,295296,-57,4,1027
57340,296717,295152,-66,4,1021
57265,296578,295144,-66,1,1029
57077,296554,295008,-60,-6,1035
56946,296413,295023,-63,0,1035
56901,296307,294990,-56,0,1018
56708,296244,294892,-56,-5,1033
56603,296124,294826,-52,3,1033
56420,295962,294865,-56,3,1020
56252,295870,294792,-56,-3,1041
56210,295827,294776,-66,-4,1013
56170,295773,294670,-62,-4,1013
56056,295763,294649,-62,-6,1029
56054,295730,294704,-57,-3,1029
56038,295682,294654,-50,-3,1008
55980,295707,294677,-56,-3,1035
56156,295800,294717,-56,0,1029
55967,295973,294816,-64,4,1029
56131,296004,294764,-60,4,1011
56217,296037,294820,-60,-9,1032
56177,296040,294795,-63,4,1032
56319,296089,294853,-53,4,1024
56372,296178,294920,-53,-3,1014
56280,296205,294848,-66,-3,1014
56405,296197,294954,-66,-3,1037
56331,296273,294979,-66,1,1020
56395,296319,294968,-60,-1,1020
56447,296447,295063,-51,-8,1033
56571,296503,295010,-61,-8,1029
56575,296540,294976,-61,-3,1027
56688,296607,295070,-57,-4,1027
56698,296712,295110,-55,-4,1029
56797,296790,295274,-55,-2,1026
56870,296932,295294,-63,1,1026
56881,296969,295205,-49,1,1007
56873,297103,295266,-49,1,1027
56967,297092,295348,-61,-12,1013
57003,297318,295425,-57,-12,1013
57080,297269,295425,-52,-3,1010
57129,297351,295382,-52,-1,1037
57228,297390,295477,-57,3,1037
57253,297371,295519,-51,3,1023
57308,297529,295557,-51,-4,1023
57377,297445,295584,-51,-3,1023
57504,297477,295565,-52,-3,1035
57535,297578,295563,-52,-7,1023
57505,297642,295663,-51,-1,1023
57663,297797,295755,-57,-1,1026
57664,297726,295725,-57,-4,1037
57752,297888,295757,-52,-6,1037
57860,297902,295791,-52,-6,1018
57885,297930,295851,-47,3,1023
57887,297975,295870,-47,-3,1018
57826,297998,295869,-57,-3,1018
58128,298047,295959,-55,-3,1032
58176,298169,295959,-55,-3,1014
58188,298156,295942,-55,6,1014
58230,298218,296039,-54,6,1034
58316,298246,296048,-54,-8,1017
58291,298284,296040,-55,-3,1030
58317,298133,295928,-59,-3,1030
58304,298112,295927,-51,-1,1037
58190,298059,295893,-51,-3,1037
58127,297830,295835,-50,4,1010
57878,297657,295648,-56,4,1024
57766,297515,295568,-56,-3,1035
57595,297429,295486,-60,-3,1035
57502,297358,295576,-54,-3,1014
57201,297123,295422,-54,0,1018
57229,297025,295420,-56,-2,1018
57093,296935,295393,-50,-2,1017
57034,296804,295283,-50,-5,1002
56948,296866,295239,-60,-5,1010
56894,296735,295208,-54,-5,1010
56753,296626,295137,-54,-6,1030
56647,296575,295044,-54,-7,1033
56567,296522,295016,-60,-1,1033
56480,296540,295050,-57,-1,1026
56429,296588,295044,-57,0,1014
56394,296521,295079,-57,3,1014
56420,296650,295051,-51,3,1029
56507,296548,295131,-51,-6,1030
56501,296721,295241,-54,-3,1030
56565,296781,295263,-63,-3,1010
56618,296775,295250,-63,0,1029
56628,296826,295300,-52,-3,1060
56616,296842,295250,-54,-5,1060
56687,296998,295287,-54,-5,1024
56703,297021,295313,-62,-3,1010
56704,297007,295332,-49,0,1010
56699,297077,295368,-56,0,1026
56836,297080,295400,-56,-9,1026
56862,297078,295378,-54,2,1026
56874,297124,295411,-56,2,1023
56935,297160,295437,-56,-8,1038
56967,297178,295390,-56,4,1038
56982,297230,295422,-51,4,1020
57075,297247,295412,-51,-2,1017
56943,297445,295524,-54,-9,1035
57187,297403,295474,-60,-9,1035
57202,297448,295558,-52,0,1029
57316,297468,295584,-52,-8,1038
57270,297525,295560,-57,4,1038
57393,297549,295644,-45,4,1032
57449,297522,295597,-45,-9,1013
57433,297585,295683,-66,1,1013
57503,297565,295654,-56,1,1030
57573,297634,295694,-56,-8,1032
57654,297662,295829,-57,3,1032
57750,297632,295718,-54,-5,1023
57722,297731,295727,-54,-5,1020
57779,297677,295738,-54,-1,1018
57802,297786,295848,-63,-1,1018
57847,297759,295905,-60,3,1007
57928,297786,295765,-60,-1,1035
58007,297867,295831,-56,0,1035
57999,297881,295903,-62,0,1030
58019,297829,295883,-62,-9,1032
58020,298036,296007,-61,-6,1032
58107,297920,295950,-49,-6,1033
58203,297898,295893,-49,0,1049
58192,297919,295886,-60,-6,1029
58195,298006,295920,-54,-5,1029
58140,297965,295849,-54,-5,1011
58066,297803,295770,-57,-3,1011
58029,297596,295685,-57,0,1024
57864,297452,295634,-62,0,1038
57750,297385,295619,-62,1,1017
57739,297276,295566,-54,0,1017
57473,297045,295413,-56,0,1026
57276,296979,295412,-56,-5,1030
57125,296788,295325,-64,-5,1030
57060,296722,295269,-56,-5,1021
56924,296723,295223,-56,-3,1035
56738,296409,295102,-64,0,1035
56652,296237,295003,-60,2,1018
56571,296218,294987,-64,2,1024
56459,296137,294995,-64,4,1024
56349,296183,295011,-60,3,1024
56269,295971,294871,-60,3,1007
56135,296013,294813,-60,8,1018
56011,295951,294857,-60,-2,1018
55965,295835,294853,-63,-2,1017
55958,295920,294806,-63,-5,1038
55957,295876,294847,-56,1,1038
55936,295975,294800,-59,1,1017
55976,295995,294765,-59,-4,1013
56101,295954,294828,-67,3,1013
56038,296038,294864,-59,3,1032
56092,295963,294852,-59,1,1015
56127,296053,294775,-65,3,1026
56206,295995,294874,-67,-7,1026
56110,296046,294832,-59,-7,1041
56256,296108,294858,-59,3,1018
56269,296182,294913,-62,-6,1018
56199,296134,294903,-57,-6,1032
56282,296206,294955,-57,-3,1013
56315,296220,294865,-59,1,1013
56332,296226,294950,-57,1,1017
56349,296320,295011,-57,0,1014
56400,296304,295021,-56,3,1014
56502,296421,295024,-62,-3,1017
56517,296412,295079,-62,-3,1041
56525,296503,295029,-59,3,1030
56597,296568,295116,-60,-2,1030
56662,296622,295152,-61,-2,1013
56713,296612,295158,-61,0,1034
56720,296706,295147,-57,4,1034
56840,296737,295150,-56,4,1014
56830,296796,295193,-56,-11,1029
56907,296742,295156,-59,-6,1029
56961,296848,295147,-63,-6,1033
57061,296865,295243,-65,-4,1033
56932,296876,295250,-65,-1,1033
57039,297094,295381,-53,-1,1021
57146,297013,295348,-53,-1,1024
57181,297037,295324,-54,-11,1035
57205,297081,295324,-59,1,1035
57351,297149,295476,-60,1,1046
57324,297201,295523,-60,-1,1030
57384,297198,295540,-60,-9,1030
57407,297213,295443,-54,-9,1032
57455,297276,295531,-54,0,1023
57587,297316,295517,-60,-2,1023
57628,297404,295631,-56,-2,1023
57678,297423,295615,-56,3,1030
57719,297482,295654,-57,-2,1030
57774,297501,295649,-59,-2,1014
57737,297472,295583,-54,0,1024
57847,297471,295702,-54,0,1027
57723,297274,295552,-63,-2,1027
57645,297088,295483,-60,-2,1038
57504,297012,295359,-60,1,1010
57391,296974,295326,-61,-2,1010
57272,296840,295432,-60,-2,1008
57003,296587,295165,-60,-6,1014
56942,296498,295080,-60,0,1015
