6369,7021,5957,64,57,49,10240,-1.00,-1.00,0.00,0.00,6307,6965,5909,0,0,0,0,0,0
6371,7020,5956,63,55,48,10240,-1.00,-1.00,0.00,0.00,6309,6967,5910,0,0,0,0,0,0
6371,7023,5957,61,54,47,10240,-1.00,-1.00,0.00,0.00,6312,6969,5912,0,0,0,0,0,0
6375,7028,5959,61,55,46,10240,-1.00,-1.00,0.00,0.00,6314,6971,5913,0,0,0,0,0,0
6379,7034,5961,61,56,45,10240,-1.00,-1.00,0.00,0.00,6316,6973,5915,0,0,0,0,0,0
6386,7041,5965,62,59,46,10240,-1.00,-1.00,0.00,0.00,6318,6975,5917,0,0,0,0,0,0
6387,7044,5966,64,62,47,10240,-1.00,-1.00,0.00,0.00,6320,6978,5918,0,0,0,0,0,0
6389,7048,5967,66,65,47,10240,-1.00,-1.00,0.00,0.00,6323,6980,5920,0,0,0,0,0,0
6391,7049,5968,66,66,47,10240,-1.00,-1.00,0.00,0.00,6325,6982,5921,0,0,0,0,0,0
6390,7049,5968,65,66,46,10240,-1.00,-1.00,0.00,0.00,6327,6984,5923,0,0,0,0,0,0
6391,7049,5972,64,65,46,10240,-1.00,-1.00,0.00,0.00,6329,6987,5925,0,0,0,0,0,0
6390,7050,5973,62,63,46,10240,-1.00,-1.00,0.00,0.00,6331,6989,5926,0,0,0,0,0,0
6389,7050,5974,60,61,46,10240,-1.00,-1.00,0.00,0.00,6333,6991,5928,0,0,0,0,0,0
6389,7050,5975,57,59,46,10240,-1.00,-1.00,0.00,0.00,6335,6993,5929,0,0,0,0,0,0
6388,7051,5975,55,58,45,10240,-1.00,-1.00,0.00,0.00,6337,6995,5931,0,0,0,0,0,0
6389,7050,5979,52,56,45,10240,-1.00,-1.00,0.00,0.00,6339,6996,5933,0,0,0,0,0,0
6388,7051,5980,50,55,45,10240,-1.00,-1.00,0.00,0.00,6340,6998,5934,0,0,0,0,0,0
6388,7051,5981,48,53,45,10240,-1.00,-1.00,0.00,0.00,6342,7000,5936,0,0,0,0,0,0
6387,7051,5984,47,51,46,10240,-1.00,-1.00,0.00,0.00,6343,7002,5937,0,0,0,0,0,0
6387,7051,5982,45,50,45,10240,-1.00,-1.00,0.00,0.00,6345,7003,5939,0,0,0,0,0,0
6389,7050,5979,43,48,43,10240,-1.00,-1.00,0.00,0.00,6346,7005,5940,0,0,0,74,0,0
6390,7050,5973,42,46,40,10240,-1.00,-1.00,0.00,0.00,6348,7006,5941,0,0,0,74,0,0
6390,7050,5970,42,44,35,10240,-1.00,-1.00,0.00,0.00,6349,7008,5942,0,0,0,74,0,0
6392,7049,5964,41,42,30,10240,-1.00,-1.00,0.00,0.00,6351,7009,5943,0,0,0,74,0,0
6386,7039,5960,39,38,24,10240,-1.00,-1.00,0.00,0.00,6352,7010,5944,0,0,0,74,0,0
6376,7026,5955,34,31,19,10240,-1.00,-1.00,0.00,0.00,6353,7011,5944,0,0,0,74,0,0
6369,7017,5951,28,22,13,10240,-1.00,-1.00,0.00,0.00,6353,7011,5944,0,0,0,74,0,0
6365,7011,5948,21,12,9,10240,-1.00,-1.00,0.00,0.00,6353,7011,5944,0,0,0,74,0,0
6362,7007,5947,14,4,6,10240,-1.00,-1.00,0.00,0.00,6354,7011,5944,0,0,0,74,0,0
6358,7004,5947,10,-1,4,10240,-1.00,-1.00,0.00,0.00,6354,7011,5944,0,0,0,74,0,0
6356,7004,5946,6,-4,2,10240,-1.00,-1.00,0.00,0.00,6354,7010,5945,0,0,0,74,0,0
6353,7002,5945,3,-6,1,10240,-1.00,-1.00,0.00,0.00,6354,7010,5945,0,0,0,74,0,0
6352,7002,5945,0,-7,1,10240,-1.00,-1.00,0.00,0.00,6354,7010,5945,0,0,0,74,0,0
6353,7003,5944,0,-7,0,10240,-1.00,-1.00,0.00,0.00,6354,7010,5944,0,0,0,74,0,0
6352,7003,5946,-1,-7,0,10240,-1.00,-1.00,0.00,0.00,6354,7009,5945,0,0,0,74,0,0
6354,7003,5947,-1,-6,0,10240,-1.00,-1.00,0.00,0.00,6354,7009,5945,0,0,0,74,0,0
6358,7004,5947,0,-6,1,10240,-1.00,-1.00,0.00,0.00,6354,7009,5945,0,0,0,74,0,0
6360,7009,5948,2,-4,2,10240,-1.00,-1.00,0.00,0.00,6354,7009,5945,0,0,0,74,0,0
6360,7011,5948,4,-2,2,10240,-1.00,-1.00,0.00,0.00,6354,7009,5945,0,0,0,74,0,0
6361,7012,5949,5,0,3,10240,-1.00,-1.00,0.00,0.00,6355,7009,5945,0,0,0,74,0,0
6361,7013,5950,6,2,3,10240,-1.00,-1.00,0.00,0.00,6355,7009,5945,0,0,0,74,0,0
6360,7013,5950,5,3,4,10240,-1.00,-1.00,0.00,0.00,6355,7009,5945,0,0,0,74,0,0
6361,7019,5954,5,5,5,10240,-1.00,-1.00,0.00,0.00,6355,7010,5946,0,0,0,74,0,0
6364,7021,5956,6,7,7,10240,-1.00,-1.00,0.00,0.00,6355,7010,5946,0,0,0,74,0,0
6366,7027,5956,7,10,8,10240,-1.00,-1.00,0.00,0.00,6356,7011,5946,0,0,0,74,0,0
6370,7032,5959,9,14,10,10240,-1.00,-1.00,0.00,0.00,6356,7011,5947,0,0,0,74,0,0
6373,7036,5960,12,18,11,10240,-1.00,-1.00,0.00,0.00,6357,7012,5947,0,0,0,74,0,0
6382,7041,5964,16,22,12,10240,-1.00,-1.00,0.00,0.00,6358,7013,5948,0,0,0,74,0,0
6384,7052,5966,19,27,14,10240,-1.00,-1.00,0.00,0.00,6359,7015,5948,0,0,0,74,0,0
6383,7052,5966,22,31,16,10240,-1.00,-1.00,0.00,0.00,6359,7016,5949,0,0,0,74,0,0
6382,7053,5968,23,34,17,10240,-1.00,-1.00,0.00,0.00,6360,7017,5950,0,0,0,74,0,0
6382,7054,5965,23,36,17,10240,-1.00,-1.00,0.00,0.00,6361,7018,5950,0,0,0,74,0,0
6380,7048,5962,21,34,15,10240,-1.00,-1.00,0.00,0.00,6361,7019,5950,5,10,0,74,0,0
6366,7024,5952,16,26,11,10240,-1.00,-1.00,0.00,0.00,6362,7019,5951,5,10,0,74,0,0
6359,7017,5949,10,17,6,10240,-1.00,-1.00,0.00,0.00,6362,7019,5950,5,10,0,74,0,0
6353,7010,5945,3,5,1,10240,-1.00,-1.00,0.00,0.00,6361,7019,5950,5,10,0,74,0,0
6348,7006,5943,-5,-4,-3,10240,-1.00,-1.00,0.00,0.00,6361,7019,5950,5,10,0,74,0,0
6344,7001,5943,-10,-10,-5,10240,-1.00,-1.00,0.00,0.00,6360,7018,5950,5,10,0,74,0,0
6342,6996,5942,-13,-15,-6,10240,-1.00,-1.00,0.00,0.00,6360,7017,5950,5,10,0,63,0,0
6339,6996,5942,-16,-18,-7,10240,-1.00,-1.00,0.00,0.00,6359,7017,5949,5,10,0,63,0,0
6337,6993,5940,-18,-20,-7,10240,-1.00,-1.00,0.00,0.00,6358,7016,5949,5,10,0,63,0,0
6335,6991,5940,-20,-22,-8,10240,-1.00,-1.00,0.00,0.00,6357,7015,5949,5,10,0,63,0,0
6335,6993,5940,-21,-22,-8,10240,-1.00,-1.00,0.00,0.00,6357,7014,5948,5,10,0,63,0,0
6333,6995,5941,-22,-21,-8,10240,-1.00,-1.00,0.00,0.00,6356,7014,5948,5,10,0,63,0,0
6333,6995,5943,-22,-20,-7,10240,-1.00,-1.00,0.00,0.00,6355,7013,5948,5,10,0,63,0,0
6331,6996,5943,-22,-18,-6,10240,-1.00,-1.00,0.00,0.00,6354,7012,5948,5,10,0,63,0,0
6332,6996,5943,-22,-17,-5,10240,-1.00,-1.00,0.00,0.00,6354,7012,5948,5,10,0,63,0,0
6333,6999,5945,-21,-15,-4,10240,-1.00,-1.00,0.00,0.00,6353,7011,5948,5,10,0,63,0,0
6335,7001,5946,-20,-13,-3,10240,-1.00,-1.00,0.00,0.00,6352,7011,5948,5,10,0,63,0,0
6329,7001,5947,-20,-12,-2,10240,-1.00,-1.00,0.00,0.00,6352,7011,5947,5,10,0,63,0,0
6325,7000,5946,-21,-10,-1,10240,-1.00,-1.00,0.00,0.00,6351,7010,5947,5,10,0,63,0,0
6322,6999,5946,-23,-10,-1,10240,-1.00,-1.00,0.00,0.00,6350,7010,5947,5,10,0,63,0,0
6321,7001,5948,-26,-10,0,10240,-1.00,-1.00,0.00,0.00,6349,7010,5947,5,10,0,63,0,0
6319,7001,5948,-27,-9,0,10240,-1.00,-1.00,0.00,0.00,6348,7009,5947,5,10,0,63,0,0
6307,6995,5947,-31,-10,0,10240,-1.00,-1.00,0.00,0.00,6346,7009,5947,5,10,0,63,0,0
6307,6997,5949,-33,-10,0,10240,-1.00,-1.00,0.00,0.00,6345,7009,5948,5,10,0,63,0,0
6309,7001,5950,-35,-10,1,10240,-1.00,-1.00,0.00,0.00,6344,7008,5948,5,10,0,63,0,0
6311,7005,5952,-36,-9,1,10240,-1.00,-1.00,0.00,0.00,6343,7008,5948,5,10,0,63,0,0
6313,7007,5952,-33,-5,2,10240,-1.00,-1.00,0.00,0.00,6342,7008,5948,5,10,0,63,0,0
6317,7013,5956,-30,-1,4,10240,-1.00,-1.00,0.00,0.00,6341,7008,5948,5,10,0,63,0,0
6318,7015,5956,-26,1,6,10240,-1.00,-1.00,0.00,0.00,6340,7009,5948,5,10,0,63,0,0
6317,7017,5957,-24,4,7,10240,-1.00,-1.00,0.00,0.00,6339,7009,5949,5,10,0,63,0,0
6318,7016,5956,-22,6,7,10240,-1.00,-1.00,0.00,0.00,6339,7009,5949,5,10,0,63,0,0
6316,7012,5953,-21,6,6,10240,-1.00,-1.00,0.00,0.00,6338,7009,5949,5,10,0,63,0,0
6309,7006,5952,-23,3,5,10240,-1.00,-1.00,0.00,0.00,6337,7009,5949,5,10,0,63,0,0
6308,7005,5950,-24,0,3,10240,-1.00,-1.00,0.00,0.00,6336,7009,5949,5,10,0,63,0,0
6306,7004,5949,-26,-2,2,10240,-1.00,-1.00,0.00,0.00,6335,7009,5949,5,10,0,65,0,0
6303,7000,5948,-29,-5,0,10240,-1.00,-1.00,0.00,0.00,6334,7008,5949,5,10,0,65,0,0
6304,6999,5947,-29,-6,0,10240,-1.00,-1.00,0.00,0.00,6333,7008,5949,5,10,0,65,0,0
6305,7000,5948,-29,-7,-1,10240,-1.00,-1.00,0.00,0.00,6332,7008,5949,5,10,0,65,0,0
6305,7002,5948,-28,-7,-1,10240,-1.00,-1.00,0.00,0.00,6331,7008,5949,5,10,0,65,0,0
6306,7002,5948,-26,-7,-1,10240,-1.00,-1.00,0.00,0.00,6330,7007,5949,5,10,0,65,0,0
6306,7002,5946,-25,-6,-1,10240,-1.00,-1.00,0.00,0.00,6329,7007,5949,5,10,0,65,0,0
6308,7003,5948,-23,-5,-1,10240,-1.00,-1.00,0.00,0.00,6329,7007,5949,5,10,0,65,0,0
6311,7005,5949,-21,-4,-1,10240,-1.00,-1.00,0.00,0.00,6328,7007,5949,5,10,0,65,0,0
6316,7008,5948,-18,-2,-1,10240,-1.00,-1.00,0.00,0.00,6328,7007,5949,5,10,0,65,0,0
6316,7008,5949,-15,-1,0,10240,-1.00,-1.00,0.00,0.00,6327,7007,5949,5,10,0,65,0,0
6320,7012,5950,-11,1,0,10240,-1.00,-1.00,0.00,0.00,6327,7007,5949,5,10,0,65,0,0
6321,7013,5951,-9,3,0,10240,-1.00,-1.00,0.00,0.00,6327,7008,5949,5,10,0,65,100,0
6323,7014,5950,-7,4,1,10240,-1.00,-1.00,0.00,0.00,6327,7008,5949,5,10,0,65,100,0
6328,7022,5955,-4,7,2,10240,-1.00,-1.00,0.00,0.00,6327,7008,5949,5,10,0,65,100,0
6330,7024,5956,-1,10,4,10240,-1.00,-1.00,0.00,0.00,6327,7009,5949,5,10,0,65,100,0
6333,7029,5957,1,13,5,10240,-1.00,-1.00,0.00,0.00,6327,7009,5950,5,10,0,65,100,0
6339,7036,5959,5,18,7,10240,-1.00,-1.00,0.00,0.00,6327,7010,5950,5,10,0,65,100,0
6343,7040,5962,9,22,8,10240,-1.00,-1.00,0.00,0.00,6328,7011,5950,5,10,0,65,100,0
6354,7045,5962,14,27,9,10240,-1.00,-1.00,0.00,0.00,6329,7012,5951,5,10,0,65,100,0
6360,7061,5969,20,33,12,10240,-1.00,-1.00,0.00,0.00,6330,7014,5951,5,10,0,65,100,0
6361,7062,5969,25,38,14,10240,-1.00,-1.00,0.00,0.00,6331,7016,5952,5,10,0,65,100,0
6363,7063,5971,29,43,16,10240,-1.00,-1.00,0.00,0.00,6332,7017,5953,5,10,0,65,100,0
6363,7063,5972,30,45,18,10240,-1.00,-1.00,0.00,0.00,6333,7019,5953,5,10,0,65,100,0
6363,7063,5973,30,44,18,10240,-1.00,-1.00,0.00,0.00,6334,7020,5954,5,21,0,65,100,0
6363,7063,5976,29,43,19,10240,-1.00,-1.00,0.00,0.00,6335,7022,5955,19,21,0,65,100,0
6362,7064,5976,28,42,20,10240,-1.00,-1.00,0.00,0.00,6336,7023,5955,19,21,0,65,100,0
6361,7064,5975,26,41,20,10240,-1.00,-1.00,0.00,0.00,6337,7024,5956,19,21,0,65,100,0
6363,7064,5971,25,40,18,10240,-1.00,-1.00,0.00,0.00,6338,7026,5957,19,21,5,65,100,0
6361,7064,5967,24,39,16,10240,-1.00,-1.00,3.56,3.57,6338,7027,5957,19,21,5,65,100,0
6352,7050,5961,21,34,11,10240,-1.00,-1.00,3.56,3.57,6339,7028,5957,19,21,5,65,100,0
6343,7038,5956,16,26,6,10240,-1.00,-1.00,3.56,3.57,6339,7028,5957,19,21,5,65,100,0
6337,7029,5952,9,17,2,10240,-1.00,-1.00,3.56,3.57,6339,7028,5957,19,21,5,65,100,0
6334,7024,5950,2,7,-2,10240,-1.00,-1.00,3.56,3.57,6339,7028,5957,19,21,5,65,100,0
6330,7020,5948,-2,0,-5,10240,-1.00,-1.00,3.56,3.57,6338,7028,5956,19,21,5,65,100,0
6324,7015,5945,-7,-5,-7,10240,-1.00,-1.00,3.56,3.57,6338,7027,5956,19,21,5,65,100,0
6322,7013,5943,-10,-9,-9,10240,-1.00,-1.00,3.56,3.57,6337,7027,5955,19,21,5,65,100,0
6320,7010,5943,-13,-12,-10,10240,-1.00,-1.00,3.56,3.57,6337,7026,5955,19,21,5,65,100,0
6322,7010,5942,-15,-14,-12,10240,-1.00,-1.00,3.56,3.57,6336,7026,5955,19,21,5,65,100,0
6324,7012,5941,-14,-14,-12,10240,-1.00,-1.00,3.56,3.57,6336,7025,5954,19,21,5,65,100,0
6323,7012,5944,-14,-14,-12,10240,-1.00,-1.00,3.56,3.57,6336,7025,5954,19,21,5,65,100,0
6321,7012,5944,-13,-13,-11,10240,-1.00,-1.00,3.56,3.57,6335,7024,5953,19,21,5,65,100,0
6321,7012,5943,-13,-12,-10,10240,-1.00,-1.00,3.56,3.57,6335,7024,5953,19,21,5,65,100,0
6322,7015,5945,-13,-11,-9,10240,-1.00,-1.00,3.56,3.57,6334,7024,5953,19,21,5,65,100,0
6324,7018,5946,-12,-9,-8,10240,-1.00,-1.00,3.56,3.57,6334,7024,5953,19,21,5,65,100,0
6327,7021,5949,-10,-7,-7,10240,-1.00,-1.00,3.56,3.57,6334,7023,5953,19,21,5,65,100,0
6332,7026,5951,-7,-3,-5,10240,-1.00,-1.00,3.56,3.57,6334,7024,5952,19,21,5,65,100,0
6332,7028,5952,-5,0,-3,10240,-1.00,-1.00,3.56,3.57,6333,7024,5952,19,21,5,65,100,0
6336,7030,5953,-2,2,-1,10240,-1.00,-1.00,3.56,3.57,6334,7024,5952,19,21,5,65,100,0
6337,7034,5955,0,5,0,10240,-1.00,-1.00,3.56,3.57,6334,7024,5953,19,21,5,65,100,0
6344,7037,5955,3,8,1,10240,-1.00,-1.00,3.56,3.57,6334,7025,5953,19,21,5,65,100,0
6351,7048,5960,7,12,3,10240,-1.00,-1.00,3.56,3.57,6335,7025,5953,19,21,5,65,100,0
6358,7058,5962,13,19,5,10240,-1.00,-1.00,3.56,3.57,6335,7026,5953,19,21,5,65,100,0
6358,7061,5962,17,25,6,10240,-1.00,-1.00,3.56,3.57,6336,7028,5953,19,21,5,65,100,0
6359,7062,5964,20,30,8,10240,-1.00,-1.00,3.56,3.57,6337,7029,5954,19,21,5,65,100,0
6360,7065,5965,22,33,9,10240,-1.00,-1.00,3.56,3.57,6338,7030,5954,19,21,5,65,100,0
6360,7065,5968,22,33,10,10240,-1.00,-1.00,3.56,3.57,6338,7031,5955,19,21,5,65,100,0
6359,7065,5967,21,33,11,10240,-1.00,-1.00,3.56,3.57,6339,7032,5955,23,21,5,65,100,0
6358,7065,5969,20,33,12,10240,-1.00,-1.00,3.56,3.57,6340,7033,5956,23,21,5,65,100,0
6359,7065,5966,19,32,12,10240,-1.00,-1.00,3.56,3.57,6340,7034,5956,23,27,5,65,100,0
6360,7064,5964,19,31,10,10240,-1.00,-1.00,3.56,3.57,6341,7035,5956,23,27,10,65,100,0
6357,7058,5959,17,28,8,10240,-1.00,-1.00,2.29,2.16,6342,7036,5956,23,27,10,65,100,0
6353,7051,5956,16,24,5,10240,-1.00,-1.00,2.29,2.16,6342,7037,5956,23,27,10,65,100,0
6347,7042,5953,12,17,2,10240,-1.00,-1.00,2.29,2.16,6342,7037,5956,23,27,10,65,100,0
6343,7036,5950,8,10,-1,10240,-1.00,-1.00,2.29,2.16,6342,7037,5956,23,27,10,65,100,0
6342,7033,5949,4,3,-4,10240,-1.00,-1.00,2.29,2.16,6342,7037,5956,23,27,10,65,100,0
6340,7028,5948,1,-2,-5,10240,-1.00,-1.00,2.29,2.16,6342,7036,5955,23,27,10,65,100,0
6337,7027,5948,-1,-5,-6,10240,-1.00,-1.00,2.29,2.16,6342,7036,5955,23,27,10,65,100,0
6335,7024,5946,-3,-8,-7,10240,-1.00,-1.00,2.29,2.16,6342,7036,5955,23,27,10,65,100,0
6334,7024,5945,-5,-10,-8,10240,-1.00,-1.00,2.29,2.16,6341,7035,5955,23,27,10,65,100,0
6334,7023,5945,-6,-11,-8,10240,-1.00,-1.00,2.29,2.16,6341,7035,5954,23,27,10,65,100,0
6338,7025,5946,-6,-11,-9,10240,-1.00,-1.00,2.29,2.16,6341,7035,5954,23,27,10,65,100,0
6339,7028,5947,-4,-9,-8,10240,-1.00,-1.00,2.29,2.16,6341,7034,5954,23,27,10,65,100,0
6342,7032,5949,-2,-7,-7,10240,-1.00,-1.00,2.29,2.16,6341,7034,5954,23,27,10,65,100,0
6344,7035,5950,0,-4,-5,10240,-1.00,-1.00,2.29,2.16,6341,7034,5953,23,27,10,65,100,0
6346,7037,5950,1,-1,-4,10240,-1.00,-1.00,2.29,2.16,6341,7034,5953,23,27,10,65,100,0
6349,7044,5952,4,2,-3,10240,-1.00,-1.00,2.29,2.16,6342,7035,5953,23,27,10,65,100,0
6352,7047,5953,6,6,-1,10240,-1.00,-1.00,2.29,2.16,6342,7035,5953,23,27,10,65,100,0
6357,7054,5956,9,10,0,10240,-1.00,-1.00,2.29,2.16,6342,7036,5953,23,27,10,65,100,0
6364,7061,5958,13,15,1,10240,-1.00,-1.00,2.29,2.16,6343,7037,5954,23,27,10,65,100,0
6364,7062,5958,16,19,2,10240,-1.00,-1.00,2.29,2.16,6344,7037,5954,23,27,10,65,100,0
6363,7063,5960,18,23,4,10240,-1.00,-1.00,2.29,2.16,6344,7038,5954,23,27,10,65,100,0
6364,7063,5963,19,24,5,10240,-1.00,-1.00,2.29,2.16,6345,7039,5954,23,27,10,65,100,0
6364,7062,5964,19,24,7,10240,-1.00,-1.00,2.29,2.16,6346,7040,5955,23,27,10,65,100,0
6363,7063,5964,18,23,8,10240,-1.00,-1.00,2.29,2.16,6346,7041,5955,24,29,10,65,100,0
6363,7063,5966,17,22,9,10240,-1.00,-1.00,2.29,2.16,6347,7041,5955,24,29,10,65,100,0
6363,7063,5967,16,21,10,10240,-1.00,-1.00,2.29,2.16,6347,7042,5956,24,29,10,65,100,0
6363,7064,5971,16,21,11,10240,-1.00,-1.00,2.29,2.16,6348,7043,5956,24,29,10,65,100,0
6360,7065,5972,14,21,13,10240,-1.00,-1.00,2.29,2.16,6348,7044,5957,24,29,10,65,100,0
6361,7064,5973,13,20,14,10240,-1.00,-1.00,2.29,2.16,6349,7044,5957,24,29,10,67,100,0
6363,7064,5972,13,20,15,10240,-1.00,-1.00,2.29,2.16,6349,7045,5958,24,29,10,67,100,0
6363,7063,5970,12,19,14,10240,-1.00,-1.00,2.29,2.16,6350,7046,5958,24,29,13,67,100,0
6364,7063,5965,13,18,12,10240,-1.00,-1.00,1.89,1.73,6350,7046,5958,24,29,13,67,100,0
6366,7062,5961,14,17,9,10240,-1.00,-1.00,1.89,1.73,6351,7047,5958,24,29,13,67,100,0
6366,7062,5958,14,16,5,10240,-1.00,-1.00,1.89,1.73,6351,7047,5958,24,29,13,67,100,0
6366,7062,5957,14,15,2,10240,-1.00,-1.00,1.89,1.73,6352,7048,5958,24,29,13,67,100,0
6367,7061,5955,14,14,0,10240,-1.00,-1.00,1.89,1.73,6352,7048,5958,24,29,13,67,100,0
6367,7060,5955,14,13,-1,10240,-1.00,-1.00,1.89,1.73,6353,7048,5958,24,29,13,67,100,0
6367,7060,5953,14,12,-3,10240,-1.00,-1.00,1.89,1.73,6353,7049,5958,24,29,13,67,100,0
6368,7060,5954,14,11,-3,10240,-1.00,-1.00,1.89,1.73,6354,7049,5958,24,29,13,67,100,0
6367,7059,5953,13,10,-4,10240,-1.00,-1.00,1.89,1.73,6354,7050,5958,24,29,13,67,100,0
6367,7060,5955,13,10,-4,10240,-1.00,-1.00,1.89,1.73,6355,7050,5958,24,29,13,67,100,0
6368,7060,5954,13,10,-3,10240,-1.00,-1.00,1.89,1.73,6355,7050,5957,24,29,13,67,100,0
6368,7061,5954,12,9,-3,10240,-1.00,-1.00,1.89,1.73,6355,7051,5957,24,29,13,67,100,0
6368,7061,5955,12,10,-2,10240,-1.00,-1.00,1.89,1.73,6356,7051,5957,24,29,13,67,100,0
6368,7060,5955,12,9,-2,10240,-1.00,-1.00,1.89,1.73,6356,7051,5957,24,29,13,67,100,0
6367,7061,5956,11,9,-2,10240,-1.00,-1.00,1.89,1.73,6357,7052,5957,24,29,13,67,100,0
6367,7061,5959,11,9,0,10240,-1.00,-1.00,1.89,1.73,6357,7052,5957,24,29,13,67,100,0
6367,7061,5960,10,9,0,10240,-1.00,-1.00,1.89,1.73,6357,7052,5957,24,29,13,67,100,0
6368,7061,5960,10,9,1,10240,-1.00,-1.00,1.89,1.73,6358,7052,5957,24,29,13,67,100,0
6366,7062,5962,9,9,3,10240,-1.00,-1.00,1.89,1.73,6358,7053,5958,24,29,13,67,100,0
6367,7061,5962,9,8,3,10240,-1.00,-1.00,1.89,1.73,6358,7053,5958,24,29,13,67,100,0
6366,7062,5966,8,8,4,10240,-1.00,-1.00,1.89,1.73,6358,7053,5958,24,29,13,67,100,0
6366,7061,5967,8,8,6,10240,-1.00,-1.00,1.89,1.73,6359,7054,5958,24,29,13,67,100,0
6366,7062,5969,7,8,7,10240,-1.00,-1.00,1.89,1.73,6359,7054,5959,24,29,13,67,100,0
6365,7062,5969,7,8,9,10240,-1.00,-1.00,1.89,1.73,6359,7054,5959,24,29,13,67,100,0
6365,7062,5971,6,7,10,10240,-1.00,-1.00,1.89,1.73,6359,7054,5959,24,29,13,67,100,0
6365,7062,5972,6,7,11,10240,-1.00,-1.00,1.89,1.73,6360,7055,5960,24,29,13,67,100,0
6364,7063,5975,5,7,12,10240,-1.00,-1.00,1.89,1.73,6360,7055,5960,24,29,13,67,100,0
6366,7064,5975,5,8,13,10240,-1.00,-1.00,1.89,1.73,6360,7055,5961,24,29,13,67,100,0
6369,7068,5976,6,9,14,10240,-1.00,-1.00,1.89,1.73,6360,7056,5961,24,29,13,66,100,0
6373,7073,5979,7,11,15,10240,-1.00,-1.00,1.89,1.73,6361,7056,5962,24,29,13,66,100,0
6372,7075,5978,9,14,15,10240,-1.00,-1.00,1.89,1.73,6361,7057,5963,24,29,13,66,100,0
6368,7070,5976,9,15,15,10240,-1.00,-1.00,1.89,1.73,6361,7057,5963,24,29,13,66,100,0
6364,7064,5972,8,13,13,10240,-1.00,-1.00,1.89,1.73,6361,7058,5963,24,29,13,66,100,0
6364,7063,5970,6,10,11,10240,-1.00,-1.00,1.89,1.73,6361,7058,5963,24,29,13,66,100,0
6364,7063,5967,3,7,8,10240,-1.00,-1.00,1.89,1.73,6362,7058,5964,24,29,13,66,100,0
6366,7061,5962,3,4,4,10240,-1.00,-1.00,1.89,1.73,6362,7058,5964,24,29,13,66,100,0
6366,7062,5960,3,4,1,10240,-1.00,-1.00,1.89,1.73,6362,7058,5963,24,29,13,66,100,0
6367,7061,5959,3,3,-1,10240,-1.00,-1.00,1.89,1.73,6362,7058,5963,24,29,13,66,100,0
6367,7061,5958,4,3,-3,10240,-1.00,-1.00,1.89,1.73,6362,7058,5963,24,29,13,66,100,0
6367,7061,5958,4,3,-4,10240,-1.00,-1.00,1.89,1.73,6362,7058,5963,24,29,13,66,100,0
6367,7061,5956,5,2,-5,10240,-1.00,-1.00,1.89,1.73,6362,7059,5963,24,29,13,66,100,0
6367,7061,5956,4,2,-5,10240,-1.00,-1.00,1.89,1.73,6363,7059,5962,24,29,13,66,100,0
6367,7061,5955,4,2,-6,10240,-1.00,-1.00,1.89,1.73,6363,7059,5962,24,29,13,66,100,0
6367,7061,5955,4,2,-6,10240,-1.00,-1.00,1.89,1.73,6363,7059,5962,24,29,13,66,100,0
6367,7061,5956,4,2,-6,10240,-1.00,-1.00,1.89,1.73,6363,7059,5962,24,29,13,66,100,0
6368,7061,5956,4,2,-6,10240,-1.00,-1.00,1.89,1.73,6363,7059,5962,24,29,13,66,100,0
6367,7061,5956,4,2,-6,10240,-1.00,-1.00,1.89,1.73,6363,7059,5961,24,29,13,66,100,0
6367,7061,5958,4,2,-5,10240,-1.00,-1.00,1.89,1.73,6363,7059,5961,24,29,13,66,100,0
6367,7061,5958,4,2,-4,10240,-1.00,-1.00,1.89,1.73,6364,7059,5961,24,29,13,66,100,0
6368,7061,5959,3,2,-3,10240,-1.00,-1.00,1.89,1.73,6364,7059,5961,24,29,13,66,100,0
6368,7061,5961,3,2,-2,10240,-1.00,-1.00,1.89,1.73,6364,7059,5961,24,29,13,66,100,0
6368,7061,5963,3,2,0,10240,-1.00,-1.00,1.89,1.73,6364,7059,5961,24,29,13,66,100,0
6368,7061,5963,4,2,0,10240,-1.00,-1.00,1.89,1.73,6364,7059,5961,24,29,13,66,100,0
6367,7061,5964,3,2,1,10240,-1.00,-1.00,1.89,1.73,6364,7059,5961,24,29,13,66,100,0
6367,7062,5965,3,2,2,10240,-1.00,-1.00,1.89,1.73,6364,7060,5962,24,29,13,66,100,0
6372,7063,5967,4,2,3,10240,-1.00,-1.00,1.89,1.73,6365,7060,5962,24,29,13,66,100,0
6377,7070,5971,6,4,5,10240,-1.00,-1.00,1.89,1.73,6365,7060,5962,24,29,13,66,100,0
6380,7076,5973,9,7,7,10240,-1.00,-1.00,1.89,1.73,6365,7060,5962,24,29,13,66,100,0
6388,7083,5974,14,12,9,10240,-1.00,-1.00,1.89,1.73,6366,7061,5963,24,29,13,66,100,0
6392,7086,5977,18,18,11,10240,-1.00,-1.00,1.89,1.73,6367,7062,5963,24,29,13,66,100,0
6403,7099,5981,24,24,13,10240,-1.00,-1.00,1.89,1.73,6368,7063,5964,24,29,13,66,100,0
6405,7103,5983,29,30,15,10240,-1.00,-1.00,1.89,1.73,6370,7065,5964,24,29,13,66,100,0
6408,7107,5983,33,34,17,10240,-1.00,-1.00,1.89,1.73,6371,7066,5965,24,29,13,66,100,0
6405,7103,5981,35,37,17,10240,-1.00,-1.00,1.89,1.73,6372,7067,5966,24,29,13,64,100,0
6402,7100,5978,33,36,16,10240,-1.00,-1.00,1.89,1.73,6373,7068,5966,27,31,16,64,100,0
6394,7086,5974,29,31,13,10240,-1.00,-1.00,1.64,1.58,6374,7069,5966,27,31,16,64,100,0
6392,7080,5970,25,24,9,10240,-1.00,-1.00,1.64,1.58,6374,7069,5966,27,31,16,64,100,0
6383,7072,5967,18,15,6,10240,-1.00,-1.00,1.64,1.58,6375,7069,5966,27,31,16,64,100,0
6378,7063,5963,12,6,2,10240,-1.00,-1.00,1.64,1.58,6375,7069,5966,27,31,16,64,100,0
6376,7060,5960,7,0,-1,10240,-1.00,-1.00,1.64,1.58,6375,7069,5966,27,31,16,64,100,0
6375,7058,5960,3,-5,-3,10240,-1.00,-1.00,1.64,1.58,6375,7069,5966,27,31,16,64,100,0
6377,7058,5960,1,-9,-5,10240,-1.00,-1.00,1.64,1.58,6375,7068,5966,27,31,16,64,100,0
6374,7058,5958,0,-10,-6,10240,-1.00,-1.00,1.64,1.58,6375,7068,5965,27,31,16,64,100,0
6375,7057,5959,0,-10,-6,10240,-1.00,-1.00,1.64,1.58,6375,7068,5965,27,31,16,64,100,0
6377,7057,5957,0,-10,-6,10240,-1.00,-1.00,1.64,1.58,6375,7067,5965,27,31,16,64,100,0
6379,7058,5959,1,-10,-6,10240,-1.00,-1.00,1.64,1.58,6375,7067,5965,27,31,16,64,100,0
6387,7065,5962,4,-8,-5,10240,-1.00,-1.00,1.64,1.58,6375,7067,5965,27,31,16,64,100,0
6395,7072,5963,9,-4,-4,10240,-1.00,-1.00,1.64,1.58,6376,7067,5965,27,31,16,64,100,0
6402,7079,5964,15,1,-3,10240,-1.00,-1.00,1.64,1.58,6377,7067,5965,27,31,16,64,100,0
6407,7085,5967,21,8,-1,10240,-1.00,-1.00,1.64,1.58,6378,7068,5965,27,31,16,64,100,0
6411,7089,5969,26,13,0,10240,-1.00,-1.00,1.64,1.58,6379,7069,5965,27,31,16,64,100,0
6416,7096,5973,30,18,3,10240,-1.00,-1.00,1.64,1.58,6380,7070,5965,27,31,16,64,100,0
6418,7098,5973,33,22,5,10240,-1.00,-1.00,1.64,1.58,6381,7070,5965,27,31,16,64,100,0
6420,7103,5974,35,26,7,10240,-1.00,-1.00,1.64,1.58,6383,7072,5966,27,31,16,64,100,0
6424,7106,5978,37,29,9,10240,-1.00,-1.00,1.64,1.58,6384,7073,5966,27,31,16,64,100,0
6426,7110,5979,38,32,10,10240,-1.00,-1.00,1.64,1.58,6386,7074,5966,27,31,16,64,100,0
6436,7117,5982,41,35,12,10240,-1.00,-1.00,1.64,1.58,6387,7075,5967,27,31,16,64,100,0
6436,7119,5985,44,38,14,10240,-1.00,-1.00,1.64,1.58,6389,7077,5968,27,31,16,64,100,0
6435,7122,5985,45,41,15,10240,-1.00,-1.00,1.64,1.58,6390,7078,5968,27,31,16,64,100,0
6440,7127,5987,47,43,16,10240,-1.00,-1.00,1.64,1.58,6392,7080,5969,27,31,16,64,100,0
6442,7129,5988,47,45,17,10240,-1.00,-1.00,1.64,1.58,6394,7082,5969,27,31,16,65,100,0
6445,7136,5990,47,47,18,10240,-1.00,-1.00,1.64,1.58,6395,7083,5970,27,31,16,65,100,0
6446,7137,5992,48,49,19,10240,-1.00,-1.00,1.64,1.58,6397,7085,5971,27,31,16,65,100,0
6445,7138,5992,48,50,20,10240,-1.00,-1.00,1.64,1.58,6399,7087,5972,27,31,16,65,100,0
6445,7139,5993,47,51,20,10240,-1.00,-1.00,1.64,1.58,6400,7089,5972,32,31,16,65,100,0
6446,7139,5992,46,50,20,10240,-1.00,-1.00,1.64,1.58,6402,7090,5973,32,38,16,65,100,0
6439,7133,5989,42,47,19,10240,-1.00,-1.00,1.64,1.58,6403,7092,5973,32,38,18,65,100,0
6433,7125,5986,38,43,17,10240,-1.00,-1.00,1.78,1.66,6404,7093,5974,32,38,18,65,100,0
6425,7116,5981,32,36,13,10240,-1.00,-1.00,1.78,1.66,6405,7094,5974,32,38,18,65,100,0
6420,7108,5978,25,27,9,10240,-1.00,-1.00,1.78,1.66,6405,7094,5974,32,38,18,65,100,0
6416,7103,5974,18,19,5,10240,-1.00,-1.00,1.78,1.66,6406,7094,5974,32,38,18,65,100,0
6412,7097,5973,12,11,2,10240,-1.00,-1.00,1.78,1.66,6406,7095,5974,32,38,18,65,100,0
6410,7093,5970,8,6,0,10240,-1.00,-1.00,1.78,1.66,6406,7094,5974,32,38,18,65,100,0
6409,7092,5970,5,2,-2,10240,-1.00,-1.00,1.78,1.66,6406,7094,5974,32,38,18,65,100,0
6409,7090,5968,4,-1,-3,10240,-1.00,-1.00,1.78,1.66,6406,7094,5974,32,38,18,65,100,0
6410,7092,5969,3,-2,-4,10240,-1.00,-1.00,1.78,1.66,6406,7094,5974,32,38,18,65,100,0
6410,7091,5970,3,-2,-4,10240,-1.00,-1.00,1.78,1.66,6406,7094,5973,32,38,18,65,100,0
6412,7094,5971,4,-2,-4,10240,-1.00,-1.00,1.78,1.66,6407,7094,5973,32,38,18,65,100,0
6417,7097,5972,5,0,-2,10240,-1.00,-1.00,1.78,1.66,6407,7094,5973,32,38,18,65,100,0
6418,7099,5973,7,1,-1,10240,-1.00,-1.00,1.78,1.66,6407,7094,5973,32,38,18,65,100,0
6417,7100,5972,8,3,-1,10240,-1.00,-1.00,1.78,1.66,6408,7095,5973,32,38,18,65,100,0
6417,7099,5972,9,4,0,10240,-1.00,-1.00,1.78,1.66,6408,7095,5973,32,38,18,65,100,0
6416,7100,5973,9,4,0,10240,-1.00,-1.00,1.78,1.66,6408,7095,5973,32,38,18,65,100,0
6417,7102,5973,8,5,0,10240,-1.00,-1.00,1.78,1.66,6408,7095,5973,32,38,18,65,100,0
6421,7105,5974,9,6,0,10240,-1.00,-1.00,1.78,1.66,6409,7095,5973,32,38,18,65,100,0
6423,7110,5976,10,9,1,10240,-1.00,-1.00,1.78,1.66,6409,7096,5973,32,38,18,65,100,0
6437,7122,5981,15,14,2,10240,-1.00,-1.00,1.78,1.66,6410,7097,5974,32,38,18,65,100,0
6445,7129,5983,21,20,5,10240,-1.00,-1.00,1.78,1.66,6411,7098,5974,32,38,18,65,100,0
6454,7135,5987,29,26,8,10240,-1.00,-1.00,1.78,1.66,6413,7099,5974,32,38,18,65,100,0
6459,7141,5990,36,33,11,10240,-1.00,-1.00,1.78,1.66,6414,7101,5975,32,38,18,65,100,0
6463,7146,5993,41,37,13,10240,-1.00,-1.00,1.78,1.66,6416,7102,5976,32,38,18,65,100,0
6470,7153,5996,46,42,16,10240,-1.00,-1.00,1.78,1.66,6418,7104,5976,32,38,18,65,100,0
6472,7158,5998,49,46,18,10240,-1.00,-1.00,1.78,1.66,6420,7106,5977,32,38,18,65,100,0
6473,7162,6001,50,50,20,10240,-1.00,-1.00,1.78,1.66,6421,7107,5978,32,38,18,65,100,0
6473,7160,5999,51,51,21,10240,-1.00,-1.00,1.78,1.66,6423,7109,5978,32,38,18,65,100,0
6472,7163,6001,50,52,21,10240,-1.00,-1.00,1.78,1.66,6425,7111,5979,37,38,18,64,100,0
6471,7164,6003,48,52,22,10240,-1.00,-1.00,1.78,1.66,6426,7113,5980,37,38,18,64,100,0
6466,7160,6001,45,50,21,10240,-1.00,-1.00,1.78,1.66,6428,7114,5981,37,42,20,64,100,0
6463,7157,6000,41,47,21,10240,-1.00,-1.00,1.77,1.72,6429,7116,5981,37,42,20,64,100,0
6459,7152,5997,36,43,19,10240,-1.00,-1.00,1.77,1.72,6430,7117,5982,37,42,20,64,100,0
6458,7150,5994,32,38,16,10240,-1.00,-1.00,1.77,1.72,6431,7118,5982,37,42,20,64,100,0
6453,7141,5991,28,32,13,10240,-1.00,-1.00,1.77,1.72,6431,7119,5983,37,42,20,64,100,0
6450,7136,5988,24,26,10,10240,-1.00,-1.00,1.77,1.72,6432,7119,5983,37,42,20,64,100,0
6449,7135,5987,20,21,7,10240,-1.00,-1.00,1.77,1.72,6433,7120,5983,37,42,20,64,100,0
6447,7134,5985,17,17,4,10240,-1.00,-1.00,1.77,1.72,6433,7120,5983,37,42,20,64,100,0
6449,7133,5985,15,14,3,10240,-1.00,-1.00,1.77,1.72,6434,7121,5983,37,42,20,64,100,0
6452,7134,5986,15,13,2,10240,-1.00,-1.00,1.77,1.72,6434,7121,5983,37,42,20,64,100,0
6452,7133,5985,16,12,2,10240,-1.00,-1.00,1.77,1.72,6435,7122,5983,37,42,20,64,100,0
6449,7132,5984,16,11,2,10240,-1.00,-1.00,1.77,1.72,6435,7122,5983,37,42,20,64,100,0
6449,7132,5983,15,11,1,10240,-1.00,-1.00,1.77,1.72,6436,7122,5983,37,42,20,64,100,0
6450,7133,5984,14,10,1,10240,-1.00,-1.00,1.77,1.72,6436,7123,5983,37,42,20,64,100,0
6453,7134,5985,14,10,1,10240,-1.00,-1.00,1.77,1.72,6437,7123,5983,37,42,20,64,100,0
6453,7133,5985,14,10,1,10240,-1.00,-1.00,1.77,1.72,6437,7123,5983,37,42,20,64,100,0
6454,7134,5986,15,10,1,10240,-1.00,-1.00,1.77,1.72,6438,7124,5984,37,42,20,64,100,0
6457,7137,5986,16,11,2,10240,-1.00,-1.00,1.77,1.72,6439,7124,5984,37,42,20,64,100,0
6458,7140,5988,17,12,2,10240,-1.00,-1.00,1.77,1.72,6439,7125,5984,37,42,20,64,100,0
6462,7142,5989,18,13,3,10240,-1.00,-1.00,1.77,1.72,6440,7125,5984,37,42,20,64,100,0
6461,7144,5991,19,15,4,10240,-1.00,-1.00,1.77,1.72,6441,7126,5984,37,42,20,64,100,0
6466,7149,5992,21,18,6,10240,-1.00,-1.00,1.77,1.72,6442,7127,5984,37,42,20,64,100,0
6470,7152,5994,23,20,7,10240,-1.00,-1.00,1.77,1.72,6442,7127,5985,37,42,20,64,100,0
6472,7155,5995,25,23,8,10240,-1.00,-1.00,1.77,1.72,6443,7128,5985,37,42,20,64,100,0
6478,7163,6000,28,26,10,10240,-1.00,-1.00,1.77,1.72,6445,7130,5986,37,42,20,64,100,0
6483,7168,6003,31,30,12,10240,-1.00,-1.00,1.77,1.72,6446,7131,5986,37,42,20,64,100,0
6486,7172,6005,34,34,14,10240,-1.00,-1.00,1.77,1.72,6447,7132,5987,37,42,20,64,100,0
6493,7178,6009,38,38,17,10240,-1.00,-1.00,1.77,1.72,6449,7134,5987,37,42,20,64,100,0
6498,7185,6014,42,42,20,10240,-1.00,-1.00,1.77,1.72,6450,7135,5988,37,42,20,64,100,0
6505,7195,6017,46,48,23,10240,-1.00,-1.00,1.77,1.72,6452,7137,5989,37,42,20,64,100,0
6504,7196,6015,48,52,25,10240,-1.00,-1.00,1.77,1.72,6454,7139,5990,37,42,20,64,100,0
6505,7198,6017,50,55,26,10240,-1.00,-1.00,1.77,1.72,6456,7141,5991,37,42,20,64,100,0
6504,7194,6014,49,55,25,10240,-1.00,-1.00,1.77,1.72,6457,7143,5992,36,42,21,64,100,0
6504,7194,6016,47,53,24,10240,-1.00,-1.00,1.68,1.59,6459,7145,5993,36,43,21,64,100,0
6500,7186,6009,45,49,21,10240,-1.00,-1.00,1.68,1.59,6460,7146,5993,36,43,21,64,100,0
6500,7184,6012,42,44,19,10240,-1.00,-1.00,1.68,1.59,6462,7147,5994,36,43,21,64,100,0
6496,7179,6006,39,39,17,10240,-1.00,-1.00,1.68,1.59,6463,7149,5994,36,43,21,64,100,0
6497,7178,6007,36,33,14,10240,-1.00,-1.00,1.68,1.59,6464,7150,5995,36,43,21,64,100,0
6495,7177,6005,33,30,13,10240,-1.00,-1.00,1.68,1.59,6465,7150,5995,36,43,21,64,100,0
6496,7175,6005,31,27,11,10240,-1.00,-1.00,1.68,1.59,6466,7151,5995,36,43,21,64,100,0
6496,7175,6005,30,25,10,10240,-1.00,-1.00,1.68,1.59,6467,7152,5996,36,43,21,64,100,0
6494,7172,6003,28,23,9,10240,-1.00,-1.00,1.68,1.59,6468,7153,5996,36,43,21,64,100,0
6494,7172,6003,27,21,8,10240,-1.00,-1.00,1.68,1.59,6469,7153,5996,36,43,21,64,100,0
6496,7174,6003,26,20,7,10240,-1.00,-1.00,1.68,1.59,6470,7154,5996,36,43,21,64,100,0
6498,7175,6004,26,19,7,10240,-1.00,-1.00,1.68,1.59,6470,7155,5997,36,43,21,64,100,0
6499,7176,6005,26,20,7,10240,-1.00,-1.00,1.68,1.59,6471,7155,5997,36,43,21,64,100,0
6499,7178,6003,27,20,7,10240,-1.00,-1.00,1.68,1.59,6472,7156,5997,36,43,21,64,100,0
6500,7180,6004,27,21,7,10240,-1.00,-1.00,1.68,1.59,6473,7157,5997,36,43,21,64,100,0
6504,7183,6005,28,22,7,10240,-1.00,-1.00,1.68,1.59,6474,7158,5998,36,43,21,64,100,0
6509,7190,6010,29,25,8,10240,-1.00,-1.00,1.68,1.59,6475,7159,5998,36,43,21,64,100,0
6512,7193,6011,31,28,9,10240,-1.00,-1.00,1.68,1.59,6477,7160,5998,36,43,21,64,100,0
6516,7198,6014,34,31,11,10240,-1.00,-1.00,1.68,1.59,6478,7161,5999,36,43,21,64,100,0
6520,7201,6016,37,34,14,10240,-1.00,-1.00,1.68,1.59,6479,7163,6000,36,43,21,64,100,0
6521,7203,6017,38,36,15,10240,-1.00,-1.00,1.68,1.59,6481,7164,6000,36,43,21,64,100,0
6525,7210,6022,40,39,17,10240,-1.00,-1.00,1.68,1.59,6482,7166,6001,36,43,21,64,100,0
6527,7213,6024,41,41,19,10240,-1.00,-1.00,1.68,1.59,6484,7167,6002,36,43,21,64,100,0
6530,7219,6026,42,44,21,10240,-1.00,-1.00,1.68,1.59,6485,7169,6002,36,43,21,64,100,0
6532,7222,6030,44,47,23,10240,-1.00,-1.00,1.68,1.59,6487,7171,6003,36,43,21,64,100,0
6536,7227,6033,45,50,25,10240,-1.00,-1.00,1.68,1.59,6489,7172,6004,36,43,21,64,100,0
6541,7228,6033,47,52,27,10240,-1.00,-1.00,1.68,1.59,6490,7174,6005,36,43,21,64,100,0
6543,7230,6030,48,53,27,10240,-1.00,-1.00,1.68,1.59,6492,7176,6006,36,43,21,64,100,0
6540,7229,6031,48,53,26,10240,-1.00,-1.00,1.68,1.59,6494,7178,6007,36,43,21,64,100,0
6536,7227,6030,47,51,24,10240,-1.00,-1.00,1.68,1.59,6495,7180,6008,33,41,21,64,100,0
6532,7224,6028,43,48,22,10240,-1.00,-1.00,1.68,1.59,6496,7181,6008,33,41,21,64,100,0
6525,7210,6020,37,42,19,10240,-1.00,-1.00,1.68,1.59,6497,7182,6009,33,41,21,64,100,0
6523,7206,6018,32,35,15,10240,-1.00,-1.00,1.68,1.59,6498,7183,6009,33,41,21,64,100,0
6519,7201,6014,27,28,11,10240,-1.00,-1.00,1.68,1.59,6499,7183,6009,33,41,21,64,100,0
6519,7199,6013,23,21,7,10240,-1.00,-1.00,1.68,1.59,6499,7184,6009,33,41,21,64,100,0
6518,7196,6011,20,17,5,10240,-1.00,-1.00,1.68,1.59,6500,7184,6009,33,41,21,64,100,0
6518,7194,6010,18,13,2,10240,-1.00,-1.00,1.68,1.59,6501,7185,6010,33,41,21,64,100,0
6518,7192,6008,18,10,1,10240,-1.00,-1.00,1.68,1.59,6501,7185,6009,33,41,21,64,100,0
6518,7192,6008,17,8,0,10240,-1.00,-1.00,1.68,1.59,6502,7185,6009,33,41,21,64,100,0
6517,7189,6007,16,6,-1,10240,-1.00,-1.00,1.68,1.59,6502,7185,6009,33,41,21,64,100,0
6516,7188,6006,15,5,-1,10240,-1.00,-1.00,1.68,1.59,6503,7185,6009,33,41,21,64,100,0
6520,7190,6006,15,4,-2,10240,-1.00,-1.00,1.68,1.59,6503,7186,6009,33,41,21,64,100,0
6522,7193,6009,15,4,-2,10240,-1.00,-1.00,1.68,1.59,6504,7186,6009,33,41,21,64,100,0
6523,7195,6008,16,5,-1,10240,-1.00,-1.00,1.68,1.59,6505,7186,6009,33,41,21,64,100,0
6527,7195,6008,18,7,-1,10240,-1.00,-1.00,1.68,1.59,6505,7186,6009,33,41,21,64,100,0
6528,7196,6010,20,8,0,10240,-1.00,-1.00,1.68,1.59,6506,7187,6009,33,41,21,64,100,0
6533,7203,6014,22,10,1,10240,-1.00,-1.00,1.68,1.59,6507,7187,6009,33,41,21,64,100,0
6535,7205,6015,24,12,2,10240,-1.00,-1.00,1.68,1.59,6508,7188,6009,33,41,21,64,100,0
6538,7207,6017,26,15,4,10240,-1.00,-1.00,1.68,1.59,6509,7189,6010,33,41,21,64,100,0
6539,7210,6020,27,18,7,10240,-1.00,-1.00,1.68,1.59,6510,7189,6010,33,41,21,64,100,0
6539,7211,6021,28,19,8,10240,-1.00,-1.00,1.68,1.59,6511,7190,6010,33,41,21,64,100,0
6546,7224,6023,30,23,10,10240,-1.00,-1.00,1.68,1.59,6512,7191,6011,33,41,21,64,100,0
6552,7227,6029,32,27,12,10240,-1.00,-1.00,1.68,1.59,6513,7192,6011,33,41,21,64,100,0
6554,7230,6029,35,31,14,10240,-1.00,-1.00,1.68,1.59,6515,7194,6012,33,41,21,64,100,0
6560,7231,6027,39,35,15,10240,-1.00,-1.00,1.68,1.59,6516,7195,6013,33,41,21,64,100,0
6563,7232,6026,41,35,15,10240,-1.00,-1.00,1.68,1.59,6518,7196,6013,33,41,21,64,100,0
6566,7232,6025,43,35,14,10240,-1.00,-1.00,1.68,1.59,6519,7197,6013,33,41,21,64,100,0
6569,7233,6023,46,35,12,10240,-1.00,-1.00,1.68,1.59,6521,7198,6014,33,41,21,64,100,0
6568,7234,6022,46,35,10,10240,-1.00,-1.00,1.68,1.59,6523,7200,6014,33,41,21,64,100,0
6565,7233,6023,45,34,9,10240,-1.00,-1.00,1.68,1.59,6524,7201,6014,32,38,21,64,100,0
6558,7232,6025,41,32,9,10240,-1.00,-1.00,1.68,1.59,6525,7202,6015,32,38,21,64,100,0
6553,7227,6026,36,30,9,10240,-1.00,-1.00,1.68,1.59,6526,7203,6015,32,38,21,64,100,0
6539,7206,6013,28,22,7,10240,-1.00,-1.00,1.68,1.59,6527,7203,6015,32,38,21,64,100,0
6531,7195,6006,19,12,2,10240,-1.00,-1.00,1.68,1.59,6527,7202,6015,32,38,21,64,100,0
6524,7185,6001,10,0,-3,10240,-1.00,-1.00,1.68,1.59,6527,7202,6014,32,38,21,64,100,0
6522,7179,5998,2,-10,-10,10240,-1.00,-1.00,1.68,1.59,6526,7201,6014,32,38,21,64,100,0
6520,7174,5994,-2,-18,-14,10240,-1.00,-1.00,1.68,1.59,6526,7200,6013,32,38,21,64,100,0
6516,7168,5991,-5,-24,-17,10240,-1.00,-1.00,1.68,1.59,6526,7199,6012,32,38,21,64,100,0
6511,7162,5986,-8,-28,-20,10240,-1.00,-1.00,1.68,1.59,6525,7198,6011,32,38,21,64,100,0
6509,7161,5986,-11,-32,-22,10240,-1.00,-1.00,1.68,1.59,6525,7197,6011,32,38,21,64,100,0
6508,7158,5985,-14,-35,-24,10240,-1.00,-1.00,1.68,1.59,6524,7195,6010,32,38,21,64,100,0
6506,7156,5983,-16,-36,-25,10240,-1.00,-1.00,1.68,1.59,6524,7194,6009,32,38,21,64,100,0
6508,7157,5984,-16,-36,-25,10240,-1.00,-1.00,1.68,1.59,6523,7193,6008,32,38,21,64,100,0
6506,7157,5983,-16,-36,-24,10240,-1.00,-1.00,1.68,1.59,6523,7192,6007,32,38,21,64,100,0
6509,7159,5985,-15,-35,-23,10240,-1.00,-1.00,1.68,1.59,6522,7191,6006,32,38,21,64,100,0
6511,7160,5986,-14,-33,-22,10240,-1.00,-1.00,1.68,1.59,6522,7189,6006,32,38,21,64,100,0
6510,7159,5984,-13,-31,-21,10240,-1.00,-1.00,1.68,1.59,6521,7188,6005,32,38,21,64,100,0
6513,7165,5989,-10,-28,-19,10240,-1.00,-1.00,1.68,1.59,6521,7188,6004,32,38,21,64,100,0
6514,7167,5990,-9,-25,-17,10240,-1.00,-1.00,1.68,1.59,6521,7187,6004,32,38,21,64,100,0
6515,7168,5990,-8,-22,-16,10240,-1.00,-1.00,1.68,1.59,6521,7186,6004,32,38,21,64,100,0
6517,7171,5992,-6,-19,-13,10240,-1.00,-1.00,1.68,1.59,6521,7186,6003,32,38,21,64,100,0
6517,7173,5992,-5,-16,-12,10240,-1.00,-1.00,1.68,1.59,6520,7185,6003,32,38,21,64,100,0
6522,7180,5998,-2,-12,-10,10240,-1.00,-1.00,1.68,1.59,6520,7185,6003,32,38,21,64,100,0
6524,7184,6000,0,-8,-7,10240,-1.00,-1.00,1.68,1.59,6521,7185,6003,32,38,21,64,100,0
6526,7186,6000,1,-4,-5,10240,-1.00,-1.00,1.68,1.59,6521,7185,6002,32,38,21,64,100,0
6525,7186,6000,3,-1,-3,10240,-1.00,-1.00,1.68,1.59,6521,7185,6002,32,38,21,64,100,0
6528,7191,6003,4,1,-1,10240,-1.00,-1.00,1.68,1.59,6521,7186,6002,32,38,21,64,100,0
6534,7198,6008,7,4,0,10240,-1.00,-1.00,1.68,1.59,6522,7186,6003,32,38,21,64,100,0
6535,7201,6010,9,8,2,10240,-1.00,-1.00,1.68,1.59,6522,7186,6003,32,38,21,64,100,0
6534,7203,6010,11,12,5,10240,-1.00,-1.00,1.68,1.59,6522,7187,6003,32,38,21,64,100,0
6531,7197,6006,11,13,5,10240,-1.00,-1.00,1.68,1.59,6523,7187,6003,32,38,21,64,100,0
6524,7186,6000,8,10,3,10240,-1.00,-1.00,1.68,1.59,6523,7187,6003,31,41,24,64,100,0
6512,7165,5989,2,0,-1,10240,-1.00,-1.00,1.43,1.19,6522,7187,6003,31,41,24,64,100,0
6505,7154,5982,-4,-11,-8,10240,-1.00,-1.00,1.43,1.19,6522,7185,6002,31,41,24,64,100,0
6495,7143,5976,-13,-23,-15,10240,-1.00,-1.00,1.43,1.19,6521,7184,6001,31,41,24,64,100,0
6488,7133,5970,-21,-35,-22,10240,-1.00,-1.00,1.43,1.19,6520,7182,6000,31,41,24,64,100,0
6484,7129,5968,-27,-43,-26,10240,-1.00,-1.00,1.43,1.19,6519,7181,5999,31,41,24,64,100,0
6480,7121,5966,-32,-50,-29,10240,-1.00,-1.00,1.43,1.19,6517,7179,5998,31,41,24,64,100,0
6475,7115,5964,-36,-55,-31,10240,-1.00,-1.00,1.43,1.19,6516,7176,5997,31,41,24,64,100,0
6473,7111,5962,-38,-58,-32,10240,-1.00,-1.00,1.43,1.19,6514,7174,5996,31,41,24,64,100,0
6470,7108,5959,-40,-61,-33,10240,-1.00,-1.00,1.43,1.19,6513,7172,5994,31,41,24,64,100,0
6466,7105,5958,-42,-63,-34,10240,-1.00,-1.00,1.43,1.19,6511,7170,5993,31,41,24,64,100,0
6466,7104,5958,-43,-64,-34,10240,-1.00,-1.00,1.43,1.19,6510,7168,5992,31,41,24,64,100,0
6464,7103,5959,-44,-63,-34,10240,-1.00,-1.00,1.43,1.19,6508,7165,5991,31,41,24,64,100,0
6467,7104,5959,-43,-62,-33,10240,-1.00,-1.00,1.43,1.19,6507,7163,5990,31,41,24,64,100,0
6467,7104,5960,-41,-60,-31,10240,-1.00,-1.00,1.43,1.19,6506,7161,5989,31,41,24,64,100,0
6469,7107,5960,-39,-57,-30,10240,-1.00,-1.00,1.43,1.19,6504,7160,5988,31,41,24,64,100,0
6475,7112,5963,-35,-53,-28,10240,-1.00,-1.00,1.43,1.19,6504,7158,5987,31,41,24,64,100,0
6479,7116,5964,-31,-49,-25,10240,-1.00,-1.00,1.43,1.19,6503,7157,5986,31,41,24,64,100,0
6481,7120,5965,-27,-43,-23,10240,-1.00,-1.00,1.43,1.19,6502,7155,5985,31,41,24,64,100,0
6483,7121,5966,-23,-38,-21,10240,-1.00,-1.00,1.43,1.19,6501,7154,5985,31,41,24,64,100,0
6485,7125,5968,-19,-34,-19,10240,-1.00,-1.00,1.43,1.19,6501,7153,5984,31,41,24,64,100,0
6490,7131,5971,-16,-29,-17,10240,-1.00,-1.00,1.43,1.19,6500,7153,5984,31,41,24,64,100,0
6491,7136,5973,-13,-24,-14,10240,-1.00,-1.00,1.43,1.19,6500,7152,5983,31,41,24,64,100,0
6491,7137,5972,-11,-20,-12,10240,-1.00,-1.00,1.43,1.19,6500,7152,5983,31,41,24,64,100,0
6495,7141,5976,-8,-15,-10,10240,-1.00,-1.00,1.43,1.19,6500,7151,5983,31,41,24,64,100,0
6501,7149,5980,-5,-10,-7,10240,-1.00,-1.00,1.43,1.19,6500,7151,5983,31,41,24,64,100,0
6507,7156,5985,-1,-5,-4,10240,-1.00,-1.00,1.43,1.19,6500,7151,5983,31,41,24,64,100,0
6508,7159,5987,2,0,-1,10240,-1.00,-1.00,1.43,1.19,6500,7152,5983,31,41,24,64,100,0
6509,7160,5986,6,4,1,10240,-1.00,-1.00,1.43,1.19,6500,7152,5983,31,41,24,64,100,0
6503,7152,5981,6,5,1,10240,-1.00,-1.00,1.43,1.19,6501,7152,5983,31,41,24,64,100,0
6495,7142,5976,3,1,0,10240,-1.00,-1.00,1.43,1.19,6500,7151,5983,36,48,26,64,100,0
6480,7130,5969,-3,-5,-4,10240,-1.00,-1.00,1.54,1.27,6500,7151,5982,36,48,26,64,100,0
6476,7111,5964,-11,-17,-10,10240,-1.00,-1.00,1.54,1.27,6499,7149,5982,36,48,26,64,100,0
6467,7104,5957,-19,-28,-15,10240,-1.00,-1.00,1.54,1.27,6498,7148,5981,36,48,26,64,100,0
6461,7097,5955,-27,-38,-20,10240,-1.00,-1.00,1.54,1.27,6497,7146,5980,36,48,26,64,100,0
6456,7091,5952,-32,-46,-23,10240,-1.00,-1.00,1.54,1.27,6495,7144,5979,36,48,26,64,100,0
6452,7089,5950,-37,-50,-26,10240,-1.00,-1.00,1.54,1.27,6494,7143,5978,36,48,26,64,100,0
6450,7084,5948,-39,-53,-27,10240,-1.00,-1.00,1.54,1.27,6492,7141,5977,36,48,26,64,100,0
6449,7083,5949,-41,-55,-27,10240,-1.00,-1.00,1.54,1.27,6491,7139,5976,36,48,26,64,100,0
6448,7082,5947,-41,-55,-28,10240,-1.00,-1.00,1.54,1.27,6489,7137,5975,36,48,26,64,100,0
6447,7081,5947,-41,-55,-27,10240,-1.00,-1.00,1.54,1.27,6488,7135,5974,36,48,26,64,100,0
6449,7079,5948,-40,-54,-26,10240,-1.00,-1.00,1.54,1.27,6487,7133,5973,36,48,26,64,100,0
6449,7083,5950,-39,-52,-25,10240,-1.00,-1.00,1.54,1.27,6486,7131,5973,36,48,26,64,100,0
6450,7086,5951,-37,-50,-24,10240,-1.00,-1.00,1.54,1.27,6484,7130,5972,36,48,26,64,100,0
6456,7093,5955,-34,-45,-21,10240,-1.00,-1.00,1.54,1.27,6483,7129,5971,36,48,26,64,100,0
6458,7095,5956,-30,-40,-18,10240,-1.00,-1.00,1.54,1.27,6483,7128,5971,36,48,26,64,100,0
6460,7098,5957,-27,-35,-16,10240,-1.00,-1.00,1.54,1.27,6482,7127,5970,36,48,26,64,100,0
6466,7104,5961,-22,-30,-13,10240,-1.00,-1.00,1.54,1.27,6481,7126,5970,36,48,26,64,100,0
6468,7109,5962,-18,-25,-11,10240,-1.00,-1.00,1.54,1.27,6481,7125,5970,36,48,26,64,100,0
6471,7111,5964,-14,-20,-9,10240,-1.00,-1.00,1.54,1.27,6480,7125,5970,36,48,26,64,100,0
6475,7115,5966,-10,-15,-6,10240,-1.00,-1.00,1.54,1.27,6480,7124,5969,36,48,26,64,100,0
6477,7119,5970,-7,-11,-4,10240,-1.00,-1.00,1.54,1.27,6480,7124,5970,36,48,26,64,100,0
6485,7128,5974,-3,-6,-1,10240,-1.00,-1.00,1.54,1.27,6480,7124,5970,36,48,26,64,100,0
6485,7131,5977,0,-1,2,10240,-1.00,-1.00,1.54,1.27,6481,7125,5970,36,48,26,64,100,0
6487,7136,5977,3,4,4,10240,-1.00,-1.00,1.54,1.27,6481,7125,5970,36,48,26,64,100,0
6490,7141,5977,6,9,6,10240,-1.00,-1.00,1.54,1.27,6481,7125,5970,36,48,26,64,100,0
6493,7145,5980,7,13,7,10240,-1.00,-1.00,1.54,1.27,6481,7126,5971,36,48,26,64,100,0
6501,7154,5985,11,18,9,10240,-1.00,-1.00,1.54,1.27,6482,7127,5971,36,48,26,64,100,0
6502,7156,5986,14,22,11,10240,-1.00,-1.00,1.54,1.27,6483,7128,5972,36,48,26,64,100,0
6497,7151,5983,16,24,12,10240,-1.00,-1.00,1.54,1.27,6483,7129,5972,36,48,26,64,100,0
6489,7139,5977,14,21,11,10240,-1.00,-1.00,1.54,1.27,6483,7129,5972,41,56,30,67,100,0
6482,7126,5973,9,14,7,10240,0.56,-0.09,1.56,1.26,6483,7129,5972,41,56,30,67,100,0
6458,7097,5958,-1,0,0,10240,0.56,-0.09,1.56,1.26,6483,7128,5972,41,56,30,67,100,0
6445,7081,5949,-14,-17,-7,10240,0.56,-0.09,1.56,1.26,6481,7126,5971,41,56,30,67,100,0
6428,7061,5941,-28,-35,-16,10240,0.56,-0.09,1.56,1.26,6480,7124,5970,41,56,30,67,100,0
6412,7043,5935,-44,-54,-24,10240,0.56,-0.09,1.56,1.26,6477,7122,5969,41,56,30,67,100,0
6411,7040,5932,-54,-66,-30,10240,0.56,-0.09,1.56,1.26,6475,7119,5968,41,56,30,67,100,0
6411,7039,5929,-60,-74,-34,10240,0.56,-0.09,1.56,1.26,6473,7116,5966,41,56,30,67,100,0
6410,7040,5928,-63,-77,-36,10240,0.56,-0.09,1.56,1.26,6471,7114,5965,41,56,30,67,100,0
6410,7040,5928,-61,-75,-36,10240,0.56,-0.09,1.56,1.26,6469,7111,5964,41,56,30,67,100,0
6410,7040,5928,-59,-72,-36,10240,0.56,-0.09,1.56,1.26,6467,7109,5963,41,56,30,67,100,0
6412,7039,5928,-57,-70,-35,10240,0.56,-0.09,1.56,1.26,6465,7106,5961,41,56,30,67,100,0
6409,7040,5928,-55,-67,-34,10240,0.56,-0.09,1.56,1.26,6463,7104,5960,41,56,30,67,100,0
6409,7040,5928,-54,-65,-32,10240,0.56,-0.09,1.56,1.26,6461,7102,5959,41,56,30,67,100,0
6408,7041,5931,-52,-63,-30,10240,0.56,-0.09,1.56,1.26,6460,7100,5958,41,56,30,67,100,0
6407,7041,5931,-52,-60,-29,10240,0.56,-0.09,1.56,1.26,6458,7098,5957,41,56,30,67,100,0
6407,7042,5931,-51,-58,-27,10240,0.56,-0.09,1.56,1.26,6456,7096,5957,41,56,30,67,100,0
6406,7042,5934,-50,-55,-25,10240,0.56,-0.09,1.56,1.26,6454,7094,5956,41,56,30,67,100,0
6406,7043,5934,-48,-53,-23,10240,0.56,-0.09,1.56,1.26,6453,7093,5955,41,56,30,67,100,0
6408,7047,5937,-46,-50,-21,10240,0.56,-0.09,1.56,1.26,6451,7091,5954,41,56,30,67,100,0
6412,7053,5939,-44,-45,-18,10240,0.56,-0.09,1.56,1.26,6450,7090,5954,41,56,30,67,100,0
6416,7058,5942,-40,-40,-16,10240,0.56,-0.09,1.56,1.26,6449,7089,5954,41,56,30,67,100,0
6429,7071,5948,-33,-32,-12,10240,0.56,-0.09,1.56,1.26,6448,7088,5953,41,56,30,67,100,0
6435,7078,5951,-25,-23,-8,10240,0.56,-0.09,1.56,1.26,6448,7088,5953,41,56,30,67,100,0
6437,7082,5950,-18,-16,-5,10240,0.56,-0.09,1.56,1.26,6447,7088,5953,41,56,30,67,100,0
6441,7087,5954,-12,-8,-2,10240,0.56,-0.09,1.56,1.26,6447,7088,5953,41,56,30,67,100,0
6443,7090,5954,-8,-3,0,10240,0.56,-0.09,1.56,1.26,6447,7088,5953,41,56,30,67,100,0
6451,7098,5960,-4,1,1,10240,0.56,-0.09,1.56,1.26,6447,7088,5953,41,56,30,67,100,0
6454,7102,5961,0,6,4,10240,0.56,-0.09,1.56,1.26,6447,7089,5954,41,56,30,67,100,0
6455,7104,5962,3,10,5,10240,0.56,-0.09,1.56,1.26,6448,7089,5954,41,56,30,67,100,0
6453,7102,5960,5,12,7,10240,0.56,-0.09,1.56,1.26,6448,7090,5954,41,56,30,67,100,0
6447,7097,5956,4,11,5,10240,0.56,-0.09,1.56,1.26,6448,7090,5954,48,64,33,67,100,0
6416,7058,5940,-5,0,0,10240,0.56,-0.09,1.63,1.34,6447,7089,5954,48,64,33,67,100,0
6406,7042,5933,-16,-14,-6,10240,0.56,-0.09,1.63,1.34,6445,7087,5953,48,64,33,67,100,0
6408,7041,5927,-26,-28,-14,10240,0.56,-0.09,1.63,1.34,6444,7086,5952,48,64,33,67,100,0
6410,7040,5924,-34,-41,-21,10240,0.56,-0.09,1.63,1.34,6443,7084,5951,48,64,33,67,100,0
6412,7039,5921,-34,-44,-25,10240,0.56,-0.09,1.63,1.34,6442,7083,5950,48,64,33,67,100,0
6413,7037,5917,-31,-44,-28,10240,0.56,-0.09,1.63,1.34,6441,7081,5949,48,64,33,66,100,0
6413,7035,5917,-29,-44,-29,10240,0.56,-0.09,1.63,1.34,6440,7079,5948,48,64,33,66,100,0
6408,7029,5912,-29,-45,-31,10240,0.56,-0.09,1.63,1.34,6439,7078,5947,48,64,33,66,100,0
6401,7022,5911,-30,-47,-33,10240,0.56,-0.09,1.63,1.34,6438,7076,5946,48,64,33,66,100,0
6399,7018,5907,-33,-50,-34,10240,0.56,-0.09,1.63,1.34,6437,7074,5944,48,64,33,66,100,0
6398,7017,5909,-35,-53,-35,10240,0.56,-0.09,1.63,1.34,6435,7072,5943,48,64,33,66,100,0
6398,7015,5908,-37,-55,-35,10240,0.56,-0.09,1.63,1.34,6434,7070,5942,48,64,33,66,100,0
6400,7019,5908,-36,-54,-34,10240,0.56,-0.09,1.63,1.34,6433,7069,5941,48,64,33,66,100,0
6401,7023,5910,-34,-51,-32,10240,0.56,-0.09,1.63,1.34,6432,7067,5940,48,64,33,66,100,0
6402,7023,5910,-32,-48,-31,10240,0.56,-0.09,1.63,1.34,6431,7066,5939,48,64,33,66,100,0
6407,7031,5913,-29,-42,-29,10240,0.56,-0.09,1.63,1.34,6430,7064,5938,48,64,33,66,100,0
6409,7033,5916,-25,-37,-26,10240,0.56,-0.09,1.63,1.34,6429,7063,5937,48,64,33,66,100,0
6410,7036,5918,-22,-33,-23,10240,0.56,-0.09,1.63,1.34,6429,7062,5937,48,64,33,66,100,0
6411,7038,5917,-19,-28,-21,10240,0.56,-0.09,1.63,1.34,6428,7062,5936,48,64,33,66,100,0
6411,7039,5920,-18,-25,-18,10240,0.56,-0.09,1.63,1.34,6427,7061,5936,48,64,33,66,100,0
6410,7040,5921,-17,-23,-17,10240,0.56,-0.09,1.63,1.34,6427,7060,5935,48,64,33,66,100,0
6409,7040,5922,-16,-21,-15,10240,0.56,-0.09,1.63,1.34,6426,7059,5935,48,64,33,66,100,0
6409,7040,5923,-16,-20,-13,10240,0.56,-0.09,1.63,1.34,6426,7059,5934,48,64,33,66,100,0
6409,7040,5923,-16,-19,-12,10240,0.56,-0.09,1.63,1.34,6425,7058,5934,48,64,33,66,100,0
6408,7041,5924,-16,-18,-11,10240,0.56,-0.09,1.63,1.34,6425,7058,5933,48,64,33,66,100,0
6407,7041,5929,-16,-17,-8,10240,0.56,-0.09,1.63,1.34,6424,7057,5933,48,64,33,66,100,0
6408,7041,5929,-16,-16,-7,10240,0.56,-0.09,1.63,1.34,6423,7057,5933,48,64,33,66,100,0
6406,7042,5930,-16,-15,-5,10240,0.56,-0.09,1.63,1.34,6423,7056,5933,48,64,33,66,100,0
6404,7043,5933,-16,-14,-2,10240,0.56,-0.09,1.63,1.34,6422,7056,5933,48,64,33,66,100,0
6405,7042,5930,-16,-14,-2,10240,0.56,-0.09,1.63,1.34,6422,7055,5933,48,64,33,66,100,0
6409,7040,5924,-16,-13,-3,10240,0.56,-0.09,1.63,1.34,6421,7055,5933,48,64,33,66,100,0
6410,7040,5921,-14,-13,-5,10240,0.56,-0.09,1.63,1.34,6421,7054,5932,48,64,33,66,100,0
6413,7038,5918,-12,-14,-9,10240,0.56,-0.09,1.63,1.34,6421,7054,5932,48,59,33,66,100,0
6410,7033,5914,-10,-16,-12,10240,0.56,-0.09,1.63,1.34,6420,7053,5931,48,59,33,66,100,0
6401,7019,5908,-12,-20,-16,10240,0.56,-0.09,1.63,1.34,6420,7052,5930,43,59,33,66,100,0
6395,7011,5903,-15,-27,-20,10240,0.56,-0.09,1.63,1.34,6419,7050,5930,43,59,33,66,100,0
6394,7007,5901,-19,-33,-23,10240,0.56,-0.09,1.63,1.34,6418,7049,5929,43,59,33,66,100,0
6391,7003,5900,-23,-39,-26,10240,0.56,-0.09,1.63,1.34,6417,7047,5928,43,59,33,66,100,0
6389,6999,5898,-25,-43,-28,10240,0.56,-0.09,1.63,1.34,6416,7046,5927,43,59,33,66,100,0
6388,6997,5897,-26,-45,-28,10240,0.56,-0.09,1.63,1.34,6415,7044,5926,43,59,33,65,100,0
6386,6995,5896,-27,-46,-28,10240,0.56,-0.09,1.63,1.34,6414,7043,5925,43,59,33,65,100,0
6388,6996,5897,-26,-46,-28,10240,0.56,-0.09,1.63,1.34,6413,7041,5924,43,59,33,65,100,0
6389,6998,5897,-26,-45,-27,10240,0.56,-0.09,1.63,1.34,6413,7040,5923,43,59,33,65,100,0
6390,7001,5898,-24,-43,-26,10240,0.56,-0.09,1.63,1.34,6412,7038,5922,43,59,33,65,100,0
6392,7003,5901,-22,-39,-24,10240,0.56,-0.09,1.63,1.34,6411,7037,5921,43,59,33,65,100,0
6399,7011,5904,-19,-34,-21,10240,0.56,-0.09,1.63,1.34,6411,7036,5921,43,59,33,65,100,0
6404,7016,5905,-15,-29,-19,10240,0.56,-0.09,1.63,1.34,6411,7036,5920,43,59,33,65,100,0
6407,7018,5907,-10,-24,-16,10240,0.56,-0.09,1.63,1.34,6410,7035,5920,43,59,33,65,100,0
6412,7027,5909,-5,-17,-13,10240,0.56,-0.09,1.63,1.34,6410,7035,5919,43,59,33,65,100,0
6417,7032,5911,0,-12,-11,10240,0.56,-0.09,1.63,1.34,6411,7035,5919,43,59,33,65,100,0
6419,7035,5913,3,-7,-9,10240,0.56,-0.09,1.63,1.34,6411,7035,5919,43,59,33,65,100,0
6421,7035,5916,6,-2,-6,10240,0.56,-0.09,1.63,1.34,6411,7035,5919,43,59,33,65,100,0
6421,7034,5916,8,-1,-5,10240,0.56,-0.09,1.63,1.34,6412,7035,5919,43,59,33,65,100,0
6422,7034,5918,9,0,-3,10240,0.56,-0.09,1.63,1.34,6412,7035,5919,43,59,33,65,100,0
6421,7034,5920,9,0,-1,10240,0.56,-0.09,1.63,1.34,6412,7035,5919,43,59,33,65,100,0
6423,7033,5923,9,-1,0,10240,0.56,-0.09,1.63,1.34,6413,7034,5919,43,55,33,65,100,0
6424,7033,5925,10,-1,2,10240,0.56,-0.09,1.63,1.34,6413,7034,5919,43,55,33,65,100,0
6424,7032,5924,10,-1,4,10240,0.56,-0.09,1.63,1.34,6413,7034,5919,43,55,33,65,100,0
6423,7033,5924,10,-1,5,10240,0.56,-0.09,1.63,1.34,6414,7034,5919,43,55,33,65,100,0
6422,7034,5925,9,-1,5,10240,0.56,-0.09,1.63,1.34,6414,7034,5920,41,55,33,65,100,0
6426,7032,5918,10,-1,3,10240,0.56,-0.09,1.63,1.34,6414,7034,5920,41,55,33,65,100,0
6429,7030,5911,10,-1,0,10240,0.56,-0.09,1.40,1.15,6415,7034,5919,41,55,33,65,100,0
6426,7024,5902,11,-4,-5,10240,0.56,-0.09,1.40,1.15,6415,7034,5919,41,55,33,65,100,0
6407,6999,5893,7,-12,-13,10240,0.56,-0.09,1.40,1.15,6415,7033,5918,41,55,33,67,100,0
6392,6979,5883,-1,-25,-21,10240,0.56,-0.09,1.40,1.15,6414,7031,5917,41,55,33,67,100,0
6364,6941,5865,-17,-45,-31,10240,0.56,-0.09,1.40,1.15,6413,7028,5915,41,55,33,67,100,0
6356,6932,5860,-33,-66,-40,10240,0.56,-0.09,1.40,1.15,6411,7025,5913,41,55,33,67,100,0
6352,6927,5857,-45,-81,-47,10240,0.56,-0.09,1.40,1.15,6409,7021,5911,41,55,33,67,100,0
6350,6925,5856,-54,-91,-52,10240,0.56,-0.09,1.40,1.15,6407,7018,5909,41,55,33,67,100,0
6351,6924,5854,-55,-92,-53,10240,0.56,-0.09,1.40,1.15,6405,7015,5908,41,55,33,67,100,0
6349,6923,5854,-55,-91,-53,10240,0.56,-0.09,1.40,1.15,6403,7012,5906,41,55,33,67,100,0
6351,6924,5855,-53,-89,-52,10240,0.56,-0.09,1.40,1.15,6401,7009,5904,41,55,33,67,100,0
6351,6923,5855,-51,-87,-50,10240,0.56,-0.09,1.40,1.15,6400,7006,5902,41,55,33,67,100,0
6351,6925,5856,-50,-83,-48,10240,0.56,-0.09,1.40,1.15,6398,7003,5901,41,55,33,67,100,0
6352,6925,5857,-47,-80,-45,10240,0.56,-0.09,1.40,1.15,6396,7001,5899,41,55,33,67,100,0
6354,6930,5859,-45,-76,-43,10240,0.56,-0.09,1.40,1.15,6395,6998,5898,41,55,33,67,100,0
6356,6932,5863,-42,-71,-40,10240,0.56,-0.09,1.40,1.15,6394,6996,5897,41,55,33,67,100,0
6358,6935,5864,-39,-66,-36,10240,0.56,-0.09,1.40,1.15,6392,6994,5896,41,55,33,67,100,0
6360,6938,5867,-36,-61,-33,10240,0.56,-0.09,1.40,1.15,6391,6992,5895,41,55,33,67,100,0
6365,6944,5867,-32,-56,-30,10240,0.56,-0.09,1.40,1.15,6391,6991,5894,41,55,33,67,100,0
6371,6953,5872,-27,-49,-27,10240,0.56,-0.09,1.40,1.15,6390,6990,5893,41,55,33,67,100,0
6373,6958,5875,-23,-42,-23,10240,0.56,-0.09,1.40,1.15,6389,6988,5893,41,55,33,67,100,0
6376,6962,5878,-18,-35,-20,10240,0.56,-0.09,1.40,1.15,6389,6988,5892,41,55,33,67,100,0
6380,6968,5879,-14,-28,-16,10240,0.56,-0.09,1.40,1.15,6389,6987,5892,41,55,33,67,100,0
6383,6974,5883,-10,-21,-13,10240,0.56,-0.09,1.40,1.15,6388,6986,5891,41,55,33,67,100,0
6392,6986,5890,-6,-14,-9,10240,0.56,-0.09,1.40,1.15,6389,6986,5891,41,55,33,67,100,0
6395,6990,5892,-1,-7,-5,10240,0.56,-0.09,1.40,1.15,6389,6987,5891,41,55,33,67,100,0
6398,6997,5894,3,0,-1,10240,0.56,-0.09,1.40,1.15,6389,6987,5891,41,55,33,67,100,0
6401,7000,5896,7,6,1,10240,0.56,-0.09,1.40,1.15,6389,6987,5892,41,55,33,67,100,0
6405,7005,5898,10,10,3,10240,0.56,-0.09,1.40,1.15,6390,6988,5892,41,55,33,67,100,0
6414,7019,5904,14,17,6,10240,0.56,-0.09,1.40,1.15,6391,6989,5892,41,55,33,67,100,0
6411,7019,5905,17,22,8,10240,0.56,-0.09,1.40,1.15,6391,6990,5893,41,55,33,67,100,0
6404,7011,5900,17,24,9,10240,0.56,-0.09,1.40,1.15,6392,6991,5893,41,55,33,67,100,0
6396,6999,5895,14,21,8,10240,0.56,-0.09,1.40,1.15,6392,6991,5893,49,71,40,67,100,0
6388,6987,5888,8,13,4,10240,0.56,-0.09,1.50,1.13,6392,6991,5893,49,71,40,67,100,0
6370,6962,5876,-2,-1,-3,10240,0.56,-0.09,1.50,1.13,6391,6990,5892,49,71,40,66,100,0
6361,6950,5869,-12,-15,-10,10240,0.56,-0.09,1.50,1.13,6390,6989,5891,49,71,40,66,100,0
6354,6941,5866,-22,-29,-17,10240,0.56,-0.09,1.50,1.13,6389,6987,5891,49,71,40,66,100,0
6348,6932,5862,-31,-41,-22,10240,0.56,-0.09,1.50,1.13,6388,6985,5890,49,71,40,66,100,0
6346,6929,5859,-36,-48,-26,10240,0.56,-0.09,1.50,1.13,6386,6983,5889,49,71,40,66,100,0
6345,6926,5856,-38,-52,-28,10240,0.56,-0.09,1.50,1.13,6385,6981,5887,49,71,40,66,100,0
6344,6926,5855,-39,-54,-30,10240,0.56,-0.09,1.50,1.13,6383,6980,5886,49,71,40,66,100,0
6343,6924,5854,-39,-54,-30,10240,0.56,-0.09,1.50,1.13,6382,6978,5885,49,71,40,66,100,0
6341,6924,5855,-39,-53,-30,10240,0.56,-0.09,1.50,1.13,6381,6976,5884,49,71,40,66,100,0
6341,6925,5855,-39,-52,-29,10240,0.56,-0.09,1.50,1.13,6379,6974,5883,49,71,40,66,100,0
6343,6926,5857,-38,-50,-28,10240,0.56,-0.09,1.50,1.13,6378,6973,5883,49,71,40,66,100,0
6343,6928,5859,-36,-47,-26,10240,0.56,-0.09,1.50,1.13,6377,6971,5882,49,71,40,66,100,0
6343,6929,5860,-35,-45,-24,10240,0.56,-0.09,1.50,1.13,6376,6970,5881,49,71,40,66,100,0
6344,6930,5862,-33,-42,-22,10240,0.56,-0.09,1.50,1.13,6375,6968,5880,49,71,40,66,100,0
6347,6935,5865,-31,-38,-19,10240,0.56,-0.09,1.50,1.13,6374,6967,5880,49,71,40,66,100,0
6357,6945,5868,-26,-33,-16,10240,0.56,-0.09,1.50,1.13,6373,6966,5879,49,71,40,66,100,0
6358,6949,5869,-22,-27,-13,10240,0.56,-0.09,1.50,1.13,6373,6966,5879,49,71,40,66,100,0
6358,6950,5870,-18,-21,-11,10240,0.56,-0.09,1.50,1.13,6372,6965,5879,49,71,40,66,100,0
6362,6956,5873,-13,-15,-9,10240,0.56,-0.09,1.50,1.13,6372,6965,5879,49,71,40,66,100,0
6367,6959,5875,-11,-11,-7,10240,0.56,-0.09,1.50,1.13,6372,6965,5878,49,71,40,66,100,0
6374,6971,5881,-6,-6,-4,10240,0.56,-0.09,1.50,1.13,6372,6965,5879,49,71,40,66,100,0
6379,6976,5884,-1,0,0,10240,0.56,-0.09,1.50,1.13,6372,6965,5879,49,71,40,66,100,0
6384,6983,5887,3,7,3,10240,0.56,-0.09,1.50,1.13,6373,6966,5879,49,71,40,66,100,0
6389,6990,5890,9,14,6,10240,0.56,-0.09,1.50,1.13,6373,6967,5879,49,71,40,66,100,0
6391,6994,5894,12,19,9,10240,0.56,-0.09,1.50,1.13,6374,6968,5880,49,71,40,66,100,0
6398,7005,5898,17,25,12,10240,0.56,-0.09,1.50,1.13,6374,6969,5880,49,71,40,66,100,0
6403,7011,5901,21,31,15,10240,0.56,-0.09,1.50,1.13,6375,6970,5881,49,71,40,66,100,0
6403,7013,5901,24,36,17,10240,0.56,-0.09,1.50,1.13,6376,6972,5882,49,71,40,66,100,0
6403,7013,5901,26,39,19,10240,0.56,-0.09,1.50,1.13,6377,6973,5882,49,71,40,66,100,0
6398,7006,5898,25,38,18,10240,0.56,-0.09,1.50,1.13,6378,6974,5883,53,76,43,66,100,0
6390,6993,5892,21,32,15,10240,0.56,-0.09,1.49,1.14,6378,6975,5883,53,76,43,66,100,0
6384,6985,5888,15,25,12,10240,0.56,-0.09,1.49,1.14,6379,6975,5883,53,76,43,66,100,0
6377,6977,5883,9,15,7,10240,0.56,-0.09,1.49,1.14,6378,6975,5883,53,76,43,66,100,0
6373,6972,5879,2,6,2,10240,0.56,-0.09,1.49,1.14,6378,6975,5883,53,76,43,66,100,0
6369,6966,5877,-2,0,-1,10240,0.56,-0.09,1.49,1.14,6378,6975,5883,53,76,43,66,100,0
6368,6963,5876,-6,-5,-4,10240,0.56,-0.09,1.49,1.14,6378,6975,5883,53,76,43,66,100,0
6370,6964,5877,-7,-8,-5,10240,0.56,-0.09,1.49,1.14,6377,6974,5883,53,76,43,66,100,0
6368,6961,5875,-8,-11,-6,10240,0.56,-0.09,1.49,1.14,6377,6974,5882,53,76,43,66,100,0
6367,6961,5874,-9,-11,-7,10240,0.56,-0.09,1.49,1.14,6377,6973,5882,53,76,43,66,100,0
6367,6963,5875,-8,-11,-7,10240,0.56,-0.09,1.49,1.14,6376,6973,5882,53,76,43,66,100,0
6372,6967,5877,-8,-10,-6,10240,0.56,-0.09,1.49,1.14,6376,6973,5882,53,76,43,66,100,0
6377,6971,5880,-5,-7,-5,10240,0.56,-0.09,1.49,1.14,6376,6973,5882,53,76,43,66,100,0
6378,6973,5879,-2,-4,-4,10240,0.56,-0.09,1.49,1.14,6376,6973,5882,53,76,43,66,100,0
6382,6977,5882,1,-1,-2,10240,0.56,-0.09,1.49,1.14,6377,6973,5882,53,76,43,66,100,0
6383,6979,5883,3,2,-1,10240,0.56,-0.09,1.49,1.14,6377,6973,5882,53,76,43,66,100,0
6389,6988,5886,6,6,0,10240,0.56,-0.09,1.49,1.14,6377,6974,5882,53,76,43,66,100,0
6393,6994,5891,9,11,3,10240,0.56,-0.09,1.49,1.14,6378,6974,5882,53,76,43,66,100,0
6396,6996,5893,12,15,6,10240,0.56,-0.09,1.49,1.14,6378,6975,5882,53,76,43,66,100,0
6398,6999,5895,16,19,9,10240,0.56,-0.09,1.49,1.14,6379,6976,5883,53,76,43,66,100,0
6401,7004,5896,18,22,11,10240,0.56,-0.09,1.49,1.14,6380,6977,5883,53,76,43,66,100,0
6410,7009,5899,21,25,12,10240,0.56,-0.09,1.49,1.14,6381,6978,5884,53,76,43,66,100,0
6415,7022,5903,25,31,14,10240,0.56,-0.09,1.49,1.14,6382,6979,5884,53,76,43,66,100,0
6418,7027,5904,29,36,16,10240,0.56,-0.09,1.49,1.14,6383,6981,5885,53,76,43,66,100,0
6421,7032,5907,33,42,18,10240,0.56,-0.09,1.49,1.14,6384,6982,5886,53,76,43,66,100,0
6422,7033,5909,35,47,20,10240,0.56,-0.09,1.49,1.14,6386,6984,5887,53,76,43,66,100,0
6422,7033,5912,35,48,21,10240,0.56,-0.09,1.49,1.14,6387,6986,5887,53,76,43,66,100,0
6421,7035,5918,35,48,24,10240,0.56,-0.09,1.49,1.14,6388,6987,5889,53,76,43,66,100,0
6420,7035,5919,33,47,26,10240,0.56,-0.09,1.49,1.14,6389,6989,5890,51,72,43,66,100,0
6419,7035,5919,32,46,28,10240,0.56,-0.09,1.49,1.14,6390,6991,5890,51,72,43,66,100,0
6419,7035,5918,30,45,28,10240,0.56,-0.09,1.49,1.14,6391,6992,5891,51,72,43,66,100,0
6420,7035,5915,29,43,27,10240,0.56,-0.09,1.49,1.14,6392,6993,5892,51,72,41,66,100,0
6423,7033,5908,28,41,23,10240,0.56,-0.09,1.48,1.15,6393,6995,5893,51,72,41,66,100,0
6420,7029,5903,28,39,18,10240,0.56,-0.09,1.48,1.15,6394,6996,5893,51,72,41,66,100,0
6411,7015,5899,25,32,13,10240,0.56,-0.09,1.48,1.15,6394,6997,5893,51,72,41,66,100,0
6400,7003,5893,19,23,7,10240,0.56,-0.09,1.48,1.15,6395,6997,5893,51,72,41,66,100,0
6396,6996,5891,12,14,3,10240,0.56,-0.09,1.48,1.15,6395,6997,5893,51,72,41,66,100,0
6393,6992,5888,5,4,0,10240,0.56,-0.09,1.48,1.15,6395,6997,5893,51,72,41,66,100,0
6393,6990,5886,0,-1,-3,10240,0.56,-0.09,1.48,1.15,6395,6996,5893,51,72,41,66,100,0
6390,6986,5885,-1,-5,-5,10240,0.56,-0.09,1.48,1.15,6394,6996,5893,51,72,41,66,100,0
6389,6985,5885,-3,-8,-6,10240,0.56,-0.09,1.48,1.15,6394,6996,5892,51,72,41,66,100,0
6390,6985,5884,-3,-9,-7,10240,0.56,-0.09,1.48,1.15,6394,6995,5892,51,72,41,66,100,0
6391,6986,5885,-4,-10,-7,10240,0.56,-0.09,1.48,1.15,6394,6995,5892,51,72,41,66,100,0
6392,6987,5885,-3,-9,-7,10240,0.56,-0.09,1.48,1.15,6394,6995,5892,51,72,41,66,100,0
6394,6989,5886,-2,-8,-6,10240,0.56,-0.09,1.48,1.15,6394,6995,5891,51,72,41,66,100,0
6397,6994,5888,0,-5,-5,10240,0.56,-0.09,1.48,1.15,6394,6994,5891,51,72,41,66,100,0
6402,7000,5891,2,-2,-3,10240,0.56,-0.09,1.48,1.15,6394,6995,5891,51,72,41,66,100,0
6407,7004,5893,5,2,-1,10240,0.56,-0.09,1.48,1.15,6395,6995,5891,51,72,41,66,100,0
6410,7008,5894,9,6,0,10240,0.56,-0.09,1.48,1.15,6395,6995,5891,51,72,41,66,100,0
6416,7014,5897,13,11,2,10240,0.56,-0.09,1.48,1.15,6396,6996,5892,51,72,41,66,100,0
6418,7017,5897,17,15,3,10240,0.56,-0.09,1.48,1.15,6397,6997,5892,51,72,41,66,100,0
6424,7023,5900,20,19,5,10240,0.56,-0.09,1.48,1.15,6398,6998,5892,51,72,41,66,100,0
6428,7030,5904,24,23,7,10240,0.56,-0.09,1.48,1.15,6399,6999,5892,51,72,41,66,100,0
6428,7031,5905,26,26,9,10240,0.56,-0.09,1.48,1.15,6400,7000,5893,51,72,41,66,100,0
6426,7031,5906,27,29,11,10240,0.56,-0.09,1.48,1.15,6400,7001,5893,51,72,41,66,100,0
6427,7031,5907,27,30,12,10240,0.56,-0.09,1.48,1.15,6401,7002,5894,51,72,41,66,100,0
6428,7031,5910,26,29,13,10240,0.56,-0.09,1.48,1.15,6402,7003,5894,46,64,41,66,100,0
6427,7031,5913,25,28,15,10240,0.56,-0.09,1.48,1.15,6403,7004,5895,46,64,41,66,100,0
6425,7032,5916,24,27,16,10240,0.56,-0.09,1.48,1.15,6404,7005,5896,46,64,41,66,100,0
6425,7032,5918,23,27,19,10240,0.56,-0.09,1.48,1.15,6404,7006,5896,46,64,41,66,100,0
6423,7033,5921,21,26,21,10240,0.56,-0.09,1.48,1.15,6405,7006,5897,46,64,41,66,100,0
6423,7033,5920,19,26,22,10240,0.56,-0.09,1.48,1.15,6406,7007,5898,46,64,41,66,100,0
6425,7032,5913,18,25,20,10240,0.56,-0.09,1.48,1.15,6406,7008,5898,46,64,38,66,100,0
6428,7031,5909,18,24,17,10240,0.56,-0.09,1.42,1.11,6407,7009,5899,46,64,38,66,100,0
6429,7030,5904,19,23,13,10240,0.56,-0.09,1.42,1.11,6408,7010,5899,46,64,38,66,100,0
6420,7020,5898,18,19,7,10240,0.56,-0.09,1.42,1.11,6408,7010,5899,46,64,38,66,100,0
6406,7003,5892,13,11,1,10240,0.56,-0.09,1.42,1.11,6408,7010,5899,46,64,38,66,100,0
6392,6983,5881,3,0,-5,10240,0.56,-0.09,1.42,1.11,6408,7009,5898,46,64,38,66,100,0
6387,6978,5880,-6,-13,-10,10240,0.56,-0.09,1.42,1.11,6407,7008,5898,46,64,38,66,100,0
6386,6973,5877,-14,-24,-15,10240,0.56,-0.09,1.42,1.11,6406,7007,5897,46,64,38,66,100,0
6383,6971,5876,-19,-31,-18,10240,0.56,-0.09,1.42,1.11,6405,7005,5896,46,64,38,66,100,0
6381,6967,5874,-21,-33,-19,10240,0.56,-0.09,1.42,1.11,6405,7004,5895,46,64,38,66,100,0
6378,6964,5871,-23,-36,-21,10240,0.56,-0.09,1.42,1.11,6404,7003,5895,46,64,38,66,100,0
6375,6961,5872,-25,-37,-21,10240,0.56,-0.09,1.42,1.11,6403,7001,5894,46,64,38,66,100,0
6376,6962,5872,-26,-38,-22,10240,0.56,-0.09,1.42,1.11,6402,7000,5893,46,64,38,66,100,0
6378,6964,5872,-25,-38,-21,10240,0.56,-0.09,1.42,1.11,6401,6999,5892,46,64,38,66,100,0
6378,6964,5874,-24,-36,-20,10240,0.56,-0.09,1.42,1.11,6400,6998,5892,46,64,38,66,100,0
6383,6970,5876,-22,-33,-18,10240,0.56,-0.09,1.42,1.11,6400,6997,5891,46,64,38,66,100,0
6386,6974,5878,-18,-29,-16,10240,0.56,-0.09,1.42,1.11,6399,6996,5891,46,64,38,66,100,0
6388,6978,5879,-15,-25,-14,10240,0.56,-0.09,1.42,1.11,6399,6995,5890,46,64,38,66,100,0
6389,6980,5882,-12,-20,-11,10240,0.56,-0.09,1.42,1.11,6399,6995,5890,46,64,38,66,100,0
6393,6986,5884,-9,-15,-9,10240,0.56,-0.09,1.42,1.11,6398,6995,5890,46,64,38,66,100,0
6402,6996,5885,-5,-10,-7,10240,0.56,-0.09,1.42,1.11,6398,6995,5890,46,64,38,66,100,0
6403,6999,5889,-1,-4,-5,10240,0.56,-0.09,1.42,1.11,6399,6995,5890,46,64,38,66,100,0
6405,7002,5891,2,0,-2,10240,0.56,-0.09,1.42,1.11,6399,6995,5890,46,64,38,66,100,0
6408,7006,5893,5,5,0,10240,0.56,-0.09,1.42,1.11,6399,6995,5890,46,64,38,66,100,0
6413,7012,5896,8,9,2,10240,0.56,-0.09,1.42,1.11,6400,6996,5890,46,64,38,66,100,0
6418,7017,5898,11,13,4,10240,0.56,-0.09,1.42,1.11,6400,6997,5890,46,64,38,66,100,0
6427,7030,5902,16,19,7,10240,0.56,-0.09,1.42,1.11,6401,6998,5891,46,64,38,66,100,0
6426,7031,5904,20,25,9,10240,0.56,-0.09,1.42,1.11,6402,6999,5891,46,64,38,66,100,0
6427,7031,5906,23,28,11,10240,0.56,-0.09,1.42,1.11,6403,7000,5892,46,64,38,66,100,0
6424,7032,5907,23,31,13,10240,0.56,-0.09,1.42,1.11,6403,7001,5892,46,64,38,66,100,0
6425,7032,5908,22,31,14,10240,0.56,-0.09,1.42,1.11,6404,7002,5893,46,64,38,66,100,0
6425,7031,5904,21,30,13,10240,0.56,-0.09,1.42,1.11,6405,7003,5893,46,65,37,66,100,0
6417,7021,5899,18,26,11,10240,0.56,-0.09,1.48,1.14,6405,7004,5893,46,65,37,66,100,0
6406,7006,5893,13,19,8,10240,0.56,-0.09,1.48,1.14,6405,7004,5893,46,65,37,66,100,0
6401,6999,5890,7,10,3,10240,0.56,-0.09,1.48,1.14,6405,7004,5893,46,65,37,66,100,0
6393,6988,5884,0,0,-1,10240,0.56,-0.09,1.48,1.14,6405,7003,5893,46,65,37,66,100,0
6381,6969,5875,-9,-12,-7,10240,0.56,-0.09,1.48,1.14,6404,7002,5892,46,65,37,66,100,0
6379,6966,5873,-15,-22,-12,10240,0.56,-0.09,1.48,1.14,6403,7001,5892,46,65,37,66,100,0
6378,6963,5872,-20,-29,-16,10240,0.56,-0.09,1.48,1.14,6402,6999,5891,46,65,37,66,100,0
6376,6961,5870,-24,-35,-18,10240,0.56,-0.09,1.48,1.14,6401,6998,5890,46,65,37,66,100,0
6373,6959,5869,-25,-36,-19,10240,0.56,-0.09,1.48,1.14,6401,6997,5890,46,65,37,66,100,0
6371,6956,5868,-26,-37,-20,10240,0.56,-0.09,1.48,1.14,6400,6995,5889,46,65,37,66,100,0
6371,6956,5868,-27,-38,-20,10240,0.56,-0.09,1.48,1.14,6399,6994,5888,46,65,37,66,100,0
6374,6957,5870,-27,-37,-20,10240,0.56,-0.09,1.48,1.14,6398,6993,5888,46,65,37,66,100,0
6375,6960,5869,-25,-36,-19,10240,0.56,-0.09,1.48,1.14,6397,6992,5887,46,65,37,66,100,0
6377,6961,5870,-23,-34,-18,10240,0.56,-0.09,1.48,1.14,6396,6991,5886,46,65,37,66,100,0
6381,6967,5874,-20,-30,-16,10240,0.56,-0.09,1.48,1.14,6396,6990,5886,46,65,37,66,100,0
6384,6970,5876,-16,-26,-14,10240,0.56,-0.09,1.48,1.14,6395,6989,5886,46,65,37,66,100,0
6384,6971,5876,-14,-22,-11,10240,0.56,-0.09,1.48,1.14,6395,6989,5885,46,65,37,66,100,0
6387,6974,5877,-11,-18,-9,10240,0.56,-0.09,1.48,1.14,6395,6988,5885,46,65,37,66,100,0
6391,6979,5880,-8,-15,-8,10240,0.56,-0.09,1.48,1.14,6395,6988,5885,46,65,37,66,100,0
6398,6990,5886,-5,-9,-5,10240,0.56,-0.09,1.48,1.14,6395,6988,5885,46,65,37,66,100,0
6403,6994,5887,0,-3,-2,10240,0.56,-0.09,1.48,1.14,6395,6988,5885,46,65,37,66,100,0
6403,7000,5890,3,2,0,10240,0.56,-0.09,1.48,1.14,6395,6989,5885,46,65,37,66,100,0
6408,7002,5891,7,8,3,10240,0.56,-0.09,1.48,1.14,6396,6989,5885,46,65,37,66,100,0
6410,7006,5893,10,11,5,10240,0.56,-0.09,1.48,1.14,6396,6990,5886,46,65,37,66,100,0
6424,7023,5898,15,18,7,10240,0.56,-0.09,1.48,1.14,6397,6991,5886,46,65,37,66,100,0
6428,7029,5901,20,24,9,10240,0.56,-0.09,1.48,1.14,6398,6992,5887,46,65,37,66,100,0
6429,7030,5904,25,30,12,10240,0.56,-0.09,1.48,1.14,6399,6993,5887,46,65,37,66,100,0
6427,7031,5905,28,35,15,10240,0.56,-0.09,1.48,1.14,6400,6994,5888,46,65,37,66,100,0
6427,7031,5906,28,36,16,10240,0.56,-0.09,1.48,1.14,6401,6996,5888,46,65,37,66,100,0
6429,7030,5901,27,35,16,10240,0.56,-0.09,1.48,1.14,6402,6997,5889,49,67,37,66,100,0
6418,7016,5896,24,31,13,10240,0.56,-0.09,1.48,1.14,6402,6997,5889,49,67,37,66,100,0
6406,7001,5890,18,22,9,10240,0.56,-0.09,1.52,1.22,6403,6998,5889,49,67,37,66,100,0
6400,6990,5885,10,12,4,10240,0.56,-0.09,1.52,1.22,6403,6997,5889,49,67,37,66,100,0
6391,6979,5878,1,0,-1,10240,0.56,-0.09,1.52,1.22,6402,6997,5888,49,67,37,66,100,0
6377,6959,5868,-8,-14,-8,10240,0.56,-0.09,1.52,1.22,6401,6995,5888,49,67,37,66,100,0
6376,6955,5866,-15,-25,-13,10240,0.56,-0.09,1.52,1.22,6400,6994,5887,49,67,37,66,100,0
6374,6953,5864,-21,-33,-18,10240,0.56,-0.09,1.52,1.22,6400,6993,5886,49,67,37,66,100,0
6371,6951,5863,-25,-38,-21,10240,0.56,-0.09,1.52,1.22,6399,6991,5886,49,67,37,66,100,0
6371,6948,5863,-26,-40,-22,10240,0.56,-0.09,1.52,1.22,6398,6990,5885,49,67,37,66,100,0
6368,6946,5861,-27,-41,-22,10240,0.56,-0.09,1.52,1.22,6397,6988,5884,49,67,37,66,100,0
6368,6947,5861,-28,-41,-22,10240,0.56,-0.09,1.52,1.22,6396,6987,5883,49,67,37,66,100,0
6369,6947,5863,-27,-40,-21,10240,0.56,-0.09,1.52,1.22,6395,6986,5883,49,67,37,66,100,0
6371,6949,5863,-26,-39,-21,10240,0.56,-0.09,1.52,1.22,6394,6985,5882,49,67,37,66,100,0
6373,6950,5864,-24,-37,-19,10240,0.56,-0.09,1.52,1.22,6393,6983,5881,49,67,37,66,100,0
6377,6955,5868,-21,-33,-17,10240,0.56,-0.09,1.52,1.22,6393,6982,5881,49,67,37,66,100,0
6380,6960,5870,-17,-29,-14,10240,0.56,-0.09,1.52,1.22,6392,6982,5880,49,67,37,66,100,0
6383,6965,5872,-14,-24,-12,10240,0.56,-0.09,1.52,1.22,6392,6981,5880,49,67,37,66,100,0
6387,6968,5875,-10,-19,-9,10240,0.56,-0.09,1.52,1.22,6392,6981,5880,49,67,37,66,100,0
6389,6973,5877,-7,-14,-6,10240,0.56,-0.09,1.52,1.22,6392,6980,5880,49,67,37,66,100,0
6401,6984,5884,-2,-8,-3,10240,0.56,-0.09,1.52,1.22,6392,6981,5880,49,67,37,66,100,0
6404,6989,5886,3,-2,0,10240,0.56,-0.09,1.52,1.22,6392,6981,5880,49,67,37,66,100,0
6405,6992,5888,7,3,3,10240,0.56,-0.09,1.52,1.22,6393,6981,5881,49,67,37,66,100,0
6409,6998,5891,12,9,6,10240,0.56,-0.09,1.52,1.22,6393,6982,5881,49,67,37,66,100,0
6411,7002,5893,14,13,8,10240,0.56,-0.09,1.52,1.22,6394,6982,5881,49,67,37,66,100,0
6423,7018,5898,18,20,11,10240,0.56,-0.09,1.52,1.22,6395,6984,5882,49,67,37,66,100,0
6430,7024,5900,23,27,14,10240,0.56,-0.09,1.52,1.22,6396,6985,5882,49,67,37,66,100,0
6432,7027,5900,28,33,15,10240,0.56,-0.09,1.52,1.22,6397,6986,5883,49,67,37,66,100,0
6432,7029,5904,32,38,17,10240,0.56,-0.09,1.52,1.22,6399,6988,5884,49,67,37,66,100,0
6431,7029,5906,33,40,19,10240,0.56,-0.09,1.52,1.22,6400,6989,5884,49,67,37,66,100,0
6428,7030,5906,31,40,20,10240,0.56,-0.09,1.52,1.22,6401,6991,5885,52,67,37,66,100,0
6430,7029,5904,29,39,20,10240,0.56,-0.09,1.52,1.22,6402,6992,5886,52,71,37,66,100,0
6428,7024,5899,28,36,18,10240,0.56,-0.09,1.52,1.22,6402,6993,5886,52,71,38,66,100,0
6412,7005,5893,22,29,14,10240,0.38,-0.08,1.57,1.26,6403,6993,5887,52,71,38,66,100,0
6403,6994,5886,15,20,9,10240,0.38,-0.08,1.57,1.26,6403,6993,5886,52,71,38,66,100,0
6382,6964,5873,3,4,1,10240,0.38,-0.08,1.57,1.26,6402,6992,5886,52,71,38,66,100,0
6372,6952,5866,-10,-13,-6,10240,0.38,-0.08,1.57,1.26,6401,6991,5885,52,71,38,66,100,0
6367,6947,5863,-20,-27,-13,10240,0.38,-0.08,1.57,1.26,6400,6990,5885,52,71,38,66,100,0
6366,6943,5862,-28,-38,-19,10240,0.38,-0.08,1.57,1.26,6399,6988,5884,52,71,38,66,100,0
6364,6942,5860,-32,-42,-21,10240,0.38,-0.08,1.57,1.26,6398,6986,5883,52,71,38,66,100,0
6357,6935,5856,-34,-45,-23,10240,0.38,-0.08,1.57,1.26,6396,6985,5882,52,71,38,66,100,0
6354,6934,5856,-36,-47,-24,10240,0.38,-0.08,1.57,1.26,6395,6983,5881,52,71,38,66,100,0
6353,6932,5856,-38,-48,-24,10240,0.38,-0.08,1.57,1.26,6393,6981,5880,52,71,38,66,100,0
6354,6935,5857,-39,-48,-24,10240,0.38,-0.08,1.57,1.26,6392,6980,5880,52,71,38,66,100,0
6354,6935,5857,-39,-46,-23,10240,0.38,-0.08,1.57,1.26,6391,6978,5879,52,71,38,66,100,0
6360,6941,5860,-36,-43,-21,10240,0.38,-0.08,1.57,1.26,6390,6977,5878,52,71,38,66,100,0
6362,6945,5862,-33,-38,-19,10240,0.38,-0.08,1.57,1.26,6389,6976,5878,52,71,38,66,100,0
6365,6948,5862,-29,-34,-17,10240,0.38,-0.08,1.57,1.26,6388,6975,5877,52,71,38,66,100,0
6368,6951,5865,-24,-29,-15,10240,0.38,-0.08,1.57,1.26,6387,6974,5877,52,71,38,66,100,0
6374,6957,5866,-20,-24,-13,10240,0.38,-0.08,1.57,1.26,6387,6974,5876,52,71,38,66,100,0
6379,6964,5870,-15,-19,-10,10240,0.38,-0.08,1.57,1.26,6387,6973,5876,52,71,38,66,100,0
6380,6967,5872,-11,-13,-8,10240,0.38,-0.08,1.57,1.26,6386,6973,5876,52,71,38,66,100,0
6383,6972,5875,-7,-8,-5,10240,0.38,-0.08,1.57,1.26,6386,6973,5876,52,71,38,66,100,0
6386,6976,5879,-4,-3,-2,10240,0.38,-0.08,1.57,1.26,6386,6973,5876,52,71,38,66,100,0
6391,6981,5880,-1,0,0,10240,0.38,-0.08,1.57,1.26,6387,6974,5876,52,71,38,66,100,0
6400,6992,5886,3,6,3,10240,0.38,-0.08,1.57,1.26,6387,6974,5877,52,71,38,66,100,0
6404,6997,5889,8,12,7,10240,0.38,-0.08,1.57,1.26,6388,6975,5877,52,71,38,66,100,0
6407,7002,5892,13,18,9,10240,0.38,-0.08,1.57,1.26,6388,6976,5878,52,71,38,66,100,0
6409,7007,5891,17,24,12,10240,0.38,-0.08,1.57,1.26,6389,6977,5878,52,71,38,66,100,0
6417,7016,5897,20,29,14,10240,0.38,-0.08,1.57,1.26,6390,6978,5879,52,71,38,66,100,0
6428,7030,5902,25,36,17,10240,0.38,-0.08,1.57,1.26,6391,6980,5879,52,71,38,66,100,0
6427,7031,5903,29,41,19,10240,0.38,-0.08,1.57,1.26,6392,6982,5880,52,71,38,66,100,0
6426,7031,5901,33,46,21,10240,0.38,-0.08,1.57,1.26,6393,6983,5881,52,71,38,66,100,0
6416,7018,5896,31,45,20,10240,0.38,-0.08,1.57,1.26,6394,6984,5881,57,77,40,66,100,0
6404,7002,5891,24,37,16,10240,0.38,-0.08,1.62,1.31,6395,6985,5882,57,77,40,65,100,0
6388,6979,5879,14,23,10,10240,0.38,-0.08,1.62,1.31,6394,6985,5882,57,77,40,65,100,0
6379,6965,5871,2,6,2,10240,0.38,-0.08,1.62,1.31,6394,6984,5881,57,77,40,65,100,0
6369,6954,5865,-9,-9,-5,10240,0.38,-0.08,1.62,1.31,6393,6983,5881,57,77,40,65,100,0
6362,6946,5862,-18,-22,-11,10240,0.38,-0.08,1.62,1.31,6392,6982,5880,57,77,40,65,100,0
6358,6939,5859,-25,-31,-16,10240,0.38,-0.08,1.62,1.31,6391,6980,5879,57,77,40,65,100,0
6350,6931,5854,-31,-38,-19,10240,0.38,-0.08,1.62,1.31,6389,6979,5879,57,77,40,65,100,0
6348,6927,5852,-35,-43,-22,10240,0.38,-0.08,1.62,1.31,6388,6977,5878,57,77,40,65,100,0
6349,6927,5851,-37,-46,-24,10240,0.38,-0.08,1.62,1.31,6387,6975,5877,57,77,40,65,100,0
6349,6925,5850,-38,-48,-25,10240,0.38,-0.08,1.62,1.31,6385,6974,5876,57,77,40,65,100,0
6349,6926,5850,-37,-48,-25,10240,0.38,-0.08,1.62,1.31,6384,6972,5875,57,77,40,65,100,0
6349,6927,5850,-35,-46,-25,10240,0.38,-0.08,1.62,1.31,6383,6971,5874,57,77,40,65,100,0
6350,6928,5851,-34,-45,-24,10240,0.38,-0.08,1.62,1.31,6382,6969,5873,57,77,40,65,100,0
6349,6930,5851,-33,-42,-23,10240,0.38,-0.08,1.62,1.31,6381,6968,5873,57,77,40,65,100,0
6351,6931,5852,-31,-39,-22,10240,0.38,-0.08,1.62,1.31,6380,6967,5872,57,77,40,65,100,0
6356,6937,5856,-29,-36,-19,10240,0.38,-0.08,1.62,1.31,6379,6966,5871,57,77,40,65,100,0
6363,6944,5859,-25,-31,-17,10240,0.38,-0.08,1.62,1.31,6379,6965,5871,57,77,40,65,100,0
6367,6946,5861,-19,-26,-14,10240,0.38,-0.08,1.62,1.31,6378,6964,5871,57,77,40,65,100,0
6370,6950,5863,-14,-20,-11,10240,0.38,-0.08,1.62,1.31,6378,6964,5870,57,77,40,65,100,0
6375,6956,5865,-9,-15,-8,10240,0.38,-0.08,1.62,1.31,6378,6964,5870,57,77,40,65,100,0
6377,6958,5867,-5,-11,-6,10240,0.38,-0.08,1.62,1.31,6378,6963,5870,57,77,40,65,100,0
6384,6970,5872,-1,-5,-3,10240,0.38,-0.08,1.62,1.31,6378,6964,5870,57,77,40,65,100,0
6388,6975,5875,3,1,0,10240,0.38,-0.08,1.62,1.31,6378,6964,5870,57,77,40,65,100,0
6391,6978,5876,6,6,2,10240,0.38,-0.08,1.62,1.31,6379,6964,5871,57,77,40,65,100,0
6395,6986,5881,11,13,5,10240,0.38,-0.08,1.62,1.31,6379,6965,5871,57,77,40,65,100,0
6402,6994,5885,15,18,8,10240,0.38,-0.08,1.62,1.31,6380,6966,5871,57,77,40,65,100,0
6407,7002,5889,19,24,11,10240,0.38,-0.08,1.62,1.31,6381,6967,5872,57,77,40,65,100,0
6410,7008,5892,23,30,15,10240,0.38,-0.08,1.62,1.31,6382,6969,5873,57,77,40,65,100,0
6408,7007,5892,25,34,17,10240,0.38,-0.08,1.62,1.31,6383,6970,5873,57,77,40,65,100,0
6404,7001,5889,25,35,17,10240,0.38,-0.08,1.62,1.31,6383,6971,5874,57,77,40,65,100,0
6396,6990,5882,21,31,15,10240,0.38,-0.08,1.62,1.31,6384,6972,5874,58,78,40,65,100,0
6384,6972,5878,14,21,11,10240,0.38,-0.08,1.64,1.33,6384,6972,5874,58,78,40,65,100,0
6379,6962,5870,7,9,5,10240,0.38,-0.08,1.64,1.33,6384,6971,5874,58,78,40,65,100,0
6372,6952,5864,-1,-2,0,10240,0.38,-0.08,1.64,1.33,6383,6971,5874,58,78,40,65,100,0
6366,6945,5861,-8,-13,-5,10240,0.38,-0.08,1.64,1.33,6383,6970,5873,58,78,40,65,100,0
6363,6941,5859,-13,-20,-10,10240,0.38,-0.08,1.64,1.33,6382,6969,5873,58,78,40,65,100,0
6360,6939,5857,-17,-25,-12,10240,0.38,-0.08,1.64,1.33,6381,6968,5872,58,78,40,65,100,0
6359,6938,5857,-19,-27,-14,10240,0.38,-0.08,1.64,1.33,6381,6967,5872,58,78,40,65,100,0
6358,6936,5856,-21,-29,-14,10240,0.38,-0.08,1.64,1.33,6380,6966,5871,58,78,40,65,100,0
6358,6936,5855,-21,-29,-15,10240,0.38,-0.08,1.64,1.33,6379,6965,5871,58,78,40,65,100,0
6359,6937,5855,-21,-28,-15,10240,0.38,-0.08,1.64,1.33,6378,6964,5870,58,78,40,65,100,0
6364,6941,5856,-19,-27,-15,10240,0.38,-0.08,1.64,1.33,6378,6963,5870,58,78,40,65,100,0
6365,6942,5859,-16,-24,-13,10240,0.38,-0.08,1.64,1.33,6378,6962,5869,58,78,40,65,100,0
6368,6946,5861,-13,-21,-11,10240,0.38,-0.08,1.64,1.33,6377,6962,5869,58,78,40,65,100,0
6370,6948,5861,-10,-17,-10,10240,0.38,-0.08,1.64,1.33,6377,6961,5869,58,78,40,65,100,0
6373,6952,5863,-8,-14,-8,10240,0.38,-0.08,1.64,1.33,6377,6961,5869,58,78,40,65,100,0
6381,6962,5866,-4,-9,-6,10240,0.38,-0.08,1.64,1.33,6377,6961,5869,58,78,40,65,100,0
6386,6967,5871,0,-3,-3,10240,0.38,-0.08,1.64,1.33,6377,6961,5869,58,78,40,65,100,0
6389,6973,5874,5,2,0,10240,0.38,-0.08,1.64,1.33,6378,6962,5869,58,78,40,65,100,0
6394,6978,5876,10,8,2,10240,0.38,-0.08,1.64,1.33,6378,6962,5869,58,78,40,65,100,0
6399,6983,5879,14,13,6,10240,0.38,-0.08,1.64,1.33,6379,6963,5869,58,78,40,65,100,0
6406,6994,5882,18,19,8,10240,0.38,-0.08,1.64,1.33,6380,6964,5870,58,78,40,65,100,0
6411,7000,5888,23,25,11,10240,0.38,-0.08,1.64,1.33,6381,6965,5870,58,78,40,65,100,0
6414,7005,5891,27,30,15,10240,0.38,-0.08,1.64,1.33,6382,6967,5871,58,78,40,65,100,0
6418,7010,5892,30,36,17,10240,0.38,-0.08,1.64,1.33,6383,6968,5872,58,78,40,65,100,0
6425,7020,5896,34,41,20,10240,0.38,-0.08,1.64,1.33,6385,6970,5873,58,78,40,65,100,0
6433,7028,5899,38,46,22,10240,0.38,-0.08,1.64,1.33,6386,6972,5873,58,78,40,65,100,0
6430,7030,5903,41,51,24,10240,0.38,-0.08,1.64,1.33,6388,6974,5874,58,78,40,66,100,0
6429,7030,5906,42,54,27,10240,0.38,-0.08,1.64,1.33,6389,6975,5876,58,78,40,66,100,0
6430,7030,5905,42,55,28,10240,0.38,-0.08,1.64,1.33,6390,6977,5877,58,78,40,66,100,0
6430,7030,5900,40,53,27,10240,0.38,-0.08,1.64,1.33,6392,6979,5877,59,80,41,66,100,0
6422,7017,5898,36,49,25,10240,0.38,-0.08,1.64,1.32,6393,6980,5878,59,80,41,66,100,0
6410,7002,5889,31,40,20,10240,0.38,-0.08,1.64,1.32,6393,6981,5878,59,80,41,66,100,0
6402,6990,5882,23,29,14,10240,0.38,-0.08,1.64,1.32,6394,6981,5878,59,80,41,66,100,0
6391,6977,5874,13,15,7,10240,0.38,-0.08,1.64,1.32,6393,6981,5878,59,80,41,66,100,0
6385,6966,5870,3,2,0,10240,0.38,-0.08,1.64,1.32,6393,6981,5878,59,80,41,66,100,0
6380,6959,5867,-3,-7,-4,10240,0.38,-0.08,1.64,1.32,6393,6980,5878,59,80,41,66,100,0
6378,6955,5864,-9,-16,-9,10240,0.38,-0.08,1.64,1.32,6392,6979,5877,59,80,41,66,100,0
6376,6952,5862,-12,-21,-11,10240,0.38,-0.08,1.64,1.32,6392,6978,5877,59,80,41,66,100,0
6373,6950,5861,-15,-24,-13,10240,0.38,-0.08,1.64,1.32,6391,6977,5876,59,80,41,66,100,0
6374,6950,5861,-16,-25,-14,10240,0.38,-0.08,1.64,1.32,6391,6976,5876,59,80,41,66,100,0
6374,6950,5862,-16,-26,-14,10240,0.38,-0.08,1.64,1.32,6390,6976,5875,59,80,41,66,100,0
6375,6951,5863,-16,-25,-13,10240,0.38,-0.08,1.64,1.32,6389,6975,5875,59,80,41,66,100,0
6376,6953,5863,-15,-24,-12,10240,0.38,-0.08,1.64,1.32,6389,6974,5874,59,80,41,66,100,0
6377,6954,5863,-13,-22,-11,10240,0.38,-0.08,1.64,1.32,6389,6973,5874,59,80,41,66,100,0
6381,6959,5865,-11,-19,-10,10240,0.38,-0.08,1.64,1.32,6388,6973,5874,59,80,41,66,100,0
6389,6968,5868,-7,-14,-9,10240,0.38,-0.08,1.64,1.32,6388,6973,5874,59,80,41,66,100,0
6391,6972,5873,-4,-9,-6,10240,0.38,-0.08,1.64,1.32,6389,6973,5874,59,80,41,66,100,0
6392,6975,5874,0,-4,-4,10240,0.38,-0.08,1.64,1.32,6389,6973,5874,59,80,41,66,100,0
6396,6981,5876,3,1,-1,10240,0.38,-0.08,1.64,1.32,6389,6973,5874,59,80,41,66,100,0
6400,6986,5879,5,5,1,10240,0.38,-0.08,1.64,1.32,6389,6973,5874,59,80,41,66,100,0
6407,6990,5882,9,9,3,10240,0.38,-0.08,1.64,1.32,6390,6974,5874,59,80,41,66,100,0
6411,7003,5889,13,16,7,10240,0.38,-0.08,1.64,1.32,6391,6975,5875,59,80,41,66,100,0
6414,7007,5890,17,22,10,10240,0.38,-0.08,1.64,1.32,6391,6976,5875,59,80,41,66,100,0
6419,7012,5891,21,27,13,10240,0.38,-0.08,1.64,1.32,6392,6977,5876,59,80,41,66,100,0
6426,7021,5895,25,34,15,10240,0.38,-0.08,1.64,1.32,6393,6979,5876,59,80,41,66,100,0
6430,7028,5898,29,39,17,10240,0.38,-0.08,1.64,1.32,6395,6980,5877,59,80,41,66,100,0
6431,7029,5903,32,43,20,10240,0.38,-0.08,1.64,1.32,6396,6982,5878,59,80,41,66,100,0
6430,7030,5904,34,45,22,10240,0.38,-0.08,1.64,1.32,6397,6984,5879,59,80,41,66,100,0
6429,7030,5905,33,46,24,10240,0.38,-0.08,1.64,1.32,6398,6985,5880,57,80,41,66,100,0
6426,7032,5907,31,45,25,10240,0.38,-0.08,1.64,1.32,6399,6987,5880,57,78,41,66,100,0
6427,7031,5908,29,44,26,10240,0.38,-0.08,1.64,1.32,6400,6988,5881,57,78,41,66,100,0
6429,7030,5903,28,43,25,10240,0.38,-0.08,1.64,1.32,6401,6989,5882,57,78,41,66,100,0
6429,7030,5899,27,42,22,10240,0.38,-0.08,1.60,1.28,6402,6991,5883,57,78,41,66,100,0
6424,7023,5894,26,38,18,10240,0.38,-0.08,1.60,1.28,6402,6992,5883,57,78,41,66,100,0
6412,7007,5889,21,31,13,10240,0.38,-0.08,1.60,1.28,6403,6992,5883,57,78,41,66,100,0
6406,6997,5884,15,22,8,10240,0.38,-0.08,1.60,1.28,6403,6993,5883,57,78,41,66,100,0
6396,6984,5877,6,10,3,10240,0.38,-0.08,1.60,1.28,6403,6992,5883,57,78,41,66,100,0
6392,6978,5875,-1,0,-1,10240,0.38,-0.08,1.60,1.28,6402,6992,5883,57,78,41,66,100,0
6388,6973,5872,-7,-9,-5,10240,0.38,-0.08,1.60,1.28,6402,6991,5882,57,78,41,66,100,0
6386,6972,5870,-11,-14,-9,10240,0.38,-0.08,1.60,1.28,6401,6991,5882,57,78,41,66,100,0
6385,6968,5868,-13,-18,-11,10240,0.38,-0.08,1.60,1.28,6401,6990,5882,57,78,41,66,100,0
6382,6966,5869,-15,-20,-12,10240,0.38,-0.08,1.60,1.28,6400,6989,5881,57,78,41,66,100,0
6382,6966,5867,-16,-21,-13,10240,0.38,-0.08,1.60,1.28,6400,6988,5881,57,78,41,66,100,0
6382,6968,5868,-17,-21,-13,10240,0.38,-0.08,1.60,1.28,6399,6988,5880,57,78,41,66,100,0
6384,6969,5870,-16,-20,-12,10240,0.38,-0.08,1.60,1.28,6398,6987,5880,57,78,41,66,100,0
6385,6971,5871,-15,-18,-11,10240,0.38,-0.08,1.60,1.28,6398,6986,5880,57,78,41,66,100,0
6392,6981,5875,-12,-14,-8,10240,0.38,-0.08,1.60,1.28,6398,6986,5879,57,78,41,66,100,0
6395,6984,5876,-9,-10,-6,10240,0.38,-0.08,1.60,1.28,6398,6986,5879,57,78,41,66,100,0
6397,6988,5879,-5,-5,-4,10240,0.38,-0.08,1.60,1.28,6398,6986,5879,57,78,41,66,100,0
6401,6993,5881,-1,0,-1,10240,0.38,-0.08,1.60,1.28,6398,6986,5879,57,78,41,66,100,0
6405,6999,5883,1,4,0,10240,0.38,-0.08,1.60,1.28,6398,6987,5880,57,78,41,66,100,0
6412,7005,5889,5,9,3,10240,0.38,-0.08,1.60,1.28,6398,6987,5880,57,78,41,66,100,0
6417,7010,5890,10,14,6,10240,0.38,-0.08,1.60,1.28,6399,6988,5880,57,78,41,66,100,0
6422,7018,5892,15,20,8,10240,0.38,-0.08,1.60,1.28,6400,6989,5881,57,78,41,66,100,0
6428,7027,5895,20,26,11,10240,0.38,-0.08,1.60,1.28,6401,6991,5881,57,78,41,66,100,0
6430,7030,5897,23,31,12,10240,0.38,-0.08,1.60,1.28,6402,6992,5882,57,78,41,66,100,0
6429,7030,5901,25,35,14,10240,0.38,-0.08,1.60,1.28,6403,6993,5882,57,78,41,66,100,0
6429,7030,5902,26,36,16,10240,0.38,-0.08,1.60,1.28,6404,6994,5883,57,78,41,66,100,0
6428,7030,5905,25,36,18,10240,0.38,-0.08,1.60,1.28,6404,6996,5884,54,78,41,66,100,0
6427,7031,5906,24,35,20,10240,0.38,-0.08,1.60,1.28,6405,6997,5884,54,72,41,66,100,0
6426,7032,5911,22,34,22,10240,0.38,-0.08,1.60,1.28,6406,6998,5885,54,72,41,66,100,0
6424,7033,5909,21,34,23,10240,0.38,-0.08,1.60,1.28,6406,6999,5886,54,72,41,66,100,0
6426,7032,5906,19,33,22,10240,0.38,-0.08,1.60,1.28,6407,7000,5887,54,72,40,65,100,0
6428,7031,5902,19,32,20,10240,0.38,-0.08,1.51,1.24,6408,7001,5887,54,72,40,65,100,0
6429,7030,5899,19,31,17,10240,0.38,-0.08,1.51,1.24,6408,7002,5888,54,72,40,65,100,0
6430,7030,5896,20,29,13,10240,0.38,-0.08,1.51,1.24,6409,7003,5888,54,72,40,65,100,0
6424,7019,5891,19,25,9,10240,0.38,-0.08,1.51,1.24,6410,7004,5888,54,72,40,65,100,0
6416,7011,5889,15,19,5,10240,0.38,-0.08,1.51,1.24,6410,7004,5888,54,72,40,65,100,0
6413,7007,5888,11,13,3,10240,0.38,-0.08,1.51,1.24,6410,7004,5888,54,72,40,65,100,0
6412,7006,5887,6,6,0,10240,0.38,-0.08,1.51,1.24,6410,7004,5888,54,72,40,65,100,0
6410,7005,5887,2,3,0,10240,0.38,-0.08,1.51,1.24,6410,7004,5888,54,72,40,65,100,0
6412,7005,5886,1,1,-1,10240,0.38,-0.08,1.51,1.24,6410,7004,5888,54,72,40,65,100,0
6411,7004,5885,1,1,-1,10240,0.38,-0.08,1.51,1.24,6410,7004,5888,54,72,40,65,100,0
6411,7005,5885,1,0,-2,10240,0.38,-0.08,1.51,1.24,6410,7004,5888,54,72,40,65,100,0
6414,7007,5887,2,1,-2,10240,0.38,-0.08,1.51,1.24,6410,7004,5888,54,72,40,65,100,0
6416,7010,5887,2,2,-2,10240,0.38,-0.08,1.51,1.24,6411,7004,5888,54,72,40,65,100,0
6425,7021,5891,6,6,0,10240,0.38,-0.08,1.51,1.24,6411,7005,5888,54,72,40,65,100,0
6428,7025,5892,9,11,1,10240,0.38,-0.08,1.51,1.24,6412,7006,5888,54,72,40,65,100,0
6429,7028,5892,13,15,2,10240,0.38,-0.08,1.51,1.24,6412,7006,5888,54,72,40,65,100,0
6431,7029,5893,16,19,4,10240,0.38,-0.08,1.51,1.24,6413,7007,5888,54,72,40,65,100,0
6430,7029,5895,17,21,5,10240,0.38,-0.08,1.51,1.24,6413,7008,5888,54,72,40,65,100,0
6429,7030,5899,16,21,6,10240,0.38,-0.08,1.51,1.24,6414,7009,5889,54,72,40,65,100,0
6429,7030,5901,16,21,8,10240,0.38,-0.08,1.51,1.24,6414,7009,5889,54,72,40,65,100,0
6429,7030,5903,15,20,10,10240,0.38,-0.08,1.51,1.24,6415,7010,5890,54,60,40,65,100,0
6428,7030,5904,14,20,12,10240,0.38,-0.08,1.51,1.24,6415,7011,5890,54,60,40,65,100,0
6428,7031,5906,13,20,13,10240,0.38,-0.08,1.51,1.24,6416,7011,5891,54,60,40,65,100,0
6426,7032,5913,12,19,16,10240,0.38,-0.08,1.51,1.24,6416,7012,5891,54,60,40,65,100,0
6425,7033,5914,11,19,18,10240,0.38,-0.08,1.51,1.24,6416,7013,5892,54,60,40,65,100,0
6429,7037,5917,10,20,20,10240,0.38,-0.08,1.51,1.24,6417,7014,5893,54,60,40,65,100,0
6436,7045,5920,12,23,23,10240,0.38,-0.08,1.51,1.24,6417,7015,5894,54,60,40,66,100,0
6443,7055,5923,16,28,25,10240,0.38,-0.08,1.51,1.24,6418,7016,5895,54,60,40,66,100,0
6451,7065,5927,22,34,27,10240,0.38,-0.08,1.51,1.24,6419,7018,5896,54,60,40,66,100,0
6451,7063,5925,26,40,28,10240,0.38,-0.08,1.51,1.24,6420,7019,5897,54,60,40,66,100,0
6436,7047,5918,25,39,26,10240,0.38,-0.08,1.51,1.24,6421,7020,5898,54,50,37,66,100,0
6427,7034,5912,21,33,23,10240,0.38,-0.08,1.14,1.34,6421,7020,5898,54,50,37,66,100,0
6425,7033,5908,14,24,18,10240,0.38,-0.08,1.14,1.34,6421,7021,5898,54,50,37,66,100,0
6430,7030,5901,8,15,11,10240,0.38,-0.08,1.14,1.34,6422,7021,5898,54,50,37,66,100,0
6431,7029,5895,6,10,6,10240,0.38,-0.08,1.14,1.34,6422,7021,5898,54,50,37,66,100,0
6432,7029,5893,7,9,1,10240,0.38,-0.08,1.14,1.34,6422,7022,5898,54,50,37,66,100,0
6431,7028,5892,8,7,-2,10240,0.38,-0.08,1.14,1.34,6423,7022,5898,54,50,37,66,100,0
6430,7027,5891,8,6,-5,10240,0.38,-0.08,1.14,1.34,6423,7022,5898,54,50,37,66,100,0
6429,7023,5890,7,4,-6,10240,0.38,-0.08,1.14,1.34,6423,7022,5897,54,50,37,66,100,0
6425,7019,5887,5,2,-7,10240,0.38,-0.08,1.14,1.34,6423,7022,5897,54,50,37,66,100,0
6422,7014,5885,3,-1,-9,10240,0.38,-0.08,1.14,1.34,6423,7022,5897,54,50,37,66,100,0
6422,7014,5887,1,-4,-9,10240,0.38,-0.08,1.14,1.34,6423,7021,5896,54,50,37,66,100,0
6423,7016,5886,0,-5,-10,10240,0.38,-0.08,1.14,1.34,6423,7021,5896,54,50,37,66,100,0
6429,7022,5886,1,-4,-10,10240,0.38,-0.08,1.14,1.34,6423,7021,5896,54,50,37,66,100,0
6432,7025,5888,3,-1,-9,10240,0.38,-0.08,1.14,1.34,6424,7021,5895,54,50,37,66,100,0
6432,7026,5888,5,1,-8,10240,0.38,-0.08,1.14,1.34,6424,7022,5895,54,50,37,66,100,0
6432,7028,5890,7,3,-7,10240,0.38,-0.08,1.14,1.34,6424,7022,5895,54,50,37,66,100,0
6432,7027,5891,8,4,-5,10240,0.38,-0.08,1.14,1.34,6424,7022,5895,54,50,37,66,100,0
6432,7028,5893,7,5,-4,10240,0.38,-0.08,1.14,1.34,6425,7022,5895,54,50,37,66,100,0
6433,7028,5895,7,5,-2,10240,0.38,-0.08,1.14,1.34,6425,7022,5895,54,50,37,66,100,0
6433,7028,5895,7,5,-1,10240,0.38,-0.08,1.14,1.34,6425,7023,5895,54,50,37,66,100,0
6432,7029,5898,7,5,0,10240,0.38,-0.08,1.14,1.34,6425,7023,5895,54,50,37,66,100,0
6432,7029,5899,7,5,1,10240,0.38,-0.08,1.14,1.34,6426,7023,5895,54,50,37,66,100,0
6431,7029,5902,6,5,3,10240,0.38,-0.08,1.14,1.34,6426,7023,5895,54,50,37,66,100,0
6428,7031,5906,5,6,6,10240,0.38,-0.08,1.14,1.34,6426,7023,5896,54,50,37,66,100,0
6428,7031,5908,3,6,8,10240,0.38,-0.08,1.14,1.34,6426,7024,5896,54,50,37,66,100,0
6429,7031,5910,3,7,10,10240,0.38,-0.08,1.14,1.34,6426,7024,5897,54,50,37,66,100,0
6429,7034,5913,2,8,12,10240,0.38,-0.08,1.14,1.34,6426,7024,5897,54,50,37,66,100,0
6436,7039,5915,4,9,14,10240,0.38,-0.08,1.14,1.34,6426,7025,5898,54,50,37,66,100,0
6451,7056,5921,10,15,17,10240,0.38,-0.08,1.14,1.34,6427,7026,5898,54,50,37,66,100,0
6451,7059,5921,15,21,19,10240,0.38,-0.08,1.14,1.34,6428,7027,5899,54,50,37,66,100,0
6444,7052,5919,18,25,20,10240,0.38,-0.08,1.14,1.34,6429,7028,5900,54,50,37,66,100,0
6428,7035,5911,15,23,18,10240,0.38,-0.08,1.14,1.34,6429,7028,5900,54,45,35,66,100,0
6426,7032,5905,8,16,14,10240,0.38,-0.08,1.08,1.42,6428,7028,5900,54,45,35,65,100,0
6432,7028,5897,3,8,8,10240,0.38,-0.08,1.08,1.42,6429,7028,5900,54,45,35,65,100,0
6433,7028,5893,1,2,1,10240,0.38,-0.08,1.08,1.42,6429,7028,5900,54,45,35,65,100,0
6433,7026,5889,2,0,-4,10240,0.38,-0.08,1.08,1.42,6429,7028,5900,54,45,35,65,100,0
6427,7017,5885,2,-3,-8,10240,0.38,-0.08,1.08,1.42,6429,7028,5899,54,45,35,65,100,0
6420,7008,5882,0,-8,-12,10240,0.38,-0.08,1.08,1.42,6428,7027,5899,54,45,35,65,100,0
6411,6997,5877,-5,-15,-15,10240,0.38,-0.08,1.08,1.42,6428,7026,5898,54,45,35,65,100,0
6408,6991,5875,-11,-23,-18,10240,0.38,-0.08,1.08,1.42,6427,7025,5897,54,45,35,65,100,0
6403,6987,5872,-16,-29,-21,10240,0.38,-0.08,1.08,1.42,6426,7024,5896,54,45,35,65,100,0
6400,6985,5870,-21,-34,-23,10240,0.38,-0.08,1.08,1.42,6426,7022,5895,54,45,35,65,100,0
6401,6985,5870,-23,-36,-24,10240,0.38,-0.08,1.08,1.42,6425,7021,5895,54,45,35,65,100,0
6401,6985,5871,-24,-36,-24,10240,0.38,-0.08,1.08,1.42,6424,7020,5894,54,45,35,65,100,0
6402,6988,5873,-23,-34,-23,10240,0.38,-0.08,1.08,1.42,6423,7019,5893,54,45,35,65,100,0
6404,6991,5873,-21,-32,-21,10240,0.38,-0.08,1.08,1.42,6423,7018,5892,54,45,35,65,100,0
6406,6994,5876,-19,-29,-19,10240,0.38,-0.08,1.08,1.42,6422,7017,5892,54,45,35,65,100,0
6409,6997,5876,-17,-25,-17,10240,0.38,-0.08,1.08,1.42,6422,7016,5891,54,45,35,65,100,0
6415,7005,5882,-13,-20,-14,10240,0.38,-0.08,1.08,1.42,6421,7016,5891,54,45,35,65,100,0
6418,7009,5884,-9,-15,-11,10240,0.38,-0.08,1.08,1.42,6421,7016,5891,54,45,35,65,100,0
6421,7010,5884,-5,-10,-9,10240,0.38,-0.08,1.08,1.42,6421,7016,5891,54,45,35,65,100,0
6429,7020,5886,0,-5,-6,10240,0.38,-0.08,1.08,1.42,6422,7016,5890,54,45,35,65,100,0
6432,7024,5888,3,0,-5,10240,0.38,-0.08,1.08,1.42,6422,7016,5890,54,45,35,65,100,0
6435,7027,5889,7,4,-3,10240,0.38,-0.08,1.08,1.42,6422,7016,5890,54,45,35,65,100,0
6436,7027,5892,10,8,-1,10240,0.38,-0.08,1.08,1.42,6423,7017,5890,54,45,35,65,100,0
6434,7027,5892,11,9,0,10240,0.38,-0.08,1.08,1.42,6423,7017,5891,54,45,35,65,100,0
6433,7028,5894,11,10,1,10240,0.38,-0.08,1.08,1.42,6423,7017,5891,54,45,35,65,100,0
6432,7028,5896,10,10,2,10240,0.38,-0.08,1.08,1.42,6424,7018,5891,49,45,35,65,100,0
6431,7029,5898,9,10,4,10240,0.38,-0.08,1.08,1.42,6424,7018,5891,49,45,35,65,100,0
6430,7029,5902,7,10,6,10240,0.38,-0.08,1.08,1.42,6424,7019,5891,49,45,35,65,100,0
6429,7031,5905,6,10,9,10240,0.38,-0.08,1.08,1.42,6424,7019,5892,49,45,35,65,100,0
6429,7031,5904,5,11,10,10240,0.38,-0.08,1.08,1.42,6425,7019,5892,49,45,35,65,100,0
6428,7030,5900,4,11,10,10240,0.38,-0.08,1.08,1.42,6425,7020,5893,49,45,35,65,100,0
6431,7029,5897,4,10,9,10240,0.38,-0.08,1.08,1.42,6425,7020,5893,49,45,35,65,100,0
6433,7027,5891,5,9,5,10240,0.38,-0.08,1.08,1.28,6425,7020,5893,49,45,35,65,100,0
6431,7022,5884,5,7,0,10240,0.38,-0.08,1.08,1.28,6425,7020,5892,49,45,35,65,100,0
6419,7008,5883,3,1,-3,10240,0.38,-0.08,1.08,1.28,6425,7020,5892,49,45,35,64,100,0
6411,6999,5877,-1,-5,-8,10240,0.38,-0.08,1.08,1.28,6425,7019,5891,49,45,35,64,100,0
6410,6993,5875,-7,-13,-11,10240,0.38,-0.08,1.08,1.28,6424,7018,5891,49,45,35,64,100,0
6406,6986,5871,-13,-22,-14,10240,0.38,-0.08,1.08,1.28,6424,7017,5890,49,45,35,64,100,0
6403,6984,5870,-16,-27,-17,10240,0.38,-0.08,1.08,1.28,6423,7016,5890,49,45,35,64,100,0
6399,6979,5867,-18,-31,-19,10240,0.38,-0.08,1.08,1.28,6422,7015,5889,49,45,35,64,100,0
6399,6977,5866,-20,-34,-20,10240,0.38,-0.08,1.08,1.28,6421,7014,5888,49,45,35,64,100,0
6399,6979,5868,-21,-34,-20,10240,0.38,-0.08,1.08,1.28,6421,7012,5887,49,45,35,64,100,0
6402,6981,5869,-21,-34,-20,10240,0.38,-0.08,1.08,1.28,6420,7011,5887,49,45,35,64,100,0
6401,6982,5869,-20,-32,-19,10240,0.38,-0.08,1.08,1.28,6419,7010,5886,49,45,35,64,100,0
6403,6985,5871,-18,-29,-17,10240,0.38,-0.08,1.08,1.28,6419,7010,5886,49,45,35,64,100,0
6406,6988,5872,-16,-26,-15,10240,0.38,-0.08,1.08,1.28,6418,7009,5885,49,45,35,64,100,0
6411,6992,5875,-13,-22,-13,10240,0.38,-0.08,1.08,1.28,6418,7008,5885,49,45,35,64,100,0
6419,7004,5880,-8,-16,-10,10240,0.38,-0.08,1.08,1.28,6418,7008,5885,49,45,35,64,100,0
6424,7009,5882,-3,-10,-7,10240,0.38,-0.08,1.08,1.28,6418,7008,5885,49,45,35,64,100,0
6427,7013,5884,2,-3,-4,10240,0.38,-0.08,1.08,1.28,6419,7008,5885,49,45,35,64,100,0
6437,7022,5886,8,3,-2,10240,0.38,-0.08,1.08,1.28,6419,7009,5885,49,45,35,64,100,0
6440,7024,5887,13,8,0,10240,0.38,-0.08,1.08,1.28,6420,7009,5885,49,45,35,64,100,0
6440,7025,5891,16,12,2,10240,0.38,-0.08,1.08,1.28,6421,7010,5885,49,45,35,64,100,0
6439,7025,5891,18,14,3,10240,0.38,-0.08,1.08,1.28,6421,7010,5885,49,45,35,64,100,0
6438,7025,5893,18,14,5,10240,0.38,-0.08,1.08,1.28,6422,7011,5885,49,45,35,64,100,0
6438,7026,5895,17,14,7,10240,0.38,-0.08,1.08,1.28,6422,7011,5886,46,45,35,64,100,0
6438,7026,5897,16,14,8,10240,0.38,-0.08,1.08,1.28,6423,7012,5886,46,45,35,64,100,0
6435,7027,5902,14,14,10,10240,0.38,-0.08,1.08,1.28,6423,7012,5887,46,45,35,64,100,0
6433,7028,5904,13,14,13,10240,0.38,-0.08,1.08,1.28,6424,7013,5887,46,45,35,64,100,0
6433,7028,5905,11,14,15,10240,0.38,-0.08,1.08,1.28,6424,7013,5888,46,45,35,64,100,0
6433,7028,5904,9,14,16,10240,0.38,-0.08,1.08,1.28,6424,7014,5888,46,45,35,64,100,0
6435,7027,5898,9,14,14,10240,0.38,-0.08,1.08,1.28,6424,7014,5889,46,45,35,65,100,0
6440,7025,5891,11,13,11,10240,0.38,-0.08,1.08,1.20,6425,7015,5889,46,46,35,65,100,0
6441,7024,5888,12,11,6,10240,0.38,-0.08,1.08,1.20,6426,7015,5889,46,46,35,65,100,0
6438,7019,5884,13,9,1,10240,0.38,-0.08,1.08,1.20,6426,7015,5889,46,46,35,65,100,0
6427,7007,5878,10,3,-3,10240,0.38,-0.08,1.08,1.20,6426,7015,5888,46,46,35,65,100,0
6416,6992,5873,4,-4,-7,10240,0.38,-0.08,1.08,1.20,6426,7014,5888,46,46,35,65,100,0
6410,6982,5866,-3,-14,-12,10240,0.38,-0.08,1.08,1.20,6425,7013,5887,46,46,35,65,100,0
6407,6976,5864,-10,-24,-17,10240,0.38,-0.08,1.08,1.20,6425,7012,5886,46,46,35,65,100,0
6404,6974,5861,-15,-31,-20,10240,0.38,-0.08,1.08,1.20,6424,7011,5885,46,46,35,65,100,0
6402,6970,5860,-18,-35,-22,10240,0.38,-0.08,1.08,1.20,6423,7009,5884,46,46,35,65,100,0
6401,6967,5859,-20,-38,-23,10240,0.38,-0.08,1.08,1.20,6422,7008,5884,46,46,35,65,100,0
6403,6968,5860,-20,-38,-24,10240,0.38,-0.08,1.08,1.20,6422,7006,5883,46,46,35,65,100,0
6403,6969,5859,-19,-38,-23,10240,0.38,-0.08,1.08,1.20,6421,7005,5882,46,46,35,65,100,0
6405,6973,5862,-18,-36,-22,10240,0.38,-0.08,1.08,1.20,6421,7004,5881,46,46,35,65,100,0
6408,6978,5866,-16,-32,-20,10240,0.38,-0.08,1.08,1.20,6420,7003,5881,46,46,35,65,100,0
6411,6982,5867,-13,-28,-17,10240,0.38,-0.08,1.08,1.20,6420,7003,5880,46,46,35,65,100,0
6419,6992,5872,-9,-21,-13,10240,0.38,-0.08,1.08,1.20,6420,7002,5880,46,46,35,65,100,0
6424,6996,5874,-4,-15,-10,10240,0.38,-0.08,1.08,1.20,6420,7002,5880,46,46,35,65,100,0
6427,7000,5875,0,-9,-8,10240,0.38,-0.08,1.08,1.20,6420,7002,5880,46,46,35,65,100,0
6432,7009,5879,5,-2,-5,10240,0.38,-0.08,1.08,1.20,6421,7002,5880,46,46,35,65,100,0
6439,7014,5881,10,2,-2,10240,0.38,-0.08,1.08,1.20,6421,7003,5880,46,46,35,65,100,0
6446,7021,5884,15,8,0,10240,0.38,-0.08,1.08,1.20,6422,7003,5880,46,46,35,65,100,0
6444,7022,5886,18,13,2,10240,0.38,-0.08,1.08,1.20,6423,7004,5880,46,46,35,65,100,0
6444,7022,5887,21,16,4,10240,0.38,-0.08,1.08,1.20,6423,7004,5880,46,46,35,65,100,0
6443,7023,5888,21,18,6,10240,0.38,-0.08,1.08,1.20,6424,7005,5881,46,46,35,65,100,0
6443,7023,5891,19,17,7,10240,0.38,-0.08,1.08,1.20,6425,7006,5881,45,49,35,65,100,0
6442,7024,5895,18,17,9,10240,0.38,-0.08,1.08,1.20,6425,7006,5881,45,49,35,65,100,0
6440,7025,5897,17,17,11,10240,0.38,-0.08,1.08,1.20,6426,7007,5882,45,49,35,65,100,0
6439,7025,5900,15,17,14,10240,0.38,-0.08,1.08,1.20,6426,7008,5883,45,49,35,65,100,0
6438,7026,5901,13,17,16,10240,0.38,-0.08,1.08,1.20,6427,7008,5883,45,49,35,65,100,0
6439,7026,5900,12,17,16,10240,0.38,-0.08,1.08,1.20,6427,7009,5884,45,49,35,65,100,0
6441,7024,5889,12,16,14,10240,0.38,-0.08,1.08,1.20,6427,7009,5884,45,49,37,65,100,0
6445,7022,5885,13,15,10,10240,0.29,-0.09,1.11,1.11,6428,7010,5884,45,49,37,65,100,0
6444,7020,5882,14,13,5,10240,0.29,-0.09,1.11,1.11,6429,7010,5884,45,49,37,65,100,0
6432,7003,5874,12,7,-1,10240,0.29,-0.09,1.11,1.11,6429,7010,5884,45,49,37,65,100,0
6413,6979,5863,5,-3,-7,10240,0.29,-0.09,1.11,1.11,6428,7009,5883,45,49,37,65,100,0
6395,6948,5849,-7,-21,-16,10240,0.29,-0.09,1.11,1.11,6427,7007,5882,45,49,37,65,100,0
6390,6942,5847,-20,-39,-24,10240,0.29,-0.09,1.11,1.11,6426,7005,5881,45,49,37,65,100,0
6384,6937,5843,-30,-54,-30,10240,0.29,-0.09,1.11,1.11,6424,7002,5879,45,49,37,65,100,0
6380,6933,5841,-37,-63,-35,10240,0.29,-0.09,1.11,1.11,6423,7000,5878,45,49,37,65,100,0
6379,6929,5839,-40,-66,-36,10240,0.29,-0.09,1.11,1.11,6422,6998,5877,45,49,37,65,100,0
6375,6923,5836,-42,-68,-37,10240,0.29,-0.09,1.11,1.11,6420,6995,5875,45,49,37,65,100,0
6375,6924,5836,-43,-69,-38,10240,0.29,-0.09,1.11,1.11,6418,6993,5874,45,49,37,65,100,0
6375,6926,5837,-43,-68,-37,10240,0.29,-0.09,1.11,1.11,6417,6990,5873,45,49,37,65,100,0
6376,6928,5840,-42,-66,-36,10240,0.29,-0.09,1.11,1.11,6416,6988,5872,45,49,37,65,100,0
6380,6931,5840,-39,-62,-34,10240,0.29,-0.09,1.11,1.11,6414,6987,5871,45,49,37,65,100,0
6385,6940,5845,-36,-56,-31,10240,0.29,-0.09,1.11,1.11,6413,6985,5870,45,49,37,65,100,0
6391,6945,5847,-31,-50,-27,10240,0.29,-0.09,1.11,1.11,6413,6984,5869,45,49,37,65,100,0
6395,6950,5850,-25,-43,-24,10240,0.29,-0.09,1.11,1.11,6412,6982,5868,45,49,37,65,100,0
6399,6954,5851,-20,-36,-20,10240,0.29,-0.09,1.11,1.11,6412,6982,5868,45,49,37,65,100,0
6400,6958,5853,-15,-30,-17,10240,0.29,-0.09,1.11,1.11,6411,6981,5867,45,49,37,65,100,0
6407,6968,5858,-11,-23,-14,10240,0.29,-0.09,1.11,1.11,6411,6980,5867,45,49,37,65,100,0
6411,6975,5862,-7,-17,-11,10240,0.29,-0.09,1.11,1.11,6411,6980,5867,45,49,37,65,100,0
6416,6981,5866,-2,-9,-7,10240,0.29,-0.09,1.11,1.11,6411,6980,5867,45,49,37,65,100,0
6418,6987,5868,1,-2,-3,10240,0.29,-0.09,1.11,1.11,6412,6980,5867,45,49,37,65,100,0
6424,6994,5871,5,4,0,10240,0.29,-0.09,1.11,1.11,6412,6981,5867,45,49,37,65,100,0
6435,7010,5880,11,12,4,10240,0.29,-0.09,1.11,1.11,6413,6982,5867,45,49,37,65,100,0
6442,7013,5881,17,19,7,10240,0.29,-0.09,1.11,1.11,6414,6983,5868,45,49,37,65,100,0
6445,7020,5883,23,26,11,10240,0.29,-0.09,1.11,1.11,6415,6984,5868,45,49,37,65,100,0
6445,7022,5883,27,32,13,10240,0.29,-0.09,1.11,1.11,6416,6985,5869,45,49,37,65,100,0
6445,7022,5885,28,34,14,10240,0.29,-0.09,1.11,1.11,6417,6987,5869,45,49,37,65,100,0
6443,7023,5888,28,35,15,10240,0.29,-0.09,1.11,1.11,6418,6988,5870,45,49,37,65,100,0
6443,7022,5884,26,35,15,10240,0.29,-0.09,1.11,1.11,6418,6989,5870,52,49,37,65,100,0
6438,7016,5882,24,32,14,10240,0.29,-0.09,1.11,1.11,6419,6990,5871,52,62,41,65,100,0
6423,6998,5873,18,25,11,10240,0.29,-0.09,1.27,1.16,6419,6990,5871,52,62,41,65,100,0
6410,6981,5866,9,14,5,10240,0.29,-0.09,1.27,1.16,6419,6990,5871,52,62,41,65,100,0
6388,6950,5850,-4,-3,-3,10240,0.29,-0.09,1.27,1.16,6418,6988,5870,52,62,41,65,100,0
6376,6933,5843,-18,-23,-12,10240,0.29,-0.09,1.27,1.16,6416,6987,5869,52,62,41,65,100,0
6369,6922,5837,-31,-40,-20,10240,0.29,-0.09,1.27,1.16,6415,6984,5868,52,62,41,65,100,0
6368,6920,5834,-40,-54,-27,10240,0.29,-0.09,1.27,1.16,6413,6982,5867,52,62,41,65,100,0
6364,6916,5831,-44,-60,-31,10240,0.29,-0.09,1.27,1.16,6412,6980,5866,52,62,41,65,100,0
6359,6910,5828,-47,-64,-34,10240,0.29,-0.09,1.27,1.16,6410,6978,5865,52,62,41,65,100,0
6359,6908,5827,-48,-65,-35,10240,0.29,-0.09,1.27,1.16,6408,6975,5863,52,62,41,65,100,0
6356,6904,5826,-49,-67,-36,10240,0.29,-0.09,1.27,1.16,6407,6973,5862,52,62,41,65,100,0
6357,6904,5826,-49,-67,-36,10240,0.29,-0.09,1.27,1.16,6405,6971,5861,52,62,41,65,100,0
6356,6906,5827,-48,-66,-35,10240,0.29,-0.09,1.27,1.16,6403,6969,5860,52,62,41,65,100,0
6360,6910,5829,-47,-64,-33,10240,0.29,-0.09,1.27,1.16,6402,6967,5859,52,62,41,65,100,0
6362,6914,5831,-43,-59,-31,10240,0.29,-0.09,1.27,1.16,6400,6965,5858,52,62,41,65,100,0
6362,6915,5832,-41,-54,-28,10240,0.29,-0.09,1.27,1.16,6399,6963,5857,52,62,41,65,100,0
6365,6919,5831,-37,-49,-26,10240,0.29,-0.09,1.27,1.16,6398,6962,5856,52,62,41,65,100,0
6367,6921,5834,-34,-45,-24,10240,0.29,-0.09,1.27,1.16,6397,6960,5855,52,62,41,65,100,0
6372,6928,5840,-31,-40,-21,10240,0.29,-0.09,1.27,1.16,6396,6959,5855,52,62,41,65,100,0
6374,6933,5842,-27,-34,-18,10240,0.29,-0.09,1.27,1.16,6395,6958,5854,52,62,41,65,100,0
6377,6937,5844,-23,-29,-14,10240,0.29,-0.09,1.27,1.16,6395,6958,5854,52,62,41,65,100,0
6381,6943,5846,-19,-22,-11,10240,0.29,-0.09,1.27,1.16,6394,6957,5854,52,62,41,65,100,0
6388,6948,5851,-14,-17,-8,10240,0.29,-0.09,1.27,1.16,6394,6957,5854,52,62,41,65,100,0
6395,6957,5855,-9,-11,-5,10240,0.29,-0.09,1.27,1.16,6394,6957,5854,52,62,41,65,100,0
6399,6964,5859,-3,-4,-1,10240,0.29,-0.09,1.27,1.16,6394,6957,5854,52,62,41,65,100,0
6403,6971,5860,2,2,2,10240,0.29,-0.09,1.27,1.16,6395,6958,5854,52,62,41,65,100,0
6408,6977,5864,6,9,5,10240,0.29,-0.09,1.27,1.16,6395,6958,5854,52,62,41,65,100,0
6414,6982,5869,11,15,8,10240,0.29,-0.09,1.27,1.16,6396,6959,5855,52,62,41,65,100,0
6423,6997,5874,16,23,12,10240,0.29,-0.09,1.27,1.16,6397,6960,5855,52,62,41,65,100,0
6423,6998,5873,20,28,15,10240,0.29,-0.09,1.27,1.16,6398,6962,5856,52,62,41,65,100,0
6413,6983,5867,21,29,15,10240,0.29,-0.09,1.27,1.16,6398,6962,5856,52,62,41,65,100,0
6405,6972,5862,18,25,13,10240,0.29,-0.09,1.27,1.16,6398,6963,5857,56,71,43,65,100,0
6394,6958,5854,10,15,7,10240,0.29,-0.09,1.39,1.19,6398,6963,5857,56,71,43,65,100,0
6378,6938,5844,0,0,0,10240,0.29,-0.09,1.39,1.19,6397,6962,5856,56,71,43,65,100,0
6371,6925,5838,-10,-13,-7,10240,0.29,-0.09,1.39,1.19,6397,6960,5856,56,71,43,64,100,0
6368,6920,5834,-19,-25,-13,10240,0.29,-0.09,1.39,1.19,6396,6959,5855,56,71,43,64,100,0
6365,6917,5832,-25,-34,-18,10240,0.29,-0.09,1.39,1.19,6395,6958,5854,56,71,43,64,100,0
6364,6916,5832,-28,-38,-20,10240,0.29,-0.09,1.39,1.19,6394,6956,5853,56,71,43,64,100,0
6363,6913,5831,-29,-40,-21,10240,0.29,-0.09,1.39,1.19,6393,6955,5853,56,71,43,64,100,0
6360,6910,5829,-30,-41,-22,10240,0.29,-0.09,1.39,1.19,6391,6953,5852,56,71,43,64,100,0
6360,6910,5829,-30,-41,-22,10240,0.29,-0.09,1.39,1.19,6390,6952,5851,56,71,43,64,100,0
6359,6910,5829,-30,-42,-22,10240,0.29,-0.09,1.39,1.19,6389,6951,5850,56,71,43,64,100,0
6361,6913,5829,-29,-40,-21,10240,0.29,-0.09,1.39,1.19,6388,6949,5850,56,71,43,64,100,0
6364,6917,5833,-27,-37,-20,10240,0.29,-0.09,1.39,1.19,6388,6948,5849,56,71,43,64,100,0
6366,6920,5834,-25,-33,-18,10240,0.29,-0.09,1.39,1.19,6387,6947,5848,56,71,43,64,100,0
6369,6922,5836,-22,-29,-15,10240,0.29,-0.09,1.39,1.19,6386,6946,5848,56,71,43,64,100,0
6370,6926,5838,-19,-25,-13,10240,0.29,-0.09,1.39,1.19,6386,6946,5848,56,71,43,64,100,0
6372,6930,5841,-16,-21,-10,10240,0.29,-0.09,1.39,1.19,6385,6945,5848,56,71,43,64,100,0
6384,6943,5848,-11,-15,-7,10240,0.29,-0.09,1.39,1.19,6385,6945,5848,56,71,43,64,100,0
6389,6950,5851,-6,-8,-3,10240,0.29,-0.09,1.39,1.19,6385,6945,5848,56,71,43,64,100,0
6392,6953,5853,-1,-1,0,10240,0.29,-0.09,1.39,1.19,6386,6946,5848,56,71,43,64,100,0
6397,6959,5855,5,5,3,10240,0.29,-0.09,1.39,1.19,6386,6946,5848,56,71,43,64,100,0
6400,6965,5858,8,10,6,10240,0.29,-0.09,1.39,1.19,6386,6947,5848,56,71,43,64,100,0
6410,6978,5866,13,17,9,10240,0.29,-0.09,1.39,1.19,6387,6948,5849,56,71,43,64,100,0
6414,6983,5869,18,23,13,10240,0.29,-0.09,1.39,1.19,6388,6949,5850,56,71,43,64,100,0
6422,6991,5873,24,30,17,10240,0.29,-0.09,1.39,1.19,6389,6950,5850,56,71,43,64,100,0
6427,7001,5877,29,38,21,10240,0.29,-0.09,1.39,1.19,6391,6952,5851,56,71,43,64,100,0
6434,7009,5881,34,44,24,10240,0.29,-0.09,1.39,1.19,6392,6954,5852,56,71,43,64,100,0
6446,7020,5885,40,52,27,10240,0.29,-0.09,1.39,1.19,6394,6956,5853,56,71,43,64,100,0
6442,7018,5884,44,57,29,10240,0.29,-0.09,1.39,1.19,6395,6958,5854,56,71,43,65,100,0
6433,7009,5880,44,57,29,10240,0.29,-0.09,1.39,1.19,6397,6960,5855,56,71,43,65,100,0
6417,6988,5871,38,50,25,10240,0.29,-0.09,1.39,1.19,6397,6961,5856,61,78,45,65,100,0
6406,6972,5862,27,36,19,10240,0.29,-0.09,1.46,1.24,6398,6961,5856,61,78,45,65,100,0
6383,6940,5846,12,16,9,10240,0.29,-0.09,1.46,1.24,6397,6960,5856,61,78,45,65,100,0
6372,6924,5837,-2,-4,-1,10240,0.29,-0.09,1.46,1.24,6396,6959,5855,61,78,45,65,100,0
6366,6913,5831,-14,-22,-11,10240,0.29,-0.09,1.46,1.24,6395,6958,5854,61,78,45,65,100,0
6358,6903,5825,-25,-38,-19,10240,0.29,-0.09,1.46,1.24,6394,6956,5853,61,78,45,65,100,0
6354,6896,5821,-32,-47,-25,10240,0.29,-0.09,1.46,1.24,6393,6954,5852,61,78,45,65,100,0
6349,6888,5818,-36,-55,-28,10240,0.29,-0.09,1.46,1.24,6391,6952,5851,61,78,45,65,100,0
6346,6884,5817,-40,-60,-31,10240,0.29,-0.09,1.46,1.24,6390,6949,5850,61,78,45,65,100,0
6345,6882,5814,-42,-63,-33,10240,0.29,-0.09,1.46,1.24,6388,6947,5849,61,78,45,65,100,0
6344,6882,5815,-43,-64,-33,10240,0.29,-0.09,1.46,1.24,6387,6945,5848,61,78,45,65,100,0
6345,6882,5814,-42,-63,-33,10240,0.29,-0.09,1.46,1.24,6385,6943,5846,61,78,45,65,100,0
6349,6886,5818,-40,-61,-32,10240,0.29,-0.09,1.46,1.24,6384,6941,5846,61,78,45,65,100,0
6352,6890,5820,-37,-57,-29,10240,0.29,-0.09,1.46,1.24,6383,6939,5845,61,78,45,65,100,0
6355,6896,5821,-33,-51,-27,10240,0.29,-0.09,1.46,1.24,6382,6938,5844,61,78,45,65,100,0
6358,6899,5823,-29,-46,-24,10240,0.29,-0.09,1.46,1.24,6381,6937,5843,61,78,45,65,100,0
6361,6903,5824,-25,-40,-21,10240,0.29,-0.09,1.46,1.24,6381,6935,5843,61,78,45,65,100,0
6370,6912,5829,-20,-33,-18,10240,0.29,-0.09,1.46,1.24,6380,6935,5842,61,78,45,65,100,0
6372,6916,5831,-15,-27,-15,10240,0.29,-0.09,1.46,1.24,6380,6934,5842,61,78,45,65,100,0
6375,6920,5835,-10,-21,-12,10240,0.29,-0.09,1.46,1.24,6380,6934,5841,61,78,45,65,100,0
6377,6924,5836,-6,-16,-8,10240,0.29,-0.09,1.46,1.24,6380,6933,5841,61,78,45,65,100,0
6380,6928,5839,-4,-11,-6,10240,0.29,-0.09,1.46,1.24,6380,6933,5841,61,78,45,65,100,0
6393,6942,5846,1,-4,-2,10240,0.29,-0.09,1.46,1.24,6380,6933,5841,61,78,45,65,100,0
6397,6950,5849,6,2,1,10240,0.29,-0.09,1.46,1.24,6381,6934,5842,61,78,45,65,100,0
6401,6954,5851,12,9,4,10240,0.29,-0.09,1.46,1.24,6381,6935,5842,61,78,45,65,100,0
6405,6960,5854,18,17,8,10240,0.29,-0.09,1.46,1.24,6382,6935,5842,61,78,45,65,100,0
6409,6966,5858,21,22,10,10240,0.29,-0.09,1.46,1.24,6383,6936,5843,61,78,45,65,100,0
6418,6979,5865,25,28,14,10240,0.29,-0.09,1.46,1.24,6384,6938,5844,61,78,45,65,100,0
6417,6982,5865,28,34,17,10240,0.29,-0.09,1.46,1.24,6385,6939,5844,61,78,45,65,100,0
6419,6981,5866,31,38,19,10240,0.29,-0.09,1.46,1.24,6387,6941,5845,61,78,45,65,100,0
6409,6969,5857,30,37,18,10240,0.29,-0.09,1.46,1.24,6387,6942,5845,64,84,47,65,100,0
6399,6952,5849,24,30,14,10240,0.29,-0.09,1.50,1.25,6388,6942,5846,64,84,47,65,100,0
6374,6919,5833,13,13,6,10240,0.29,-0.09,1.50,1.25,6387,6941,5845,64,84,47,65,100,0
6363,6902,5824,0,-5,-4,10240,0.29,-0.09,1.50,1.25,6386,6940,5844,64,84,47,65,100,0
6349,6882,5813,-15,-26,-14,10240,0.29,-0.09,1.50,1.25,6385,6938,5843,64,84,47,65,100,0
6336,6865,5803,-30,-46,-25,10240,0.29,-0.09,1.50,1.25,6384,6936,5842,64,84,47,65,100,0
6328,6850,5797,-40,-62,-33,10240,0.29,-0.09,1.50,1.25,6382,6933,5841,64,84,47,65,100,0
6321,6841,5792,-49,-74,-40,10240,0.29,-0.09,1.50,1.25,6380,6930,5839,64,84,47,65,100,0
6316,6837,5789,-55,-83,-44,10240,0.29,-0.09,1.50,1.25,6378,6927,5837,64,84,47,65,100,0
6313,6833,5786,-59,-88,-47,10240,0.29,-0.09,1.50,1.25,6375,6923,5836,64,84,47,65,100,0
6312,6833,5786,-61,-89,-48,10240,0.29,-0.09,1.50,1.25,6373,6920,5834,64,84,47,65,100,0
6311,6831,5785,-61,-88,-48,10240,0.29,-0.09,1.50,1.25,6371,6917,5832,64,84,47,65,100,0
6312,6833,5786,-60,-86,-47,10240,0.29,-0.09,1.50,1.25,6369,6915,5831,64,84,47,65,100,0
6315,6836,5789,-57,-82,-45,10240,0.29,-0.09,1.50,1.25,6367,6912,5829,64,84,47,65,100,0
6318,6840,5791,-54,-78,-42,10240,0.29,-0.09,1.50,1.25,6366,6910,5828,64,84,47,65,100,0
6321,6846,5793,-50,-72,-39,10240,0.29,-0.09,1.50,1.25,6364,6908,5827,64,84,47,65,100,0
6324,6849,5796,-45,-66,-35,10240,0.29,-0.09,1.50,1.25,6363,6906,5826,64,84,47,65,100,0
6333,6861,5801,-39,-58,-31,10240,0.29,-0.09,1.50,1.25,6362,6904,5825,64,84,47,65,100,0
6334,6863,5804,-34,-50,-27,10240,0.29,-0.09,1.50,1.25,6361,6903,5824,64,84,47,65,100,0
6339,6869,5808,-29,-43,-22,10240,0.29,-0.09,1.50,1.25,6360,6902,5824,64,84,47,65,100,0
6341,6874,5810,-24,-35,-18,10240,0.29,-0.09,1.50,1.25,6360,6901,5823,64,84,47,65,100,0
6345,6880,5813,-20,-30,-14,10240,0.29,-0.09,1.50,1.25,6359,6900,5823,64,84,47,65,100,0
6354,6889,5819,-14,-22,-10,10240,0.29,-0.09,1.50,1.25,6359,6900,5823,64,84,47,65,100,0
6358,6897,5823,-9,-15,-6,10240,0.29,-0.09,1.50,1.25,6359,6899,5823,64,84,47,65,100,0
6361,6902,5825,-4,-7,-3,10240,0.29,-0.09,1.50,1.25,6359,6900,5823,64,84,47,65,100,0
6368,6910,5830,1,0,1,10240,0.29,-0.09,1.50,1.25,6359,6900,5823,64,84,47,65,100,0
6370,6914,5832,5,6,4,10240,0.29,-0.09,1.50,1.25,6360,6900,5824,64,84,47,65,100,0
6376,6923,5838,9,12,7,10240,0.29,-0.09,1.50,1.25,6360,6901,5824,64,84,47,65,100,0
6383,6932,5842,14,19,11,10240,0.29,-0.09,1.50,1.25,6361,6902,5825,64,84,47,65,100,0
6387,6936,5846,18,24,15,10240,0.29,-0.09,1.50,1.25,6362,6903,5825,64,84,47,65,100,0
6388,6939,5847,22,30,18,10240,0.29,-0.09,1.50,1.25,6363,6904,5826,64,84,47,65,100,0
6384,6935,5845,23,31,19,10240,0.29,-0.09,1.50,1.25,6363,6906,5827,64,84,47,65,100,0
6367,6913,5838,18,26,17,10240,0.29,-0.09,1.50,1.25,6364,6906,5827,69,93,52,65,100,0
6355,6896,5823,10,15,11,10240,0.29,-0.09,1.51,1.21,6363,6905,5827,69,93,52,65,100,0
6342,6878,5814,-1,0,3,10240,0.29,-0.09,1.51,1.21,6363,6905,5826,69,93,52,65,100,0
6328,6857,5803,-14,-18,-7,10240,0.29,-0.09,1.51,1.21,6361,6903,5826,69,93,52,65,100,0
6312,6840,5793,-27,-35,-17,10240,0.29,-0.09,1.51,1.21,6360,6901,5825,69,93,52,65,100,0
6299,6818,5782,-40,-53,-27,10240,0.29,-0.09,1.51,1.21,6358,6898,5823,69,93,52,65,100,0
6296,6813,5782,-50,-67,-34,10240,0.29,-0.09,1.51,1.21,6356,6895,5822,69,93,52,65,100,0
6294,6808,5781,-56,-76,-38,10240,0.29,-0.09,1.51,1.21,6354,6892,5820,69,93,52,65,100,0
6293,6808,5780,-59,-82,-39,10240,0.29,-0.09,1.51,1.21,6352,6890,5819,69,93,52,65,100,0
6292,6807,5780,-59,-82,-39,10240,0.29,-0.09,1.51,1.21,6350,6887,5818,69,93,52,65,100,0
6291,6806,5781,-58,-81,-38,10240,0.29,-0.09,1.51,1.21,6348,6884,5817,69,93,52,65,100,0
6292,6808,5781,-57,-78,-36,10240,0.29,-0.09,1.51,1.21,6346,6882,5815,69,93,52,65,100,0
6293,6810,5781,-55,-75,-35,10240,0.29,-0.09,1.51,1.21,6344,6879,5814,69,93,52,65,100,0
6295,6814,5782,-52,-71,-33,10240,0.29,-0.09,1.51,1.21,6342,6877,5813,69,93,52,65,100,0
6297,6820,5783,-49,-65,-31,10240,0.29,-0.09,1.51,1.21,6341,6875,5812,69,93,52,65,100,0
6304,6830,5789,-44,-57,-28,10240,0.29,-0.09,1.51,1.21,6340,6874,5811,69,93,52,65,100,0
6305,6832,5790,-40,-50,-25,10240,0.29,-0.09,1.51,1.21,6338,6872,5811,69,93,52,65,100,0
6310,6837,5794,-35,-43,-22,10240,0.29,-0.09,1.51,1.21,6338,6871,5810,69,93,52,65,100,0
6314,6845,5798,-30,-35,-17,10240,0.29,-0.09,1.51,1.21,6337,6870,5810,69,93,52,65,100,0
6318,6850,5800,-25,-29,-14,10240,0.29,-0.09,1.51,1.21,6336,6869,5809,69,93,52,65,100,0
6330,6864,5808,-18,-20,-9,10240,0.29,-0.09,1.51,1.21,6336,6869,5809,69,93,52,65,100,0
6333,6869,5811,-12,-12,-5,10240,0.29,-0.09,1.51,1.21,6336,6869,5809,69,93,52,65,100,0
6338,6876,5815,-6,-4,0,10240,0.29,-0.09,1.51,1.21,6336,6870,5810,69,93,52,65,100,0
6343,6884,5820,0,3,4,10240,0.29,-0.09,1.51,1.21,6336,6870,5810,69,93,52,65,100,0
6348,6891,5823,4,10,7,10240,0.29,-0.09,1.51,1.21,6336,6871,5810,69,93,52,65,100,0
6359,6906,5830,10,18,11,10240,0.29,-0.09,1.51,1.21,6337,6872,5811,69,93,52,65,100,0
6364,6911,5834,16,26,16,10240,0.29,-0.09,1.51,1.21,6338,6873,5812,69,93,52,65,100,0
6367,6917,5837,22,33,19,10240,0.29,-0.09,1.51,1.21,6339,6875,5813,69,93,52,65,100,0
6369,6920,5838,26,39,22,10240,0.29,-0.09,1.51,1.21,6340,6876,5813,69,93,52,65,100,0
6371,6920,5839,28,41,24,10240,0.29,-0.09,1.51,1.21,6341,6878,5814,69,93,52,65,100,0
6356,6901,5829,25,37,22,10240,0.29,-0.09,1.51,1.21,6342,6878,5815,73,100,55,65,100,0
6342,6884,5820,18,28,17,10240,0.29,-0.09,1.54,1.22,6342,6879,5815,73,100,55,65,100,0
6330,6864,5809,8,14,9,10240,0.29,-0.09,1.54,1.22,6341,6878,5815,73,100,55,65,100,0
6316,6848,5800,-5,-3,0,10240,0.29,-0.09,1.54,1.22,6340,6877,5814,73,100,55,65,100,0
6305,6833,5793,-17,-20,-9,10240,0.29,-0.09,1.54,1.22,6339,6876,5814,73,100,55,65,100,0
6293,6814,5784,-28,-36,-17,10240,0.29,-0.09,1.54,1.22,6338,6874,5813,73,100,55,65,100,0
6291,6810,5783,-37,-48,-23,10240,0.29,-0.09,1.54,1.22,6336,6871,5812,73,100,55,65,100,0
6289,6807,5782,-42,-56,-27,10240,0.29,-0.09,1.54,1.22,6335,6869,5811,73,100,55,65,100,0
6288,6807,5782,-45,-60,-28,10240,0.29,-0.09,1.54,1.22,6333,6867,5810,73,100,55,65,100,0
6286,6807,5782,-45,-60,-28,10240,0.29,-0.09,1.54,1.22,6331,6865,5809,73,100,55,65,100,0
6286,6806,5782,-45,-59,-27,10240,0.29,-0.09,1.54,1.22,6330,6863,5808,73,100,55,65,100,0
6289,6810,5783,-43,-56,-26,10240,0.29,-0.09,1.54,1.22,6329,6861,5807,73,100,55,65,100,0
6291,6812,5785,-41,-53,-24,10240,0.29,-0.09,1.54,1.22,6327,6860,5806,73,100,55,65,100,0
6295,6817,5787,-37,-49,-22,10240,0.29,-0.09,1.54,1.22,6326,6858,5806,73,100,55,65,100,0
6299,6823,5790,-33,-43,-19,10240,0.29,-0.09,1.54,1.22,6325,6857,5805,73,100,55,65,100,0
6305,6832,5794,-28,-36,-16,10240,0.29,-0.09,1.54,1.22,6325,6856,5805,73,100,55,65,100,0
6307,6836,5797,-23,-29,-13,10240,0.29,-0.09,1.54,1.22,6324,6856,5804,73,100,55,65,100,0
6311,6843,5799,-19,-22,-9,10240,0.29,-0.09,1.54,1.22,6324,6855,5804,73,100,55,65,100,0
6318,6849,5804,-13,-15,-5,10240,0.29,-0.09,1.54,1.22,6323,6855,5804,73,100,55,65,100,0
6325,6857,5808,-8,-9,-2,10240,0.29,-0.09,1.54,1.22,6324,6855,5804,73,100,55,65,100,0
6333,6869,5815,-2,0,2,10240,0.29,-0.09,1.54,1.22,6324,6856,5805,73,100,55,65,100,0
6339,6874,5818,5,6,6,10240,0.29,-0.09,1.54,1.22,6324,6856,5805,73,100,55,65,100,0
6343,6880,5822,10,14,10,10240,0.29,-0.09,1.54,1.22,6325,6857,5806,73,100,55,65,100,0
6348,6889,5824,16,21,14,10240,0.29,-0.09,1.54,1.22,6326,6858,5806,73,100,55,65,100,0
6353,6894,5827,20,26,16,10240,0.29,-0.09,1.54,1.22,6327,6859,5807,73,100,55,65,100,0
6365,6909,5836,25,34,20,10240,0.29,-0.09,1.54,1.22,6328,6861,5808,73,100,55,65,100,0
6370,6915,5839,31,41,24,10240,0.29,-0.09,1.54,1.22,6329,6863,5809,73,100,55,65,100,0
6373,6919,5840,36,47,27,10240,0.29,-0.09,1.54,1.22,6331,6865,5810,73,100,55,65,100,0
6374,6922,5842,40,52,29,10240,0.29,-0.09,1.54,1.22,6332,6867,5811,73,100,55,65,100,0
6375,6926,5844,41,54,30,10240,0.29,-0.09,1.54,1.22,6334,6868,5812,73,100,55,64,100,0
6373,6919,5839,40,54,29,10240,0.29,-0.09,1.54,1.22,6335,6870,5813,77,100,55,64,100,0
6359,6903,5831,36,48,26,10240,0.29,-0.09,1.54,1.28,6336,6871,5814,77,104,55,64,100,0
6343,6881,5821,27,37,20,10240,0.29,-0.09,1.54,1.28,6336,6872,5814,77,104,55,64,100,0
6327,6855,5807,14,18,10,10240,0.29,-0.09,1.54,1.28,6336,6871,5814,77,104,55,64,100,0
6308,6833,5794,-1,-3,0,10240,0.29,-0.09,1.54,1.28,6335,6870,5813,77,104,55,64,100,0
6285,6795,5780,-19,-29,-12,10240,0.29,-0.09,1.54,1.28,6333,6867,5812,77,104,55,64,100,0
6274,6783,5772,-35,-51,-24,10240,0.29,-0.09,1.54,1.28,6331,6864,5811,77,104,55,64,100,0
6268,6776,5768,-48,-69,-32,10240,0.29,-0.09,1.54,1.28,6329,6862,5809,77,104,55,64,100,0
6266,6774,5768,-56,-81,-38,10240,0.29,-0.09,1.54,1.28,6327,6859,5808,77,104,55,64,100,0
6265,6772,5766,-59,-84,-40,10240,0.29,-0.09,1.54,1.28,6325,6856,5806,77,104,55,64,100,0
6263,6769,5764,-60,-84,-40,10240,0.29,-0.09,1.54,1.28,6323,6853,5805,77,104,55,64,100,0
6261,6767,5764,-60,-84,-40,10240,0.29,-0.09,1.54,1.28,6321,6850,5804,77,104,55,64,100,0
6260,6768,5763,-59,-82,-40,10240,0.29,-0.09,1.54,1.28,6319,6847,5802,77,104,55,64,100,0
6262,6771,5765,-58,-80,-39,10240,0.29,-0.09,1.54,1.28,6317,6845,5801,77,104,55,64,100,0
6265,6775,5769,-56,-75,-36,10240,0.29,-0.09,1.54,1.28,6315,6842,5800,77,104,55,64,100,0
6273,6785,5775,-51,-68,-32,10240,0.29,-0.09,1.54,1.28,6314,6840,5799,77,104,55,64,100,0
6278,6791,5778,-45,-61,-28,10240,0.29,-0.09,1.54,1.28,6312,6839,5799,77,104,55,64,100,0
6281,6795,5781,-38,-53,-23,10240,0.29,-0.09,1.54,1.28,6311,6837,5798,77,104,55,64,100,0
6285,6803,5783,-32,-44,-19,10240,0.29,-0.09,1.54,1.28,6311,6836,5797,77,104,55,64,100,0
6288,6809,5785,-28,-37,-16,10240,0.29,-0.09,1.54,1.28,6310,6835,5797,77,104,55,64,100,0
6296,6822,5792,-22,-28,-12,10240,0.29,-0.09,1.54,1.28,6309,6835,5797,77,104,55,64,100,0
6300,6827,5795,-17,-20,-8,10240,0.29,-0.09,1.54,1.28,6309,6835,5797,77,104,55,64,100,0
6304,6831,5797,-12,-12,-4,10240,0.29,-0.09,1.54,1.28,6309,6834,5797,77,104,55,64,100,0
6306,6834,5801,-7,-6,0,10240,0.29,-0.09,1.54,1.28,6309,6834,5797,77,104,55,64,100,0
6309,6840,5804,-4,-1,2,10240,0.29,-0.09,1.54,1.28,6309,6835,5797,77,104,55,64,100,0
6321,6855,5812,1,5,6,10240,0.29,-0.09,1.54,1.28,6309,6835,5798,77,104,55,64,100,0
6325,6859,5814,6,12,10,10240,0.29,-0.09,1.54,1.28,6310,6836,5798,77,104,55,64,100,0
6330,6866,5818,11,19,14,10240,0.29,-0.09,1.54,1.28,6310,6837,5799,77,104,55,64,100,0
6333,6873,5821,17,26,17,10240,0.29,-0.09,1.54,1.28,6311,6838,5800,77,104,55,64,100,0
6337,6879,5823,20,31,19,10240,0.29,-0.09,1.54,1.28,6312,6840,5800,77,104,55,64,100,0
6343,6886,5829,24,37,22,10240,0.29,-0.09,1.54,1.28,6313,6841,5801,77,104,55,64,100,0
6342,6883,5826,26,39,24,10240,0.29,-0.09,1.54,1.28,6314,6843,5802,77,104,55,64,100,0
6332,6872,5820,25,38,23,10240,0.29,-0.09,1.54,1.28,6315,6844,5803,79,109,58,64,100,0
6318,6853,5810,19,30,19,10240,0.29,-0.09,1.59,1.25,6315,6844,5803,79,109,58,64,100,0
6300,6833,5798,8,16,10,10240,0.29,-0.09,1.59,1.25,6314,6844,5803,79,109,58,64,100,0
6276,6793,5781,-7,-5,0,10240,0.29,-0.09,1.59,1.25,6313,6842,5802,79,109,58,64,100,0
6259,6773,5769,-25,-29,-12,10240,0.29,-0.09,1.59,1.25,6311,6840,5801,79,109,58,64,100,0
6247,6755,5761,-41,-52,-24,10240,0.29,-0.09,1.59,1.25,6309,6837,5800,79,109,58,64,100,0
6245,6745,5755,-53,-71,-33,10240,0.29,-0.09,1.59,1.25,6307,6834,5798,79,109,58,64,100,0
6243,6742,5754,-59,-81,-39,10240,0.29,-0.09,1.59,1.25,6305,6831,5797,79,109,58,64,100,0
6240,6739,5754,-62,-87,-41,10240,0.29,-0.09,1.59,1.25,6303,6828,5795,79,109,58,64,100,0
6236,6737,5752,-62,-88,-42,10240,0.29,-0.09,1.59,1.25,6300,6824,5794,79,109,58,64,100,0
6234,6734,5752,-63,-88,-41,10240,0.29,-0.09,1.59,1.25,6298,6821,5792,79,109,58,64,100,0
6234,6735,5751,-63,-86,-40,10240,0.29,-0.09,1.59,1.25,6296,6819,5791,79,109,58,64,100,0
6235,6736,5752,-62,-84,-40,10240,0.29,-0.09,1.59,1.25,6294,6816,5790,79,109,58,64,100,0
6241,6740,5754,-59,-81,-38,10240,0.29,-0.09,1.59,1.25,6292,6813,5789,79,109,58,64,100,0
6242,6745,5755,-55,-75,-36,10240,0.29,-0.09,1.59,1.25,6290,6811,5787,79,109,58,64,100,0
6244,6747,5757,-50,-70,-33,10240,0.29,-0.09,1.59,1.25,6289,6809,5786,79,109,58,64,100,0
6244,6750,5759,-46,-64,-30,10240,0.29,-0.09,1.59,1.25,6287,6807,5786,79,109,58,64,100,0
6245,6755,5760,-44,-58,-28,10240,0.29,-0.09,1.59,1.25,6286,6805,5785,79,109,58,64,100,0
6252,6766,5768,-40,-51,-24,10240,0.29,-0.09,1.59,1.25,6285,6804,5784,79,109,58,64,100,0
6257,6772,5771,-36,-44,-20,10240,0.29,-0.09,1.59,1.25,6284,6803,5784,79,109,58,64,100,0
6262,6778,5775,-30,-35,-15,10240,0.29,-0.09,1.59,1.25,6283,6802,5783,79,109,58,64,100,0
6269,6785,5778,-23,-27,-10,10240,0.29,-0.09,1.59,1.25,6283,6801,5783,79,109,58,64,100,0
6273,6791,5780,-17,-20,-7,10240,0.29,-0.09,1.59,1.25,6282,6801,5783,79,109,58,64,100,0
6283,6803,5785,-10,-12,-3,10240,0.29,-0.09,1.59,1.25,6282,6801,5783,79,109,58,64,100,0
6285,6808,5788,-5,-4,0,10240,0.29,-0.09,1.59,1.25,6283,6801,5783,79,109,58,64,100,0
6291,6816,5792,0,3,3,10240,0.29,-0.09,1.59,1.25,6283,6802,5784,79,109,58,64,100,0
6297,6822,5794,6,10,6,10240,0.29,-0.09,1.59,1.25,6283,6803,5784,79,109,58,64,100,0
6300,6828,5796,10,16,8,10240,0.29,-0.09,1.59,1.25,6284,6803,5784,79,109,58,64,100,0
6305,6836,5802,14,22,11,10240,0.29,-0.09,1.59,1.25,6285,6805,5785,79,109,58,64,100,0
6306,6836,5802,17,26,13,10240,0.29,-0.09,1.59,1.25,6285,6806,5786,79,109,58,64,100,0
6304,6830,5798,18,27,14,10240,0.29,-0.09,1.59,1.25,6286,6806,5786,79,109,58,64,100,0
6293,6818,5789,16,24,12,10240,0.29,-0.09,1.59,1.25,6286,6807,5786,79,110,57,64,100,0
6267,6796,5780,6,13,6,10240,0.29,-0.09,1.64,1.28,6286,6806,5786,79,110,57,64,100,0
6252,6755,5759,-6,-6,-4,10240,0.29,-0.09,1.64,1.28,6284,6805,5785,79,110,57,64,100,0
6246,6742,5751,-20,-27,-15,10240,0.29,-0.09,1.64,1.28,6283,6803,5784,79,110,57,64,100,0
6236,6726,5744,-33,-48,-25,10240,0.29,-0.09,1.64,1.28,6282,6800,5782,79,110,57,64,100,0
6224,6712,5736,-42,-67,-35,10240,0.29,-0.09,1.64,1.28,6280,6797,5781,79,110,57,64,100,0
6219,6707,5733,-49,-76,-40,10240,0.29,-0.09,1.64,1.28,6278,6794,5779,79,110,57,64,100,0
6216,6703,5730,-55,-83,-44,10240,0.29,-0.09,1.64,1.28,6276,6791,5778,79,110,57,64,100,0
6214,6703,5728,-58,-86,-46,10240,0.29,-0.09,1.64,1.28,6273,6788,5776,79,110,57,64,100,0
6212,6699,5727,-59,-86,-47,10240,0.29,-0.09,1.64,1.28,6271,6785,5774,79,110,57,64,100,0
6212,6699,5727,-58,-85,-47,10240,0.29,-0.09,1.64,1.28,6269,6782,5773,79,110,57,64,100,0
6217,6705,5731,-56,-82,-45,10240,0.29,-0.09,1.64,1.28,6268,6780,5771,79,110,57,64,100,0
6221,6710,5734,-53,-77,-42,10240,0.29,-0.09,1.64,1.28,6266,6777,5770,79,110,57,64,100,0
6225,6715,5736,-48,-71,-38,10240,0.29,-0.09,1.64,1.28,6265,6775,5769,79,110,57,64,100,0
6230,6722,5741,-42,-63,-34,10240,0.29,-0.09,1.64,1.28,6264,6774,5768,79,110,57,64,100,0
6236,6729,5745,-36,-55,-29,10240,0.29,-0.09,1.64,1.28,6263,6772,5767,79,110,57,64,100,0
6246,6741,5751,-29,-46,-24,10240,0.29,-0.09,1.64,1.28,6262,6771,5767,79,110,57,64,100,0
6248,6745,5753,-22,-37,-19,10240,0.29,-0.09,1.64,1.28,6262,6770,5766,79,110,57,64,100,0
6253,6751,5755,-16,-29,-15,10240,0.29,-0.09,1.64,1.28,6261,6770,5766,79,110,57,64,100,0
6254,6755,5757,-11,-22,-12,10240,0.29,-0.09,1.64,1.28,6261,6769,5766,79,110,57,64,100,0
6253,6761,5763,-9,-16,-9,10240,0.29,-0.09,1.64,1.28,6261,6769,5766,79,110,57,64,100,0
6268,6777,5775,-4,-8,-3,10240,0.29,-0.09,1.64,1.28,6261,6769,5766,79,110,57,64,100,0
6274,6787,5780,1,0,2,10240,0.29,-0.09,1.64,1.28,6262,6770,5766,79,110,57,64,100,0
6279,6794,5783,7,10,9,10240,0.29,-0.09,1.64,1.28,6262,6770,5767,79,110,57,64,100,0
6284,6804,5786,14,20,14,10240,0.29,-0.09,1.64,1.28,6263,6772,5768,79,110,57,64,100,0
6289,6811,5790,18,27,17,10240,0.29,-0.09,1.64,1.28,6264,6773,5768,79,110,57,64,100,0
6299,6825,5799,24,36,21,10240,0.29,-0.09,1.64,1.28,6265,6775,5769,79,110,57,64,100,0
6302,6830,5802,29,43,25,10240,0.29,-0.09,1.64,1.28,6266,6776,5770,79,110,57,64,100,0
6303,6831,5802,32,48,28,10240,0.29,-0.09,1.64,1.28,6267,6778,5771,79,110,57,64,100,0
6301,6828,5799,34,51,30,10240,0.29,-0.09,1.64,1.28,6268,6780,5772,79,110,57,64,100,0
