6774,7390,6292,179,170,176,10240,-1.00,-1.00,0.00,0.00,6597,7219,6120,0,0,0,0,0,0
6779,7396,6296,177,170,173,10240,-1.00,-1.00,0.00,0.00,6603,7225,6126,0,0,0,0,0,0
6787,7407,6299,177,171,170,10240,-1.00,-1.00,0.00,0.00,6609,7231,6132,0,0,0,0,0,0
6791,7411,6304,176,173,169,10240,-1.00,-1.00,0.00,0.00,6615,7237,6137,0,0,0,0,0,0
6793,7416,6308,175,173,167,10240,-1.00,-1.00,0.00,0.00,6621,7243,6143,0,0,0,0,0,0
6799,7423,6311,174,174,165,10240,-1.00,-1.00,0.00,0.00,6627,7249,6149,0,0,0,0,0,0
6804,7430,6315,172,174,163,10240,-1.00,-1.00,0.00,0.00,6633,7255,6154,0,0,0,0,0,0
6813,7436,6318,172,174,161,10240,-1.00,-1.00,0.00,0.00,6639,7261,6160,0,0,0,0,0,0
6819,7451,6326,172,177,160,10240,-1.00,-1.00,0.00,0.00,6645,7267,6165,0,0,0,0,0,0
6825,7459,6330,173,179,159,10240,-1.00,-1.00,0.00,0.00,6651,7274,6171,0,0,0,0,0,0
6832,7468,6334,174,183,159,10240,-1.00,-1.00,0.00,0.00,6657,7280,6176,0,0,0,0,0,0
6838,7476,6338,174,186,158,10240,-1.00,-1.00,0.00,0.00,6663,7287,6182,0,0,0,0,0,0
6842,7482,6342,174,187,157,10240,-1.00,-1.00,0.00,0.00,6669,7293,6187,0,0,0,0,0,0
6851,7491,6346,174,189,155,10240,-1.00,-1.00,0.00,0.00,6675,7300,6192,0,0,0,0,0,0
6856,7498,6348,174,190,154,10240,-1.00,-1.00,0.00,0.00,6681,7306,6197,0,0,0,0,0,0
6859,7505,6350,174,191,152,10240,-1.00,-1.00,0.00,0.00,6687,7313,6202,0,0,0,0,0,0
6864,7509,6354,173,191,149,10240,-1.00,-1.00,0.00,0.00,6693,7320,6208,0,0,0,0,0,0
6867,7515,6358,171,190,147,10240,-1.00,-1.00,0.00,0.00,6699,7326,6213,0,5,0,0,0,0
6873,7523,6360,169,190,145,10240,-1.00,-1.00,0.00,0.00,6705,7333,6217,0,5,0,0,0,0
6868,7513,6352,166,185,141,10240,-1.00,-1.00,0.00,0.00,6710,7339,6222,0,5,0,0,0,0
6846,7482,6336,156,173,132,10240,-1.00,-1.00,0.00,0.00,6715,7343,6226,0,5,0,0,0,0
6813,7434,6311,138,147,116,10240,-1.00,-1.00,0.00,0.00,6718,7346,6229,0,5,0,0,0,0
6780,7393,6288,111,111,94,10240,-1.00,-1.00,0.00,0.00,6720,7348,6231,0,5,0,0,0,0
6732,7322,6257,74,61,68,10240,-1.00,-1.00,0.00,0.00,6720,7347,6231,0,5,0,0,0,0
6726,7315,6250,43,19,45,10240,-1.00,-1.00,0.00,0.00,6721,7346,6232,0,5,0,0,0,0
6719,7308,6246,19,-12,28,10240,-1.00,-1.00,0.00,0.00,6720,7345,6233,0,5,0,0,0,0
6721,7310,6249,4,-31,18,10240,-1.00,-1.00,0.00,0.00,6721,7344,6233,0,5,0,0,0,0
6726,7318,6254,2,-31,16,10240,-1.00,-1.00,0.00,0.00,6721,7343,6234,0,5,0,0,0,0
6731,7323,6259,3,-28,18,10240,-1.00,-1.00,0.00,0.00,6721,7342,6235,0,5,0,0,0,0
6734,7333,6265,7,-21,22,10240,-1.00,-1.00,0.00,0.00,6721,7342,6236,0,5,0,0,0,0
6742,7344,6268,12,-12,26,10240,-1.00,-1.00,0.00,0.00,6722,7342,6237,0,5,0,0,0,0
6750,7356,6273,17,-3,29,10240,-1.00,-1.00,0.00,0.00,6723,7342,6238,0,5,0,0,0,0
6759,7367,6278,23,7,33,10240,-1.00,-1.00,0.00,0.00,6724,7343,6239,0,5,0,0,0,0
6763,7372,6282,29,17,36,10240,-1.00,-1.00,0.00,0.00,6726,7344,6241,0,5,0,0,0,0
6775,7388,6291,36,27,41,10240,-1.00,-1.00,0.00,0.00,6727,7346,6242,0,5,0,0,0,0
6781,7397,6295,43,36,45,10240,-1.00,-1.00,0.00,0.00,6729,7347,6244,0,5,0,0,0,0
6787,7407,6298,48,44,48,10240,-1.00,-1.00,0.00,0.00,6731,7349,6246,0,5,0,0,0,0
6795,7414,6305,54,53,52,10240,-1.00,-1.00,0.00,0.00,6733,7351,6248,0,5,0,0,0,0
6801,7421,6309,59,59,54,10240,-1.00,-1.00,0.00,0.00,6735,7354,6250,0,5,0,0,0,0
6805,7427,6313,62,64,57,10240,-1.00,-1.00,0.00,0.00,6738,7356,6252,0,5,0,0,0,0
6819,7446,6321,68,72,61,10240,-1.00,-1.00,0.00,0.00,6740,7359,6254,0,5,0,0,0,0
6826,7456,6325,73,79,63,10240,-1.00,-1.00,0.00,0.00,6743,7362,6257,0,5,0,0,0,0
6832,7463,6330,78,87,66,10240,-1.00,-1.00,0.00,0.00,6746,7366,6259,0,5,0,0,0,0
6838,7472,6336,84,95,70,10240,-1.00,-1.00,0.00,0.00,6749,7369,6262,0,5,0,0,0,0
6842,7479,6339,87,100,72,10240,-1.00,-1.00,0.00,0.00,6752,7373,6264,0,5,0,0,0,0
6853,7492,6343,90,105,74,10240,-1.00,-1.00,0.00,0.00,6756,7377,6267,0,5,0,0,0,0
6856,7498,6344,93,110,75,10240,-1.00,-1.00,0.00,0.00,6759,7381,6269,0,5,0,0,0,0
6859,7503,6349,95,114,75,10240,-1.00,-1.00,0.00,0.00,6762,7385,6272,0,5,0,0,0,0
6863,7509,6352,97,117,76,10240,-1.00,-1.00,0.00,0.00,6766,7389,6275,0,5,0,0,0,0
6868,7515,6355,97,119,76,10240,-1.00,-1.00,0.00,0.00,6769,7393,6277,0,5,0,0,0,0
6870,7514,6357,97,119,77,10240,-1.00,-1.00,0.00,0.00,6773,7397,6280,0,5,0,0,0,0
6852,7485,6337,92,111,71,10240,-1.00,-1.00,0.00,0.00,6775,7400,6282,23,41,15,0,0,0
6820,7440,6313,79,90,60,10240,-1.00,-1.00,2.32,1.42,6777,7402,6283,23,41,15,0,0,0
6788,7399,6290,57,59,42,10240,-1.00,-1.00,2.32,1.42,6777,7402,6283,23,41,15,0,0,0
6758,7360,6270,28,20,19,10240,-1.00,-1.00,2.32,1.42,6776,7400,6283,23,41,15,0,0,0
6730,7326,6255,-2,-19,0,10240,-1.00,-1.00,2.32,1.42,6775,7398,6282,23,41,15,0,0,0
6723,7309,6244,-25,-50,-17,10240,-1.00,-1.00,2.32,1.42,6773,7395,6281,23,41,15,0,0,0
6721,7309,6245,-40,-70,-27,10240,-1.00,-1.00,2.32,1.42,6771,7392,6279,23,41,15,0,0,0
6724,7312,6246,-47,-79,-32,10240,-1.00,-1.00,2.32,1.42,6770,7389,6278,23,41,15,0,0,0
6730,7317,6250,-46,-79,-32,10240,-1.00,-1.00,2.32,1.42,6769,7387,6277,23,41,15,0,0,0
6731,7320,6253,-42,-73,-29,10240,-1.00,-1.00,2.32,1.42,6767,7385,6277,23,41,15,0,0,0
6739,7335,6263,-37,-65,-24,10240,-1.00,-1.00,2.32,1.42,6766,7383,6276,23,41,15,0,0,0
6747,7348,6265,-30,-54,-18,10240,-1.00,-1.00,2.32,1.42,6766,7382,6276,23,41,15,0,0,0
6754,7357,6270,-23,-42,-13,10240,-1.00,-1.00,2.32,1.42,6765,7381,6276,23,41,15,0,0,0
6759,7364,6273,-15,-30,-8,10240,-1.00,-1.00,2.32,1.42,6765,7380,6275,23,41,15,0,0,0
6764,7370,6277,-9,-21,-4,10240,-1.00,-1.00,2.32,1.42,6765,7380,6275,23,41,15,0,0,0
6776,7386,6284,-1,-11,0,10240,-1.00,-1.00,2.32,1.42,6765,7380,6276,23,41,15,0,0,0
6781,7393,6289,4,-2,5,10240,-1.00,-1.00,2.32,1.42,6766,7381,6276,23,41,15,0,0,0
6788,7402,6292,11,7,9,10240,-1.00,-1.00,2.32,1.42,6767,7381,6277,23,41,15,0,0,0
6793,7407,6295,18,16,13,10240,-1.00,-1.00,2.32,1.42,6768,7382,6277,23,41,15,0,0,0
6801,7414,6304,23,22,18,10240,-1.00,-1.00,2.32,1.42,6769,7383,6278,23,41,15,0,0,0
6819,7439,6315,31,32,23,10240,-1.00,-1.00,2.32,1.42,6770,7385,6279,23,41,15,0,0,0
6828,7452,6321,40,43,30,10240,-1.00,-1.00,2.32,1.42,6772,7387,6281,23,41,15,0,0,0
6836,7462,6328,49,55,37,10240,-1.00,-1.00,2.32,1.42,6774,7390,6282,23,41,15,0,0,0
6841,7473,6332,57,67,42,10240,-1.00,-1.00,2.32,1.42,6777,7393,6284,23,41,15,0,0,0
6849,7482,6338,63,75,46,10240,-1.00,-1.00,2.32,1.42,6779,7396,6286,23,41,15,0,0,0
6862,7500,6339,69,84,49,10240,-1.00,-1.00,2.32,1.42,6782,7399,6288,23,41,15,0,0,0
6866,7507,6349,73,92,52,10240,-1.00,-1.00,2.32,1.42,6785,7403,6290,23,41,15,0,0,0
6870,7513,6352,78,99,55,10240,-1.00,-1.00,2.32,1.42,6787,7406,6292,23,41,15,0,0,0
6876,7520,6355,82,105,57,10240,-1.00,-1.00,2.32,1.42,6790,7410,6294,23,41,15,0,0,0
6881,7526,6359,84,108,60,10240,-1.00,-1.00,2.32,1.42,6793,7414,6296,23,41,15,64,0,0
6873,7526,6358,83,109,61,10240,-1.00,-1.00,2.32,1.42,6796,7418,6298,50,41,15,64,0,0
6853,7482,6332,76,98,54,10240,-1.00,-1.00,2.32,1.42,6798,7420,6299,50,78,34,64,0,0
6827,7445,6311,62,76,41,10240,-1.00,-1.00,1.95,1.36,6799,7421,6300,50,78,34,64,0,0
6804,7413,6296,41,46,25,10240,-1.00,-1.00,1.95,1.36,6799,7420,6300,50,78,34,64,0,0
6788,7394,6285,19,13,6,10240,-1.00,-1.00,1.95,1.36,6799,7420,6299,50,78,34,64,0,0
6778,7382,6280,0,-11,-6,10240,-1.00,-1.00,1.95,1.36,6798,7418,6298,50,78,34,64,0,0
6777,7382,6281,-11,-26,-13,10240,-1.00,-1.00,1.95,1.36,6797,7417,6298,50,78,34,64,0,0
6779,7386,6283,-17,-31,-15,10240,-1.00,-1.00,1.95,1.36,6797,7416,6297,50,78,34,64,0,0
6784,7394,6287,-17,-30,-14,10240,-1.00,-1.00,1.95,1.36,6796,7415,6297,50,78,34,64,0,0
6789,7401,6290,-14,-25,-12,10240,-1.00,-1.00,1.95,1.36,6796,7415,6297,50,78,34,64,0,0
6795,7406,6292,-9,-18,-9,10240,-1.00,-1.00,1.95,1.36,6796,7415,6297,50,78,34,64,0,0
6809,7422,6304,-1,-9,-3,10240,-1.00,-1.00,1.95,1.36,6796,7415,6297,50,78,34,64,0,0
6815,7432,6308,5,0,1,10240,-1.00,-1.00,1.95,1.36,6797,7415,6297,50,78,34,64,0,0
6820,7440,6311,13,9,6,10240,-1.00,-1.00,1.95,1.36,6798,7416,6298,50,78,34,64,0,0
6827,7449,6316,20,20,12,10240,-1.00,-1.00,1.95,1.36,6799,7417,6298,50,78,34,64,0,0
6832,7456,6319,25,27,15,10240,-1.00,-1.00,1.95,1.36,6800,7419,6299,50,78,34,64,0,0
6843,7471,6327,31,36,19,10240,-1.00,-1.00,1.95,1.36,6801,7420,6300,50,78,34,64,0,0
6847,7477,6330,36,43,23,10240,-1.00,-1.00,1.95,1.36,6803,7422,6301,50,78,34,64,0,0
6851,7485,6335,41,51,27,10240,-1.00,-1.00,1.95,1.36,6805,7424,6302,50,78,34,64,0,0
6856,7489,6337,45,57,30,10240,-1.00,-1.00,1.95,1.36,6806,7427,6303,50,78,34,64,0,0
6861,7495,6338,48,61,32,10240,-1.00,-1.00,1.95,1.36,6808,7429,6304,50,78,34,64,0,0
6870,7507,6344,52,66,34,10240,-1.00,-1.00,1.95,1.36,6810,7431,6306,50,78,34,64,0,0
6874,7515,6347,56,71,36,10240,-1.00,-1.00,1.95,1.36,6812,7434,6307,50,78,34,64,0,0
6878,7520,6350,59,76,38,10240,-1.00,-1.00,1.95,1.36,6814,7437,6308,50,78,34,64,0,0
6884,7527,6355,63,81,41,10240,-1.00,-1.00,1.95,1.36,6817,7440,6310,50,78,34,64,0,0
6889,7534,6358,65,85,43,10240,-1.00,-1.00,1.95,1.36,6819,7443,6312,50,78,34,64,0,0
6898,7547,6365,69,90,46,10240,-1.00,-1.00,1.95,1.36,6822,7447,6313,50,78,34,68,0,0
6904,7553,6370,73,95,49,10240,-1.00,-1.00,1.95,1.36,6825,7450,6315,50,78,34,68,0,0
6906,7556,6370,76,99,51,10240,-1.00,-1.00,1.95,1.36,6827,7454,6317,50,78,34,68,0,0
6905,7552,6366,77,100,51,10240,-1.00,-1.00,1.95,1.36,6830,7457,6319,50,78,34,68,0,0
6892,7534,6352,73,93,46,10240,-1.00,-1.00,1.95,1.36,6832,7460,6320,61,91,42,68,0,0
6850,7472,6321,57,70,33,10240,-1.00,-1.00,1.84,1.34,6833,7460,6320,61,91,42,68,0,0
6829,7445,6307,37,41,17,10240,-1.00,-1.00,1.84,1.34,6832,7459,6319,61,91,42,68,0,0
6817,7427,6298,14,10,0,10240,-1.00,-1.00,1.84,1.34,6832,7458,6319,61,91,42,68,0,0
6811,7420,6296,-5,-17,-13,10240,-1.00,-1.00,1.84,1.34,6831,7457,6318,61,91,42,68,0,0
6812,7421,6298,-14,-29,-18,10240,-1.00,-1.00,1.84,1.34,6831,7456,6317,61,91,42,68,0,0
6819,7433,6305,-16,-31,-18,10240,-1.00,-1.00,1.84,1.34,6830,7455,6317,61,91,42,68,0,0
6823,7441,6307,-14,-27,-15,10240,-1.00,-1.00,1.84,1.34,6830,7455,6317,61,91,42,68,0,0
6828,7446,6310,-9,-19,-11,10240,-1.00,-1.00,1.84,1.34,6830,7454,6316,61,91,42,68,0,0
6833,7454,6314,-4,-11,-7,10240,-1.00,-1.00,1.84,1.34,6830,7454,6316,61,91,42,68,0,0
6838,7461,6318,0,-4,-4,10240,-1.00,-1.00,1.84,1.34,6830,7455,6316,61,91,42,68,0,0
6849,7477,6322,6,5,0,10240,-1.00,-1.00,1.84,1.34,6831,7455,6317,61,91,42,68,0,0
6853,7482,6329,12,13,4,10240,-1.00,-1.00,1.84,1.34,6832,7456,6317,61,91,42,68,0,0
6858,7489,6333,18,21,8,10240,-1.00,-1.00,1.84,1.34,6832,7457,6318,61,91,42,68,0,0
6861,7494,6335,23,28,12,10240,-1.00,-1.00,1.84,1.34,6833,7459,6318,61,91,42,68,0,0
6865,7500,6337,26,33,15,10240,-1.00,-1.00,1.84,1.34,6834,7460,6319,61,91,42,68,0,0
6872,7505,6339,30,37,17,10240,-1.00,-1.00,1.84,1.34,6836,7461,6319,61,91,42,68,0,0
6878,7517,6345,34,43,20,10240,-1.00,-1.00,1.84,1.34,6837,7463,6320,61,91,42,68,0,0
6882,7523,6349,37,49,22,10240,-1.00,-1.00,1.84,1.34,6839,7465,6321,61,91,42,68,0,0
6888,7529,6352,42,54,25,10240,-1.00,-1.00,1.84,1.34,6840,7467,6322,61,91,42,68,0,0
6890,7535,6355,45,59,28,10240,-1.00,-1.00,1.84,1.34,6842,7470,6323,61,91,42,68,0,0
6898,7543,6359,48,64,31,10240,-1.00,-1.00,1.84,1.34,6844,7472,6325,61,91,42,68,0,0
6903,7550,6365,51,68,33,10240,-1.00,-1.00,1.84,1.34,6846,7475,6326,61,91,42,68,0,0
6906,7556,6367,54,72,36,10240,-1.00,-1.00,1.84,1.34,6848,7477,6327,61,91,42,68,100,0
6911,7561,6371,57,76,38,10240,-1.00,-1.00,1.84,1.34,6850,7480,6329,61,91,42,68,100,0
6914,7566,6375,59,79,41,10240,-1.00,-1.00,1.84,1.34,6852,7483,6330,61,91,42,68,100,0
6918,7570,6376,61,81,42,10240,-1.00,-1.00,1.84,1.34,6854,7486,6332,61,91,42,68,100,0
6916,7564,6372,61,80,42,10240,-1.00,-1.00,1.84,1.34,6856,7489,6333,61,96,42,68,100,0
6896,7535,6350,56,71,36,10240,-1.00,-1.00,1.84,1.34,6858,7490,6334,65,96,47,68,100,0
6872,7500,6331,44,53,24,10240,-1.00,-1.00,1.73,1.28,6858,7491,6334,65,96,47,68,100,0
6845,7461,6312,24,25,7,10240,-1.00,-1.00,1.73,1.28,6858,7490,6333,65,96,47,68,100,0
6807,7429,6298,-2,-8,-10,10240,-1.00,-1.00,1.73,1.28,6856,7487,6332,65,96,47,68,100,0
6800,7404,6282,-25,-39,-26,10240,-1.00,-1.00,1.73,1.28,6854,7485,6330,65,96,47,68,100,0
6796,7402,6282,-43,-62,-37,10240,-1.00,-1.00,1.73,1.28,6852,7482,6328,65,96,47,68,100,0
6799,7405,6282,-52,-73,-43,10240,-1.00,-1.00,1.73,1.28,6850,7479,6327,65,96,47,68,100,0
6801,7406,6283,-52,-76,-45,10240,-1.00,-1.00,1.73,1.28,6849,7477,6325,65,96,47,68,100,0
6810,7411,6290,-48,-72,-41,10240,-1.00,-1.00,1.73,1.28,6847,7475,6324,65,96,47,68,100,0
6817,7428,6298,-41,-63,-36,10240,-1.00,-1.00,1.73,1.28,6846,7473,6323,65,96,47,68,100,0
6823,7438,6302,-34,-53,-30,10240,-1.00,-1.00,1.73,1.28,6846,7472,6323,65,96,47,68,100,0
6830,7448,6307,-26,-41,-23,10240,-1.00,-1.00,1.73,1.28,6845,7471,6322,65,96,47,68,100,0
6837,7457,6313,-18,-29,-17,10240,-1.00,-1.00,1.73,1.28,6845,7471,6322,65,96,47,68,100,0
6851,7468,6318,-10,-18,-12,10240,-1.00,-1.00,1.73,1.28,6845,7471,6322,65,96,47,68,100,0
6859,7486,6328,-1,-6,-5,10240,-1.00,-1.00,1.73,1.28,6846,7471,6322,65,96,47,68,100,0
6865,7495,6332,7,5,0,10240,-1.00,-1.00,1.73,1.28,6846,7472,6322,65,96,47,68,100,0
6870,7503,6335,15,16,6,10240,-1.00,-1.00,1.73,1.28,6847,7473,6323,65,96,47,68,100,0
6876,7510,6338,20,26,10,10240,-1.00,-1.00,1.73,1.28,6848,7474,6323,65,96,47,68,100,0
6881,7519,6343,25,33,14,10240,-1.00,-1.00,1.73,1.28,6849,7476,6324,65,96,47,68,100,0
6890,7532,6351,30,40,18,10240,-1.00,-1.00,1.73,1.28,6850,7478,6325,65,96,47,68,100,0
6896,7540,6355,36,48,22,10240,-1.00,-1.00,1.73,1.28,6852,7480,6326,65,96,47,68,100,0
6902,7547,6359,41,55,26,10240,-1.00,-1.00,1.73,1.28,6854,7482,6327,65,96,47,68,100,0
6909,7556,6365,46,62,31,10240,-1.00,-1.00,1.73,1.28,6855,7484,6328,65,96,47,68,100,0
6914,7563,6369,50,68,34,10240,-1.00,-1.00,1.73,1.28,6857,7487,6329,65,96,47,68,100,0
6921,7579,6374,55,75,38,10240,-1.00,-1.00,1.73,1.28,6860,7490,6331,65,96,47,68,100,0
6927,7587,6378,59,82,41,10240,-1.00,-1.00,1.73,1.28,6862,7493,6333,65,96,47,68,100,0
6931,7594,6382,62,89,44,10240,-1.00,-1.00,1.73,1.28,6864,7497,6334,65,96,47,68,100,0
6935,7601,6385,65,95,46,10240,-1.00,-1.00,1.73,1.28,6866,7500,6336,65,96,47,67,100,0
6939,7609,6390,67,99,48,10240,-1.00,-1.00,1.73,1.28,6869,7504,6338,65,96,47,67,100,0
6942,7610,6389,69,101,49,10240,-1.00,-1.00,1.73,1.28,6871,7507,6339,65,96,47,67,100,0
6930,7587,6374,66,96,46,10240,-1.00,-1.00,1.73,1.28,6873,7510,6341,79,117,59,67,100,0
6907,7544,6353,57,79,36,10240,-1.00,-1.00,1.67,1.24,6874,7511,6341,79,117,59,67,100,0
6880,7508,6332,41,52,21,10240,-1.00,-1.00,1.67,1.24,6875,7511,6341,79,117,59,67,100,0
6842,7478,6316,15,18,3,10240,-1.00,-1.00,1.67,1.24,6874,7510,6340,79,117,59,67,100,0
6835,7445,6300,-7,-16,-14,10240,-1.00,-1.00,1.67,1.24,6872,7508,6338,79,117,59,67,100,0
6832,7441,6300,-25,-40,-27,10240,-1.00,-1.00,1.67,1.24,6871,7505,6337,79,117,59,67,100,0
6833,7443,6300,-36,-54,-33,10240,-1.00,-1.00,1.67,1.24,6870,7503,6336,79,117,59,67,100,0
6836,7449,6303,-36,-60,-35,10240,-1.00,-1.00,1.67,1.24,6868,7502,6335,79,117,59,67,100,0
6847,7464,6306,-32,-53,-33,10240,-1.00,-1.00,1.67,1.24,6868,7500,6334,79,117,59,67,100,0
6853,7473,6316,-26,-43,-28,10240,-1.00,-1.00,1.67,1.24,6867,7499,6333,79,117,59,67,100,0
6858,7481,6321,-19,-33,-22,10240,-1.00,-1.00,1.67,1.24,6867,7499,6333,79,117,59,67,100,0
6866,7489,6325,-11,-22,-16,10240,-1.00,-1.00,1.67,1.24,6867,7499,6333,79,117,59,67,100,0
6872,7498,6330,-4,-13,-10,10240,-1.00,-1.00,1.67,1.24,6867,7498,6333,79,117,59,67,100,0
6884,7516,6332,2,-2,-6,10240,-1.00,-1.00,1.67,1.24,6868,7499,6333,79,117,59,67,100,0
6889,7523,6342,10,7,0,10240,-1.00,-1.00,1.67,1.24,6868,7500,6333,79,117,59,67,100,0
6893,7529,6344,16,17,4,10240,-1.00,-1.00,1.67,1.24,6869,7501,6333,79,117,59,67,100,0
6901,7539,6350,23,26,8,10240,-1.00,-1.00,1.67,1.24,6870,7502,6334,79,117,59,67,100,0
6910,7550,6357,28,33,14,10240,-1.00,-1.00,1.67,1.24,6872,7504,6335,79,117,59,67,100,0
6920,7568,6366,35,43,19,10240,-1.00,-1.00,1.67,1.24,6873,7506,6336,79,117,59,67,100,0
6924,7575,6368,41,53,24,10240,-1.00,-1.00,1.67,1.24,6875,7508,6337,79,117,59,67,100,0
6929,7584,6371,46,62,29,10240,-1.00,-1.00,1.67,1.24,6877,7511,6338,79,117,59,67,100,0
6933,7591,6375,50,70,32,10240,-1.00,-1.00,1.67,1.24,6879,7513,6339,79,117,59,67,100,0
6939,7600,6380,53,75,35,10240,-1.00,-1.00,1.67,1.24,6881,7516,6340,79,117,59,67,100,0
6949,7616,6391,57,82,39,10240,-1.00,-1.00,1.67,1.24,6883,7520,6342,79,117,59,67,100,0
6953,7624,6395,61,89,44,10240,-1.00,-1.00,1.67,1.24,6885,7523,6344,79,117,59,67,100,0
6959,7631,6399,65,96,48,10240,-1.00,-1.00,1.67,1.24,6888,7527,6346,79,117,59,67,100,0
6963,7641,6406,69,103,52,10240,-1.00,-1.00,1.67,1.24,6890,7530,6348,79,117,59,67,100,0
6969,7651,6413,72,108,56,10240,-1.00,-1.00,1.67,1.24,6893,7534,6350,79,117,59,67,100,0
6979,7658,6415,75,112,59,10240,-1.00,-1.00,1.67,1.24,6896,7539,6352,79,117,59,67,100,0
6980,7659,6415,78,115,61,10240,-1.00,-1.00,1.67,1.24,6898,7543,6354,79,117,59,67,100,0
6974,7653,6411,78,114,60,10240,-1.00,-1.00,1.67,1.24,6901,7546,6356,79,131,68,67,100,0
6956,7620,6387,72,103,52,10240,-1.00,-1.00,1.62,1.07,6903,7549,6357,88,131,68,67,100,0
6936,7586,6368,60,82,39,10240,-1.00,-1.00,1.62,1.07,6904,7550,6357,88,131,68,67,100,0
6908,7541,6344,40,51,20,10240,-1.00,-1.00,1.62,1.07,6904,7550,6357,88,131,68,67,100,0
6900,7530,6338,21,19,2,10240,-1.00,-1.00,1.62,1.07,6904,7549,6356,88,131,68,67,100,0
6896,7527,6337,6,-3,-9,10240,-1.00,-1.00,1.62,1.07,6904,7548,6356,88,131,68,67,100,0
6898,7528,6338,-3,-17,-16,10240,-1.00,-1.00,1.62,1.07,6903,7548,6355,88,131,68,67,100,0
6900,7530,6339,-5,-19,-17,10240,-1.00,-1.00,1.62,1.07,6903,7547,6355,88,131,68,67,100,0
6911,7543,6348,-2,-15,-14,10240,-1.00,-1.00,1.62,1.07,6904,7547,6354,88,131,68,67,100,0
6915,7549,6352,2,-9,-10,10240,-1.00,-1.00,1.62,1.07,6904,7547,6354,88,131,68,67,100,0
6920,7556,6354,7,-2,-6,10240,-1.00,-1.00,1.62,1.07,6905,7547,6354,88,131,68,67,100,0
6921,7561,6356,12,5,-1,10240,-1.00,-1.00,1.62,1.07,6905,7548,6354,88,131,68,67,100,0
6924,7569,6359,15,11,1,10240,-1.00,-1.00,1.62,1.07,6906,7548,6354,88,131,68,67,100,0
6932,7581,6364,18,18,4,10240,-1.00,-1.00,1.62,1.07,6907,7550,6355,88,131,68,67,100,0
6937,7590,6371,22,26,8,10240,-1.00,-1.00,1.62,1.07,6908,7551,6355,88,131,68,67,100,0
6939,7595,6372,25,33,11,10240,-1.00,-1.00,1.62,1.07,6909,7552,6356,88,131,68,67,100,0
6942,7602,6377,29,40,15,10240,-1.00,-1.00,1.62,1.07,6910,7554,6357,88,131,68,67,100,0
6949,7610,6382,32,46,19,10240,-1.00,-1.00,1.62,1.07,6911,7556,6357,88,131,68,67,100,0
6961,7625,6391,37,53,23,10240,-1.00,-1.00,1.62,1.07,6913,7558,6359,88,131,68,67,100,0
6965,7634,6396,42,60,28,10240,-1.00,-1.00,1.62,1.07,6914,7561,6360,88,131,68,67,100,0
6970,7643,6402,47,68,33,10240,-1.00,-1.00,1.62,1.07,6916,7563,6361,88,131,68,67,100,0
6977,7654,6409,53,77,38,10240,-1.00,-1.00,1.62,1.07,6918,7566,6363,88,131,68,67,100,0
6980,7659,6411,56,82,42,10240,-1.00,-1.00,1.62,1.07,6920,7570,6364,88,131,68,67,100,0
6989,7664,6413,59,87,45,10240,-1.00,-1.00,1.62,1.07,6923,7573,6366,88,131,68,67,100,0
6995,7666,6412,63,89,46,10240,-1.00,-1.00,1.62,1.07,6925,7576,6368,88,131,68,67,100,0
6996,7666,6411,66,89,45,10240,-1.00,-1.00,1.62,1.07,6927,7579,6369,88,131,67,67,100,0
7003,7668,6411,69,88,43,10240,-1.00,-1.00,1.64,1.21,6930,7582,6370,88,125,67,67,100,0
7007,7668,6411,71,86,41,10240,-1.00,-1.00,1.64,1.21,6933,7585,6372,88,125,67,67,100,0
7014,7670,6410,73,84,39,10240,-1.00,-1.00,1.64,1.21,6935,7587,6373,88,125,67,67,100,0
7016,7674,6410,76,84,38,10240,-1.00,-1.00,1.64,1.21,6938,7590,6374,88,125,67,67,100,0
7014,7672,6409,76,82,36,10240,-1.00,-1.00,1.64,1.21,6940,7593,6375,88,125,67,67,100,0
7001,7671,6409,72,80,34,10240,-1.00,-1.00,1.64,1.21,6942,7596,6377,86,125,67,67,100,0
6985,7656,6404,63,74,32,10240,-1.00,-1.00,1.64,1.21,6944,7598,6377,86,125,67,67,100,0
6944,7592,6366,43,51,20,10240,-1.00,-1.00,1.64,1.21,6944,7597,6377,86,125,67,67,100,0
6935,7578,6357,22,27,7,10240,-1.00,-1.00,1.64,1.21,6944,7597,6376,86,125,67,67,100,0
6931,7574,6354,5,3,-6,10240,-1.00,-1.00,1.64,1.21,6943,7596,6376,86,125,67,67,100,0
6931,7574,6356,-8,-16,-17,10240,-1.00,-1.00,1.64,1.21,6943,7595,6375,86,125,67,67,100,0
6933,7576,6357,-10,-20,-19,10240,-1.00,-1.00,1.64,1.21,6942,7595,6374,86,125,67,67,100,0
6940,7587,6365,-8,-17,-16,10240,-1.00,-1.00,1.64,1.21,6942,7594,6374,86,125,67,67,100,0
6943,7593,6368,-5,-12,-12,10240,-1.00,-1.00,1.64,1.21,6942,7594,6374,86,125,67,67,100,0
6947,7601,6371,-1,-5,-8,10240,-1.00,-1.00,1.64,1.21,6943,7595,6374,86,125,67,67,100,0
6954,7608,6376,3,2,-4,10240,-1.00,-1.00,1.64,1.21,6943,7595,6374,86,125,67,67,100,0
6961,7618,6382,8,10,0,10240,-1.00,-1.00,1.64,1.21,6944,7596,6374,86,125,67,67,100,0
6973,7638,6394,15,20,6,10240,-1.00,-1.00,1.64,1.21,6945,7597,6375,86,125,67,67,100,0
6981,7652,6404,22,32,14,10240,-1.00,-1.00,1.64,1.21,6946,7599,6376,86,125,67,67,100,0
6985,7661,6408,29,44,21,10240,-1.00,-1.00,1.64,1.21,6947,7601,6377,86,125,67,67,100,0
6991,7666,6411,36,54,27,10240,-1.00,-1.00,1.64,1.21,6948,7603,6378,86,125,67,67,100,0
6993,7668,6409,39,59,30,10240,-1.00,-1.00,1.64,1.21,6950,7605,6379,86,125,67,67,100,0
7004,7671,6409,44,62,30,10240,-1.00,-1.00,1.64,1.21,6952,7608,6380,86,125,67,67,100,0
7008,7672,6409,48,62,30,10240,-1.00,-1.00,1.64,1.21,6954,7610,6381,86,125,67,67,100,0
7013,7674,6408,51,62,28,10240,-1.00,-1.00,1.64,1.21,6956,7612,6382,86,125,62,67,100,0
7017,7672,6408,55,61,27,10240,-1.00,-1.00,1.69,1.27,6958,7614,6383,86,115,62,67,100,0
7022,7674,6408,58,60,25,10240,-1.00,-1.00,1.69,1.27,6960,7616,6384,86,115,62,67,100,0
7034,7678,6408,62,59,24,10240,-1.00,-1.00,1.69,1.27,6962,7618,6384,86,115,62,67,100,0
7034,7681,6408,65,59,24,10240,-1.00,-1.00,1.69,1.27,6965,7620,6385,86,115,62,67,100,0
7036,7681,6411,68,59,24,10240,-1.00,-1.00,1.69,1.27,6967,7622,6386,86,115,62,67,100,0
7038,7684,6411,69,60,24,10240,-1.00,-1.00,1.69,1.27,6969,7624,6387,86,115,62,66,100,0
7038,7685,6413,68,59,24,10240,-1.00,-1.00,1.69,1.27,6972,7626,6388,85,115,62,66,100,0
7037,7689,6413,66,59,24,10240,-1.00,-1.00,1.69,1.27,6974,7628,6389,85,115,62,66,100,0
7038,7683,6409,65,58,23,10240,-1.00,-1.00,1.69,1.27,6976,7630,6389,85,115,62,66,100,0
7024,7678,6405,59,54,21,10240,-1.00,-1.00,1.69,1.27,6978,7632,6390,85,115,62,66,100,0
7006,7674,6407,49,50,19,10240,-1.00,-1.00,1.69,1.27,6979,7633,6390,85,115,62,66,100,0
6995,7665,6405,37,42,16,10240,-1.00,-1.00,1.69,1.27,6979,7634,6391,85,115,62,66,100,0
6974,7629,6385,21,28,10,10240,-1.00,-1.00,1.69,1.27,6979,7634,6391,85,115,62,66,100,0
6972,7625,6383,7,14,4,10240,-1.00,-1.00,1.69,1.27,6979,7634,6390,85,115,62,66,100,0
6972,7627,6384,0,2,-1,10240,-1.00,-1.00,1.69,1.27,6978,7634,6390,85,115,62,66,100,0
6973,7630,6385,-5,-6,-6,10240,-1.00,-1.00,1.69,1.27,6978,7633,6390,85,115,62,66,100,0
6977,7636,6388,-4,-4,-5,10240,-1.00,-1.00,1.69,1.27,6978,7634,6390,85,115,62,66,100,0
6986,7650,6397,-1,2,-1,10240,-1.00,-1.00,1.69,1.27,6978,7634,6390,85,115,62,66,100,0
6990,7661,6403,3,10,3,10240,-1.00,-1.00,1.69,1.27,6979,7635,6391,85,115,62,66,100,0
6995,7668,6406,8,19,8,10240,-1.00,-1.00,1.69,1.27,6979,7636,6391,85,115,62,66,100,0
6998,7670,6408,13,26,12,10240,-1.00,-1.00,1.69,1.27,6980,7637,6392,85,115,62,66,100,0
7001,7672,6409,16,31,15,10240,-1.00,-1.00,1.69,1.27,6981,7638,6392,85,115,62,66,100,0
7010,7674,6407,20,33,15,10240,-1.00,-1.00,1.69,1.27,6982,7640,6393,85,115,62,66,100,0
7013,7675,6407,24,33,15,10240,-1.00,-1.00,1.69,1.27,6983,7641,6393,85,115,62,66,100,0
7019,7677,6406,28,34,14,10240,-1.00,-1.00,1.69,1.27,6984,7642,6394,85,115,52,66,100,0
7023,7679,6405,32,34,12,10240,-1.00,-1.00,1.85,1.50,6985,7643,6394,85,115,52,66,100,0
7029,7678,6406,36,34,12,10240,-1.00,-1.00,1.85,1.50,6987,7644,6394,85,115,52,66,100,0
7039,7681,6407,41,35,11,10240,-1.00,-1.00,1.85,1.50,6988,7646,6395,85,115,52,66,100,0
7039,7682,6408,45,35,12,10240,-1.00,-1.00,1.85,1.50,6990,7647,6395,85,115,52,66,100,0
7040,7685,6408,47,35,12,10240,-1.00,-1.00,1.85,1.50,6992,7648,6396,85,115,52,66,100,0
7039,7689,6412,48,36,13,10240,-1.00,-1.00,1.85,1.50,6993,7649,6396,85,115,52,66,100,0
7039,7689,6412,46,37,14,10240,-1.00,-1.00,1.85,1.50,6995,7651,6397,77,115,52,66,100,0
7039,7691,6411,45,38,14,10240,-1.00,-1.00,1.85,1.50,6996,7652,6397,77,115,52,66,100,0
7040,7695,6411,43,39,14,10240,-1.00,-1.00,1.85,1.50,6998,7653,6398,77,115,52,66,100,0
7040,7695,6410,42,39,13,10240,-1.00,-1.00,1.85,1.50,6999,7655,6398,77,115,52,67,100,0
7040,7699,6410,41,41,12,10240,-1.00,-1.00,1.85,1.50,7001,7656,6399,77,115,52,67,100,0
7040,7698,6407,40,41,11,10240,-1.00,-1.00,1.85,1.50,7002,7658,6399,77,115,52,67,100,0
7041,7702,6406,39,41,9,10240,-1.00,-1.00,1.85,1.50,7003,7659,6399,77,115,52,67,100,0
7042,7694,6406,38,40,8,10240,-1.00,-1.00,1.85,1.50,7005,7660,6399,77,98,52,67,100,0
7042,7689,6406,37,36,7,10240,-1.00,-1.00,1.85,1.50,7006,7661,6400,77,98,52,67,100,0
7041,7683,6407,36,31,6,10240,-1.00,-1.00,1.85,1.50,7007,7662,6400,77,98,52,67,100,0
7032,7680,6405,32,25,6,10240,-1.00,-1.00,1.85,1.50,7008,7663,6400,77,98,52,67,100,0
7012,7676,6406,24,19,6,10240,-1.00,-1.00,1.85,1.50,7008,7663,6400,77,98,52,67,100,0
7007,7675,6404,15,15,5,10240,-1.00,-1.00,1.85,1.50,7008,7664,6400,77,98,52,67,100,0
7004,7673,6404,5,12,4,10240,-1.00,-1.00,1.85,1.50,7008,7664,6400,77,98,52,67,100,0
7003,7672,6404,-1,10,4,10240,-1.00,-1.00,1.85,1.50,7008,7664,6401,77,98,52,67,100,0
7005,7673,6405,-3,9,3,10240,-1.00,-1.00,1.85,1.50,7007,7664,6401,77,98,52,67,100,0
7009,7677,6406,-2,9,4,10240,-1.00,-1.00,1.85,1.50,7008,7665,6401,77,98,52,67,100,0
7011,7676,6406,0,10,4,10240,-1.00,-1.00,1.85,1.50,7008,7665,6401,77,98,52,67,100,0
7014,7679,6405,2,11,4,10240,-1.00,-1.00,1.85,1.50,7008,7666,6401,77,98,52,67,100,0
7016,7679,6405,4,12,4,10240,-1.00,-1.00,1.85,1.50,7008,7666,6401,77,98,52,67,100,0
7016,7680,6404,6,12,4,10240,-1.00,-1.00,1.85,1.50,7008,7667,6401,77,98,52,67,100,0
7026,7681,6404,9,13,3,10240,-1.00,-1.00,1.85,1.50,7009,7667,6401,77,98,52,67,100,0
7031,7679,6405,13,13,3,10240,-1.00,-1.00,1.85,1.50,7010,7667,6402,77,98,52,67,100,0
7033,7681,6404,17,13,2,10240,-1.00,-1.00,1.85,1.50,7010,7668,6402,77,98,52,67,100,0
7038,7680,6405,22,12,2,10240,-1.00,-1.00,1.85,1.50,7011,7668,6402,77,98,52,67,100,0
7042,7680,6404,25,12,2,10240,-1.00,-1.00,1.85,1.50,7012,7669,6402,77,98,52,67,100,0
7041,7683,6406,27,12,2,10240,-1.00,-1.00,1.85,1.50,7013,7669,6402,77,98,52,67,100,0
7041,7685,6407,28,13,3,10240,-1.00,-1.00,1.85,1.50,7014,7670,6402,77,98,52,67,100,0
7042,7685,6406,28,13,3,10240,-1.00,-1.00,1.85,1.50,7015,7670,6402,77,98,52,67,100,0
7041,7689,6407,26,15,4,10240,-1.00,-1.00,1.85,1.50,7016,7671,6402,65,98,52,67,100,0
7042,7688,6405,26,16,4,10240,-1.00,-1.00,1.85,1.50,7017,7671,6403,65,98,52,67,100,0
7044,7691,6402,25,17,2,10240,-1.00,-1.00,1.85,1.50,7018,7672,6402,65,98,52,67,100,0
7044,7694,6402,25,18,1,10240,-1.00,-1.00,1.85,1.50,7019,7673,6402,65,98,52,67,100,0
7044,7696,6401,25,19,0,10240,-1.00,-1.00,1.85,1.50,7020,7674,6402,65,98,52,67,100,0
7045,7697,6400,25,21,0,10240,-1.00,-1.00,1.85,1.50,7020,7674,6402,65,98,52,67,100,0
7046,7704,6398,24,23,-1,10240,-1.00,-1.00,1.85,1.50,7021,7675,6402,65,98,52,67,100,0
7048,7720,6395,25,29,-3,10240,-1.00,-1.00,1.85,1.50,7022,7677,6402,65,98,52,67,100,0
7049,7710,6393,25,31,-5,10240,-1.00,-1.00,1.85,1.50,7023,7678,6402,65,98,52,67,100,0
7046,7694,6398,24,30,-6,10240,-1.00,-1.00,1.85,1.50,7024,7678,6402,65,81,52,67,100,0
7043,7683,6404,23,23,-4,10240,-1.00,-1.00,1.85,1.50,7024,7679,6402,65,81,52,67,100,0
7039,7682,6404,20,13,-2,10240,-1.00,-1.00,1.85,1.50,7025,7679,6402,65,81,52,67,100,0
7023,7683,6403,13,6,0,10240,-1.00,-1.00,1.85,1.50,7025,7679,6402,65,81,52,67,100,0
7020,7681,6404,6,3,1,10240,-1.00,-1.00,1.85,1.50,7025,7679,6402,65,81,52,67,100,0
7018,7681,6404,0,2,1,10240,-1.00,-1.00,1.85,1.50,7025,7679,6402,65,81,52,67,100,0
7019,7681,6404,-4,2,1,10240,-1.00,-1.00,1.85,1.50,7024,7679,6402,65,81,52,67,100,0
7020,7681,6404,-5,2,2,10240,-1.00,-1.00,1.85,1.50,7024,7679,6402,65,81,52,67,100,0
7023,7681,6404,-4,2,2,10240,-1.00,-1.00,1.85,1.50,7024,7679,6402,65,81,52,67,100,0
7030,7682,6404,-1,2,2,10240,-1.00,-1.00,1.85,1.50,7024,7679,6402,65,81,52,67,100,0
7030,7682,6404,1,2,2,10240,-1.00,-1.00,1.85,1.50,7025,7679,6402,65,81,52,67,100,0
7035,7682,6404,5,2,2,10240,-1.00,-1.00,1.85,1.50,7025,7679,6402,65,81,52,67,100,0
7038,7682,6404,8,2,2,10240,-1.00,-1.00,1.85,1.50,7025,7680,6402,65,81,52,67,100,0
7041,7681,6404,10,2,2,10240,-1.00,-1.00,1.85,1.50,7026,7680,6402,65,81,52,67,100,0
7042,7682,6403,13,2,1,10240,-1.00,-1.00,1.85,1.50,7026,7680,6402,65,81,52,67,100,0
7043,7682,6403,15,1,1,10240,-1.00,-1.00,1.85,1.50,7027,7680,6402,65,81,52,67,100,0
7043,7684,6403,15,2,1,10240,-1.00,-1.00,1.85,1.50,7027,7680,6403,65,81,52,67,100,0
7043,7684,6403,15,3,0,10240,-1.00,-1.00,1.85,1.50,7028,7680,6403,65,81,52,67,100,0
7044,7687,6402,15,4,0,10240,-1.00,-1.00,1.85,1.50,7029,7680,6402,65,81,52,67,100,0
7046,7695,6397,15,7,-1,10240,-1.00,-1.00,1.85,1.50,7029,7681,6402,65,81,52,67,100,0
7048,7702,6394,16,11,-3,10240,-1.00,-1.00,1.85,1.50,7030,7681,6402,65,81,52,67,100,0
7050,7709,6390,17,17,-6,10240,-1.00,-1.00,1.85,1.50,7030,7682,6402,65,81,52,67,100,0
7052,7719,6385,19,24,-10,10240,-1.00,-1.00,1.85,1.50,7031,7684,6401,65,81,52,67,100,0
7053,7723,6383,20,30,-13,10240,-1.00,-1.00,1.85,1.50,7032,7685,6400,65,81,52,67,100,0
7055,7730,6383,21,36,-15,10240,-1.00,-1.00,1.85,1.50,7033,7686,6400,65,81,52,67,100,0
7057,7736,6390,22,41,-15,10240,-1.00,-1.00,1.85,1.50,7033,7688,6400,65,81,52,67,100,0
7059,7736,6396,23,44,-11,10240,-1.00,-1.00,1.85,1.50,7034,7690,6399,65,81,52,67,100,0
7065,7742,6409,25,47,-5,10240,-1.00,-1.00,1.85,1.50,7035,7691,6400,65,81,52,67,100,0
7067,7747,6411,27,49,1,10240,-1.00,-1.00,1.85,1.50,7036,7693,6400,65,81,52,67,100,0
7066,7743,6403,28,49,5,10240,-1.00,-1.00,1.85,1.50,7037,7695,6400,65,81,52,67,100,0
7057,7733,6382,27,47,1,10240,-1.00,-1.00,1.85,1.50,7038,7696,6400,57,73,52,67,100,0
7052,7719,6385,23,40,-4,10240,-1.00,-1.00,1.85,1.50,7039,7697,6399,57,73,52,67,100,0
7046,7694,6398,17,26,-7,10240,-1.00,-1.00,1.85,1.50,7039,7697,6399,57,73,52,67,100,0
7043,7683,6403,10,10,-7,10240,-1.00,-1.00,1.85,1.50,7039,7696,6399,57,73,52,67,100,0
7042,7683,6403,6,-1,-1,10240,-1.00,-1.00,1.85,1.50,7039,7696,6399,57,73,52,67,100,0
7041,7683,6403,4,-10,2,10240,-1.00,-1.00,1.85,1.50,7039,7696,6400,57,73,52,67,100,0
7042,7683,6404,3,-12,3,10240,-1.00,-1.00,1.85,1.50,7039,7695,6400,57,73,52,67,100,0
7041,7684,6403,2,-12,3,10240,-1.00,-1.00,1.85,1.50,7039,7695,6400,57,73,52,67,100,0
7043,7683,6404,2,-11,3,10240,-1.00,-1.00,1.85,1.50,7039,7694,6400,57,73,52,67,100,0
7043,7682,6404,3,-11,3,10240,-1.00,-1.00,1.85,1.50,7040,7694,6400,57,73,52,67,100,0
7043,7683,6403,3,-11,3,10240,-1.00,-1.00,1.85,1.50,7040,7694,6400,57,73,52,67,100,0
7043,7683,6403,3,-11,3,10240,-1.00,-1.00,1.85,1.50,7040,7693,6400,57,73,52,67,100,0
7043,7685,6402,3,-10,3,10240,-1.00,-1.00,1.85,1.50,7040,7693,6400,57,73,52,67,100,0
7045,7692,6398,3,-7,1,10240,-1.00,-1.00,1.85,1.50,7040,7693,6400,57,73,52,67,100,0
7046,7694,6398,4,-4,0,10240,-1.00,-1.00,1.85,1.50,7040,7693,6400,57,73,52,68,100,0
7050,7710,6390,5,2,-3,10240,-1.00,-1.00,1.85,1.50,7041,7694,6400,57,73,52,68,100,0
7052,7717,6386,7,9,-6,10240,-1.00,-1.00,1.85,1.50,7041,7694,6399,57,73,52,68,100,0
7053,7722,6384,9,16,-10,10240,-1.00,-1.00,1.85,1.50,7041,7695,6399,57,73,52,68,100,0
7054,7726,6382,11,24,-13,10240,-1.00,-1.00,1.85,1.50,7042,7696,6398,57,73,52,68,100,0
7055,7730,6380,12,28,-15,10240,-1.00,-1.00,1.85,1.50,7042,7697,6398,57,73,52,68,100,0
7058,7735,6381,13,31,-16,10240,-1.00,-1.00,1.85,1.50,7043,7699,6397,57,73,52,68,100,0
7061,7736,6386,14,33,-15,10240,-1.00,-1.00,1.85,1.50,7043,7700,6397,57,73,52,68,100,0
7064,7740,6391,16,36,-12,10240,-1.00,-1.00,1.85,1.50,7044,7701,6397,57,73,52,68,100,0
7068,7744,6398,19,38,-8,10240,-1.00,-1.00,1.85,1.50,7045,7703,6397,57,73,52,68,100,0
7074,7753,6409,22,41,-1,10240,-1.00,-1.00,1.85,1.50,7046,7704,6397,57,73,52,68,100,0
7079,7761,6417,25,46,6,10240,-1.00,-1.00,1.85,1.50,7047,7706,6398,57,73,52,68,100,0
7080,7763,6419,28,50,13,10240,-1.00,-1.00,1.85,1.50,7048,7708,6398,57,73,52,78,100,0
7084,7763,6419,31,53,18,10240,-1.00,-1.00,1.85,1.50,7049,7710,6399,57,73,52,78,100,0
7080,7758,6412,32,52,18,10240,-1.00,-1.00,1.85,1.50,7050,7712,6399,57,71,52,78,100,0
7068,7743,6392,28,46,11,10240,-1.00,-1.00,1.85,1.50,7051,7713,6399,50,71,47,78,100,0
7054,7726,6382,21,35,2,10240,0.50,-0.08,1.25,0.97,7051,7713,6399,50,71,47,78,100,0
7049,7707,6391,12,20,-4,10240,0.50,-0.08,1.25,0.97,7051,7713,6398,50,71,47,78,100,0
7044,7688,6400,2,3,-7,10240,0.50,-0.08,1.25,0.97,7051,7712,6398,50,71,47,78,100,0
7043,7683,6403,-3,-11,-4,10240,0.50,-0.08,1.25,0.97,7050,7711,6399,50,71,47,78,100,0
7043,7684,6403,-5,-21,0,10240,0.50,-0.08,1.25,0.97,7050,7710,6399,50,71,47,78,100,0
7044,7685,6402,-6,-25,3,10240,0.50,-0.08,1.25,0.97,7050,7709,6399,50,71,47,78,100,0
7043,7685,6402,-6,-25,3,10240,0.50,-0.08,1.25,0.97,7050,7708,6399,50,71,47,78,100,0
7044,7686,6401,-6,-23,3,10240,0.50,-0.08,1.25,0.97,7049,7708,6399,50,71,47,88,100,0
7045,7690,6400,-5,-21,2,10240,0.50,-0.08,1.25,0.97,7049,7707,6399,50,71,47,88,100,0
7046,7695,6397,-4,-18,1,10240,0.50,-0.08,1.25,0.97,7049,7707,6399,50,71,47,88,100,0
7051,7712,6389,-2,-11,-2,10240,0.50,-0.08,1.25,0.97,7049,7707,6399,50,71,47,88,100,0
7051,7716,6387,0,-3,-5,10240,0.50,-0.08,1.25,0.97,7049,7707,6398,50,71,47,88,100,0
7052,7720,6385,1,3,-9,10240,0.50,-0.08,1.25,0.97,7049,7708,6398,50,71,47,88,100,0
7053,7723,6383,2,10,-12,10240,0.50,-0.08,1.25,0.97,7050,7708,6397,50,71,47,88,100,0
7053,7725,6382,2,13,-13,10240,0.50,-0.08,1.25,0.97,7050,7709,6397,50,71,47,88,100,0
7055,7732,6379,3,16,-14,10240,0.50,-0.08,1.25,0.97,7050,7709,6396,50,71,47,88,100,0
7056,7734,6378,4,19,-16,10240,0.50,-0.08,1.25,0.97,7050,7710,6396,50,71,47,88,100,0
7057,7734,6378,5,21,-16,10240,0.50,-0.08,1.25,0.97,7050,7711,6395,50,71,47,88,100,0
7057,7736,6378,6,23,-17,10240,0.50,-0.08,1.25,0.97,7051,7712,6394,50,71,47,88,100,0
7057,7738,6376,6,24,-17,10240,0.50,-0.08,1.25,0.97,7051,7713,6394,50,71,47,88,100,0
7063,7740,6387,7,24,-14,10240,0.50,-0.08,1.25,0.97,7051,7714,6394,50,71,47,88,100,0
7066,7743,6390,9,25,-11,10240,0.50,-0.08,1.25,0.97,7052,7715,6394,50,71,47,88,100,0
7073,7747,6400,13,27,-5,10240,0.50,-0.08,1.25,0.97,7052,7716,6394,50,71,47,88,100,0
7076,7750,6401,17,29,0,10240,0.50,-0.08,1.25,0.97,7053,7717,6394,50,71,47,88,100,0
7079,7754,6405,20,32,5,10240,0.50,-0.08,1.25,0.97,7054,7718,6394,50,71,47,88,100,0
7086,7762,6411,25,35,10,10240,0.50,-0.08,1.25,0.97,7055,7720,6395,50,71,47,88,100,0
7083,7759,6409,26,37,12,10240,0.50,-0.08,1.25,0.97,7056,7721,6395,50,71,47,88,100,0
7076,7750,6401,25,36,11,10240,0.50,-0.08,1.25,0.97,7057,7722,6396,46,68,43,88,100,0
7059,7737,6380,19,30,5,10240,0.50,-0.08,1.31,0.97,7057,7722,6395,46,68,43,88,100,0
7054,7728,6380,11,21,-2,10240,0.50,-0.08,1.31,0.97,7057,7723,6395,46,68,43,88,100,0
7044,7688,6400,1,3,-5,10240,0.50,-0.08,1.31,0.97,7056,7721,6395,46,68,43,88,100,0
7038,7682,6400,-7,-12,-5,10240,0.50,-0.08,1.31,0.97,7056,7720,6395,46,68,43,88,100,0
7034,7680,6398,-13,-26,0,10240,0.50,-0.08,1.31,0.97,7055,7719,6395,46,68,43,88,100,0
7032,7679,6397,-18,-37,3,10240,0.50,-0.08,1.31,0.97,7054,7717,6395,46,68,43,88,100,0
7031,7678,6396,-20,-38,2,10240,0.50,-0.08,1.31,0.97,7053,7716,6395,46,68,43,88,100,0
7034,7680,6398,-21,-37,2,10240,0.50,-0.08,1.31,0.97,7053,7715,6395,46,68,43,88,100,0
7037,7681,6401,-19,-36,3,10240,0.50,-0.08,1.31,0.97,7052,7714,6395,46,68,43,88,100,0
7038,7684,6402,-17,-33,4,10240,0.50,-0.08,1.31,0.97,7052,7713,6396,46,68,43,87,100,0
7043,7684,6403,-14,-31,5,10240,0.50,-0.08,1.31,0.97,7051,7712,6396,46,68,43,87,100,0
7042,7684,6403,-11,-29,6,10240,0.50,-0.08,1.31,0.97,7051,7711,6396,46,68,43,87,100,0
7043,7683,6403,-9,-27,6,10240,0.50,-0.08,1.31,0.97,7051,7710,6396,46,68,43,87,100,0
7045,7692,6398,-7,-24,5,10240,0.50,-0.08,1.31,0.97,7051,7709,6396,46,68,43,87,100,0
7047,7697,6396,-6,-20,4,10240,0.50,-0.08,1.31,0.97,7050,7709,6396,46,68,43,87,100,0
7046,7695,6396,-5,-17,2,10240,0.50,-0.08,1.31,0.97,7050,7708,6396,46,68,43,87,100,0
7049,7706,6391,-3,-11,0,10240,0.50,-0.08,1.31,0.97,7050,7708,6396,46,68,43,87,100,0
7052,7712,6389,-1,-6,-3,10240,0.50,-0.08,1.31,0.97,7050,7709,6396,46,68,43,87,100,0
7053,7722,6384,0,0,-6,10240,0.50,-0.08,1.31,0.97,7050,7709,6396,46,68,43,87,100,0
7054,7726,6381,1,7,-9,10240,0.50,-0.08,1.31,0.97,7051,7710,6395,46,68,43,87,100,0
7054,7727,6381,2,12,-11,10240,0.50,-0.08,1.31,0.97,7051,7710,6395,46,68,43,87,100,0
7055,7730,6380,3,16,-13,10240,0.50,-0.08,1.31,0.97,7051,7711,6394,46,68,43,87,100,0
7056,7733,6378,3,18,-14,10240,0.50,-0.08,1.31,0.97,7051,7712,6394,46,68,43,87,100,0
7056,7735,6377,4,20,-15,10240,0.50,-0.08,1.31,0.97,7051,7712,6393,46,68,43,87,100,0
7058,7733,6378,5,20,-15,10240,0.50,-0.08,1.31,0.97,7051,7713,6392,46,68,43,87,100,0
7061,7734,6383,6,21,-13,10240,0.50,-0.08,1.31,0.97,7052,7714,6392,46,68,43,87,100,0
7063,7738,6386,8,21,-11,10240,0.50,-0.08,1.31,0.97,7052,7714,6392,46,68,43,87,100,0
7069,7742,6395,10,22,-6,10240,0.50,-0.08,1.31,0.97,7053,7715,6392,46,68,43,87,100,0
7068,7738,6392,12,23,-3,10240,0.50,-0.08,1.31,0.97,7053,7716,6392,46,68,43,87,100,0
7060,7736,6381,12,23,-3,10240,0.50,-0.08,1.31,0.97,7053,7717,6392,46,68,43,87,100,0
7055,7732,6379,10,20,-5,10240,0.50,-0.08,1.31,0.97,7053,7717,6391,43,67,43,87,100,0
7052,7719,6385,5,14,-7,10240,0.50,-0.08,1.31,0.97,7053,7717,6391,43,67,43,87,100,0
7047,7699,6394,0,4,-6,10240,0.50,-0.08,1.31,0.97,7053,7717,6391,43,67,43,87,100,0
7039,7680,6398,-4,-9,-2,10240,0.50,-0.08,1.31,0.97,7053,7716,6391,43,67,43,87,100,0
7037,7678,6397,-9,-22,2,10240,0.50,-0.08,1.31,0.97,7052,7714,6392,43,67,43,87,100,0
7039,7680,6398,-12,-30,5,10240,0.50,-0.08,1.31,0.97,7052,7713,6392,43,67,43,87,100,0
7038,7679,6398,-13,-34,6,10240,0.50,-0.08,1.31,0.97,7051,7712,6392,43,67,43,87,100,0
7040,7681,6400,-13,-33,6,10240,0.50,-0.08,1.31,0.97,7051,7711,6392,43,67,43,87,100,0
7042,7683,6403,-11,-30,7,10240,0.50,-0.08,1.31,0.97,7051,7710,6393,43,67,43,87,100,0
7043,7684,6402,-10,-28,8,10240,0.50,-0.08,1.31,0.97,7050,7709,6393,43,67,43,87,100,0
7045,7692,6399,-8,-24,8,10240,0.50,-0.08,1.31,0.97,7050,7709,6393,43,67,43,87,100,0
7049,7708,6391,-5,-17,5,10240,0.50,-0.08,1.31,0.97,7050,7709,6393,43,67,43,87,100,0
7049,7708,6391,-3,-11,2,10240,0.50,-0.08,1.31,0.97,7050,7709,6393,43,67,43,87,100,0
7051,7715,6387,-1,-3,-1,10240,0.50,-0.08,1.31,0.97,7050,7709,6393,43,67,43,87,100,0
7051,7716,6386,0,2,-4,10240,0.50,-0.08,1.31,0.97,7050,7709,6393,43,67,43,84,100,0
7052,7720,6385,0,5,-5,10240,0.50,-0.08,1.31,0.97,7050,7709,6392,43,67,43,84,100,0
7053,7723,6383,1,9,-7,10240,0.50,-0.08,1.31,0.97,7050,7710,6392,43,67,43,84,100,0
7054,7727,6381,2,12,-8,10240,0.50,-0.08,1.31,0.97,7051,7710,6392,43,67,43,84,100,0
7056,7732,6379,3,15,-9,10240,0.50,-0.08,1.31,0.97,7051,7711,6391,43,67,43,84,100,0
7056,7733,6378,4,18,-11,10240,0.50,-0.08,1.31,0.97,7051,7712,6391,43,67,43,84,100,0
7056,7736,6377,4,20,-12,10240,0.50,-0.08,1.31,0.97,7051,7713,6390,43,67,43,84,100,0
7057,7737,6376,5,22,-13,10240,0.50,-0.08,1.31,0.97,7051,7713,6390,43,67,43,84,100,0
7058,7735,6377,5,22,-13,10240,0.50,-0.08,1.31,0.97,7051,7714,6389,43,67,43,84,100,0
7066,7731,6388,8,21,-10,10240,0.50,-0.08,1.31,0.97,7052,7715,6389,43,64,43,84,100,0
7067,7737,6392,10,20,-6,10240,0.50,-0.08,1.31,0.97,7052,7716,6389,43,64,43,84,100,0
7072,7738,6392,13,20,-2,10240,0.50,-0.08,1.31,0.97,7053,7716,6390,43,64,43,84,100,0
7073,7745,6398,16,21,3,10240,0.50,-0.08,1.31,0.97,7054,7717,6390,43,64,43,84,100,0
7078,7749,6405,19,25,7,10240,0.50,-0.08,1.31,0.97,7055,7718,6390,43,64,43,84,100,0
7069,7737,6388,18,24,5,10240,0.50,-0.08,1.31,0.97,7055,7719,6390,40,64,43,84,100,0
7057,7734,6378,14,23,2,10240,0.50,-0.08,1.31,0.97,7055,7719,6390,40,64,43,84,100,0
7054,7724,6383,9,17,-1,10240,0.50,-0.08,1.31,0.97,7055,7720,6390,40,64,43,84,100,0
7049,7705,6391,2,5,-5,10240,0.50,-0.08,1.31,0.97,7055,7719,6390,40,64,43,84,100,0
7042,7682,6399,-4,-7,-2,10240,0.50,-0.08,1.31,0.97,7054,7718,6390,40,64,43,84,100,0
7037,7676,6394,-9,-21,1,10240,0.50,-0.08,1.31,0.97,7054,7716,6390,40,64,43,84,100,0
7038,7678,6396,-12,-31,5,10240,0.50,-0.08,1.31,0.97,7053,7715,6390,40,64,43,84,100,0
7037,7678,6396,-15,-37,6,10240,0.50,-0.08,1.31,0.97,7053,7714,6391,40,64,43,84,100,0
7039,7679,6397,-15,-36,5,10240,0.50,-0.08,1.31,0.97,7052,7713,6391,40,64,43,84,100,0
7039,7680,6397,-14,-34,5,10240,0.50,-0.08,1.31,0.97,7052,7712,6391,40,64,43,84,100,0
7041,7682,6401,-13,-32,6,10240,0.50,-0.08,1.31,0.97,7052,7711,6391,40,64,43,84,100,0
7043,7682,6402,-11,-30,8,10240,0.50,-0.08,1.31,0.97,7051,7710,6392,40,64,43,84,100,0
7043,7685,6400,-10,-28,8,10240,0.50,-0.08,1.31,0.97,7051,7709,6392,40,64,43,84,100,0
7046,7692,6397,-8,-24,8,10240,0.50,-0.08,1.31,0.97,7051,7708,6392,40,64,43,84,100,0
7049,7707,6391,-5,-17,5,10240,0.50,-0.08,1.31,0.97,7051,7708,6392,40,64,43,84,100,0
7052,7717,6386,-3,-8,1,10240,0.50,-0.08,1.31,0.97,7051,7709,6392,40,64,43,84,100,0
7052,7720,6384,-1,0,-2,10240,0.50,-0.08,1.31,0.97,7051,7709,6392,40,64,43,84,100,0
7053,7724,6382,0,8,-6,10240,0.50,-0.08,1.31,0.97,7051,7709,6391,40,64,43,84,100,0
7054,7727,6381,1,12,-8,10240,0.50,-0.08,1.31,0.97,7051,7710,6391,40,64,43,84,100,0
7055,7729,6380,2,15,-9,10240,0.50,-0.08,1.31,0.97,7051,7711,6391,40,64,43,84,100,0
7056,7733,6380,3,18,-10,10240,0.50,-0.08,1.31,0.97,7051,7711,6390,40,64,43,84,100,0
7056,7734,6377,4,19,-11,10240,0.50,-0.08,1.31,0.97,7051,7712,6390,40,64,43,84,100,0
7057,7737,6376,4,21,-11,10240,0.50,-0.08,1.31,0.97,7052,7713,6389,40,64,43,84,100,0
7057,7737,6376,5,22,-12,10240,0.50,-0.08,1.31,0.97,7052,7714,6389,40,64,43,84,100,0
7057,7739,6375,5,23,-13,10240,0.50,-0.08,1.31,0.97,7052,7715,6388,40,64,43,84,100,0
7061,7735,6377,6,22,-12,10240,0.50,-0.08,1.31,0.97,7052,7715,6388,40,63,43,84,100,0
7062,7736,6379,7,21,-11,10240,0.50,-0.08,1.31,0.97,7053,7716,6388,40,63,43,84,100,0
7063,7735,6378,8,20,-10,10240,0.50,-0.08,1.31,0.97,7053,7717,6387,40,63,43,84,100,0
7061,7736,6378,9,19,-9,10240,0.50,-0.08,1.31,0.97,7053,7717,6387,40,63,43,84,100,0
7056,7736,6377,7,18,-9,10240,0.50,-0.08,1.31,0.97,7053,7718,6387,36,63,43,84,100,0
7049,7703,6382,4,10,-8,10240,0.50,-0.08,1.31,0.97,7053,7717,6387,36,63,43,84,100,0
7040,7678,6395,-1,-3,-4,10240,0.50,-0.08,1.31,0.97,7053,7716,6387,36,63,43,84,100,0
7034,7674,6390,-8,-18,-1,10240,0.50,-0.08,1.31,0.97,7052,7715,6387,36,63,43,84,100,0
7029,7670,6385,-14,-34,1,10240,0.50,-0.08,1.31,0.97,7051,7713,6387,36,63,43,84,100,0
7026,7667,6381,-19,-41,0,10240,0.50,-0.08,1.31,0.97,7051,7712,6387,36,63,43,84,100,0
7030,7669,6386,-21,-42,-1,10240,0.50,-0.08,1.31,0.97,7050,7710,6387,36,63,43,84,100,0
7037,7677,6396,-19,-40,0,10240,0.50,-0.08,1.31,0.97,7049,7709,6387,36,63,43,84,100,0
7037,7677,6393,-17,-37,2,10240,0.50,-0.08,1.31,0.97,7049,7708,6387,36,63,43,84,100,0
7039,7680,6397,-13,-32,6,10240,0.50,-0.08,1.31,0.97,7049,7707,6387,36,63,43,84,100,0
7041,7681,6399,-10,-28,9,10240,0.50,-0.08,1.31,0.97,7048,7706,6388,36,63,43,84,100,0
7043,7682,6399,-8,-26,9,10240,0.50,-0.08,1.31,0.97,7048,7705,6388,36,63,43,84,100,0
7048,7700,6393,-5,-20,9,10240,0.50,-0.08,1.31,0.97,7048,7705,6388,36,63,43,84,100,0
7050,7710,6389,-2,-12,7,10240,0.50,-0.08,1.31,0.97,7048,7705,6388,36,63,43,84,100,0
7051,7713,6388,0,-4,4,10240,0.50,-0.08,1.31,0.97,7048,7706,6388,36,63,43,84,100,0
7052,7717,6386,2,4,1,10240,0.50,-0.08,1.31,0.97,7049,7706,6388,36,63,43,84,100,0
7052,7720,6385,2,9,-1,10240,0.50,-0.08,1.31,0.97,7049,7707,6388,36,63,43,82,100,0
7053,7725,6382,3,12,-2,10240,0.50,-0.08,1.31,0.97,7049,7707,6388,36,63,43,82,100,0
7054,7728,6380,3,15,-4,10240,0.50,-0.08,1.31,0.97,7049,7708,6388,36,63,43,82,100,0
7055,7731,6380,4,18,-6,10240,0.50,-0.08,1.31,0.97,7049,7709,6388,36,63,43,82,100,0
7056,7733,6378,5,21,-7,10240,0.50,-0.08,1.31,0.97,7049,7709,6387,36,63,43,82,100,0
7056,7736,6377,6,23,-8,10240,0.50,-0.08,1.31,0.97,7050,7710,6387,36,63,43,82,100,0
7057,7740,6375,6,25,-9,10240,0.50,-0.08,1.31,0.97,7050,7711,6386,36,63,43,82,100,0
7060,7738,6376,7,26,-10,10240,0.50,-0.08,1.31,0.97,7050,7712,6386,36,63,43,82,100,0
7062,7738,6377,8,26,-10,10240,0.50,-0.08,1.31,0.97,7051,7713,6386,36,63,43,82,100,0
7066,7736,6381,10,25,-8,10240,0.50,-0.08,1.31,0.97,7051,7714,6386,36,64,43,82,100,0
7071,7736,6383,13,23,-6,10240,0.50,-0.08,1.31,0.97,7052,7715,6386,36,64,43,82,100,0
7078,7746,6396,17,24,-1,10240,0.50,-0.08,1.31,0.97,7053,7716,6386,36,64,43,82,100,0
7081,7748,6396,21,26,3,10240,0.50,-0.08,1.31,0.97,7054,7717,6386,36,64,43,82,100,0
7078,7740,6388,23,26,4,10240,0.50,-0.08,1.31,0.97,7054,7717,6386,36,64,43,82,100,0
7064,7737,6377,21,25,3,10240,0.50,-0.08,1.31,0.97,7055,7718,6386,38,64,43,82,100,0
7056,7734,6378,15,22,-1,10240,0.50,-0.08,1.31,0.97,7055,7719,6386,38,64,43,82,100,0
7049,7690,6392,7,7,-2,10240,0.50,-0.08,1.31,0.97,7055,7718,6386,38,64,43,82,100,0
7044,7681,6395,-1,-7,0,10240,0.50,-0.08,1.31,0.97,7054,7716,6386,38,64,43,82,100,0
7043,7681,6396,-6,-20,4,10240,0.50,-0.08,1.31,0.97,7054,7715,6387,38,64,43,82,100,0
7041,7680,6393,-9,-32,7,10240,0.50,-0.08,1.31,0.97,7053,7714,6387,38,64,43,82,100,0
7041,7679,6395,-11,-34,8,10240,0.50,-0.08,1.31,0.97,7053,7713,6387,38,64,43,82,100,0
7044,7681,6398,-11,-33,8,10240,0.50,-0.08,1.31,0.97,7053,7712,6387,38,64,43,82,100,0
7046,7685,6395,-9,-31,8,10240,0.50,-0.08,1.31,0.97,7052,7711,6388,38,64,43,82,100,0
7047,7692,6394,-8,-27,8,10240,0.50,-0.08,1.31,0.97,7052,7710,6388,38,64,43,82,100,0
7049,7705,6391,-5,-20,6,10240,0.50,-0.08,1.31,0.97,7052,7710,6388,38,64,43,82,100,0
7051,7713,6388,-3,-11,4,10240,0.50,-0.08,1.31,0.97,7052,7710,6388,38,64,43,82,100,0
7053,7723,6385,-2,-2,1,10240,0.50,-0.08,1.31,0.97,7052,7711,6388,38,64,43,82,100,0
7053,7724,6382,0,5,-1,10240,0.50,-0.08,1.31,0.97,7052,7711,6388,38,64,43,82,100,0
7055,7728,6381,1,11,-3,10240,0.50,-0.08,1.31,0.97,7052,7712,6387,38,64,43,82,100,0
7055,7730,6380,2,14,-5,10240,0.50,-0.08,1.31,0.97,7052,7712,6387,38,64,43,82,100,0
7055,7730,6380,2,16,-6,10240,0.50,-0.08,1.31,0.97,7052,7713,6387,38,64,43,82,100,0
7056,7734,6377,3,17,-7,10240,0.50,-0.08,1.31,0.97,7053,7714,6387,38,64,43,82,100,0
7057,7739,6375,3,20,-8,10240,0.50,-0.08,1.31,0.97,7053,7714,6386,38,64,43,82,100,0
7059,7738,6376,4,21,-9,10240,0.50,-0.08,1.31,0.97,7053,7715,6386,38,64,43,82,100,0
7062,7735,6377,5,21,-10,10240,0.50,-0.08,1.31,0.97,7053,7716,6386,38,64,43,82,100,0
7067,7734,6378,8,21,-9,10240,0.50,-0.08,1.31,0.97,7054,7717,6385,38,64,43,82,100,0
7073,7736,6381,11,19,-7,10240,0.50,-0.08,1.31,0.97,7054,7717,6385,38,62,43,82,100,0
7080,7744,6392,16,20,-3,10240,0.50,-0.08,1.31,0.97,7055,7718,6385,38,62,43,82,100,0
7082,7748,6397,20,22,1,10240,0.50,-0.08,1.31,0.97,7056,7719,6386,38,62,43,82,100,0
7087,7755,6404,25,27,8,10240,0.50,-0.08,1.31,0.97,7057,7720,6386,38,62,43,82,100,0
7090,7759,6407,28,31,14,10240,0.50,-0.08,1.31,0.97,7058,7722,6387,38,62,43,82,100,0
7094,7764,6409,30,35,17,10240,0.50,-0.08,1.31,0.97,7059,7723,6388,38,62,43,82,100,0
7093,7761,6407,32,37,19,10240,0.50,-0.08,1.31,0.97,7061,7724,6388,38,62,43,82,100,0
7083,7740,6385,30,32,14,10240,0.50,-0.08,1.31,0.97,7061,7725,6388,39,56,39,82,100,0
7060,7740,6375,22,27,6,10240,0.50,-0.08,1.19,0.90,7061,7725,6388,39,56,39,82,100,0
7055,7730,6380,11,18,-1,10240,0.50,-0.08,1.19,0.90,7061,7725,6388,39,56,39,82,100,0
7051,7704,6387,1,3,-6,10240,0.50,-0.08,1.19,0.90,7061,7725,6388,39,56,39,82,100,0
7048,7681,6391,-7,-10,-4,10240,0.50,-0.08,1.19,0.90,7060,7723,6388,39,56,39,82,100,0
7047,7680,6391,-10,-25,0,10240,0.50,-0.08,1.19,0.90,7060,7722,6388,39,56,39,82,100,0
7047,7682,6394,-11,-36,2,10240,0.50,-0.08,1.19,0.90,7059,7721,6388,39,56,39,82,100,0
7050,7682,6388,-11,-40,3,10240,0.50,-0.08,1.19,0.90,7059,7719,6388,39,56,39,82,100,0
7050,7700,6390,-10,-34,2,10240,0.50,-0.08,1.19,0.90,7059,7719,6388,39,56,39,81,100,0
7051,7712,6388,-9,-25,2,10240,0.50,-0.08,1.19,0.90,7059,7718,6388,39,56,39,81,100,0
7052,7719,6385,-8,-15,0,10240,0.50,-0.08,1.19,0.90,7058,7718,6388,39,56,39,81,100,0
7053,7724,6382,-7,-4,-1,10240,0.50,-0.08,1.19,0.90,7058,7719,6388,39,56,39,81,100,0
7054,7727,6381,-5,2,-4,10240,0.50,-0.08,1.19,0.90,7058,7719,6388,39,56,39,81,100,0
7055,7729,6381,-4,6,-5,10240,0.50,-0.08,1.19,0.90,7058,7719,6387,39,56,39,81,100,0
7056,7734,6378,-3,9,-7,10240,0.50,-0.08,1.19,0.90,7058,7720,6387,39,56,39,81,100,0
7056,7736,6377,-2,12,-8,10240,0.50,-0.08,1.19,0.90,7058,7720,6387,39,56,39,81,100,0
7057,7738,6376,-2,14,-8,10240,0.50,-0.08,1.19,0.90,7058,7721,6386,39,56,39,81,100,0
7057,7740,6375,-1,16,-10,10240,0.50,-0.08,1.19,0.90,7058,7721,6386,39,56,39,81,100,0
7059,7739,6375,0,17,-10,10240,0.50,-0.08,1.19,0.90,7058,7722,6386,39,56,39,81,100,0
7071,7733,6378,3,16,-9,10240,0.50,-0.08,1.19,0.90,7058,7722,6385,39,56,39,81,100,0
7075,7735,6380,7,14,-8,10240,0.50,-0.08,1.19,0.90,7059,7723,6385,39,56,39,81,100,0
7079,7737,6381,12,13,-6,10240,0.50,-0.08,1.19,0.90,7059,7723,6385,39,56,39,81,100,0
7084,7741,6386,18,13,-3,10240,0.50,-0.08,1.19,0.90,7060,7724,6385,39,56,39,81,100,0
7086,7749,6392,21,16,0,10240,0.50,-0.08,1.19,0.90,7061,7725,6385,39,56,39,81,100,0
7094,7760,6404,25,22,5,10240,0.50,-0.08,1.19,0.90,7062,7726,6386,39,56,39,81,100,0
7098,7764,6406,29,28,11,10240,0.50,-0.08,1.19,0.90,7063,7727,6387,39,56,39,81,100,0
7098,7769,6408,31,33,16,10240,0.50,-0.08,1.19,0.90,7065,7729,6387,39,56,39,81,100,0
7100,7772,6411,33,38,20,10240,0.50,-0.08,1.19,0.90,7066,7730,6388,39,56,39,81,100,0
7103,7773,6411,34,40,21,10240,0.50,-0.08,1.19,0.90,7067,7731,6389,39,56,39,81,100,0
7090,7748,6388,31,35,16,10240,0.50,-0.08,1.19,0.90,7068,7732,6389,41,49,37,81,100,0
7064,7739,6375,22,26,7,10240,0.50,-0.08,1.09,1.00,7068,7732,6388,41,49,37,81,100,0
7056,7735,6377,10,17,0,10240,0.50,-0.08,1.09,1.00,7067,7732,6388,41,49,37,81,100,0
7053,7715,6383,-1,2,-7,10240,0.50,-0.08,1.09,1.00,7067,7732,6388,41,49,37,81,100,0
7053,7692,6383,-10,-11,-8,10240,0.50,-0.08,1.09,1.00,7066,7730,6388,41,49,37,81,100,0
7052,7685,6385,-13,-24,-6,10240,0.50,-0.08,1.09,1.00,7066,7729,6388,41,49,37,81,100,0
7053,7688,6384,-13,-34,-4,10240,0.50,-0.08,1.09,1.00,7065,7728,6387,41,49,37,81,100,0
7052,7693,6384,-13,-38,-3,10240,0.50,-0.08,1.09,1.00,7065,7726,6387,41,49,37,81,100,0
7052,7700,6385,-13,-35,-2,10240,0.50,-0.08,1.09,1.00,7065,7726,6387,41,49,37,81,100,0
7053,7709,6385,-12,-28,-2,10240,0.50,-0.08,1.09,1.00,7064,7725,6387,41,49,37,81,100,0
7053,7725,6381,-12,-18,-3,10240,0.50,-0.08,1.09,1.00,7064,7725,6387,41,49,37,81,100,0
7055,7729,6380,-10,-9,-4,10240,0.50,-0.08,1.09,1.00,7063,7725,6387,41,49,37,81,100,0
7055,7732,6379,-9,-1,-5,10240,0.50,-0.08,1.09,1.00,7063,7725,6387,41,49,37,81,100,0
7056,7733,6378,-8,4,-7,10240,0.50,-0.08,1.09,1.00,7063,7726,6386,41,49,37,81,100,0
7056,7735,6377,-7,6,-8,10240,0.50,-0.08,1.09,1.00,7063,7726,6386,41,49,37,81,100,0
7058,7738,6376,-6,8,-8,10240,0.50,-0.08,1.09,1.00,7063,7726,6386,41,49,37,81,100,0
7058,7740,6375,-5,10,-9,10240,0.50,-0.08,1.09,1.00,7062,7727,6385,41,49,37,81,100,0
7061,7739,6375,-4,11,-9,10240,0.50,-0.08,1.09,1.00,7062,7727,6385,41,49,37,81,100,0
7066,7739,6375,-1,12,-10,10240,0.50,-0.08,1.09,1.00,7063,7728,6385,41,49,37,81,100,0
7072,7736,6377,1,11,-9,10240,0.50,-0.08,1.09,1.00,7063,7728,6384,41,49,37,81,100,0
7084,7734,6379,7,9,-8,10240,0.50,-0.08,1.09,1.00,7064,7728,6384,41,49,37,81,100,0
7086,7741,6382,13,9,-6,10240,0.50,-0.08,1.09,1.00,7064,7728,6384,41,49,37,81,100,0
7088,7741,6383,18,9,-3,10240,0.50,-0.08,1.09,1.00,7065,7729,6384,41,49,37,81,100,0
7091,7747,6390,22,12,0,10240,0.50,-0.08,1.09,1.00,7066,7730,6384,41,49,37,81,100,0
7094,7751,6393,24,15,2,10240,0.50,-0.08,1.09,1.00,7067,7730,6385,41,49,37,81,100,0
7097,7762,6399,26,20,6,10240,0.50,-0.08,1.09,1.00,7068,7731,6385,41,49,37,81,100,0
7102,7766,6403,28,25,11,10240,0.50,-0.08,1.09,1.00,7069,7732,6386,41,49,37,81,100,0
7099,7765,6400,29,29,13,10240,0.50,-0.08,1.09,1.00,7070,7734,6386,41,49,37,81,100,0
7096,7750,6388,29,28,11,10240,0.50,-0.08,1.09,1.00,7071,7734,6386,41,49,34,81,100,0
7080,7737,6377,24,21,6,10240,0.50,-0.08,1.19,1.09,7071,7734,6386,41,49,34,81,100,0
7054,7724,6381,11,10,0,10240,0.50,-0.08,1.19,1.09,7071,7734,6386,41,49,34,81,100,0
7055,7698,6379,0,-6,-4,10240,0.50,-0.08,1.19,1.09,7070,7733,6385,41,49,34,81,100,0
7054,7689,6380,-9,-21,-6,10240,0.50,-0.08,1.19,1.09,7070,7731,6385,41,49,34,81,100,0
7053,7685,6383,-16,-33,-4,10240,0.50,-0.08,1.19,1.09,7069,7730,6385,41,49,34,81,100,0
7053,7684,6382,-15,-41,-4,10240,0.50,-0.08,1.19,1.09,7068,7728,6385,41,49,34,81,100,0
7053,7689,6382,-15,-42,-3,10240,0.50,-0.08,1.19,1.09,7068,7727,6385,41,49,34,81,100,0
7053,7694,6382,-15,-39,-2,10240,0.50,-0.08,1.19,1.09,7067,7726,6385,41,49,34,81,100,0
7053,7700,6383,-14,-34,-2,10240,0.50,-0.08,1.19,1.09,7067,7725,6385,41,49,34,80,100,0
7053,7705,6383,-14,-28,-2,10240,0.50,-0.08,1.19,1.09,7066,7724,6385,41,49,34,80,100,0
7053,7717,6383,-13,-20,-2,10240,0.50,-0.08,1.19,1.09,7066,7724,6385,41,49,34,80,100,0
7055,7727,6380,-12,-12,-2,10240,0.50,-0.08,1.19,1.09,7066,7724,6385,41,49,34,80,100,0
7055,7731,6379,-11,-4,-3,10240,0.50,-0.08,1.19,1.09,7065,7724,6384,41,49,34,80,100,0
7056,7733,6378,-10,2,-4,10240,0.50,-0.08,1.19,1.09,7065,7725,6384,41,49,34,80,100,0
7056,7735,6377,-9,7,-5,10240,0.50,-0.08,1.19,1.09,7065,7725,6384,41,49,34,80,100,0
7057,7738,6375,-8,9,-6,10240,0.50,-0.08,1.19,1.09,7064,7725,6384,41,49,34,80,100,0
7060,7740,6375,-7,11,-7,10240,0.50,-0.08,1.19,1.09,7064,7726,6383,41,49,34,80,100,0
7062,7739,6375,-5,12,-8,10240,0.50,-0.08,1.19,1.09,7064,7726,6383,41,49,34,80,100,0
7070,7738,6376,-1,12,-8,10240,0.50,-0.08,1.19,1.09,7064,7727,6383,41,49,34,80,100,0
7077,7736,6377,3,11,-7,10240,0.50,-0.08,1.19,1.09,7065,7727,6383,41,50,34,80,100,0
7079,7737,6378,7,10,-6,10240,0.50,-0.08,1.19,1.09,7065,7727,6382,41,50,34,80,100,0
7091,7744,6379,14,11,-5,10240,0.50,-0.08,1.19,1.09,7066,7728,6382,41,50,34,80,100,0
7093,7747,6387,19,13,-2,10240,0.50,-0.08,1.19,1.09,7067,7729,6382,41,50,34,80,100,0
7095,7753,6392,23,17,1,10240,0.50,-0.08,1.19,1.09,7068,7729,6383,41,50,34,80,100,0
7098,7757,6394,26,21,5,10240,0.50,-0.08,1.19,1.09,7069,7730,6383,41,50,34,80,100,0
7101,7763,6399,28,25,10,10240,0.50,-0.08,1.19,1.09,7070,7731,6384,41,50,34,80,100,0
7106,7766,6403,30,29,13,10240,0.50,-0.08,1.19,1.09,7071,7733,6384,41,50,34,80,100,0
7107,7772,6405,32,32,16,10240,0.50,-0.08,1.19,1.09,7073,7734,6385,41,50,34,80,100,0
7101,7758,6393,32,31,15,10240,0.50,-0.08,1.19,1.09,7073,7735,6385,41,43,31,80,100,0
7084,7739,6376,26,24,9,10240,0.50,-0.08,1.15,1.19,7074,7735,6385,43,43,31,80,100,0
7059,7739,6375,14,17,2,10240,0.50,-0.08,1.15,1.19,7073,7735,6385,43,43,31,80,100,0
7055,7716,6379,1,3,-4,10240,0.50,-0.08,1.15,1.19,7073,7734,6384,43,43,31,80,100,0
7054,7678,6380,-10,-16,-7,10240,0.50,-0.08,1.15,1.19,7072,7732,6384,43,43,31,80,100,0
7051,7677,6379,-17,-30,-6,10240,0.50,-0.08,1.15,1.19,7071,7731,6384,43,43,31,80,100,0
7050,7677,6380,-19,-44,-4,10240,0.50,-0.08,1.15,1.19,7071,7729,6384,43,43,31,80,100,0
7051,7678,6380,-19,-52,-4,10240,0.50,-0.08,1.15,1.19,7070,7727,6384,43,43,31,80,100,0
7054,7681,6382,-18,-50,-3,10240,0.50,-0.08,1.15,1.19,7069,7726,6384,43,43,31,80,100,0
7054,7691,6380,-17,-44,-3,10240,0.50,-0.08,1.15,1.19,7069,7724,6384,43,43,31,80,100,0
7055,7698,6379,-15,-38,-3,10240,0.50,-0.08,1.15,1.19,7069,7723,6384,43,43,31,80,100,0
7054,7708,6381,-14,-29,-3,10240,0.50,-0.08,1.15,1.19,7068,7723,6383,43,43,31,80,100,0
7054,7717,6382,-14,-19,-3,10240,0.50,-0.08,1.15,1.19,7068,7723,6383,43,43,31,80,100,0
7055,7724,6381,-13,-11,-2,10240,0.50,-0.08,1.15,1.19,7067,7723,6383,43,43,31,80,100,0
7056,7734,6378,-12,-2,-2,10240,0.50,-0.08,1.15,1.19,7067,7723,6383,43,43,31,80,100,0
7057,7737,6376,-11,4,-3,10240,0.50,-0.08,1.15,1.19,7066,7724,6383,43,43,31,80,100,0
7057,7739,6375,-10,10,-5,10240,0.50,-0.08,1.15,1.19,7066,7724,6383,43,43,31,80,100,0
7058,7741,6374,-9,13,-7,10240,0.50,-0.08,1.15,1.19,7066,7725,6382,43,43,31,80,100,0
7059,7743,6373,-8,15,-8,10240,0.50,-0.08,1.15,1.19,7066,7725,6382,43,43,31,80,100,0
7064,7740,6375,-6,15,-8,10240,0.50,-0.08,1.15,1.19,7066,7726,6382,43,43,31,80,100,0
7068,7740,6375,-3,15,-7,10240,0.50,-0.08,1.15,1.19,7066,7726,6382,43,43,31,80,100,0
7073,7738,6376,0,14,-7,10240,0.50,-0.08,1.15,1.19,7066,7727,6381,43,49,31,80,100,0
7080,7737,6376,5,12,-6,10240,0.50,-0.08,1.15,1.19,7066,7727,6381,43,49,31,80,100,0
7082,7740,6376,9,12,-5,10240,0.50,-0.08,1.15,1.19,7067,7727,6381,43,49,31,80,100,0
7094,7748,6383,15,13,-3,10240,0.50,-0.08,1.15,1.19,7068,7728,6381,43,49,31,80,100,0
7097,7747,6383,20,15,-1,10240,0.50,-0.08,1.15,1.19,7069,7729,6381,43,49,31,80,100,0
7099,7752,6388,24,18,1,10240,0.50,-0.08,1.15,1.19,7070,7730,6381,43,49,31,80,100,0
7100,7757,6391,28,21,5,10240,0.50,-0.08,1.15,1.19,7071,7730,6382,43,49,31,80,100,0
7100,7757,6391,28,23,6,10240,0.50,-0.08,1.15,1.19,7072,7731,6382,43,49,31,80,100,0
7084,7739,6375,24,20,4,10240,0.50,-0.08,1.15,1.19,7072,7732,6382,44,49,31,80,100,0
7059,7740,6374,14,17,0,10240,0.50,-0.08,1.15,1.19,7072,7732,6382,44,49,31,80,100,0
7058,7708,6374,3,4,-3,10240,0.50,-0.08,1.15,1.19,7071,7731,6381,44,49,31,80,100,0
7056,7685,6375,-7,-13,-7,10240,0.50,-0.08,1.15,1.19,7071,7730,6381,44,49,31,80,100,0
7047,7674,6371,-16,-28,-7,10240,0.50,-0.08,1.15,1.19,7070,7728,6381,44,49,31,80,100,0
7040,7668,6364,-20,-45,-9,10240,0.50,-0.08,1.15,1.19,7069,7726,6380,44,49,31,80,100,0
7041,7670,6364,-23,-52,-12,10240,0.50,-0.08,1.15,1.19,7068,7724,6380,44,49,31,80,100,0
7040,7671,6366,-26,-54,-13,10240,0.50,-0.08,1.15,1.19,7067,7722,6379,44,49,31,80,100,0
7043,7672,6368,-26,-52,-14,10240,0.50,-0.08,1.15,1.19,7066,7720,6379,44,49,31,80,100,0
7045,7672,6374,-24,-50,-11,10240,0.50,-0.08,1.15,1.19,7066,7719,6379,44,49,31,80,100,0
7056,7683,6378,-20,-45,-7,10240,0.50,-0.08,1.15,1.19,7065,7718,6379,44,49,31,80,100,0
7056,7687,6379,-15,-40,-4,10240,0.50,-0.08,1.15,1.19,7065,7717,6379,44,49,31,80,100,0
7056,7694,6377,-12,-33,-2,10240,0.50,-0.08,1.15,1.19,7065,7716,6379,44,49,31,80,100,0
7057,7703,6376,-8,-24,-1,10240,0.50,-0.08,1.15,1.19,7064,7715,6378,44,49,31,80,100,0
7056,7709,6377,-8,-17,-1,10240,0.50,-0.08,1.15,1.19,7064,7715,6378,44,49,31,80,100,0
7056,7733,6378,-8,-5,-1,10240,0.50,-0.08,1.15,1.19,7064,7716,6378,44,49,31,80,100,0
7057,7738,6376,-7,5,-1,10240,0.50,-0.08,1.15,1.19,7064,7716,6378,44,49,31,80,100,0
7058,7739,6375,-7,13,-1,10240,0.50,-0.08,1.15,1.19,7063,7717,6378,44,49,31,80,100,0
7058,7742,6373,-6,21,-2,10240,0.50,-0.08,1.15,1.19,7063,7718,6378,44,49,31,80,100,0
7060,7742,6374,-5,22,-3,10240,0.50,-0.08,1.15,1.19,7063,7719,6378,44,49,31,80,100,0
7067,7742,6374,-2,22,-4,10240,0.50,-0.08,1.15,1.19,7063,7720,6378,44,49,31,80,100,0
7073,7740,6374,1,22,-4,10240,0.50,-0.08,1.15,1.19,7064,7720,6378,44,49,31,80,100,0
7082,7740,6375,7,21,-3,10240,0.50,-0.08,1.15,1.19,7064,7721,6378,44,56,31,80,100,0
7088,7739,6376,13,19,-3,10240,0.50,-0.08,1.15,1.19,7065,7722,6378,44,56,31,80,100,0
7094,7741,6376,19,18,-2,10240,0.50,-0.08,1.15,1.19,7066,7722,6377,44,56,31,80,100,0
7101,7750,6381,25,20,0,10240,0.50,-0.08,1.15,1.19,7067,7723,6378,44,56,31,80,100,0
7104,7756,6386,30,23,2,10240,0.50,-0.08,1.15,1.19,7068,7724,6378,44,56,31,80,100,0
7104,7763,6390,33,28,5,10240,0.50,-0.08,1.15,1.19,7070,7726,6378,44,56,31,80,100,0
7105,7762,6389,34,32,8,10240,0.50,-0.08,1.15,1.19,7071,7727,6379,44,56,31,80,100,0
7100,7750,6378,33,31,7,10240,0.50,-0.08,1.15,1.19,7072,7728,6379,48,56,31,80,100,0
7059,7733,6373,21,24,4,10240,0.50,-0.08,1.15,1.19,7071,7728,6378,48,56,31,80,100,0
7060,7703,6369,9,9,-1,10240,0.50,-0.08,1.15,1.19,7071,7727,6378,48,56,31,80,100,0
7059,7687,6369,-1,-9,-6,10240,0.50,-0.08,1.15,1.19,7070,7726,6378,48,56,31,80,100,0
7057,7683,6373,-11,-24,-7,10240,0.50,-0.08,1.15,1.19,7070,7724,6378,48,56,31,80,100,0
7056,7680,6372,-12,-36,-7,10240,0.50,-0.08,1.15,1.19,7070,7723,6377,48,56,31,80,100,0
7058,7684,6372,-12,-40,-6,10240,0.50,-0.08,1.15,1.19,7069,7721,6377,48,56,31,80,100,0
7059,7689,6372,-12,-38,-5,10240,0.50,-0.08,1.15,1.19,7069,7720,6377,48,56,31,80,100,0
7059,7695,6371,-11,-33,-5,10240,0.50,-0.08,1.15,1.19,7068,7719,6377,48,56,31,80,100,0
7059,7701,6371,-9,-27,-5,10240,0.50,-0.08,1.15,1.19,7068,7719,6377,48,56,31,80,100,0
7059,7709,6371,-9,-20,-5,10240,0.50,-0.08,1.15,1.19,7068,7718,6377,48,56,31,80,100,0
7057,7725,6375,-9,-11,-4,10240,0.50,-0.08,1.15,1.19,7068,7719,6376,48,56,31,80,100,0
7057,7734,6376,-9,-1,-3,10240,0.50,-0.08,1.15,1.19,7067,7719,6376,48,56,31,80,100,0
7058,7740,6374,-9,8,-2,10240,0.50,-0.08,1.15,1.19,7067,7720,6376,48,56,31,80,100,0
7058,7743,6373,-9,15,-1,10240,0.50,-0.08,1.15,1.19,7067,7721,6376,48,56,31,80,100,0
7059,7745,6372,-8,20,-2,10240,0.50,-0.08,1.15,1.19,7066,7721,6376,48,56,31,80,100,0
7067,7743,6373,-6,21,-3,10240,0.50,-0.08,1.15,1.19,7066,7722,6376,48,56,31,80,100,0
7072,7744,6373,-2,22,-3,10240,0.50,-0.08,1.15,1.19,7067,7723,6376,48,56,31,80,100,0
7076,7743,6373,2,21,-3,10240,0.50,-0.08,1.15,1.19,7067,7724,6376,48,57,31,80,100,0
7083,7742,6374,7,19,-2,10240,0.50,-0.08,1.15,1.19,7067,7724,6376,48,57,31,80,100,0
7092,7741,6374,13,18,-2,10240,0.50,-0.08,1.15,1.19,7068,7725,6376,48,57,31,80,100,0
7098,7742,6375,19,17,-2,10240,0.50,-0.08,1.15,1.19,7069,7725,6376,48,57,31,80,100,0
7101,7747,6376,25,18,-1,10240,0.50,-0.08,1.15,1.19,7070,7726,6376,48,57,31,80,100,0
7101,7749,6379,28,19,0,10240,0.50,-0.08,1.15,1.19,7071,7727,6376,48,57,31,80,100,0
7105,7754,6383,30,21,2,10240,0.50,-0.08,1.15,1.19,7072,7728,6376,48,57,31,80,100,0
7106,7762,6388,31,25,5,10240,0.50,-0.08,1.15,1.19,7074,7729,6376,48,57,31,80,100,0
7109,7767,6392,32,29,9,10240,0.50,-0.08,1.15,1.19,7075,7730,6377,48,57,31,80,100,0
7111,7765,6389,33,32,11,10240,0.50,-0.08,1.15,1.19,7076,7731,6377,48,57,31,79,100,0
7100,7748,6374,31,30,9,10240,0.50,-0.08,1.15,1.19,7077,7732,6377,47,57,31,79,100,0
7074,7745,6373,22,25,5,10240,0.50,-0.08,1.15,1.19,7077,7732,6377,47,57,31,79,100,0
7059,7735,6372,9,16,0,10240,0.50,-0.08,1.15,1.19,7076,7732,6377,47,57,31,79,100,0
7060,7708,6369,-3,2,-5,10240,0.50,-0.08,1.15,1.19,7075,7732,6377,47,57,31,79,100,0
7060,7689,6369,-12,-12,-6,10240,0.50,-0.08,1.15,1.19,7075,7730,6376,47,57,31,79,100,0
7060,7689,6370,-15,-25,-6,10240,0.50,-0.08,1.15,1.19,7074,7729,6376,47,57,31,79,100,0
7059,7691,6371,-14,-35,-6,10240,0.50,-0.08,1.15,1.19,7074,7728,6376,47,57,31,79,100,0
7059,7696,6370,-14,-37,-6,10240,0.50,-0.08,1.15,1.19,7073,7726,6376,47,57,31,79,100,0
7059,7702,6371,-14,-32,-5,10240,0.50,-0.08,1.15,1.19,7073,7726,6376,47,57,31,79,100,0
7059,7710,6372,-14,-26,-5,10240,0.50,-0.08,1.15,1.19,7073,7725,6376,47,57,31,79,100,0
7059,7716,6371,-13,-19,-4,10240,0.50,-0.08,1.15,1.19,7072,7725,6375,47,57,31,79,100,0
7058,7723,6373,-13,-12,-3,10240,0.50,-0.08,1.15,1.19,7072,7725,6375,47,57,31,79,100,0
7057,7733,6375,-13,-4,-2,10240,0.50,-0.08,1.15,1.19,7071,7725,6375,47,57,31,79,100,0
7058,7741,6373,-13,3,-2,10240,0.50,-0.08,1.15,1.19,7071,7726,6375,47,57,31,79,100,0
7059,7744,6372,-13,9,-1,10240,0.50,-0.08,1.15,1.19,7070,7726,6375,47,57,31,79,100,0
7061,7746,6371,-11,15,-2,10240,0.50,-0.08,1.15,1.19,7070,7727,6375,47,57,31,79,100,0
7066,7745,6372,-9,17,-3,10240,0.50,-0.08,1.15,1.19,7070,7727,6375,47,57,31,79,100,0
7075,7742,6373,-4,17,-3,10240,0.50,-0.08,1.15,1.19,7070,7728,6375,47,57,31,79,100,0
7080,7744,6373,0,16,-2,10240,0.50,-0.08,1.15,1.19,7070,7728,6375,47,57,31,79,100,0
7095,7741,6374,8,15,-2,10240,0.50,-0.08,1.15,1.19,7071,7729,6375,47,57,31,79,100,0
7098,7742,6374,16,13,-1,10240,0.50,-0.08,1.15,1.19,7072,7729,6375,47,57,31,79,100,0
7100,7744,6374,21,13,-1,10240,0.50,-0.08,1.15,1.19,7073,7730,6375,47,57,31,79,100,0
7104,7749,6376,26,14,0,10240,0.50,-0.08,1.15,1.19,7074,7730,6375,47,57,31,79,100,0
7107,7754,6379,28,17,0,10240,0.50,-0.08,1.15,1.19,7075,7731,6375,47,57,31,79,100,0
7112,7770,6392,31,23,5,10240,0.50,-0.08,1.15,1.19,7076,7733,6375,47,57,31,79,100,0
7114,7773,6395,33,29,10,10240,0.50,-0.08,1.15,1.19,7078,7734,6376,47,57,31,79,100,0
7116,7775,6396,35,34,14,10240,0.50,-0.08,1.15,1.19,7079,7735,6377,47,57,31,79,100,0
7118,7780,6399,36,39,19,10240,0.50,-0.08,1.15,1.19,7080,7737,6377,47,57,31,79,100,0
7120,7780,6397,37,41,19,10240,0.50,-0.08,1.15,1.19,7082,7738,6378,47,57,31,79,100,0
7107,7750,6373,34,34,13,10240,0.50,-0.08,1.15,1.19,7082,7739,6378,48,49,29,79,100,0
7079,7745,6372,24,25,7,10240,0.50,-0.08,1.39,1.49,7082,7739,6378,48,49,29,79,100,0
7060,7729,6370,9,12,0,10240,0.50,-0.08,1.39,1.49,7082,7738,6378,48,49,29,79,100,0
7062,7706,6366,-4,-5,-7,10240,0.50,-0.08,1.39,1.49,7081,7737,6377,48,49,29,79,100,0
7062,7694,6366,-15,-19,-9,10240,0.50,-0.08,1.39,1.49,7080,7736,6377,48,49,29,79,100,0
7062,7689,6366,-19,-31,-10,10240,0.50,-0.08,1.39,1.49,7080,7734,6376,48,49,29,79,100,0
7061,7690,6367,-18,-40,-10,10240,0.50,-0.08,1.39,1.49,7079,7733,6376,48,49,29,79,100,0
7060,7692,6368,-18,-42,-9,10240,0.50,-0.08,1.39,1.49,7078,7732,6376,48,49,29,79,100,0
7061,7696,6367,-17,-40,-9,10240,0.50,-0.08,1.39,1.49,7078,7730,6376,48,49,29,79,100,0
7061,7704,6367,-17,-35,-8,10240,0.50,-0.08,1.39,1.49,7077,7730,6375,48,49,29,79,100,0
7060,7718,6370,-17,-27,-7,10240,0.50,-0.08,1.39,1.49,7077,7729,6375,48,49,29,79,100,0
7059,7726,6371,-16,-18,-6,10240,0.50,-0.08,1.39,1.49,7076,7729,6375,48,49,29,79,100,0
7058,7735,6372,-16,-8,-5,10240,0.50,-0.08,1.39,1.49,7075,7729,6375,48,49,29,79,100,0
7058,7741,6374,-17,0,-3,10240,0.50,-0.08,1.39,1.49,7075,7730,6375,48,49,29,79,100,0
7059,7745,6373,-16,7,-2,10240,0.50,-0.08,1.39,1.49,7074,7730,6375,48,49,29,79,100,0
7070,7743,6374,-13,11,-1,10240,0.50,-0.08,1.39,1.49,7074,7731,6375,48,49,29,79,100,0
7074,7744,6372,-9,12,-1,10240,0.50,-0.08,1.39,1.49,7074,7731,6375,48,49,29,79,100,0
7081,7743,6373,-3,13,-2,10240,0.50,-0.08,1.39,1.49,7074,7731,6375,48,49,29,79,100,0
7088,7742,6374,4,11,-1,10240,0.50,-0.08,1.39,1.49,7075,7732,6374,48,51,29,79,100,0
7096,7743,6373,10,11,-1,10240,0.50,-0.08,1.39,1.49,7076,7732,6374,48,51,29,79,100,0
7102,7745,6373,16,11,-1,10240,0.50,-0.08,1.39,1.49,7077,7733,6374,48,51,29,79,100,0
7107,7749,6376,21,12,0,10240,0.50,-0.08,1.39,1.49,7078,7733,6374,48,51,29,79,100,0
7109,7756,6379,26,15,1,10240,0.50,-0.08,1.39,1.49,7079,7734,6375,48,51,29,79,100,0
7113,7765,6384,29,20,3,10240,0.50,-0.08,1.39,1.49,7080,7735,6375,48,51,29,79,100,0
7117,7772,6391,32,26,7,10240,0.50,-0.08,1.39,1.49,7081,7736,6375,48,51,29,79,100,0
7122,7783,6397,34,33,12,10240,0.50,-0.08,1.39,1.49,7082,7738,6376,48,51,29,79,100,0
7125,7788,6400,37,40,17,10240,0.50,-0.08,1.39,1.49,7084,7739,6377,48,51,29,79,100,0
7126,7789,6401,39,44,20,10240,0.50,-0.08,1.39,1.49,7085,7741,6378,48,51,29,78,100,0
7126,7788,6400,40,46,22,10240,0.50,-0.08,1.39,1.49,7086,7743,6379,48,51,29,78,100,0
7121,7779,6393,38,44,20,10240,0.50,-0.08,1.39,1.49,7088,7744,6379,46,50,27,78,100,0
7080,7745,6371,26,32,12,10240,0.50,-0.08,1.53,1.53,7087,7744,6379,46,50,27,78,100,0
7063,7722,6364,10,15,3,10240,0.50,-0.08,1.53,1.53,7087,7743,6378,46,50,27,78,100,0
7063,7705,6363,-5,-5,-5,10240,0.50,-0.08,1.53,1.53,7086,7742,6378,46,50,27,78,100,0
7063,7695,6363,-19,-25,-12,10240,0.50,-0.08,1.53,1.53,7085,7740,6377,46,50,27,78,100,0
7062,7690,6363,-22,-38,-14,10240,0.50,-0.08,1.53,1.53,7084,7739,6377,46,50,27,78,100,0
7062,7695,6364,-22,-43,-13,10240,0.50,-0.08,1.53,1.53,7084,7737,6376,46,50,27,78,100,0
7062,7696,6364,-21,-44,-13,10240,0.50,-0.08,1.53,1.53,7083,7736,6376,46,50,27,78,100,0
7062,7699,6365,-21,-41,-12,10240,0.50,-0.08,1.53,1.53,7082,7735,6376,46,50,27,78,100,0
7062,7705,6365,-20,-36,-11,10240,0.50,-0.08,1.53,1.53,7081,7734,6375,46,50,27,78,100,0
7061,7709,6367,-20,-32,-10,10240,0.50,-0.08,1.53,1.53,7081,7733,6375,46,50,27,78,100,0
7060,7724,6369,-19,-24,-8,10240,0.50,-0.08,1.53,1.53,7080,7732,6375,46,50,27,78,100,0
7059,7731,6370,-19,-15,-7,10240,0.50,-0.08,1.53,1.53,7079,7732,6375,46,50,27,78,100,0
7059,7736,6372,-20,-7,-5,10240,0.50,-0.08,1.53,1.53,7079,7732,6374,46,50,27,78,100,0
7059,7742,6372,-19,1,-3,10240,0.50,-0.08,1.53,1.53,7078,7733,6374,46,50,27,78,100,0
7060,7747,6371,-19,6,-3,10240,0.50,-0.08,1.53,1.53,7077,7733,6374,46,50,27,78,100,0
7073,7744,6372,-15,9,-2,10240,0.50,-0.08,1.53,1.53,7077,7734,6374,46,50,27,78,100,0
7079,7746,6372,-9,11,-2,10240,0.50,-0.08,1.53,1.53,7077,7734,6374,46,50,27,78,100,0
7088,7745,6372,-2,11,-2,10240,0.50,-0.08,1.53,1.53,7078,7734,6374,46,50,27,78,100,0
7095,7744,6373,6,10,-1,10240,0.50,-0.08,1.53,1.53,7078,7735,6374,46,51,27,78,100,0
7100,7745,6372,12,10,-1,10240,0.50,-0.08,1.53,1.53,7079,7735,6374,46,51,27,78,100,0
7107,7747,6372,18,10,-1,10240,0.50,-0.08,1.53,1.53,7080,7735,6374,46,51,27,78,100,0
7108,7749,6372,23,11,-1,10240,0.50,-0.08,1.53,1.53,7081,7736,6374,46,51,27,78,100,0
7111,7755,6373,26,13,-1,10240,0.50,-0.08,1.53,1.53,7082,7737,6374,46,51,27,78,100,0
7112,7761,6378,28,16,0,10240,0.50,-0.08,1.53,1.53,7083,7737,6374,46,51,27,78,100,0
7115,7766,6384,29,20,2,10240,0.50,-0.08,1.53,1.53,7084,7738,6374,46,51,27,78,100,0
7119,7776,6390,30,26,7,10240,0.50,-0.08,1.53,1.53,7085,7740,6375,46,51,27,78,100,0
7122,7778,6390,32,31,11,10240,0.50,-0.08,1.53,1.53,7086,7741,6375,46,51,27,78,100,0
7120,7772,6385,33,32,12,10240,0.50,-0.08,1.53,1.53,7087,7742,6376,46,51,27,78,100,0
7110,7754,6371,31,28,8,10240,0.50,-0.08,1.53,1.53,7088,7742,6376,43,46,27,78,100,0
7078,7745,6369,20,20,3,10240,0.50,-0.08,1.40,1.43,7088,7742,6375,43,46,27,78,100,0
7065,7690,6359,5,-1,-4,10240,0.50,-0.08,1.40,1.43,7087,7741,6375,43,46,27,78,100,0
7061,7680,6361,-8,-23,-10,10240,0.50,-0.08,1.40,1.43,7086,7739,6374,43,46,27,78,100,0
7054,7673,6357,-22,-42,-13,10240,0.50,-0.08,1.40,1.43,7085,7736,6374,43,46,27,78,100,0
7052,7670,6358,-27,-59,-15,10240,0.50,-0.08,1.40,1.43,7084,7734,6373,43,46,27,78,100,0
7051,7671,6358,-30,-61,-15,10240,0.50,-0.08,1.40,1.43,7083,7732,6373,43,46,27,78,100,0
7059,7676,6360,-29,-60,-14,10240,0.50,-0.08,1.40,1.43,7082,7730,6372,43,46,27,78,100,0
7062,7680,6363,-26,-57,-12,10240,0.50,-0.08,1.40,1.43,7082,7729,6372,43,46,27,78,100,0
7060,7683,6363,-24,-52,-11,10240,0.50,-0.08,1.40,1.43,7081,7727,6372,43,46,27,78,100,0
7063,7685,6364,-20,-47,-9,10240,0.50,-0.08,1.40,1.43,7080,7726,6371,43,46,27,77,100,0
7063,7692,6363,-18,-41,-8,10240,0.50,-0.08,1.40,1.43,7080,7725,6371,43,46,27,77,100,0
7063,7705,6362,-17,-34,-8,10240,0.50,-0.08,1.40,1.43,7079,7724,6371,43,46,27,77,100,0
7063,7710,6363,-16,-26,-8,10240,0.50,-0.08,1.40,1.43,7079,7723,6371,43,46,27,77,100,0
7063,7715,6364,-16,-18,-7,10240,0.50,-0.08,1.40,1.43,7078,7723,6370,43,46,27,77,100,0
7062,7721,6365,-15,-10,-7,10240,0.50,-0.08,1.40,1.43,7077,7723,6370,43,46,27,77,100,0
7062,7724,6366,-15,-5,-5,10240,0.50,-0.08,1.40,1.43,7077,7723,6370,43,46,27,77,100,0
7060,7738,6365,-15,1,-5,10240,0.50,-0.08,1.40,1.43,7076,7724,6370,43,46,27,77,100,0
7063,7741,6370,-14,7,-3,10240,0.50,-0.08,1.40,1.43,7076,7724,6370,43,46,27,77,100,0
7067,7744,6371,-13,12,-2,10240,0.50,-0.08,1.40,1.43,7076,7725,6370,43,46,27,77,100,0
7076,7744,6373,-9,17,0,10240,0.50,-0.08,1.40,1.43,7076,7725,6370,43,46,27,77,100,0
7081,7745,6372,-4,18,1,10240,0.50,-0.08,1.40,1.43,7076,7726,6370,43,46,27,77,100,0
7087,7744,6372,1,18,2,10240,0.50,-0.08,1.40,1.43,7076,7727,6370,43,46,27,77,100,0
7092,7744,6372,7,18,2,10240,0.50,-0.08,1.40,1.43,7077,7727,6370,43,46,27,77,100,0
7092,7745,6372,11,17,2,10240,0.50,-0.08,1.40,1.43,7077,7728,6370,43,54,27,77,100,0
7097,7746,6372,15,17,2,10240,0.50,-0.08,1.40,1.43,7078,7729,6370,43,54,27,77,100,0
7103,7745,6372,18,16,2,10240,0.50,-0.08,1.40,1.43,7079,7729,6370,43,54,27,77,100,0
7091,7747,6371,17,16,1,10240,0.50,-0.08,1.40,1.43,7079,7730,6370,44,54,27,77,100,0
7065,7728,6361,10,12,-1,10240,0.50,-0.08,1.40,1.43,7079,7730,6370,44,54,27,77,100,0
7066,7696,6357,2,0,-4,10240,0.50,-0.08,1.40,1.43,7078,7728,6370,44,54,27,77,100,0
7059,7676,6356,-8,-17,-8,10240,0.50,-0.08,1.40,1.43,7078,7727,6369,44,54,27,77,100,0
7039,7655,6342,-20,-38,-15,10240,0.50,-0.08,1.40,1.43,7076,7724,6368,44,54,27,77,100,0
7035,7651,6336,-27,-55,-20,10240,0.50,-0.08,1.40,1.43,7075,7722,6367,44,54,27,77,100,0
7033,7645,6335,-34,-66,-25,10240,0.50,-0.08,1.40,1.43,7074,7719,6366,44,54,27,77,100,0
7035,7650,6338,-38,-70,-28,10240,0.50,-0.08,1.40,1.43,7072,7717,6365,44,54,27,77,100,0
7037,7656,6342,-38,-67,-27,10240,0.50,-0.08,1.40,1.43,7071,7715,6364,44,54,27,77,100,0
7039,7660,6345,-35,-63,-24,10240,0.50,-0.08,1.40,1.43,7070,7713,6364,44,54,27,77,100,0
7052,7672,6353,-29,-54,-19,10240,0.50,-0.08,1.40,1.43,7069,7712,6363,44,54,27,77,100,0
7061,7680,6361,-22,-45,-13,10240,0.50,-0.08,1.40,1.43,7069,7711,6363,44,54,27,77,100,0
7062,7683,6362,-15,-37,-8,10240,0.50,-0.08,1.40,1.43,7069,7710,6363,44,54,27,77,100,0
7063,7685,6362,-9,-30,-3,10240,0.50,-0.08,1.40,1.43,7069,7709,6363,44,54,27,77,100,0
7063,7691,6362,-6,-24,-1,10240,0.50,-0.08,1.40,1.43,7069,7708,6363,44,54,27,77,100,0
7063,7702,6362,-6,-18,-1,10240,0.50,-0.08,1.40,1.43,7068,7708,6363,44,54,27,77,100,0
7063,7709,6362,-5,-11,-1,10240,0.50,-0.08,1.40,1.43,7068,7708,6363,44,54,27,77,100,0
7063,7714,6363,-5,-4,0,10240,0.50,-0.08,1.40,1.43,7068,7708,6363,44,54,27,77,100,0
7063,7720,6363,-5,3,0,10240,0.50,-0.08,1.40,1.43,7068,7709,6363,44,54,27,77,100,0
7063,7725,6364,-5,8,0,10240,0.50,-0.08,1.40,1.43,7068,7709,6363,44,54,27,77,100,0
7062,7738,6369,-5,15,1,10240,0.50,-0.08,1.40,1.43,7067,7710,6363,44,54,27,77,100,0
7070,7745,6372,-3,22,3,10240,0.50,-0.08,1.40,1.43,7068,7711,6364,44,54,27,77,100,0
7078,7747,6371,0,28,5,10240,0.50,-0.08,1.40,1.43,7068,7713,6364,44,54,27,77,100,0
7084,7747,6372,5,32,7,10240,0.50,-0.08,1.40,1.43,7068,7714,6364,44,54,27,77,100,0
7091,7745,6373,12,32,7,10240,0.50,-0.08,1.40,1.43,7069,7715,6365,44,54,27,77,100,0
7100,7745,6372,19,31,7,10240,0.50,-0.08,1.40,1.43,7070,7716,6365,44,66,27,77,100,0
7104,7748,6371,25,30,7,10240,0.50,-0.08,1.40,1.43,7071,7717,6365,44,66,27,77,100,0
7106,7748,6371,29,30,6,10240,0.50,-0.08,1.40,1.43,7073,7718,6365,44,66,29,75,100,0
7107,7750,6370,32,30,6,10240,0.50,-0.08,1.88,1.37,7074,7719,6365,44,66,29,75,100,0
7108,7750,6370,33,30,5,10240,0.50,-0.08,1.88,1.37,7075,7720,6366,44,66,29,75,100,0
7066,7748,6371,22,29,5,10240,0.50,-0.08,1.88,1.37,7074,7721,6366,51,66,29,75,100,0
7066,7696,6356,12,16,1,10240,0.50,-0.08,1.88,1.37,7074,7720,6365,51,66,29,75,100,0
7059,7673,6356,0,-3,-2,10240,0.50,-0.08,1.88,1.37,7074,7719,6365,51,66,29,75,100,0
7037,7652,6338,-16,-26,-9,10240,0.50,-0.08,1.88,1.37,7072,7716,6364,51,66,29,75,100,0
7035,7648,6333,-23,-50,-18,10240,0.50,-0.08,1.88,1.37,7071,7714,6363,51,66,29,75,100,0
7034,7646,6332,-30,-60,-23,10240,0.50,-0.08,1.88,1.37,7070,7712,6362,51,66,29,75,100,0
7035,7649,6337,-35,-64,-27,10240,0.50,-0.08,1.88,1.37,7069,7710,6361,51,66,29,75,100,0
7036,7654,6339,-34,-61,-26,10240,0.50,-0.08,1.88,1.37,7068,7708,6361,51,66,29,75,100,0
7039,7654,6345,-32,-58,-22,10240,0.50,-0.08,1.88,1.37,7067,7706,6360,51,66,29,75,100,0
7043,7657,6347,-29,-53,-18,10240,0.50,-0.08,1.88,1.37,7066,7704,6360,51,66,29,75,100,0
7051,7667,6354,-24,-47,-13,10240,0.50,-0.08,1.88,1.37,7065,7703,6359,51,66,29,75,100,0
7062,7681,6361,-17,-39,-7,10240,0.50,-0.08,1.88,1.37,7065,7702,6359,51,66,29,75,100,0
7063,7684,6361,-10,-30,-3,10240,0.50,-0.08,1.88,1.37,7065,7702,6360,51,66,29,75,100,0
7064,7685,6360,-5,-22,0,10240,0.50,-0.08,1.88,1.37,7065,7701,6360,51,66,29,75,100,0
7064,7690,6359,-1,-16,0,10240,0.50,-0.08,1.88,1.37,7065,7701,6359,51,66,29,75,100,0
7065,7696,6359,-1,-12,0,10240,0.50,-0.08,1.88,1.37,7065,7701,6359,51,66,29,75,100,0
7064,7707,6361,0,-6,0,10240,0.50,-0.08,1.88,1.37,7065,7701,6360,51,66,29,75,100,0
7064,7716,6361,0,1,0,10240,0.50,-0.08,1.88,1.37,7065,7701,6360,51,66,29,75,100,0
7063,7722,6363,-1,9,1,10240,0.50,-0.08,1.88,1.37,7065,7702,6360,47,66,29,75,100,0
7062,7730,6364,-1,17,2,10240,0.50,-0.08,1.88,1.37,7065,7703,6360,47,66,29,75,100,0
7062,7735,6365,-2,23,3,10240,0.50,-0.08,1.88,1.37,7065,7704,6360,47,66,29,75,100,0
7071,7746,6371,0,29,5,10240,0.50,-0.08,1.88,1.37,7065,7706,6360,47,66,29,75,100,0
7078,7746,6371,3,34,7,10240,0.50,-0.08,1.88,1.37,7066,7707,6361,47,66,29,75,100,0
7085,7745,6373,8,36,9,10240,0.50,-0.08,1.88,1.37,7066,7708,6361,47,66,29,75,100,0
7088,7746,6372,14,38,11,10240,0.50,-0.08,1.88,1.37,7067,7709,6361,47,66,29,75,100,0
7096,7745,6372,20,36,10,10240,0.50,-0.08,1.88,1.37,7068,7711,6362,47,75,31,75,100,0
7103,7746,6371,25,35,10,10240,0.33,-0.09,2.00,1.36,7069,7712,6362,47,75,31,76,100,0
7107,7748,6371,30,35,9,10240,0.33,-0.09,2.00,1.36,7070,7713,6362,47,75,31,76,100,0
7103,7748,6371,32,34,9,10240,0.33,-0.09,2.00,1.36,7071,7714,6363,47,75,31,76,100,0
7079,7744,6367,27,33,7,10240,0.33,-0.09,2.00,1.36,7072,7715,6363,44,75,31,76,100,0
7067,7714,6356,17,24,3,10240,0.33,-0.09,2.00,1.36,7072,7715,6363,44,75,31,76,100,0
7057,7667,6351,5,4,-1,10240,0.33,-0.09,2.00,1.36,7071,7713,6362,44,75,31,76,100,0
7035,7644,6334,-11,-21,-10,10240,0.33,-0.09,2.00,1.36,7070,7711,6361,44,75,31,76,100,0
7033,7645,6330,-22,-44,-18,10240,0.33,-0.09,2.00,1.36,7069,7709,6360,44,75,31,76,100,0
7033,7644,6330,-29,-60,-24,10240,0.33,-0.09,2.00,1.36,7067,7707,6359,44,75,31,76,100,0
7033,7643,6332,-34,-64,-28,10240,0.33,-0.09,2.00,1.36,7066,7705,6358,44,75,31,76,100,0
7038,7654,6338,-32,-59,-26,10240,0.33,-0.09,2.00,1.36,7065,7703,6358,44,75,31,76,100,0
7046,7660,6346,-28,-54,-21,10240,0.33,-0.09,2.00,1.36,7065,7702,6357,44,75,31,76,100,0
7055,7668,6352,-22,-46,-15,10240,0.33,-0.09,2.00,1.36,7064,7700,6357,44,75,31,76,100,0
7060,7675,6357,-14,-37,-9,10240,0.33,-0.09,2.00,1.36,7064,7700,6357,44,75,31,76,100,0
7063,7679,6357,-8,-29,-4,10240,0.33,-0.09,2.00,1.36,7064,7699,6357,44,75,31,76,100,0
7066,7688,6357,-3,-22,-1,10240,0.33,-0.09,2.00,1.36,7064,7699,6357,44,75,31,76,100,0
7065,7690,6357,0,-16,0,10240,0.33,-0.09,2.00,1.36,7064,7698,6357,44,75,31,76,100,0
7066,7698,6357,1,-9,0,10240,0.33,-0.09,2.00,1.36,7064,7698,6357,44,75,31,76,100,0
7066,7702,6357,1,-3,0,10240,0.33,-0.09,2.00,1.36,7064,7698,6357,44,75,31,76,100,0
7066,7706,6358,1,0,0,10240,0.33,-0.09,2.00,1.36,7064,7699,6357,44,75,31,76,100,0
7065,7720,6359,1,8,0,10240,0.33,-0.09,2.00,1.36,7065,7699,6357,44,75,31,76,100,0
7064,7728,6360,1,15,1,10240,0.33,-0.09,2.00,1.36,7064,7700,6357,44,75,31,76,100,0
7066,7734,6362,0,22,2,10240,0.33,-0.09,2.00,1.36,7065,7701,6358,41,75,31,76,100,0
7066,7740,6364,0,29,3,10240,0.33,-0.09,2.00,1.36,7065,7703,6358,41,75,31,76,100,0
7070,7745,6368,1,34,5,10240,0.33,-0.09,2.00,1.36,7065,7704,6358,41,75,31,76,100,0
7087,7747,6371,7,38,8,10240,0.33,-0.09,2.00,1.36,7065,7706,6358,41,75,31,76,100,0
7094,7747,6371,14,39,10,10240,0.33,-0.09,2.00,1.36,7066,7707,6359,41,75,31,76,100,0
7096,7747,6371,21,40,11,10240,0.33,-0.09,2.00,1.36,7067,7708,6359,41,75,31,76,100,0
7100,7748,6370,27,39,11,10240,0.33,-0.09,2.00,1.36,7069,7710,6360,41,83,31,76,100,0
7104,7749,6370,30,38,11,10240,0.33,-0.09,2.00,1.36,7070,7711,6360,41,83,31,75,100,0
7109,7751,6370,33,38,10,10240,0.33,-0.09,2.00,1.36,7071,7712,6360,41,83,33,75,100,0
7107,7750,6370,34,38,9,10240,0.33,-0.09,2.07,1.12,7072,7713,6361,41,83,33,75,100,0
7082,7745,6365,29,36,8,10240,0.33,-0.09,2.07,1.12,7073,7715,6361,40,83,33,75,100,0
7069,7712,6352,19,26,3,10240,0.33,-0.09,2.07,1.12,7072,7714,6361,40,83,33,75,100,0
7068,7686,6351,9,9,-1,10240,0.33,-0.09,2.07,1.12,7072,7714,6360,40,83,33,75,100,0
7041,7649,6335,-7,-15,-9,10240,0.33,-0.09,2.07,1.12,7071,7711,6359,40,83,33,75,100,0
7034,7641,6331,-18,-40,-17,10240,0.33,-0.09,2.07,1.12,7070,7709,6358,40,83,33,75,100,0
7033,7643,6330,-26,-55,-21,10240,0.33,-0.09,2.07,1.12,7069,7707,6357,40,83,33,75,100,0
7036,7645,6331,-33,-63,-26,10240,0.33,-0.09,2.07,1.12,7068,7705,6357,40,83,33,75,100,0
7036,7648,6333,-33,-61,-25,10240,0.33,-0.09,2.07,1.12,7067,7703,6356,40,83,33,75,100,0
7050,7663,6345,-28,-54,-21,10240,0.33,-0.09,2.07,1.12,7066,7702,6355,40,83,33,75,100,0
7056,7670,6351,-22,-46,-15,10240,0.33,-0.09,2.07,1.12,7066,7700,6355,40,83,33,75,100,0
7061,7675,6353,-15,-37,-9,10240,0.33,-0.09,2.07,1.12,7066,7700,6355,40,83,33,75,100,0
7065,7680,6355,-8,-28,-4,10240,0.33,-0.09,2.07,1.12,7066,7699,6355,40,83,33,75,100,0
7067,7684,6355,-3,-22,-1,10240,0.33,-0.09,2.07,1.12,7066,7698,6355,40,83,33,75,100,0
7067,7689,6354,-1,-16,0,10240,0.33,-0.09,2.07,1.12,7066,7698,6355,40,83,33,75,100,0
7068,7697,6354,0,-10,0,10240,0.33,-0.09,2.07,1.12,7066,7698,6355,40,83,33,75,100,0
7067,7702,6354,1,-5,0,10240,0.33,-0.09,2.07,1.12,7066,7698,6355,40,83,33,75,100,0
7068,7707,6354,1,0,-1,10240,0.33,-0.09,2.07,1.12,7066,7699,6355,40,83,32,75,100,0
7067,7713,6355,1,6,0,10240,0.33,-0.09,2.14,1.12,7066,7699,6355,40,83,32,75,100,0
7067,7725,6356,1,12,0,10240,0.33,-0.09,2.14,1.12,7066,7700,6355,40,83,32,75,100,0
7067,7732,6360,1,19,1,10240,0.33,-0.09,2.14,1.12,7066,7701,6355,40,83,32,75,100,0
7069,7738,6362,1,26,3,10240,0.33,-0.09,2.14,1.12,7066,7702,6356,40,83,32,75,100,0
7073,7742,6366,3,32,5,10240,0.33,-0.09,2.14,1.12,7066,7704,6356,40,83,32,75,100,0
7079,7745,6371,5,36,9,10240,0.33,-0.09,2.14,1.12,7067,7705,6356,40,83,32,75,100,0
7088,7748,6371,10,39,11,10240,0.33,-0.09,2.14,1.12,7067,7706,6357,40,83,32,75,100,0
7097,7747,6371,17,39,13,10240,0.33,-0.09,2.14,1.12,7068,7708,6357,40,83,32,75,100,0
7102,7747,6371,23,39,14,10240,0.33,-0.09,2.14,1.12,7069,7709,6358,40,83,32,75,100,0
7103,7750,6370,28,39,13,10240,0.33,-0.09,2.14,1.12,7071,7710,6358,40,83,32,75,100,0
7100,7750,6370,30,38,12,10240,0.33,-0.09,2.14,1.12,7072,7712,6359,40,87,32,75,100,0
7070,7713,6364,23,29,10,10240,0.33,-0.09,2.14,1.12,7071,7712,6359,45,87,32,75,100,0
7069,7684,6350,14,13,5,10240,0.33,-0.09,2.14,1.12,7071,7711,6358,45,87,32,75,100,0
7056,7662,6345,2,-8,-1,10240,0.33,-0.09,2.14,1.12,7071,7709,6358,45,87,32,75,100,0
7037,7639,6329,-12,-35,-11,10240,0.33,-0.09,2.14,1.12,7070,7707,6357,45,87,32,75,100,0
7031,7635,6324,-21,-52,-20,10240,0.33,-0.09,2.14,1.12,7068,7704,6356,45,87,32,75,100,0
7032,7637,6324,-30,-62,-26,10240,0.33,-0.09,2.14,1.12,7067,7702,6355,45,87,32,75,100,0
7034,7642,6330,-34,-65,-28,10240,0.33,-0.09,2.14,1.12,7066,7700,6354,45,87,32,75,100,0
7034,7643,6332,-33,-61,-27,10240,0.33,-0.09,2.14,1.12,7065,7698,6353,45,87,32,75,100,0
7039,7648,6336,-30,-56,-23,10240,0.33,-0.09,2.14,1.12,7064,7697,6353,45,87,32,75,100,0
7047,7656,6343,-26,-50,-17,10240,0.33,-0.09,2.14,1.12,7064,7695,6352,45,87,32,75,100,0
7062,7672,6349,-18,-41,-12,10240,0.33,-0.09,2.14,1.12,7064,7694,6352,45,87,32,75,100,0
7066,7680,6355,-10,-31,-6,10240,0.33,-0.09,2.14,1.12,7064,7694,6352,45,87,32,75,100,0
7067,7684,6354,-3,-21,-2,10240,0.33,-0.09,2.14,1.12,7064,7694,6353,45,87,32,75,100,0
7068,7684,6354,1,-13,0,10240,0.33,-0.09,2.14,1.12,7064,7693,6353,45,87,32,75,100,0
7067,7689,6354,3,-9,1,10240,0.33,-0.09,2.14,1.12,7064,7693,6353,45,87,32,75,100,0
7068,7696,6354,3,-5,1,10240,0.33,-0.09,2.14,1.12,7064,7693,6353,45,87,32,75,100,0
7068,7706,6354,3,0,1,10240,0.33,-0.09,2.14,1.12,7064,7694,6353,45,87,32,75,100,0
7067,7712,6355,3,7,1,10240,0.33,-0.09,2.14,1.12,7064,7694,6353,45,87,32,75,100,0
7067,7716,6355,3,13,1,10240,0.33,-0.09,2.14,1.12,7064,7695,6353,45,87,32,75,100,0
7067,7723,6356,3,19,2,10240,0.33,-0.09,2.14,1.12,7065,7696,6353,45,87,32,75,100,0
7067,7731,6359,2,25,3,10240,0.33,-0.09,2.14,1.12,7065,7697,6353,43,87,32,75,100,0
7079,7743,6368,5,31,6,10240,0.33,-0.09,2.14,1.12,7065,7699,6354,43,87,32,75,100,0
7082,7746,6370,8,37,9,10240,0.33,-0.09,2.14,1.12,7066,7700,6354,43,87,32,75,100,0
7090,7748,6370,14,42,12,10240,0.33,-0.09,2.14,1.12,7066,7702,6355,43,87,32,75,100,0
7095,7748,6370,20,45,15,10240,0.33,-0.09,2.14,1.12,7067,7703,6355,43,87,32,75,100,0
7101,7748,6371,25,45,15,10240,0.33,-0.09,2.14,1.12,7069,7705,6356,43,87,32,75,100,0
7109,7750,6370,30,44,14,10240,0.33,-0.09,2.14,1.12,7070,7706,6356,43,93,34,76,100,0
7108,7752,6369,34,44,14,10240,0.33,-0.09,2.26,1.14,7071,7708,6357,43,93,34,76,100,0
7111,7753,6368,36,43,13,10240,0.33,-0.09,2.26,1.14,7073,7709,6357,43,93,34,76,100,0
7104,7752,6369,36,43,12,10240,0.33,-0.09,2.26,1.14,7074,7711,6357,43,93,34,76,100,0
7076,7737,6357,26,38,8,10240,0.33,-0.09,2.26,1.14,7074,7712,6357,42,93,34,76,100,0
7069,7676,6348,16,18,3,10240,0.33,-0.09,2.26,1.14,7073,7711,6357,42,93,34,76,100,0
7045,7651,6334,0,-6,-4,10240,0.33,-0.09,2.26,1.14,7073,7709,6356,42,93,34,76,100,0
7032,7636,6324,-17,-34,-15,10240,0.33,-0.09,2.26,1.14,7071,7706,6355,42,93,34,76,100,0
7031,7637,6321,-27,-57,-23,10240,0.33,-0.09,2.26,1.14,7070,7704,6354,42,93,34,76,100,0
7031,7635,6323,-36,-65,-29,10240,0.33,-0.09,2.26,1.14,7069,7702,6353,42,93,34,76,100,0
7034,7641,6330,-37,-65,-29,10240,0.33,-0.09,2.26,1.14,7067,7699,6352,42,93,34,76,100,0
7038,7647,6332,-34,-60,-26,10240,0.33,-0.09,2.26,1.14,7066,7698,6352,42,93,34,76,100,0
7048,7659,6341,-29,-53,-20,10240,0.33,-0.09,2.26,1.14,7066,7696,6351,42,93,34,76,100,0
7059,7668,6349,-21,-43,-13,10240,0.33,-0.09,2.26,1.14,7066,7696,6351,42,93,34,76,100,0
7063,7673,6353,-13,-34,-7,10240,0.33,-0.09,2.26,1.14,7065,7695,6351,42,93,34,76,100,0
7068,7683,6353,-6,-24,-2,10240,0.33,-0.09,2.26,1.14,7066,7694,6351,42,93,34,76,100,0
7069,7684,6352,-1,-17,0,10240,0.33,-0.09,2.26,1.14,7066,7694,6351,42,93,34,76,100,0
7068,7693,6352,1,-11,1,10240,0.33,-0.09,2.26,1.14,7066,7694,6351,42,93,34,76,100,0
7068,7700,6353,2,-4,1,10240,0.33,-0.09,2.26,1.14,7066,7694,6351,42,93,34,76,100,0
7068,7704,6353,2,1,1,10240,0.33,-0.09,2.26,1.14,7066,7695,6352,42,93,34,76,100,0
7068,7717,6354,2,9,1,10240,0.33,-0.09,2.26,1.14,7066,7695,6352,42,93,34,76,100,0
7067,7723,6356,1,16,2,10240,0.33,-0.09,2.26,1.14,7066,7696,6352,41,93,34,76,100,0
7068,7728,6358,1,22,3,10240,0.33,-0.09,2.26,1.14,7066,7697,6352,41,93,34,76,100,0
7071,7736,6360,2,29,5,10240,0.33,-0.09,2.26,1.14,7066,7699,6352,41,93,34,76,100,0
7073,7744,6365,3,34,7,10240,0.33,-0.09,2.26,1.14,7066,7700,6353,41,93,34,76,100,0
7091,7749,6371,9,39,11,10240,0.33,-0.09,2.26,1.14,7067,7702,6353,41,93,34,76,100,0
7097,7747,6371,16,43,13,10240,0.33,-0.09,2.26,1.14,7068,7703,6354,41,93,34,76,100,0
7101,7750,6370,23,45,15,10240,0.33,-0.09,2.26,1.14,7069,7705,6354,41,93,34,76,100,0
7103,7751,6369,29,45,16,10240,0.33,-0.09,2.26,1.14,7070,7706,6355,41,93,34,76,100,0
7111,7750,6370,33,44,15,10240,0.33,-0.09,2.26,1.14,7072,7708,6355,41,97,37,76,100,0
7114,7753,6368,36,44,14,10240,0.33,-0.09,2.16,1.00,7073,7709,6356,41,97,37,76,100,0
7111,7752,6369,37,43,13,10240,0.33,-0.09,2.16,1.00,7075,7711,6356,41,97,37,76,100,0
7098,7751,6369,34,41,13,10240,0.33,-0.09,2.16,1.00,7075,7712,6357,40,97,37,76,100,0
7073,7724,6350,24,34,7,10240,0.33,-0.09,2.16,1.00,7075,7712,6356,40,97,37,76,100,0
7071,7692,6348,13,18,2,10240,0.33,-0.09,2.16,1.00,7075,7712,6356,40,97,37,76,100,0
7047,7652,6333,-2,-6,-6,10240,0.33,-0.09,2.16,1.00,7074,7710,6355,40,97,37,76,100,0
7036,7641,6324,-17,-33,-16,10240,0.33,-0.09,2.16,1.00,7073,7707,6354,40,97,37,76,100,0
7032,7635,6322,-27,-53,-22,10240,0.33,-0.09,2.16,1.00,7072,7705,6353,40,97,37,76,100,0
7031,7635,6323,-35,-65,-28,10240,0.33,-0.09,2.16,1.00,7070,7703,6352,40,97,37,76,100,0
7034,7638,6325,-37,-66,-29,10240,0.33,-0.09,2.16,1.00,7069,7701,6351,40,97,37,76,100,0
7050,7655,6338,-33,-61,-24,10240,0.33,-0.09,2.16,1.00,7068,7699,6351,40,97,37,76,100,0
7057,7664,6345,-25,-52,-18,10240,0.33,-0.09,2.16,1.00,7068,7698,6351,40,97,37,76,100,0
7063,7671,6349,-17,-41,-11,10240,0.33,-0.09,2.16,1.00,7068,7697,6351,40,97,37,76,100,0
7068,7680,6351,-8,-30,-5,10240,0.33,-0.09,2.16,1.00,7068,7696,6351,40,97,37,76,100,0
7069,7683,6350,-3,-22,-2,10240,0.33,-0.09,2.16,1.00,7068,7696,6351,40,97,37,76,100,0
7069,7689,6350,0,-15,-1,10240,0.33,-0.09,2.16,1.00,7068,7696,6351,40,97,37,76,100,0
7069,7696,6351,0,-9,0,10240,0.33,-0.09,2.16,1.00,7068,7696,6351,40,97,37,76,100,0
7069,7702,6352,1,-3,0,10240,0.33,-0.09,2.16,1.00,7068,7696,6351,40,97,37,76,100,0
7069,7707,6352,1,2,0,10240,0.33,-0.09,2.16,1.00,7068,7696,6351,40,97,37,76,100,0
7069,7714,6351,1,8,0,10240,0.33,-0.09,2.16,1.00,7068,7697,6351,40,97,37,76,100,0
7069,7726,6354,1,15,1,10240,0.33,-0.09,2.16,1.00,7068,7698,6351,40,97,37,76,100,0
7069,7732,6355,1,22,2,10240,0.33,-0.09,2.16,1.00,7068,7699,6351,40,97,37,76,100,0
7074,7739,6360,2,29,4,10240,0.33,-0.09,2.16,1.00,7068,7700,6351,40,97,37,76,100,0
7080,7744,6366,4,35,7,10240,0.33,-0.09,2.16,1.00,7069,7702,6352,40,97,37,76,100,0
7090,7748,6370,9,39,11,10240,0.33,-0.09,2.16,1.00,7069,7703,6352,40,97,37,76,100,0
7101,7749,6370,17,42,14,10240,0.33,-0.09,2.16,1.00,7070,7705,6353,40,97,37,76,100,0
7105,7750,6370,24,43,16,10240,0.33,-0.09,2.16,1.00,7072,7706,6353,40,97,37,76,100,0
7109,7752,6369,30,44,16,10240,0.33,-0.09,2.16,1.00,7073,7708,6354,40,97,37,76,100,0
7112,7752,6369,34,43,15,10240,0.33,-0.09,2.16,1.00,7074,7709,6355,40,101,39,76,100,0
7114,7753,6368,36,43,14,10240,0.33,-0.09,2.13,0.92,7075,7711,6355,40,101,39,76,100,0
7120,7755,6367,39,43,13,10240,0.33,-0.09,2.13,0.92,7077,7712,6355,40,101,39,76,100,0
7116,7754,6367,39,42,12,10240,0.33,-0.09,2.13,0.92,7078,7714,6356,40,101,39,76,100,0
7100,7750,6366,35,40,11,10240,0.33,-0.09,2.13,0.92,7079,7715,6356,49,101,39,76,100,0
7073,7717,6345,24,30,5,10240,0.33,-0.09,2.13,0.92,7079,7715,6356,49,101,39,76,100,0
7073,7689,6343,11,13,0,10240,0.33,-0.09,2.13,0.92,7079,7714,6355,49,101,39,76,100,0
7058,7661,6339,-2,-9,-7,10240,0.33,-0.09,2.13,0.92,7078,7712,6355,49,101,39,76,100,0
7051,7654,6335,-14,-32,-14,10240,0.33,-0.09,2.13,0.92,7077,7710,6354,49,101,39,76,100,0
7052,7656,6335,-19,-46,-16,10240,0.33,-0.09,2.13,0.92,7076,7709,6353,49,101,39,76,100,0
7053,7656,6338,-23,-52,-17,10240,0.33,-0.09,2.13,0.92,7075,7707,6353,49,101,39,76,100,0
7058,7662,6340,-22,-50,-16,10240,0.33,-0.09,2.13,0.92,7075,7705,6353,49,101,39,76,100,0
7070,7674,6349,-17,-44,-12,10240,0.33,-0.09,2.13,0.92,7075,7704,6352,49,101,39,76,100,0
7070,7680,6348,-12,-36,-8,10240,0.33,-0.09,2.13,0.92,7074,7703,6352,49,101,39,76,100,0
7071,7682,6347,-7,-29,-6,10240,0.33,-0.09,2.13,0.92,7074,7703,6352,49,101,39,76,100,0
7070,7683,6347,-4,-23,-4,10240,0.33,-0.09,2.13,0.92,7074,7702,6352,49,101,39,76,100,0
7071,7687,6347,-3,-19,-4,10240,0.33,-0.09,2.13,0.92,7074,7702,6352,49,101,39,76,100,0
7071,7698,6347,-3,-14,-5,10240,0.33,-0.09,2.13,0.92,7074,7701,6352,49,101,39,76,100,0
7071,7705,6348,-3,-8,-4,10240,0.33,-0.09,2.13,0.92,7074,7702,6351,49,101,39,76,100,0
7071,7710,6348,-3,-1,-4,10240,0.33,-0.09,2.13,0.92,7074,7702,6351,49,101,39,76,100,0
7071,7717,6348,-3,5,-3,10240,0.33,-0.09,2.13,0.92,7074,7702,6351,49,101,39,76,100,0
7071,7723,6350,-3,11,-2,10240,0.33,-0.09,2.13,0.92,7074,7703,6351,49,101,39,76,100,0
7074,7737,6357,-2,19,0,10240,0.33,-0.09,2.13,0.92,7074,7704,6351,49,101,39,76,100,0
7077,7741,6359,0,26,2,10240,0.33,-0.09,2.13,0.92,7074,7705,6352,49,101,39,76,100,0
7086,7746,6364,3,32,6,10240,0.33,-0.09,2.13,0.92,7074,7707,6352,49,101,39,76,100,0
7093,7749,6369,8,37,10,10240,0.33,-0.09,2.13,0.92,7075,7708,6353,49,101,39,76,100,0
7095,7751,6369,13,39,12,10240,0.33,-0.09,2.13,0.92,7075,7710,6353,49,101,39,76,100,0
7104,7752,6369,19,40,14,10240,0.33,-0.09,2.13,0.92,7076,7711,6354,49,101,39,76,100,0
7106,7753,6368,23,41,15,10240,0.33,-0.09,2.13,0.92,7077,7712,6354,49,101,39,76,100,0
7109,7753,6368,27,40,14,10240,0.33,-0.09,2.13,0.92,7078,7714,6355,49,99,39,76,100,0
7113,7753,6368,30,39,13,10240,0.33,-0.09,2.13,0.92,7080,7715,6355,49,99,39,76,100,0
7113,7753,6368,31,38,13,10240,0.33,-0.09,2.13,0.92,7081,7716,6356,49,99,39,76,100,0
7074,7728,6346,22,31,7,10240,0.33,-0.09,2.13,0.92,7081,7717,6355,50,99,39,76,100,0
7073,7694,6342,12,16,0,10240,0.33,-0.09,2.13,0.92,7080,7716,6355,50,99,39,76,100,0
7071,7677,6344,2,-3,-5,10240,0.33,-0.09,2.13,0.92,7080,7715,6354,50,99,39,76,100,0
7056,7658,6337,-11,-26,-12,10240,0.33,-0.09,2.13,0.92,7079,7713,6354,50,99,39,76,100,0
7039,7642,6324,-19,-45,-17,10240,0.33,-0.09,2.13,0.92,7078,7710,6353,50,99,39,76,100,0
7038,7642,6325,-27,-56,-20,10240,0.33,-0.09,2.13,0.92,7076,7708,6352,50,99,39,76,100,0
7043,7647,6329,-33,-62,-23,10240,0.33,-0.09,2.13,0.92,7075,7706,6351,50,99,39,76,100,0
7049,7659,6335,-33,-59,-23,10240,0.33,-0.09,2.13,0.92,7075,7705,6351,50,99,39,76,100,0
7055,7664,6339,-28,-52,-19,10240,0.33,-0.09,2.13,0.92,7074,7703,6350,50,99,39,76,100,0
7062,7670,6344,-22,-44,-13,10240,0.33,-0.09,2.13,0.92,7073,7702,6350,50,99,39,76,100,0
7070,7682,6348,-14,-34,-8,10240,0.33,-0.09,2.13,0.92,7073,7701,6350,50,99,39,76,100,0
7071,7683,6347,-8,-27,-5,10240,0.33,-0.09,2.13,0.92,7073,7701,6350,50,99,39,76,100,0
7070,7685,6349,-4,-21,-3,10240,0.33,-0.09,2.13,0.92,7073,7700,6350,50,99,39,76,100,0
7071,7690,6347,-2,-15,-2,10240,0.33,-0.09,2.13,0.92,7073,7700,6350,50,99,39,76,100,0
7071,7697,6348,-2,-11,-2,10240,0.33,-0.09,2.13,0.92,7073,7700,6350,50,99,39,76,100,0
7071,7709,6348,-2,-4,-2,10240,0.33,-0.09,2.13,0.92,7073,7700,6350,50,99,39,76,100,0
7071,7717,6348,-2,3,-2,10240,0.33,-0.09,2.13,0.92,7073,7701,6349,50,99,39,76,100,0
7071,7722,6348,-2,10,-1,10240,0.33,-0.09,2.13,0.92,7073,7701,6349,50,99,39,76,100,0
7071,7725,6349,-2,17,-1,10240,0.33,-0.09,2.13,0.92,7073,7702,6349,50,99,39,76,100,0
7072,7734,6352,-1,22,0,10240,0.33,-0.09,2.13,0.92,7073,7703,6350,50,99,39,76,100,0
7084,7748,6365,1,29,4,10240,0.33,-0.09,2.13,0.92,7073,7705,6350,50,99,39,76,100,0
7090,7750,6368,6,35,8,10240,0.33,-0.09,2.13,0.92,7074,7706,6351,50,99,39,76,100,0
7098,7750,6368,12,40,12,10240,0.33,-0.09,2.13,0.92,7074,7708,6351,50,99,39,76,100,0
7102,7751,6369,19,42,16,10240,0.33,-0.09,2.13,0.92,7075,7709,6352,50,99,39,76,100,0
7107,7752,6368,24,42,16,10240,0.33,-0.09,2.13,0.92,7076,7711,6352,50,99,39,76,100,0
7112,7754,6368,29,41,16,10240,0.33,-0.09,2.13,0.92,7078,7712,6353,50,100,39,76,100,0
7117,7754,6368,32,41,15,10240,0.33,-0.09,2.13,0.92,7079,7713,6353,50,100,39,76,100,0
7118,7755,6368,35,41,15,10240,0.33,-0.09,2.11,1.15,7080,7715,6354,50,100,39,76,100,0
7122,7757,6366,37,41,14,10240,0.33,-0.09,2.11,1.15,7082,7716,6354,50,100,39,76,100,0
7122,7756,6367,38,40,13,10240,0.33,-0.09,2.11,1.15,7083,7718,6355,50,100,39,76,100,0
7100,7752,6364,33,38,11,10240,0.33,-0.09,2.11,1.15,7084,7719,6355,55,100,39,76,100,0
7075,7718,6344,21,27,5,10240,0.33,-0.09,2.11,1.15,7083,7719,6355,55,100,39,76,100,0
7074,7686,6341,9,9,0,10240,0.33,-0.09,2.11,1.15,7083,7718,6354,55,100,39,76,100,0
7065,7672,6340,-4,-11,-7,10240,0.33,-0.09,2.11,1.15,7082,7716,6354,55,100,39,76,100,0
7048,7652,6329,-16,-34,-15,10240,0.33,-0.09,2.11,1.15,7081,7714,6353,55,100,39,76,100,0
7038,7639,6322,-25,-52,-20,10240,0.33,-0.09,2.11,1.15,7080,7711,6352,55,100,39,76,100,0
7039,7641,6322,-32,-61,-24,10240,0.33,-0.09,2.11,1.15,7078,7709,6351,55,100,39,76,100,0
7041,7643,6324,-37,-66,-27,10240,0.33,-0.09,2.11,1.15,7077,7707,6350,55,100,39,76,100,0
7046,7650,6330,-36,-64,-26,10240,0.33,-0.09,2.11,1.15,7076,7705,6349,55,100,39,76,100,0
7054,7664,6337,-31,-56,-21,10240,0.33,-0.09,2.11,1.15,7075,7704,6349,55,100,39,76,100,0
7069,7677,6347,-23,-46,-14,10240,0.33,-0.09,2.11,1.15,7075,7703,6349,55,100,39,76,100,0
7071,7681,6346,-15,-35,-9,10240,0.33,-0.09,2.11,1.15,7075,7702,6349,55,100,39,76,100,0
7071,7684,6346,-8,-26,-5,10240,0.33,-0.09,2.11,1.15,7075,7701,6349,55,100,39,76,100,0
7072,7685,6346,-4,-20,-2,10240,0.33,-0.09,2.11,1.15,7075,7701,6349,55,100,39,76,100,0
7072,7689,6346,-3,-16,-2,10240,0.33,-0.09,2.11,1.15,7075,7700,6348,55,100,39,76,100,0
7071,7704,6347,-3,-10,-2,10240,0.33,-0.09,2.11,1.15,7075,7701,6348,55,100,39,76,100,0
7071,7711,6347,-3,-3,-1,10240,0.33,-0.09,2.11,1.15,7075,7701,6348,55,100,39,76,100,0
7071,7716,6347,-3,4,-1,10240,0.33,-0.09,2.11,1.15,7074,7701,6348,55,100,39,76,100,0
7071,7720,6347,-3,11,-1,10240,0.33,-0.09,2.11,1.15,7074,7702,6348,55,100,39,76,100,0
7072,7726,6347,-3,16,-1,10240,0.33,-0.09,2.11,1.15,7074,7703,6348,55,100,39,76,100,0
7079,7739,6354,0,22,0,10240,0.33,-0.09,2.11,1.15,7074,7704,6348,55,100,39,76,100,0
7085,7746,6362,2,29,4,10240,0.33,-0.09,2.11,1.15,7075,7705,6349,55,100,39,76,100,0
7090,7750,6365,7,35,8,10240,0.33,-0.09,2.11,1.15,7075,7707,6349,55,100,39,76,100,0
7098,7751,6367,13,40,13,10240,0.33,-0.09,2.11,1.15,7076,7708,6350,55,100,39,76,100,0
7104,7752,6368,18,42,15,10240,0.33,-0.09,2.11,1.15,7077,7710,6351,55,100,39,76,100,0
7109,7755,6367,23,43,16,10240,0.33,-0.09,2.11,1.15,7078,7711,6351,55,100,39,76,100,0
7113,7756,6367,28,43,16,10240,0.33,-0.09,2.11,1.15,7079,7713,6352,55,100,39,76,100,0
7116,7756,6367,32,42,15,10240,0.33,-0.09,2.11,1.15,7080,7714,6352,55,102,40,76,100,0
7118,7758,6366,34,42,14,10240,0.33,-0.09,2.10,1.23,7082,7716,6353,55,102,40,75,100,0
7121,7757,6365,36,41,13,10240,0.33,-0.09,2.10,1.23,7083,7717,6353,55,102,40,75,100,0
7101,7754,6365,31,40,13,10240,0.33,-0.09,2.10,1.23,7084,7718,6353,60,102,40,75,100,0
7076,7723,6344,21,30,7,10240,0.33,-0.09,2.10,1.23,7083,7719,6353,60,102,40,75,100,0
7074,7691,6340,9,13,0,10240,0.33,-0.09,2.10,1.23,7083,7718,6353,60,102,40,75,100,0
7073,7681,6341,-2,-5,-5,10240,0.33,-0.09,2.10,1.23,7083,7716,6352,60,102,40,75,100,0
7060,7667,6336,-12,-26,-12,10240,0.33,-0.09,2.10,1.23,7082,7715,6352,60,102,40,75,100,0
7054,7659,6332,-17,-41,-14,10240,0.33,-0.09,2.10,1.23,7081,7713,6351,60,102,40,75,100,0
7055,7662,6336,-21,-46,-15,10240,0.33,-0.09,2.10,1.23,7080,7711,6351,60,102,40,75,100,0
7063,7669,6339,-22,-48,-15,10240,0.33,-0.09,2.10,1.23,7080,7710,6350,60,102,40,75,100,0
7068,7673,6344,-20,-45,-12,10240,0.33,-0.09,2.10,1.23,7079,7709,6350,60,102,40,75,100,0
7071,7679,6344,-15,-38,-9,10240,0.33,-0.09,2.10,1.23,7079,7708,6350,60,102,40,75,100,0
7072,7684,6345,-10,-32,-7,10240,0.33,-0.09,2.10,1.23,7079,7707,6350,60,102,40,75,100,0
7072,7686,6344,-8,-27,-5,10240,0.33,-0.09,2.10,1.23,7078,7706,6349,60,102,40,75,100,0
7073,7689,6344,-6,-22,-5,10240,0.33,-0.09,2.10,1.23,7078,7706,6349,60,102,40,75,100,0
7072,7701,6345,-6,-16,-4,10240,0.33,-0.09,2.10,1.23,7078,7705,6349,60,102,40,75,100,0
7072,7704,6345,-5,-10,-4,10240,0.33,-0.09,2.10,1.23,7078,7705,6349,60,102,40,75,100,0
7072,7716,6346,-5,-3,-4,10240,0.33,-0.09,2.10,1.23,7078,7706,6349,60,102,40,75,100,0
7072,7721,6345,-5,5,-3,10240,0.33,-0.09,2.10,1.23,7077,7706,6349,60,102,40,75,100,0
7073,7728,6346,-5,11,-3,10240,0.33,-0.09,2.10,1.23,7077,7707,6349,60,102,40,75,100,0
7075,7735,6350,-4,18,-2,10240,0.33,-0.09,2.10,1.23,7077,7708,6349,60,102,40,75,100,0
7080,7742,6355,-2,24,0,10240,0.33,-0.09,2.10,1.23,7077,7709,6349,60,102,40,75,100,0
7099,7751,6368,4,30,5,10240,0.33,-0.09,2.10,1.23,7078,7710,6350,60,102,40,75,100,0
7103,7754,6368,11,35,10,10240,0.33,-0.09,2.10,1.23,7079,7712,6350,60,102,40,75,100,0
7107,7753,6368,18,39,14,10240,0.33,-0.09,2.10,1.23,7080,7713,6351,60,102,40,75,100,0
7112,7754,6368,25,40,17,10240,0.33,-0.09,2.10,1.23,7081,7715,6351,60,102,40,75,100,0
7112,7756,6366,28,40,16,10240,0.33,-0.09,2.10,1.23,7082,7716,6352,60,102,38,75,100,0
7120,7758,6365,31,40,15,10240,0.33,-0.09,2.21,1.42,7083,7717,6352,60,102,38,75,100,0
7123,7758,6366,34,39,14,10240,0.33,-0.09,2.21,1.42,7085,7719,6353,60,99,38,75,100,0
7126,7760,6365,36,40,13,10240,0.33,-0.09,2.21,1.42,7086,7720,6353,60,99,38,71,100,0
7129,7762,6364,39,40,12,10240,0.33,-0.09,2.21,1.42,7087,7721,6354,60,99,38,71,100,0
7129,7763,6363,40,40,11,10240,0.33,-0.09,2.21,1.42,7089,7723,6354,60,99,38,71,100,0
7114,7759,6365,36,39,10,10240,0.33,-0.09,2.21,1.42,7090,7724,6354,60,99,38,71,100,0
7082,7736,6347,24,32,5,10240,0.33,-0.09,2.21,1.42,7089,7724,6354,60,99,38,71,100,0
7075,7700,6339,10,15,0,10240,0.33,-0.09,2.21,1.42,7089,7724,6353,60,99,38,71,100,0
7075,7684,6339,-2,-3,-6,10240,0.33,-0.09,2.21,1.42,7088,7722,6353,60,99,38,71,100,0
7073,7681,6341,-12,-22,-11,10240,0.33,-0.09,2.21,1.42,7088,7721,6353,60,99,38,71,100,0
7071,7673,6342,-14,-37,-12,10240,0.33,-0.09,2.21,1.42,7087,7719,6352,60,99,38,71,100,0
7071,7677,6342,-15,-41,-11,10240,0.33,-0.09,2.21,1.42,7087,7718,6352,60,99,38,71,100,0
7072,7677,6343,-15,-41,-10,10240,0.33,-0.09,2.21,1.42,7086,7717,6352,60,99,38,71,100,0
7073,7683,6343,-14,-39,-9,10240,0.33,-0.09,2.21,1.42,7086,7715,6351,60,99,38,71,100,0
7074,7684,6341,-13,-35,-9,10240,0.33,-0.09,2.21,1.42,7085,7714,6351,60,99,38,71,100,0
7074,7687,6341,-12,-32,-9,10240,0.33,-0.09,2.21,1.42,7085,7714,6351,60,99,38,71,100,0
7073,7696,6342,-11,-26,-9,10240,0.33,-0.09,2.21,1.42,7085,7713,6350,60,99,38,71,100,0
7074,7705,6342,-11,-20,-9,10240,0.33,-0.09,2.21,1.42,7084,7713,6350,60,99,38,71,100,0
7073,7707,6343,-11,-14,-8,10240,0.33,-0.09,2.21,1.42,7084,7712,6350,60,99,38,71,100,0
7073,7714,6344,-11,-7,-7,10240,0.33,-0.09,2.21,1.42,7084,7713,6350,60,99,38,71,100,0
7073,7725,6344,-10,0,-6,10240,0.33,-0.09,2.21,1.42,7083,7713,6349,60,99,38,71,100,0
7075,7733,6349,-10,6,-4,10240,0.33,-0.09,2.21,1.42,7083,7714,6349,60,99,38,71,100,0
7080,7738,6351,-8,14,-2,10240,0.33,-0.09,2.21,1.42,7083,7714,6349,60,99,38,71,100,0
7090,7744,6362,-3,21,2,10240,0.33,-0.09,2.21,1.42,7083,7715,6350,60,99,38,71,100,0
7089,7750,6364,0,26,7,10240,0.33,-0.09,2.21,1.42,7083,7717,6350,60,99,38,71,100,0
7105,7754,6367,7,30,11,10240,0.33,-0.09,2.21,1.42,7084,7718,6351,60,99,38,71,100,0
7110,7755,6367,14,33,14,10240,0.33,-0.09,2.21,1.42,7085,7719,6351,60,99,38,71,100,0
7113,7756,6366,19,35,15,10240,0.33,-0.09,2.21,1.42,7086,7720,6352,60,99,38,71,100,0
7118,7757,6366,26,35,15,10240,0.33,-0.09,2.21,1.42,7087,7722,6352,60,99,38,71,100,0
7120,7758,6366,28,35,14,10240,0.33,-0.09,2.21,1.42,7088,7723,6353,60,99,35,71,100,0
7128,7760,6365,32,35,13,10240,0.33,-0.09,2.33,1.54,7089,7724,6353,60,99,35,71,100,0
7131,7760,6365,35,35,12,10240,0.33,-0.09,2.33,1.54,7091,7725,6354,60,99,35,71,100,0
7130,7761,6365,37,35,11,10240,0.33,-0.09,2.33,1.54,7092,7726,6354,60,99,35,71,100,0
7125,7760,6365,37,34,11,10240,0.33,-0.09,2.33,1.54,7093,7727,6354,60,93,35,71,100,0
7109,7755,6365,31,32,10,10240,0.33,-0.09,2.33,1.54,7094,7728,6355,58,93,35,66,100,0
7076,7698,6337,17,16,3,10240,0.33,-0.09,2.33,1.54,7093,7727,6354,58,93,35,66,100,0
7075,7684,6338,3,-2,-3,10240,0.33,-0.09,2.33,1.54,7092,7726,6354,58,93,35,66,100,0
7074,7681,6340,-9,-21,-9,10240,0.33,-0.09,2.33,1.54,7092,7724,6353,58,93,35,66,100,0
7073,7679,6340,-17,-39,-14,10240,0.33,-0.09,2.33,1.54,7091,7723,6353,58,93,35,66,100,0
7073,7679,6340,-17,-43,-13,10240,0.33,-0.09,2.33,1.54,7091,7722,6352,58,93,35,66,100,0
7074,7683,6341,-17,-41,-12,10240,0.33,-0.09,2.33,1.54,7090,7720,6352,58,93,35,66,100,0
7074,7683,6341,-17,-40,-11,10240,0.33,-0.09,2.33,1.54,7090,7719,6352,58,93,35,66,100,0
7075,7686,6340,-16,-37,-11,10240,0.33,-0.09,2.33,1.54,7089,7718,6351,58,93,35,66,100,0
7074,7690,6340,-15,-33,-11,10240,0.33,-0.09,2.33,1.54,7089,7717,6351,58,93,35,66,100,0
7074,7699,6340,-14,-28,-10,10240,0.33,-0.09,2.33,1.54,7088,7716,6350,58,93,35,66,100,0
7073,7709,6342,-14,-20,-10,10240,0.33,-0.09,2.33,1.54,7088,7716,6350,58,93,35,66,100,0
7074,7716,6342,-14,-12,-9,10240,0.33,-0.09,2.33,1.54,7087,7716,6350,58,93,35,66,100,0
7074,7721,6342,-13,-4,-8,10240,0.33,-0.09,2.33,1.54,7087,7716,6350,58,93,35,66,100,0
7074,7726,6343,-13,1,-7,10240,0.33,-0.09,2.33,1.54,7086,7717,6349,58,93,35,66,100,0
7075,7730,6346,-12,6,-6,10240,0.33,-0.09,2.33,1.54,7086,7717,6349,58,93,35,66,100,0
7093,7750,6351,-7,14,-3,10240,0.33,-0.09,2.33,1.54,7086,7718,6349,58,93,35,66,100,0
7099,7753,6367,0,22,2,10240,0.33,-0.09,2.33,1.54,7086,7719,6350,58,93,35,66,100,0
7105,7754,6366,6,28,7,10240,0.33,-0.09,2.33,1.54,7087,7720,6351,58,93,35,66,100,0
7110,7756,6367,15,33,12,10240,0.33,-0.09,2.33,1.54,7088,7722,6351,58,93,35,66,100,0
7114,7756,6366,19,33,15,10240,0.33,-0.09,2.33,1.54,7089,7723,6352,58,93,35,66,100,0
7121,7758,6366,24,33,14,10240,0.33,-0.09,2.33,1.54,7090,7724,6352,58,93,34,66,100,0
7124,7759,6365,27,33,14,10240,0.66,-0.08,2.25,1.53,7091,7725,6352,58,93,34,66,100,0
7127,7759,6365,31,33,13,10240,0.66,-0.08,2.25,1.53,7092,7726,6353,58,93,34,66,100,0
7128,7760,6365,33,33,12,10240,0.66,-0.08,2.25,1.53,7093,7727,6353,58,93,34,66,100,0
7129,7762,6364,34,33,11,10240,0.66,-0.08,2.25,1.53,7095,7729,6354,58,93,34,66,100,0
7133,7763,6364,35,33,11,10240,0.66,-0.08,2.25,1.53,7096,7730,6354,58,93,34,66,100,0
7136,7766,6364,36,33,10,10240,0.66,-0.08,2.25,1.53,7097,7731,6354,58,93,34,66,100,0
7137,7766,6364,37,33,9,10240,0.66,-0.08,2.25,1.53,7098,7732,6355,58,93,34,66,100,0
7136,7765,6363,37,33,9,10240,0.66,-0.08,2.25,1.53,7100,7733,6355,58,93,34,66,100,0
7126,7761,6364,34,32,9,10240,0.66,-0.08,2.25,1.53,7101,7734,6355,57,89,34,66,100,0
7077,7716,6356,19,18,6,10240,0.66,-0.08,2.25,1.53,7100,7734,6355,57,89,34,66,100,0
7077,7691,6336,4,0,0,10240,0.66,-0.08,2.25,1.53,7099,7732,6355,57,89,34,66,100,0
7076,7683,6336,-10,-19,-6,10240,0.66,-0.08,2.25,1.53,7098,7730,6354,57,89,34,66,100,0
7075,7681,6338,-22,-38,-12,10240,0.66,-0.08,2.25,1.53,7098,7729,6353,57,89,34,66,100,0
7075,7680,6338,-22,-45,-16,10240,0.66,-0.08,2.25,1.53,7097,7727,6353,57,89,34,66,100,0
7075,7683,6338,-22,-46,-15,10240,0.66,-0.08,2.25,1.53,7096,7726,6352,57,89,34,66,100,0
7075,7683,6338,-21,-44,-14,10240,0.66,-0.08,2.25,1.53,7095,7724,6352,57,89,34,66,100,0
7075,7684,6339,-20,-42,-14,10240,0.66,-0.08,2.25,1.53,7095,7723,6352,57,89,34,66,100,0
7076,7688,6337,-19,-39,-13,10240,0.66,-0.08,2.25,1.53,7094,7722,6351,57,89,34,66,100,0
7076,7696,6339,-18,-34,-13,10240,0.66,-0.08,2.25,1.53,7093,7721,6351,57,89,34,66,100,0
7075,7708,6339,-18,-27,-12,10240,0.66,-0.08,2.25,1.53,7093,7720,6350,57,89,34,66,100,0
7075,7714,6340,-17,-19,-11,10240,0.66,-0.08,2.25,1.53,7092,7720,6350,57,89,34,66,100,0
7076,7720,6340,-17,-10,-10,10240,0.66,-0.08,2.25,1.53,7092,7720,6350,57,89,34,66,100,0
7077,7727,6344,-16,-3,-9,10240,0.66,-0.08,2.25,1.53,7091,7721,6349,57,89,34,66,100,0
7079,7734,6344,-14,3,-7,10240,0.66,-0.08,2.25,1.53,7091,7721,6349,57,89,34,66,100,0
7097,7751,6352,-9,12,-4,10240,0.66,-0.08,2.25,1.53,7091,7722,6349,57,89,34,66,100,0
7105,7754,6366,-1,19,2,10240,0.66,-0.08,2.25,1.53,7091,7723,6350,57,89,34,66,100,0
7108,7757,6365,6,26,7,10240,0.66,-0.08,2.25,1.53,7092,7724,6350,57,89,34,66,100,0
7114,7758,6366,14,31,12,10240,0.66,-0.08,2.25,1.53,7093,7725,6351,57,89,34,66,100,0
7117,7759,6365,18,32,15,10240,0.66,-0.08,2.25,1.53,7094,7726,6351,57,89,34,66,100,0
7123,7759,6366,22,32,14,10240,0.66,-0.08,2.25,1.53,7095,7728,6352,57,89,33,66,100,0
7127,7760,6365,25,32,14,10240,0.66,-0.08,2.22,1.55,7096,7729,6352,57,89,33,66,100,0
7129,7761,6364,28,31,13,10240,0.66,-0.08,2.22,1.55,7097,7730,6353,57,86,33,66,100,0
7131,7762,6364,31,31,12,10240,0.66,-0.08,2.22,1.55,7098,7731,6353,57,86,33,66,100,0
7134,7762,6364,32,30,11,10240,0.66,-0.08,2.22,1.55,7099,7732,6353,57,86,33,66,100,0
7138,7766,6364,34,31,10,10240,0.66,-0.08,2.22,1.55,7100,7733,6354,57,86,33,66,100,0
7141,7768,6365,36,32,10,10240,0.66,-0.08,2.22,1.55,7102,7734,6354,57,86,33,66,100,0
7140,7768,6364,37,32,10,10240,0.66,-0.08,2.22,1.55,7103,7735,6355,57,86,33,66,100,0
7136,7765,6362,36,32,9,10240,0.66,-0.08,2.22,1.55,7104,7736,6355,58,86,33,66,100,0
7124,7762,6364,31,30,9,10240,0.66,-0.08,2.22,1.55,7105,7737,6355,58,86,33,66,100,0
7078,7713,6334,15,16,1,10240,0.66,-0.08,2.22,1.55,7104,7736,6354,58,86,33,66,100,0
7078,7693,6334,0,-2,-6,10240,0.66,-0.08,2.22,1.55,7103,7735,6354,58,86,33,66,100,0
7078,7684,6333,-14,-22,-12,10240,0.66,-0.08,2.22,1.55,7102,7733,6353,58,86,33,66,100,0
7078,7684,6334,-24,-40,-19,10240,0.66,-0.08,2.22,1.55,7101,7731,6352,58,86,33,66,100,0
7077,7684,6335,-24,-46,-18,10240,0.66,-0.08,2.22,1.55,7101,7730,6352,58,86,33,66,100,0
7077,7687,6335,-23,-45,-17,10240,0.66,-0.08,2.22,1.55,7100,7728,6351,58,86,33,66,100,0
7077,7695,6334,-23,-41,-17,10240,0.66,-0.08,2.22,1.55,7099,7727,6351,58,86,33,66,100,0
7077,7704,6336,-22,-35,-16,10240,0.66,-0.08,2.22,1.55,7098,7727,6350,58,86,33,66,100,0
7077,7709,6336,-21,-28,-15,10240,0.66,-0.08,2.22,1.55,7098,7726,6350,58,86,33,66,100,0
7077,7713,6337,-21,-21,-14,10240,0.66,-0.08,2.22,1.55,7097,7726,6349,58,86,33,66,100,0
7078,7729,6339,-20,-12,-12,10240,0.66,-0.08,2.22,1.55,7096,7726,6349,58,86,33,66,100,0
7083,7738,6346,-18,-3,-9,10240,0.66,-0.08,2.22,1.55,7096,7726,6349,58,86,33,66,100,0
7094,7748,6355,-13,5,-4,10240,0.66,-0.08,2.22,1.55,7096,7727,6349,58,86,33,66,100,0
7101,7757,6363,-7,16,1,10240,0.66,-0.08,2.22,1.55,7096,7728,6350,58,86,33,66,100,0
7110,7759,6365,1,23,7,10240,0.66,-0.08,2.22,1.55,7096,7729,6350,58,86,33,66,100,0
7119,7760,6365,9,27,12,10240,0.66,-0.08,2.22,1.55,7097,7730,6351,58,86,33,66,100,0
7123,7760,6365,16,29,14,10240,0.66,-0.08,2.22,1.55,7098,7731,6351,58,86,33,66,100,0
7127,7761,6364,22,29,14,10240,0.66,-0.08,2.22,1.55,7099,7732,6351,58,86,33,66,100,0
7130,7762,6364,26,29,13,10240,0.66,-0.08,2.22,1.55,7100,7733,6352,58,86,33,66,100,0
7132,7763,6363,28,29,12,10240,0.66,-0.08,2.14,1.57,7101,7734,6352,58,86,33,66,100,0
7136,7765,6363,30,29,11,10240,0.66,-0.08,2.14,1.57,7102,7735,6353,58,86,33,66,100,0
7138,7764,6363,32,29,10,10240,0.66,-0.08,2.14,1.57,7103,7736,6353,58,86,33,66,100,0
7140,7770,6363,33,30,10,10240,0.66,-0.08,2.14,1.57,7105,7737,6353,58,86,33,66,100,0
7142,7774,6365,35,31,10,10240,0.66,-0.08,2.14,1.57,7106,7738,6354,58,86,33,66,100,0
7146,7780,6369,36,34,11,10240,0.66,-0.08,2.14,1.57,7107,7740,6354,58,86,33,66,100,0
7151,7789,6374,38,39,13,10240,0.66,-0.08,2.14,1.57,7109,7741,6355,58,86,33,66,100,0
7154,7796,6382,40,44,17,10240,0.66,-0.08,2.14,1.57,7110,7743,6356,58,86,33,66,100,0
7151,7788,6373,41,46,19,10240,0.66,-0.08,2.14,1.57,7112,7745,6356,58,86,33,66,100,0
7146,7775,6363,39,43,17,10240,0.66,-0.08,2.14,1.57,7113,7746,6357,60,87,33,66,100,0
7132,7765,6362,33,36,13,10240,0.66,-0.08,2.14,1.57,7113,7746,6357,60,87,33,66,100,0
7083,7725,6357,15,17,7,10240,0.66,-0.08,2.14,1.57,7112,7746,6357,60,87,33,66,100,0
7080,7710,6331,-2,-1,-3,10240,0.66,-0.08,2.14,1.57,7111,7744,6356,60,87,33,66,100,0
7079,7705,6331,-18,-18,-11,10240,0.66,-0.08,2.14,1.57,7110,7743,6355,60,87,33,66,100,0
7079,7704,6331,-30,-32,-18,10240,0.66,-0.08,2.14,1.57,7109,7742,6354,60,87,33,66,100,0
7079,7703,6332,-30,-36,-23,10240,0.66,-0.08,2.14,1.57,7108,7740,6353,60,87,33,66,100,0
7078,7711,6332,-29,-35,-22,10240,0.66,-0.08,2.14,1.57,7107,7739,6353,60,87,33,66,100,0
7078,7715,6335,-29,-31,-20,10240,0.66,-0.08,2.14,1.57,7106,7739,6352,60,87,33,66,100,0
7079,7719,6333,-28,-27,-19,10240,0.66,-0.08,2.14,1.57,7105,7738,6352,60,87,33,66,100,0
7080,7725,6334,-26,-21,-18,10240,0.66,-0.08,2.14,1.57,7104,7738,6351,60,87,33,66,100,0
7087,7735,6341,-23,-14,-15,10240,0.66,-0.08,2.14,1.57,7104,7737,6351,60,87,33,66,100,0
7095,7748,6353,-19,-6,-11,10240,0.66,-0.08,2.14,1.57,7104,7738,6351,60,87,33,66,100,0
7101,7753,6359,-13,2,-4,10240,0.66,-0.08,2.14,1.57,7103,7738,6351,60,87,33,66,100,0
7106,7757,6363,-6,10,3,10240,0.66,-0.08,2.14,1.57,7104,7739,6351,60,87,33,66,100,0
7110,7760,6363,0,15,8,10240,0.66,-0.08,2.14,1.57,7104,7740,6352,60,87,33,66,100,0
7115,7759,6365,4,18,11,10240,0.66,-0.08,2.14,1.57,7104,7740,6352,60,87,33,66,100,0
7124,7760,6365,9,19,12,10240,0.66,-0.08,2.14,1.57,7105,7741,6353,60,87,33,66,100,0
7127,7762,6364,14,19,11,10240,0.66,-0.08,2.14,1.57,7106,7742,6353,60,87,34,66,100,0
7128,7762,6364,18,19,11,10240,0.66,-0.08,2.10,1.58,7106,7742,6353,60,87,34,66,100,0
7131,7762,6364,21,19,11,10240,0.66,-0.08,2.10,1.58,7107,7743,6354,60,87,34,66,100,0
7134,7764,6362,23,19,10,10240,0.66,-0.08,2.10,1.58,7108,7744,6354,60,87,34,66,100,0
7139,7766,6362,25,20,9,10240,0.66,-0.08,2.10,1.58,7109,7744,6354,60,87,34,66,100,0
7141,7767,6362,27,20,8,10240,0.66,-0.08,2.10,1.58,7110,7745,6354,60,87,34,66,100,0
7144,7768,6361,30,21,7,10240,0.66,-0.08,2.10,1.58,7111,7746,6355,60,87,34,66,100,0
7145,7771,6361,31,22,7,10240,0.66,-0.08,2.10,1.58,7112,7747,6355,60,87,34,66,100,0
7147,7776,6365,32,24,7,10240,0.66,-0.08,2.10,1.58,7114,7748,6355,60,87,34,66,100,0
7148,7777,6363,33,25,7,10240,0.66,-0.08,2.10,1.58,7115,7749,6356,60,87,34,66,100,0
7142,7769,6360,31,25,6,10240,0.66,-0.08,2.10,1.58,7116,7749,6356,60,87,34,66,100,0
7126,7765,6362,25,22,6,10240,0.66,-0.08,2.10,1.58,7116,7750,6356,60,81,34,66,100,0
7093,7743,6341,11,14,0,10240,0.66,-0.08,2.10,1.58,7115,7750,6355,60,81,34,66,100,0
7081,7713,6329,-4,-1,-7,10240,0.66,-0.08,2.10,1.58,7114,7748,6354,60,81,34,66,100,0
7080,7693,6328,-19,-20,-14,10240,0.66,-0.08,2.10,1.58,7113,7747,6354,60,81,34,66,100,0
7080,7690,6330,-30,-37,-22,10240,0.66,-0.08,2.10,1.58,7112,7745,6353,60,81,34,66,100,0
7080,7692,6331,-32,-48,-23,10240,0.66,-0.08,2.10,1.58,7111,7743,6352,60,81,34,66,100,0
7080,7696,6330,-31,-51,-22,10240,0.66,-0.08,2.10,1.58,7110,7741,6351,60,81,34,66,100,0
7080,7704,6331,-30,-46,-21,10240,0.66,-0.08,2.10,1.58,7109,7740,6351,60,81,34,66,100,0
7079,7715,6331,-29,-39,-20,10240,0.66,-0.08,2.10,1.58,7108,7739,6350,60,81,34,66,100,0
7080,7725,6332,-28,-29,-19,10240,0.66,-0.08,2.10,1.58,7107,7739,6349,60,81,34,66,100,0
7083,7731,6337,-27,-20,-17,10240,0.66,-0.08,2.10,1.58,7106,7739,6349,60,81,34,66,100,0
7085,7739,6341,-24,-11,-14,10240,0.66,-0.08,2.10,1.58,7105,7739,6349,60,81,34,66,100,0
7093,7747,6349,-20,-3,-9,10240,0.66,-0.08,2.10,1.58,7105,7739,6349,60,81,34,66,100,0
7111,7761,6361,-12,5,-2,10240,0.66,-0.08,2.10,1.58,7105,7740,6349,60,81,34,66,100,0
7117,7760,6365,-3,12,4,10240,0.66,-0.08,2.10,1.58,7105,7740,6350,60,81,34,66,100,0
7124,7761,6364,6,17,10,10240,0.66,-0.08,2.10,1.58,7106,7741,6350,60,81,34,66,100,0
7126,7763,6363,13,20,13,10240,0.66,-0.08,2.10,1.58,7107,7742,6351,60,81,34,66,100,0
7130,7763,6363,18,20,13,10240,0.66,-0.08,2.10,1.58,7107,7742,6351,60,81,34,66,100,0
7136,7764,6362,22,20,12,10240,0.66,-0.08,2.10,1.58,7108,7743,6351,60,81,34,66,100,0
7139,7767,6361,25,21,11,10240,0.66,-0.08,1.95,1.58,7109,7744,6352,60,81,34,66,100,0
7142,7768,6361,28,22,10,10240,0.66,-0.08,1.95,1.58,7111,7745,6352,60,81,34,66,100,0
7145,7770,6360,30,22,9,10240,0.66,-0.08,1.95,1.58,7112,7746,6352,60,81,34,66,100,0
7147,7775,6363,32,24,9,10240,0.66,-0.08,1.95,1.58,7113,7747,6353,60,81,34,66,100,0
7153,7779,6365,34,26,9,10240,0.66,-0.08,1.95,1.58,7114,7748,6353,60,81,34,66,100,0
7156,7790,6372,36,31,12,10240,0.66,-0.08,1.95,1.58,7116,7749,6354,60,81,34,66,100,0
7158,7795,6375,38,36,15,10240,0.66,-0.08,1.95,1.58,7117,7751,6354,60,81,34,66,100,0
7160,7799,6379,40,40,18,10240,0.66,-0.08,1.95,1.58,7118,7752,6355,60,81,34,66,100,0
7165,7803,6384,42,45,22,10240,0.66,-0.08,1.95,1.58,7120,7754,6356,60,81,34,66,100,0
7164,7806,6385,42,47,25,10240,0.66,-0.08,1.95,1.58,7121,7756,6357,60,81,34,66,100,0
7159,7788,6370,41,44,23,10240,0.66,-0.08,1.95,1.58,7123,7757,6358,64,85,34,66,100,0
7144,7770,6360,36,35,17,10240,0.66,-0.08,1.95,1.58,7123,7757,6358,64,85,34,66,100,0
7122,7764,6362,24,25,11,10240,0.66,-0.08,1.95,1.58,7123,7757,6358,64,85,34,66,100,0
7094,7738,6342,7,8,0,10240,0.66,-0.08,1.95,1.58,7122,7757,6357,64,85,34,66,100,0
7081,7717,6329,-12,-9,-9,10240,0.66,-0.08,1.95,1.58,7121,7755,6356,64,85,34,66,100,0
7081,7708,6328,-27,-24,-16,10240,0.66,-0.08,1.95,1.58,7120,7754,6355,64,85,34,66,100,0
7080,7710,6330,-36,-36,-23,10240,0.66,-0.08,1.95,1.58,7118,7752,6355,64,85,34,66,100,0
7080,7712,6331,-38,-41,-25,10240,0.66,-0.08,1.95,1.58,7117,7751,6354,64,85,34,66,100,0
7080,7715,6332,-37,-40,-24,10240,0.66,-0.08,1.95,1.58,7116,7750,6353,64,85,34,66,100,0
7084,7720,6331,-35,-36,-22,10240,0.66,-0.08,1.95,1.58,7115,7749,6352,64,85,34,66,100,0
7087,7736,6339,-32,-28,-19,10240,0.66,-0.08,1.95,1.58,7114,7748,6352,64,85,34,66,100,0
7096,7745,6349,-27,-19,-14,10240,0.66,-0.08,1.95,1.58,7113,7748,6352,64,85,34,66,100,0
7101,7753,6355,-21,-9,-8,10240,0.66,-0.08,1.95,1.58,7113,7748,6352,64,85,34,66,100,0
7109,7759,6363,-15,0,0,10240,0.66,-0.08,1.95,1.58,7113,7749,6352,64,85,34,66,100,0
7123,7761,6364,-5,6,5,10240,0.66,-0.08,1.95,1.58,7113,7749,6353,64,85,34,66,100,0
7128,7764,6363,2,10,8,10240,0.66,-0.08,1.95,1.58,7114,7750,6353,64,85,34,66,100,0
7131,7765,6362,9,12,10,10240,0.66,-0.08,1.95,1.58,7114,7750,6353,64,85,34,66,100,0
7135,7766,6361,15,14,9,10240,0.66,-0.08,1.95,1.58,7115,7751,6353,64,85,34,66,100,0
7139,7766,6362,18,14,8,10240,0.66,-0.08,2.05,1.68,7116,7751,6354,64,85,34,66,100,0
7145,7768,6361,22,15,8,10240,0.66,-0.08,2.05,1.68,7117,7752,6354,64,85,34,66,100,0
7147,7771,6360,25,16,7,10240,0.66,-0.08,2.05,1.68,7118,7752,6354,64,85,34,66,100,0
7149,7773,6360,27,17,6,10240,0.66,-0.08,2.05,1.68,7119,7753,6354,64,85,34,66,100,0
7152,7773,6360,29,18,6,10240,0.66,-0.08,2.05,1.68,7120,7754,6355,64,85,34,66,100,0
7154,7781,6365,31,21,6,10240,0.66,-0.08,2.05,1.68,7121,7755,6355,64,85,34,66,100,0
7159,7789,6372,33,24,9,10240,0.66,-0.08,2.05,1.68,7122,7756,6356,64,85,34,66,100,0
7164,7800,6379,35,30,13,10240,0.66,-0.08,2.05,1.68,7124,7757,6356,64,85,34,66,100,0
7166,7805,6384,37,37,19,10240,0.66,-0.08,2.05,1.68,7125,7759,6357,64,85,34,66,100,0
7168,7809,6384,40,42,23,10240,0.66,-0.08,2.05,1.68,7126,7761,6358,64,85,34,65,100,0
7169,7815,6391,41,47,27,10240,0.66,-0.08,2.05,1.68,7128,7762,6359,64,85,34,65,100,0
7171,7817,6390,41,50,28,10240,0.66,-0.08,2.05,1.68,7129,7764,6360,64,85,34,65,100,0
7167,7803,6376,40,48,25,10240,0.66,-0.08,2.05,1.68,7131,7765,6361,68,87,31,65,100,0
7156,7780,6359,36,39,18,10240,0.66,-0.08,2.30,1.96,7131,7766,6361,68,87,31,65,100,0
7142,7770,6360,28,27,10,10240,0.66,-0.08,2.30,1.96,7132,7766,6361,68,87,31,65,100,0
7125,7763,6362,16,13,3,10240,0.66,-0.08,2.30,1.96,7132,7766,6361,68,87,31,65,100,0
7099,7745,6352,0,-1,-2,10240,0.66,-0.08,2.30,1.96,7130,7765,6360,68,87,31,65,100,0
7096,7742,6341,-15,-10,-6,10240,0.66,-0.08,2.30,1.96,7129,7765,6360,68,87,31,65,100,0
7101,7747,6346,-24,-15,-9,10240,0.66,-0.08,2.30,1.96,7128,7764,6359,68,87,31,65,100,0
7105,7753,6352,-28,-17,-11,10240,0.66,-0.08,2.30,1.96,7128,7764,6359,68,87,31,65,100,0
7113,7759,6360,-24,-13,-9,10240,0.66,-0.08,2.30,1.96,7127,7763,6359,68,87,31,65,100,0
7126,7762,6363,-16,-8,-3,10240,0.66,-0.08,2.30,1.96,7127,7763,6359,68,87,31,65,100,0
7130,7765,6362,-8,-3,0,10240,0.66,-0.08,2.30,1.96,7127,7763,6359,68,87,31,65,100,0
7134,7766,6361,-1,0,2,10240,0.66,-0.08,2.30,1.96,7127,7764,6359,68,87,31,65,100,0
7138,7767,6362,4,1,2,10240,0.66,-0.08,2.30,1.96,7128,7764,6360,68,87,31,65,100,0
7141,7767,6361,8,2,2,10240,0.66,-0.08,2.30,1.96,7128,7764,6360,68,87,31,65,100,0
7144,7769,6360,11,3,1,10240,0.66,-0.08,2.30,1.96,7129,7764,6360,68,87,31,65,100,0
7149,7771,6359,14,4,0,10240,0.66,-0.08,2.30,1.96,7129,7764,6360,68,87,31,65,100,0
7152,7772,6359,17,5,0,10240,0.66,-0.08,2.30,1.96,7130,7764,6359,68,87,31,65,100,0
7155,7775,6359,20,7,0,10240,0.66,-0.08,2.30,1.96,7131,7765,6359,68,87,31,65,100,0
7158,7782,6364,23,10,0,10240,0.66,-0.08,2.30,1.96,7132,7765,6360,68,87,31,65,100,0
7162,7785,6366,25,13,2,10240,0.66,-0.08,2.30,1.96,7133,7766,6360,68,87,31,65,100,0
7169,7807,6380,28,21,7,10240,0.66,-0.08,2.30,1.96,7134,7767,6361,68,87,31,65,100,0
7171,7810,6383,31,29,12,10240,0.66,-0.08,2.30,1.96,7135,7769,6361,68,87,31,65,100,0
7174,7818,6387,34,37,18,10240,0.66,-0.08,2.30,1.96,7137,7770,6362,68,87,31,65,100,0
7178,7824,6392,37,45,23,10240,0.66,-0.08,2.30,1.96,7138,7772,6363,68,87,31,65,100,0
7180,7827,6394,38,48,26,10240,0.66,-0.08,2.30,1.96,7139,7774,6364,68,87,31,65,100,0
7184,7834,6399,40,52,29,10240,0.66,-0.08,2.30,1.96,7141,7776,6365,68,87,31,65,100,0
7189,7836,6400,42,55,31,10240,0.66,-0.08,2.30,1.96,7142,7778,6366,68,87,31,65,100,0
7189,7839,6402,44,57,33,10240,0.66,-0.08,2.30,1.96,7144,7780,6368,68,87,31,65,100,0
7190,7842,6402,44,58,33,10240,0.66,-0.08,2.30,1.96,7146,7782,6369,68,87,31,65,100,0
7194,7845,6405,45,59,34,10240,0.66,-0.08,2.30,1.96,7147,7784,6370,68,87,31,65,100,0
7197,7848,6406,46,60,34,10240,0.66,-0.08,2.30,1.96,7149,7786,6371,68,87,31,65,100,0
7193,7842,6401,45,59,33,10240,0.66,-0.08,2.30,1.96,7150,7788,6372,69,84,32,65,100,0
7183,7827,6391,42,53,29,10240,0.66,-0.08,2.15,1.92,7151,7790,6373,69,84,32,65,100,0
7174,7804,6373,36,41,20,10240,0.66,-0.08,2.15,1.92,7152,7790,6373,69,84,32,65,100,0
7161,7780,6357,26,23,8,10240,0.66,-0.08,2.15,1.92,7152,7790,6372,69,84,32,65,100,0
7151,7772,6359,15,6,-2,10240,0.66,-0.08,2.15,1.92,7152,7789,6372,69,84,32,65,100,0
7148,7772,6359,6,-7,-10,10240,0.66,-0.08,2.15,1.92,7152,7789,6371,69,84,32,65,100,0
7150,7772,6359,0,-15,-13,10240,0.66,-0.08,2.15,1.92,7152,7788,6371,69,84,32,65,100,0
7151,7774,6358,-2,-16,-12,10240,0.66,-0.08,2.15,1.92,7152,7788,6371,69,84,32,65,100,0
7153,7775,6357,-1,-14,-12,10240,0.66,-0.08,2.15,1.92,7152,7787,6370,69,84,32,65,100,0
7159,7778,6357,1,-12,-12,10240,0.66,-0.08,2.15,1.92,7152,7787,6370,69,84,32,65,100,0
7159,7779,6356,3,-10,-13,10240,0.66,-0.08,2.15,1.92,7153,7787,6369,69,84,32,65,100,0
7162,7783,6359,5,-8,-12,10240,0.66,-0.08,2.15,1.92,7153,7786,6369,69,84,32,65,100,0
7166,7789,6361,8,-4,-11,10240,0.66,-0.08,2.15,1.92,7153,7786,6369,69,84,32,65,100,0
7168,7793,6366,10,0,-8,10240,0.66,-0.08,2.15,1.92,7154,7787,6369,69,84,32,65,100,0
7174,7807,6376,13,6,-3,10240,0.66,-0.08,2.15,1.92,7155,7787,6369,69,84,32,65,100,0
7176,7813,6379,16,13,1,10240,0.66,-0.08,2.15,1.92,7155,7788,6369,69,84,32,65,100,0
7179,7817,6383,19,19,6,10240,0.66,-0.08,2.15,1.92,7156,7789,6370,69,84,32,65,100,0
7181,7822,6386,21,26,11,10240,0.66,-0.08,2.15,1.92,7157,7790,6370,69,84,32,65,100,0
7183,7827,6389,23,30,14,10240,0.66,-0.08,2.15,1.92,7158,7792,6371,69,84,32,65,100,0
7189,7836,6395,25,34,17,10240,0.66,-0.08,2.15,1.92,7159,7793,6372,69,84,32,65,100,0
7192,7840,6398,27,38,20,10240,0.66,-0.08,2.15,1.92,7160,7795,6372,69,84,32,65,100,0
7195,7843,6400,30,42,23,10240,0.66,-0.08,2.15,1.92,7161,7796,6373,69,84,32,65,100,0
7196,7846,6401,32,45,25,10240,0.66,-0.08,2.15,1.92,7162,7798,6374,69,84,32,65,100,0
7199,7848,6403,33,47,27,10240,0.66,-0.08,2.15,1.92,7164,7800,6375,69,84,32,65,100,0
7202,7853,6407,35,48,28,10240,0.66,-0.08,2.15,1.92,7165,7801,6376,69,84,32,65,100,0
