3553,3786,2863,29,35,23,10240,-1.00,-1.00,0.00,0.00,3522,3747,2837,0,6,647,66,100,0
3555,3788,2864,30,37,24,10240,-1.00,-1.00,0.00,0.00,3523,3749,2838,0,6,647,66,100,0
3556,3790,2866,31,38,25,10240,-1.00,-1.00,0.00,0.00,3524,3750,2839,0,6,647,66,100,0
3560,3796,2868,32,40,26,10240,-1.00,-1.00,0.00,0.00,3525,3751,2840,0,6,647,66,100,0
3561,3799,2870,33,42,27,10240,-1.00,-1.00,0.00,0.00,3526,3753,2841,0,6,647,66,100,0
3563,3800,2871,34,44,28,10240,-1.00,-1.00,0.00,0.00,3527,3755,2842,0,6,647,66,100,0
3563,3802,2872,35,45,28,10240,-1.00,-1.00,0.00,0.00,3529,3756,2843,0,6,647,66,100,0
3561,3798,2869,34,44,28,10240,-1.00,-1.00,0.00,0.00,3530,3758,2844,6,15,647,66,100,0
3547,3775,2855,29,37,23,10240,-1.00,-1.00,0.00,0.00,3530,3758,2844,6,15,491,66,100,0
3540,3762,2848,22,26,17,10240,-1.00,-1.00,0.02,0.01,3531,3758,2845,6,15,491,66,100,0
3535,3754,2842,15,14,9,10240,-1.00,-1.00,0.02,0.01,3531,3758,2844,6,15,491,66,100,0
3531,3746,2838,7,1,1,10240,-1.00,-1.00,0.02,0.01,3531,3758,2844,6,15,491,66,100,0
3529,3741,2836,2,-7,-3,10240,-1.00,-1.00,0.02,0.01,3531,3757,2844,6,15,491,66,100,0
3530,3742,2836,0,-11,-6,10240,-1.00,-1.00,0.02,0.01,3531,3757,2844,6,15,491,66,100,0
3533,3746,2839,0,-13,-6,10240,-1.00,-1.00,0.02,0.01,3531,3756,2844,6,15,491,66,100,0
3534,3749,2840,0,-12,-6,10240,-1.00,-1.00,0.02,0.01,3531,3756,2843,6,15,491,66,100,0
3535,3751,2842,2,-9,-4,10240,-1.00,-1.00,0.02,0.01,3531,3756,2843,6,15,491,66,100,0
3536,3752,2843,3,-6,-2,10240,-1.00,-1.00,0.02,0.01,3531,3756,2843,6,15,491,66,100,0
3539,3754,2844,5,-4,0,10240,-1.00,-1.00,0.02,0.01,3531,3756,2843,6,15,491,66,100,0
3540,3757,2846,6,-2,0,10240,-1.00,-1.00,0.02,0.01,3532,3756,2844,6,15,491,66,100,0
3541,3759,2848,7,0,1,10240,-1.00,-1.00,0.02,0.01,3532,3756,2844,6,15,491,66,100,0
3542,3761,2849,8,1,3,10240,-1.00,-1.00,0.02,0.01,3532,3756,2844,6,15,491,66,100,0
3545,3765,2851,9,4,4,10240,-1.00,-1.00,0.02,0.01,3533,3756,2844,6,15,491,66,100,0
3546,3767,2852,11,6,6,10240,-1.00,-1.00,0.02,0.01,3533,3757,2844,6,15,491,66,100,0
3551,3775,2858,13,10,8,10240,-1.00,-1.00,0.02,0.01,3534,3757,2845,6,15,491,66,100,0
3552,3778,2859,15,14,10,10240,-1.00,-1.00,0.02,0.01,3534,3758,2845,6,15,491,66,100,0
3554,3781,2860,16,17,12,10240,-1.00,-1.00,0.02,0.01,3535,3759,2846,6,15,491,66,100,0
3557,3785,2863,18,21,14,10240,-1.00,-1.00,0.02,0.01,3536,3760,2846,6,15,491,66,100,0
3560,3787,2865,20,23,15,10240,-1.00,-1.00,0.02,0.01,3537,3760,2847,6,15,491,66,100,0
3565,3794,2869,22,26,17,10240,-1.00,-1.00,0.02,0.01,3537,3762,2848,6,15,491,66,100,0
3567,3797,2871,25,29,19,10240,-1.00,-1.00,0.02,0.01,3538,3763,2848,6,15,491,66,100,0
3568,3799,2871,27,32,21,10240,-1.00,-1.00,0.02,0.01,3539,3764,2849,6,15,491,66,100,0
3570,3802,2873,29,34,22,10240,-1.00,-1.00,0.02,0.01,3540,3765,2850,6,15,491,66,100,0
3571,3805,2874,29,36,22,10240,-1.00,-1.00,0.02,0.01,3542,3767,2851,6,15,491,66,100,0
3574,3808,2877,29,37,23,10240,-1.00,-1.00,0.02,0.01,3543,3768,2852,6,15,491,67,100,0
3575,3811,2877,30,39,23,10240,-1.00,-1.00,0.02,0.01,3544,3769,2853,6,15,491,67,100,0
3573,3807,2874,29,39,23,10240,-1.00,-1.00,0.02,0.01,3545,3771,2853,12,15,491,67,100,0
3567,3797,2868,28,35,21,10240,-1.00,-1.00,0.02,0.01,3545,3772,2854,12,25,376,67,100,0
3556,3780,2858,22,27,15,10240,-1.00,-1.00,0.05,0.03,3546,3772,2854,12,25,376,67,100,0
3540,3753,2843,13,12,7,10240,-1.00,-1.00,0.05,0.03,3546,3771,2853,12,25,376,67,100,0
3533,3743,2837,3,-3,-2,10240,-1.00,-1.00,0.05,0.03,3545,3770,2853,12,25,376,67,100,0
3530,3736,2834,-5,-17,-10,10240,-1.00,-1.00,0.05,0.03,3545,3769,2852,12,25,376,67,100,0
3525,3732,2831,-13,-28,-16,10240,-1.00,-1.00,0.05,0.03,3544,3768,2852,12,25,376,67,100,0
3525,3731,2831,-16,-33,-18,10240,-1.00,-1.00,0.05,0.03,3543,3767,2851,12,25,376,67,100,0
3530,3735,2835,-16,-34,-18,10240,-1.00,-1.00,0.05,0.03,3543,3766,2850,12,25,376,67,100,0
3532,3739,2836,-15,-32,-17,10240,-1.00,-1.00,0.05,0.03,3542,3765,2850,12,25,376,67,100,0
3533,3741,2838,-12,-29,-15,10240,-1.00,-1.00,0.05,0.03,3542,3764,2850,12,25,376,67,100,0
3533,3743,2839,-10,-25,-12,10240,-1.00,-1.00,0.05,0.03,3542,3763,2849,12,25,376,67,100,0
3534,3744,2839,-9,-22,-11,10240,-1.00,-1.00,0.05,0.03,3542,3763,2849,12,25,376,67,100,0
3539,3750,2843,-7,-18,-9,10240,-1.00,-1.00,0.05,0.03,3542,3762,2849,12,25,376,67,100,0
3541,3753,2845,-5,-15,-7,10240,-1.00,-1.00,0.05,0.03,3541,3762,2848,12,25,376,67,100,0
3542,3756,2846,-2,-11,-5,10240,-1.00,-1.00,0.05,0.03,3542,3762,2848,12,25,376,67,100,0
3544,3759,2849,0,-7,-2,10240,-1.00,-1.00,0.05,0.03,3542,3761,2848,12,25,376,67,100,0
3547,3762,2852,1,-4,0,10240,-1.00,-1.00,0.05,0.03,3542,3762,2849,12,25,376,67,100,0
3551,3769,2855,4,0,2,10240,-1.00,-1.00,0.05,0.03,3542,3762,2849,12,25,376,67,100,0
3552,3772,2856,6,3,4,10240,-1.00,-1.00,0.05,0.03,3542,3762,2849,12,25,376,67,100,0
3554,3775,2858,8,7,6,10240,-1.00,-1.00,0.05,0.03,3543,3763,2849,12,25,376,67,100,0
3555,3777,2859,10,10,7,10240,-1.00,-1.00,0.05,0.03,3543,3763,2850,12,25,376,67,100,0
3557,3781,2862,11,13,9,10240,-1.00,-1.00,0.05,0.03,3544,3764,2850,12,25,376,67,100,0
3563,3787,2866,13,16,11,10240,-1.00,-1.00,0.05,0.03,3544,3764,2851,12,25,376,67,100,0
3564,3789,2866,15,19,12,10240,-1.00,-1.00,0.05,0.03,3545,3765,2851,12,25,376,67,100,0
3566,3791,2867,17,22,14,10240,-1.00,-1.00,0.05,0.03,3546,3766,2852,12,25,376,67,100,0
3567,3794,2869,19,24,15,10240,-1.00,-1.00,0.05,0.03,3546,3767,2852,12,25,376,67,100,0
3568,3796,2871,20,26,16,10240,-1.00,-1.00,0.05,0.03,3547,3768,2853,12,25,376,67,100,0
3573,3802,2875,21,28,17,10240,-1.00,-1.00,0.05,0.03,3548,3769,2854,12,25,376,67,100,0
3573,3802,2874,22,30,19,10240,-1.00,-1.00,0.05,0.03,3549,3770,2854,12,25,376,67,100,0
3571,3802,2873,22,31,19,10240,-1.00,-1.00,0.05,0.03,3550,3771,2855,12,25,376,66,100,0
3566,3793,2867,21,29,17,10240,-1.00,-1.00,0.05,0.03,3550,3772,2855,18,35,291,66,100,0
3547,3779,2858,14,22,13,10240,-1.00,-1.00,0.09,0.05,3550,3772,2855,18,35,291,66,100,0
3539,3751,2843,5,9,5,10240,-1.00,-1.00,0.09,0.05,3550,3772,2855,18,35,291,66,100,0
3532,3739,2835,-3,-6,-4,10240,-1.00,-1.00,0.09,0.05,3549,3770,2854,18,35,291,66,100,0
3526,3731,2831,-13,-20,-12,10240,-1.00,-1.00,0.09,0.05,3548,3769,2854,18,35,291,66,100,0
3524,3726,2828,-18,-33,-19,10240,-1.00,-1.00,0.09,0.05,3547,3768,2853,18,35,291,66,100,0
3522,3723,2827,-21,-38,-23,10240,-1.00,-1.00,0.09,0.05,3547,3766,2852,18,35,291,66,100,0
3526,3728,2832,-22,-40,-23,10240,-1.00,-1.00,0.09,0.05,3546,3765,2851,18,35,291,66,100,0
3528,3733,2832,-21,-38,-21,10240,-1.00,-1.00,0.09,0.05,3545,3764,2850,18,35,291,66,100,0
3530,3735,2835,-19,-34,-19,10240,-1.00,-1.00,0.09,0.05,3545,3763,2850,18,35,291,66,100,0
3530,3736,2835,-16,-30,-16,10240,-1.00,-1.00,0.09,0.05,3544,3762,2849,18,35,291,66,100,0
3532,3739,2836,-14,-26,-15,10240,-1.00,-1.00,0.09,0.05,3544,3761,2849,18,35,291,66,100,0
3535,3742,2839,-12,-23,-13,10240,-1.00,-1.00,0.09,0.05,3544,3761,2849,18,35,291,66,100,0
3537,3746,2842,-10,-20,-10,10240,-1.00,-1.00,0.09,0.05,3543,3760,2848,18,35,291,66,100,0
3539,3750,2843,-7,-16,-8,10240,-1.00,-1.00,0.09,0.05,3543,3760,2848,18,35,291,66,100,0
3541,3753,2845,-5,-12,-6,10240,-1.00,-1.00,0.09,0.05,3543,3760,2848,18,35,291,66,100,0
3543,3757,2848,-3,-8,-3,10240,-1.00,-1.00,0.09,0.05,3543,3759,2848,18,35,291,66,100,0
3549,3765,2852,0,-3,-1,10240,-1.00,-1.00,0.09,0.05,3543,3760,2848,18,35,291,66,100,0
3551,3768,2854,2,1,1,10240,-1.00,-1.00,0.09,0.05,3544,3760,2849,18,35,291,66,100,0
3553,3771,2856,5,5,4,10240,-1.00,-1.00,0.09,0.05,3544,3760,2849,18,35,291,66,100,0
3554,3773,2857,8,9,6,10240,-1.00,-1.00,0.09,0.05,3544,3761,2849,18,35,291,66,100,0
3556,3776,2859,9,11,7,10240,-1.00,-1.00,0.09,0.05,3545,3761,2849,18,35,291,66,100,0
3561,3784,2863,11,15,9,10240,-1.00,-1.00,0.09,0.05,3545,3762,2850,18,35,291,66,100,0
3562,3786,2865,13,18,11,10240,-1.00,-1.00,0.09,0.05,3546,3763,2850,18,35,291,66,100,0
3563,3787,2866,15,20,13,10240,-1.00,-1.00,0.09,0.05,3546,3764,2851,18,35,291,66,100,0
3564,3790,2867,16,23,14,10240,-1.00,-1.00,0.09,0.05,3547,3764,2851,18,35,291,66,100,0
3566,3792,2869,17,24,15,10240,-1.00,-1.00,0.09,0.05,3548,3765,2852,18,35,291,66,100,0
3571,3801,2872,18,27,16,10240,-1.00,-1.00,0.09,0.05,3548,3767,2853,18,35,291,66,100,0
3571,3801,2874,20,30,18,10240,-1.00,-1.00,0.09,0.05,3549,3768,2853,18,35,291,66,100,0
3571,3803,2874,21,32,19,10240,-1.00,-1.00,0.09,0.05,3550,3769,2854,18,35,291,66,100,0
3569,3800,2872,21,32,19,10240,-1.00,-1.00,0.09,0.05,3550,3770,2855,18,35,291,66,100,0
3564,3792,2866,18,29,17,10240,-1.00,-1.00,0.09,0.05,3551,3771,2855,25,44,229,66,100,0
3546,3762,2848,12,19,10,10240,-1.00,-1.00,0.15,0.09,3551,3770,2855,25,44,229,66,100,0
3537,3749,2840,3,5,1,10240,-1.00,-1.00,0.15,0.09,3550,3770,2854,25,44,229,66,100,0
3530,3739,2835,-6,-9,-7,10240,-1.00,-1.00,0.15,0.09,3550,3769,2854,25,44,229,66,100,0
3527,3732,2831,-15,-23,-15,10240,-1.00,-1.00,0.15,0.09,3549,3767,2853,25,44,229,66,100,0
3524,3728,2829,-19,-31,-19,10240,-1.00,-1.00,0.15,0.09,3548,3766,2852,25,44,229,66,100,0
3526,3730,2832,-21,-34,-20,10240,-1.00,-1.00,0.15,0.09,3547,3765,2851,25,44,229,66,100,0
3528,3733,2833,-21,-34,-20,10240,-1.00,-1.00,0.15,0.09,3547,3764,2851,25,44,229,66,100,0
3529,3736,2835,-20,-32,-18,10240,-1.00,-1.00,0.15,0.09,3546,3763,2850,25,44,229,66,100,0
3530,3738,2836,-18,-29,-16,10240,-1.00,-1.00,0.15,0.09,3546,3762,2850,25,44,229,66,100,0
3531,3740,2837,-16,-25,-14,10240,-1.00,-1.00,0.15,0.09,3545,3761,2849,25,44,229,66,100,0
3533,3742,2838,-14,-22,-13,10240,-1.00,-1.00,0.15,0.09,3545,3761,2849,25,44,229,66,100,0
3534,3746,2840,-13,-19,-11,10240,-1.00,-1.00,0.15,0.09,3544,3760,2849,25,44,229,66,100,0
3537,3748,2842,-10,-16,-9,10240,-1.00,-1.00,0.15,0.09,3544,3760,2849,25,44,229,66,100,0
3538,3751,2843,-8,-13,-8,10240,-1.00,-1.00,0.15,0.09,3544,3759,2848,25,44,229,66,100,0
3542,3755,2846,-6,-9,-5,10240,-1.00,-1.00,0.15,0.09,3544,3759,2848,25,44,229,66,100,0
3545,3761,2850,-3,-5,-3,10240,-1.00,-1.00,0.15,0.09,3544,3759,2848,25,44,229,66,100,0
3546,3765,2852,-1,-1,0,10240,-1.00,-1.00,0.15,0.09,3544,3760,2848,25,44,229,66,100,0
3549,3769,2854,1,3,2,10240,-1.00,-1.00,0.15,0.09,3544,3760,2849,25,44,229,66,100,0
3551,3773,2856,3,7,4,10240,-1.00,-1.00,0.15,0.09,3544,3760,2849,25,44,229,66,100,0
3554,3774,2856,5,10,5,10240,-1.00,-1.00,0.15,0.09,3545,3761,2849,25,44,229,66,100,0
3557,3780,2861,8,13,7,10240,-1.00,-1.00,0.15,0.09,3545,3761,2850,25,44,229,66,100,0
3559,3783,2862,10,16,9,10240,-1.00,-1.00,0.15,0.09,3545,3762,2850,25,44,229,66,100,0
3559,3785,2863,12,18,10,10240,-1.00,-1.00,0.15,0.09,3546,3763,2850,25,44,229,66,100,0
3562,3787,2864,13,21,12,10240,-1.00,-1.00,0.15,0.09,3546,3764,2851,25,44,229,66,100,0
3565,3789,2866,15,22,13,10240,-1.00,-1.00,0.15,0.09,3547,3765,2851,25,44,229,66,100,0
3567,3794,2869,16,24,14,10240,-1.00,-1.00,0.15,0.09,3548,3766,2852,25,44,229,66,100,0
3567,3795,2869,18,26,15,10240,-1.00,-1.00,0.15,0.09,3548,3766,2852,25,44,229,66,100,0
3566,3793,2867,18,26,15,10240,-1.00,-1.00,0.15,0.09,3549,3767,2853,25,44,229,66,100,0
3561,3785,2861,16,25,14,10240,-1.00,-1.00,0.15,0.09,3549,3768,2853,28,48,180,65,100,0
3545,3757,2845,11,15,7,10240,-1.00,-1.00,0.20,0.13,3549,3768,2853,28,48,180,65,100,0
3538,3746,2839,3,2,0,10240,-1.00,-1.00,0.20,0.13,3549,3767,2853,28,48,180,65,100,0
3532,3739,2834,-4,-10,-8,10240,-1.00,-1.00,0.20,0.13,3548,3766,2852,28,48,180,65,100,0
3530,3734,2832,-12,-22,-14,10240,-1.00,-1.00,0.20,0.13,3548,3765,2851,28,48,180,65,100,0
3529,3733,2832,-15,-27,-17,10240,-1.00,-1.00,0.20,0.13,3547,3764,2851,28,48,180,65,100,0
3534,3738,2833,-16,-28,-18,10240,-1.00,-1.00,0.20,0.13,3547,3763,2850,28,48,180,65,100,0
3537,3743,2839,-14,-26,-16,10240,-1.00,-1.00,0.20,0.13,3546,3762,2850,28,48,180,65,100,0
3539,3745,2840,-11,-23,-14,10240,-1.00,-1.00,0.20,0.13,3546,3762,2849,28,48,180,65,100,0
3539,3745,2839,-9,-19,-11,10240,-1.00,-1.00,0.20,0.13,3546,3761,2849,28,48,180,65,100,0
3539,3745,2840,-7,-17,-9,10240,-1.00,-1.00,0.20,0.13,3546,3761,2849,28,48,180,65,100,0
3542,3749,2841,-6,-15,-8,10240,-1.00,-1.00,0.20,0.13,3545,3760,2848,28,48,180,65,100,0
3543,3752,2844,-4,-12,-7,10240,-1.00,-1.00,0.20,0.13,3545,3760,2848,28,48,180,65,100,0
3546,3755,2846,-2,-10,-5,10240,-1.00,-1.00,0.20,0.13,3545,3760,2848,28,48,180,65,100,0
3548,3758,2847,0,-6,-3,10240,-1.00,-1.00,0.20,0.13,3546,3760,2848,28,48,180,65,100,0
3550,3761,2850,1,-3,-1,10240,-1.00,-1.00,0.20,0.13,3546,3760,2848,28,48,180,65,100,0
3555,3769,2852,4,0,0,10240,-1.00,-1.00,0.20,0.13,3546,3760,2848,28,48,180,65,100,0
3559,3774,2857,7,5,3,10240,-1.00,-1.00,0.20,0.13,3546,3761,2849,28,48,180,65,100,0
3560,3776,2859,9,9,6,10240,-1.00,-1.00,0.20,0.13,3547,3761,2849,28,48,180,65,100,0
3562,3778,2860,12,13,8,10240,-1.00,-1.00,0.20,0.13,3547,3762,2849,28,48,180,65,100,0
3563,3781,2862,14,15,10,10240,-1.00,-1.00,0.20,0.13,3548,3762,2850,28,48,180,65,100,0
3567,3782,2863,15,17,11,10240,-1.00,-1.00,0.20,0.13,3549,3763,2850,28,48,180,65,100,0
3568,3788,2865,16,19,12,10240,-1.00,-1.00,0.20,0.13,3549,3764,2851,28,48,180,65,100,0
3570,3790,2867,18,21,13,10240,-1.00,-1.00,0.20,0.13,3550,3765,2851,28,48,180,65,100,0
3572,3793,2868,19,23,14,10240,-1.00,-1.00,0.20,0.13,3551,3766,2852,28,48,180,65,100,0
3572,3795,2870,20,26,16,10240,-1.00,-1.00,0.20,0.13,3551,3766,2852,28,48,180,65,100,0
3576,3798,2872,21,27,17,10240,-1.00,-1.00,0.20,0.13,3552,3768,2853,28,48,180,67,100,0
3575,3800,2871,22,29,17,10240,-1.00,-1.00,0.20,0.13,3553,3769,2854,28,48,180,67,100,0
3569,3790,2866,20,27,16,10240,-1.00,-1.00,0.20,0.13,3553,3769,2854,31,50,144,67,100,0
3560,3775,2856,17,21,12,10240,-1.00,-1.00,0.26,0.17,3554,3770,2854,31,50,144,67,100,0
3550,3760,2847,10,12,6,10240,-1.00,-1.00,0.26,0.17,3554,3769,2854,31,50,144,67,100,0
3532,3734,2839,0,-4,-1,10240,-1.00,-1.00,0.26,0.17,3553,3768,2853,31,50,144,67,100,0
3530,3726,2829,-10,-19,-10,10240,-1.00,-1.00,0.26,0.17,3552,3767,2853,31,50,144,67,100,0
3527,3721,2825,-17,-32,-18,10240,-1.00,-1.00,0.26,0.17,3551,3765,2852,31,50,144,67,100,0
3525,3717,2823,-23,-41,-23,10240,-1.00,-1.00,0.26,0.17,3550,3763,2851,31,50,144,67,100,0
3524,3716,2823,-24,-44,-26,10240,-1.00,-1.00,0.26,0.17,3549,3762,2850,31,50,144,67,100,0
3529,3724,2828,-23,-43,-25,10240,-1.00,-1.00,0.26,0.17,3549,3761,2849,31,50,144,67,100,0
3529,3727,2829,-22,-40,-23,10240,-1.00,-1.00,0.26,0.17,3548,3760,2848,31,50,144,67,100,0
3531,3730,2830,-20,-36,-21,10240,-1.00,-1.00,0.26,0.17,3548,3759,2848,31,50,144,67,100,0
3533,3731,2831,-17,-31,-18,10240,-1.00,-1.00,0.26,0.17,3547,3758,2847,31,50,144,67,100,0
3533,3733,2831,-16,-28,-17,10240,-1.00,-1.00,0.26,0.17,3547,3757,2847,31,50,144,67,100,0
3537,3738,2835,-13,-24,-15,10240,-1.00,-1.00,0.26,0.17,3546,3756,2846,31,50,144,67,100,0
3537,3740,2836,-11,-21,-13,10240,-1.00,-1.00,0.26,0.17,3546,3756,2846,31,50,144,67,100,0
3539,3743,2839,-9,-17,-11,10240,-1.00,-1.00,0.26,0.17,3546,3755,2846,31,50,144,67,100,0
3542,3748,2842,-7,-13,-8,10240,-1.00,-1.00,0.26,0.17,3546,3755,2846,31,50,144,67,100,0
3545,3752,2843,-5,-9,-5,10240,-1.00,-1.00,0.26,0.17,3546,3755,2845,31,50,144,67,100,0
3550,3759,2848,-2,-4,-2,10240,-1.00,-1.00,0.26,0.17,3546,3755,2846,31,50,144,67,100,0
3552,3762,2850,1,0,0,10240,-1.00,-1.00,0.26,0.17,3546,3755,2846,31,50,144,67,100,0
3554,3765,2852,4,4,2,10240,-1.00,-1.00,0.26,0.17,3546,3756,2846,31,50,144,67,100,0
3556,3769,2854,6,8,5,10240,-1.00,-1.00,0.26,0.17,3547,3756,2846,31,50,144,67,100,0
3557,3772,2855,8,11,6,10240,-1.00,-1.00,0.26,0.17,3547,3756,2846,31,50,144,67,100,0
3561,3777,2859,10,14,8,10240,-1.00,-1.00,0.26,0.17,3547,3757,2847,31,50,144,67,100,0
3563,3780,2860,12,17,10,10240,-1.00,-1.00,0.26,0.17,3548,3758,2847,31,50,144,67,100,0
3564,3781,2862,13,20,12,10240,-1.00,-1.00,0.26,0.17,3548,3759,2848,31,50,144,67,100,0
3566,3784,2863,15,22,13,10240,-1.00,-1.00,0.26,0.17,3549,3760,2848,31,50,144,67,100,0
3568,3787,2864,16,23,14,10240,-1.00,-1.00,0.26,0.17,3550,3760,2849,31,50,144,67,100,0
3571,3791,2867,18,25,15,10240,-1.00,-1.00,0.26,0.17,3550,3761,2849,31,50,144,67,100,0
3569,3789,2864,18,27,15,10240,-1.00,-1.00,0.26,0.17,3551,3762,2850,31,50,144,67,100,0
3562,3778,2858,17,24,13,10240,-1.00,-1.00,0.26,0.17,3551,3763,2850,33,55,118,66,100,0
3554,3763,2848,13,18,9,10240,-1.00,-1.00,0.35,0.22,3551,3763,2850,33,55,118,66,100,0
3543,3747,2839,6,6,2,10240,-1.00,-1.00,0.35,0.22,3551,3762,2850,33,55,118,66,100,0
3528,3722,2825,-4,-9,-7,10240,-1.00,-1.00,0.35,0.22,3550,3761,2849,33,55,118,66,100,0
3522,3713,2819,-13,-25,-16,10240,-1.00,-1.00,0.35,0.22,3549,3759,2848,33,55,118,66,100,0
3520,3711,2819,-21,-36,-23,10240,-1.00,-1.00,0.35,0.22,3548,3758,2847,33,55,118,66,100,0
3518,3710,2820,-26,-44,-26,10240,-1.00,-1.00,0.35,0.22,3547,3756,2846,33,55,118,66,100,0
3520,3711,2820,-27,-45,-27,10240,-1.00,-1.00,0.35,0.22,3547,3755,2845,33,55,118,66,100,0
3525,3714,2822,-26,-44,-25,10240,-1.00,-1.00,0.35,0.22,3546,3753,2844,33,55,118,66,100,0
3527,3718,2825,-23,-40,-23,10240,-1.00,-1.00,0.35,0.22,3545,3752,2844,33,55,118,66,100,0
3526,3721,2825,-21,-36,-21,10240,-1.00,-1.00,0.35,0.22,3545,3751,2843,33,55,118,66,100,0
3528,3723,2826,-18,-32,-19,10240,-1.00,-1.00,0.35,0.22,3544,3750,2843,33,55,118,66,100,0
3529,3726,2828,-17,-28,-17,10240,-1.00,-1.00,0.35,0.22,3544,3749,2842,33,55,118,66,100,0
3533,3731,2832,-15,-24,-14,10240,-1.00,-1.00,0.35,0.22,3543,3749,2842,33,55,118,66,100,0
3534,3733,2833,-12,-20,-12,10240,-1.00,-1.00,0.35,0.22,3543,3748,2842,33,55,118,66,100,0
3537,3737,2835,-10,-16,-9,10240,-1.00,-1.00,0.35,0.22,3543,3748,2841,33,55,118,66,100,0
3538,3740,2836,-7,-13,-7,10240,-1.00,-1.00,0.35,0.22,3542,3748,2841,33,55,118,66,100,0
3541,3745,2839,-5,-9,-5,10240,-1.00,-1.00,0.35,0.22,3542,3748,2841,33,55,118,66,100,0
3546,3752,2843,-2,-4,-2,10240,-1.00,-1.00,0.35,0.22,3543,3748,2841,33,55,118,66,100,0
3548,3756,2846,0,0,0,10240,-1.00,-1.00,0.35,0.22,3543,3748,2841,33,55,118,66,100,0
3551,3759,2848,3,5,2,10240,-1.00,-1.00,0.35,0.22,3543,3748,2842,33,55,118,66,100,0
3554,3762,2850,6,9,5,10240,-1.00,-1.00,0.35,0.22,3543,3749,2842,33,55,118,66,100,0
3555,3765,2852,8,12,7,10240,-1.00,-1.00,0.35,0.22,3544,3749,2842,33,55,118,66,100,0
3559,3771,2855,11,15,9,10240,-1.00,-1.00,0.35,0.22,3544,3750,2843,33,55,118,66,100,0
3561,3773,2857,13,18,11,10240,-1.00,-1.00,0.35,0.22,3545,3751,2843,33,55,118,66,100,0
3561,3776,2858,14,20,12,10240,-1.00,-1.00,0.35,0.22,3545,3752,2844,33,55,118,66,100,0
3563,3778,2859,16,23,13,10240,-1.00,-1.00,0.35,0.22,3546,3753,2844,33,55,118,66,100,0
3565,3780,2860,16,24,14,10240,-1.00,-1.00,0.35,0.22,3547,3753,2845,33,55,118,66,100,0
3568,3785,2863,18,26,15,10240,-1.00,-1.00,0.35,0.22,3547,3755,2845,33,55,118,66,100,0
3567,3784,2862,18,27,16,10240,-1.00,-1.00,0.35,0.22,3548,3756,2846,33,55,118,66,100,0
3559,3772,2854,17,25,14,10240,-1.00,-1.00,0.35,0.22,3548,3756,2846,36,60,100,66,100,0
3548,3756,2845,12,18,10,10240,-1.00,-1.00,0.45,0.29,3548,3756,2846,36,60,100,66,100,0
3536,3739,2834,4,7,2,10240,-1.00,-1.00,0.45,0.29,3548,3755,2846,36,60,100,66,100,0
3523,3716,2820,-6,-9,-7,10240,-1.00,-1.00,0.45,0.29,3547,3754,2845,36,60,100,66,100,0
3519,3712,2819,-15,-23,-15,10240,-1.00,-1.00,0.45,0.29,3546,3753,2844,36,60,100,66,100,0
3516,3711,2819,-23,-33,-21,10240,-1.00,-1.00,0.45,0.29,3545,3751,2843,36,60,100,66,100,0
3514,3710,2818,-27,-39,-24,10240,-1.00,-1.00,0.45,0.29,3544,3750,2842,36,60,100,66,100,0
3517,3711,2820,-28,-39,-23,10240,-1.00,-1.00,0.45,0.29,3543,3749,2841,36,60,100,66,100,0
3523,3714,2820,-26,-38,-22,10240,-1.00,-1.00,0.45,0.29,3543,3748,2841,36,60,100,66,100,0
3524,3716,2822,-23,-35,-21,10240,-1.00,-1.00,0.45,0.29,3542,3746,2840,36,60,100,66,100,0
3525,3720,2824,-20,-32,-19,10240,-1.00,-1.00,0.45,0.29,3541,3746,2840,36,60,100,66,100,0
3526,3722,2826,-17,-28,-17,10240,-1.00,-1.00,0.45,0.29,3541,3745,2839,36,60,100,66,100,0
3526,3723,2828,-15,-25,-14,10240,-1.00,-1.00,0.45,0.29,3540,3744,2839,36,60,100,66,100,0
3529,3729,2830,-14,-21,-12,10240,-1.00,-1.00,0.45,0.29,3540,3744,2838,36,60,100,66,100,0
3530,3733,2832,-12,-17,-9,10240,-1.00,-1.00,0.45,0.29,3540,3743,2838,36,60,100,66,100,0
3533,3736,2833,-10,-13,-7,10240,-1.00,-1.00,0.45,0.29,3539,3743,2838,36,60,100,66,100,0
3537,3740,2837,-7,-8,-5,10240,-1.00,-1.00,0.45,0.29,3539,3743,2838,36,60,100,66,100,0
3538,3744,2839,-4,-4,-2,10240,-1.00,-1.00,0.45,0.29,3539,3743,2838,36,60,100,66,100,0
3542,3751,2843,-1,0,0,10240,-1.00,-1.00,0.45,0.29,3539,3743,2838,36,60,100,66,100,0
3545,3754,2845,1,4,3,10240,-1.00,-1.00,0.45,0.29,3540,3744,2838,36,60,100,66,100,0
3548,3758,2847,3,8,5,10240,-1.00,-1.00,0.45,0.29,3540,3744,2839,36,60,100,66,100,0
3550,3761,2850,6,12,7,10240,-1.00,-1.00,0.45,0.29,3540,3745,2839,36,60,100,66,100,0
3551,3763,2851,8,14,9,10240,-1.00,-1.00,0.45,0.29,3541,3745,2840,36,60,100,66,100,0
3554,3769,2854,10,17,11,10240,-1.00,-1.00,0.45,0.29,3541,3746,2840,36,60,100,66,100,0
3556,3772,2856,11,20,12,10240,-1.00,-1.00,0.45,0.29,3542,3747,2841,36,60,100,66,100,0
3558,3773,2857,13,22,14,10240,-1.00,-1.00,0.45,0.29,3542,3748,2841,36,60,100,66,100,0
3559,3777,2858,14,25,15,10240,-1.00,-1.00,0.45,0.29,3543,3749,2842,36,60,100,66,100,0
3560,3779,2859,15,26,16,10240,-1.00,-1.00,0.45,0.29,3543,3750,2842,36,60,100,66,100,0
3561,3780,2861,16,27,16,10240,-1.00,-1.00,0.45,0.29,3544,3751,2843,36,60,100,66,100,0
3557,3775,2856,15,27,16,10240,-1.00,-1.00,0.45,0.29,3544,3751,2843,38,60,100,66,100,0
3549,3762,2847,13,23,13,10240,-1.00,-1.00,0.45,0.29,3544,3752,2843,38,61,85,66,100,0
3539,3747,2839,7,14,7,10240,-0.49,-0.09,0.54,0.36,3544,3752,2843,38,61,85,66,100,0
3525,3733,2830,-1,2,0,10240,-0.49,-0.09,0.54,0.36,3544,3751,2843,38,61,85,66,100,0
3520,3715,2820,-10,-12,-8,10240,-0.49,-0.09,0.54,0.36,3543,3750,2842,38,61,85,66,100,0
3516,3711,2819,-18,-24,-15,10240,-0.49,-0.09,0.54,0.36,3542,3749,2841,38,61,85,66,100,0
3516,3711,2819,-23,-31,-19,10240,-0.49,-0.09,0.54,0.36,3541,3747,2841,38,61,85,66,100,0
3519,3711,2819,-23,-36,-21,10240,-0.49,-0.09,0.54,0.36,3540,3746,2840,38,61,85,66,100,0
3521,3715,2822,-22,-34,-20,10240,-0.49,-0.09,0.54,0.36,3540,3745,2839,38,61,85,66,100,0
3526,3724,2827,-19,-30,-18,10240,-0.49,-0.09,0.54,0.36,3539,3744,2839,38,61,85,66,100,0
3527,3727,2828,-16,-25,-15,10240,-0.49,-0.09,0.54,0.36,3539,3744,2838,38,61,85,66,100,0
3528,3727,2829,-13,-20,-12,10240,-0.49,-0.09,0.54,0.36,3538,3743,2838,38,61,85,66,100,0
3528,3730,2830,-11,-16,-9,10240,-0.49,-0.09,0.54,0.36,3538,3743,2838,38,61,85,66,100,0
3531,3732,2831,-9,-14,-8,10240,-0.49,-0.09,0.54,0.36,3538,3742,2838,38,61,85,66,100,0
3535,3737,2835,-7,-11,-6,10240,-0.49,-0.09,0.54,0.36,3538,3742,2838,38,61,85,66,100,0
3538,3741,2837,-5,-7,-4,10240,-0.49,-0.09,0.54,0.36,3538,3742,2838,38,61,85,66,100,0
3540,3746,2840,-2,-3,-2,10240,-0.49,-0.09,0.54,0.36,3538,3742,2838,38,61,85,66,100,0
3544,3750,2842,1,1,0,10240,-0.49,-0.09,0.54,0.36,3538,3743,2838,38,61,85,66,100,0
3547,3753,2844,4,5,2,10240,-0.49,-0.09,0.54,0.36,3538,3743,2838,38,61,85,66,100,0
3551,3760,2848,7,9,5,10240,-0.49,-0.09,0.54,0.36,3539,3744,2838,38,61,85,66,100,0
3553,3763,2850,10,13,7,10240,-0.49,-0.09,0.54,0.36,3539,3744,2839,38,61,85,66,100,0
3554,3765,2851,12,16,9,10240,-0.49,-0.09,0.54,0.36,3540,3745,2839,38,61,85,66,100,0
3556,3768,2853,14,19,11,10240,-0.49,-0.09,0.54,0.36,3540,3746,2840,38,61,85,66,100,0
3558,3770,2855,15,21,12,10240,-0.49,-0.09,0.54,0.36,3541,3746,2840,38,61,85,66,100,0
3562,3776,2859,16,23,14,10240,-0.49,-0.09,0.54,0.36,3542,3747,2841,38,61,85,66,100,0
3564,3779,2860,18,26,16,10240,-0.49,-0.09,0.54,0.36,3542,3748,2841,38,61,85,66,100,0
3566,3782,2861,20,29,17,10240,-0.49,-0.09,0.54,0.36,3543,3750,2842,38,61,85,66,100,0
3568,3783,2863,22,31,19,10240,-0.49,-0.09,0.54,0.36,3544,3751,2843,38,61,85,66,100,0
3567,3782,2861,22,31,19,10240,-0.49,-0.09,0.54,0.36,3545,3752,2843,38,61,85,66,100,0
3552,3758,2845,19,25,14,10240,-0.49,-0.09,0.54,0.36,3545,3752,2843,40,63,73,66,100,0
3540,3742,2835,12,14,8,10240,-0.49,-0.09,0.65,0.44,3545,3752,2843,40,63,73,66,100,0
3532,3729,2829,3,1,0,10240,-0.49,-0.09,0.65,0.44,3544,3751,2843,40,63,73,66,100,0
3528,3720,2822,-6,-14,-10,10240,-0.49,-0.09,0.65,0.44,3544,3750,2842,40,63,73,66,100,0
3522,3712,2818,-13,-24,-16,10240,-0.49,-0.09,0.65,0.44,3543,3749,2841,40,63,73,66,100,0
3518,3710,2818,-18,-31,-19,10240,-0.49,-0.09,0.65,0.44,3542,3747,2840,40,63,73,66,100,0
3519,3710,2819,-20,-35,-21,10240,-0.49,-0.09,0.65,0.44,3541,3746,2840,40,63,73,66,100,0
3522,3712,2819,-21,-35,-21,10240,-0.49,-0.09,0.65,0.44,3541,3745,2839,40,63,73,66,100,0
3525,3713,2820,-20,-34,-20,10240,-0.49,-0.09,0.65,0.44,3540,3744,2838,40,63,73,66,100,0
3528,3717,2822,-17,-31,-18,10240,-0.49,-0.09,0.65,0.44,3540,3743,2838,40,63,73,66,100,0
3530,3723,2826,-14,-27,-16,10240,-0.49,-0.09,0.65,0.44,3540,3742,2837,40,63,73,66,100,0
3531,3725,2828,-11,-23,-13,10240,-0.49,-0.09,0.65,0.44,3539,3742,2837,40,63,73,66,100,0
3532,3728,2829,-9,-18,-11,10240,-0.49,-0.09,0.65,0.44,3539,3741,2837,40,63,73,66,100,0
3534,3731,2831,-7,-14,-8,10240,-0.49,-0.09,0.65,0.44,3539,3741,2837,40,63,73,66,100,0
3537,3735,2833,-5,-11,-6,10240,-0.49,-0.09,0.65,0.44,3539,3741,2836,40,63,73,66,100,0
3542,3741,2839,-2,-7,-3,10240,-0.49,-0.09,0.65,0.44,3539,3741,2837,40,63,73,66,100,0
3543,3745,2839,0,-3,-1,10240,-0.49,-0.09,0.65,0.44,3539,3741,2837,40,63,73,66,100,0
3547,3748,2842,3,1,1,10240,-0.49,-0.09,0.65,0.44,3539,3741,2837,40,63,73,66,100,0
3549,3753,2844,6,5,4,10240,-0.49,-0.09,0.65,0.44,3540,3741,2837,40,63,73,66,100,0
3551,3757,2846,8,9,5,10240,-0.49,-0.09,0.65,0.44,3540,3742,2837,40,63,73,66,100,0
3555,3762,2850,10,13,8,10240,-0.49,-0.09,0.65,0.44,3541,3743,2838,40,63,73,66,100,0
3558,3766,2852,12,17,10,10240,-0.49,-0.09,0.65,0.44,3541,3743,2838,40,63,73,66,100,0
3561,3769,2854,15,20,12,10240,-0.49,-0.09,0.65,0.44,3542,3744,2839,40,63,73,66,100,0
3562,3771,2856,17,23,14,10240,-0.49,-0.09,0.65,0.44,3542,3745,2839,40,63,73,66,100,0
3564,3774,2857,19,25,15,10240,-0.49,-0.09,0.65,0.44,3543,3746,2840,40,63,73,66,100,0
3567,3779,2860,20,27,17,10240,-0.49,-0.09,0.65,0.44,3544,3747,2841,40,63,73,66,100,0
3571,3782,2862,22,30,18,10240,-0.49,-0.09,0.65,0.44,3545,3748,2841,40,63,73,66,100,0
3571,3785,2863,23,32,19,10240,-0.49,-0.09,0.65,0.44,3546,3750,2842,40,63,73,66,100,0
3570,3783,2862,24,33,20,10240,-0.49,-0.09,0.65,0.44,3547,3751,2843,40,63,73,66,100,0
3565,3775,2857,23,31,18,10240,-0.49,-0.09,0.65,0.44,3547,3752,2843,41,64,65,66,100,0
3545,3745,2837,16,21,12,10240,-0.49,-0.09,0.75,0.51,3547,3751,2843,41,64,65,66,100,0
3536,3731,2829,7,7,3,10240,-0.49,-0.09,0.75,0.51,3547,3751,2842,41,64,65,66,100,0
3531,3720,2823,-2,-8,-6,10240,-0.49,-0.09,0.75,0.51,3546,3750,2842,41,64,65,66,100,0
3526,3713,2819,-11,-22,-15,10240,-0.49,-0.09,0.75,0.51,3545,3748,2841,41,64,65,66,100,0
3523,3712,2818,-16,-30,-19,10240,-0.49,-0.09,0.75,0.51,3545,3747,2840,41,64,65,66,100,0
3520,3711,2820,-20,-33,-20,10240,-0.49,-0.09,0.75,0.51,3544,3746,2840,41,64,65,66,100,0
3524,3711,2820,-21,-34,-20,10240,-0.49,-0.09,0.75,0.51,3543,3745,2839,41,64,65,66,100,0
3527,3714,2821,-20,-33,-19,10240,-0.49,-0.09,0.75,0.51,3543,3744,2838,41,64,65,66,100,0
3529,3718,2823,-18,-31,-17,10240,-0.49,-0.09,0.75,0.51,3542,3743,2838,41,64,65,66,100,0
3530,3719,2824,-15,-28,-16,10240,-0.49,-0.09,0.75,0.51,3542,3742,2837,41,64,65,66,100,0
3531,3724,2828,-12,-24,-13,10240,-0.49,-0.09,0.75,0.51,3541,3742,2837,41,64,65,66,100,0
3533,3727,2828,-10,-20,-11,10240,-0.49,-0.09,0.75,0.51,3541,3741,2837,41,64,65,66,100,0
3534,3729,2830,-9,-16,-9,10240,-0.49,-0.09,0.75,0.51,3541,3741,2837,41,64,65,66,100,0
3537,3733,2833,-7,-12,-7,10240,-0.49,-0.09,0.75,0.51,3541,3740,2836,41,64,65,66,100,0
3540,3737,2835,-5,-9,-5,10240,-0.49,-0.09,0.75,0.51,3541,3740,2836,41,64,65,66,100,0
3545,3744,2840,-2,-4,-2,10240,-0.49,-0.09,0.75,0.51,3541,3740,2837,41,64,65,66,100,0
3548,3748,2843,1,0,1,10240,-0.49,-0.09,0.75,0.51,3541,3741,2837,41,64,65,66,100,0
3550,3752,2843,4,4,3,10240,-0.49,-0.09,0.75,0.51,3541,3741,2837,41,64,65,66,100,0
3553,3756,2847,7,9,6,10240,-0.49,-0.09,0.75,0.51,3542,3742,2837,41,64,65,66,100,0
3555,3759,2849,10,12,8,10240,-0.49,-0.09,0.75,0.51,3542,3742,2838,41,64,65,66,100,0
3559,3765,2852,12,16,10,10240,-0.49,-0.09,0.75,0.51,3543,3743,2838,41,64,65,66,100,0
3560,3768,2853,14,19,12,10240,-0.49,-0.09,0.75,0.51,3543,3744,2839,41,64,65,66,100,0
3563,3771,2856,16,22,14,10240,-0.49,-0.09,0.75,0.51,3544,3745,2839,41,64,65,66,100,0
3565,3773,2857,18,24,15,10240,-0.49,-0.09,0.75,0.51,3545,3746,2840,41,64,65,66,100,0
3567,3776,2858,19,26,16,10240,-0.49,-0.09,0.75,0.51,3546,3747,2840,41,64,65,66,100,0
3570,3781,2861,21,28,18,10240,-0.49,-0.09,0.75,0.51,3546,3748,2841,41,64,65,66,100,0
3572,3784,2863,22,31,19,10240,-0.49,-0.09,0.75,0.51,3547,3749,2842,41,64,65,66,100,0
3573,3785,2864,23,33,20,10240,-0.49,-0.09,0.75,0.51,3548,3750,2843,41,64,65,66,100,0
3572,3785,2863,24,34,20,10240,-0.49,-0.09,0.75,0.51,3549,3751,2843,41,64,65,66,100,0
3566,3777,2856,22,32,18,10240,-0.49,-0.09,0.75,0.51,3549,3752,2844,42,65,59,66,100,0
3547,3745,2839,15,21,12,10240,-0.49,-0.09,0.84,0.57,3549,3752,2844,42,65,59,66,100,0
3538,3732,2831,6,8,3,10240,-0.49,-0.09,0.84,0.57,3549,3751,2843,42,65,59,66,100,0
3533,3722,2824,-2,-7,-5,10240,-0.49,-0.09,0.84,0.57,3548,3750,2842,42,65,59,66,100,0
3529,3715,2820,-11,-22,-14,10240,-0.49,-0.09,0.84,0.57,3548,3749,2842,42,65,59,66,100,0
3525,3712,2818,-16,-29,-18,10240,-0.49,-0.09,0.84,0.57,3547,3748,2841,42,65,59,66,100,0
3524,3711,2819,-19,-33,-21,10240,-0.49,-0.09,0.84,0.57,3546,3747,2840,42,65,59,66,100,0
3526,3713,2820,-20,-34,-21,10240,-0.49,-0.09,0.84,0.57,3546,3745,2840,42,65,59,66,100,0
3530,3717,2823,-19,-33,-20,10240,-0.49,-0.09,0.84,0.57,3545,3745,2839,42,65,59,66,100,0
3531,3721,2825,-17,-29,-17,10240,-0.49,-0.09,0.84,0.57,3545,3744,2838,42,65,59,66,100,0
3532,3723,2826,-15,-25,-15,10240,-0.49,-0.09,0.84,0.57,3544,3743,2838,42,65,59,66,100,0
3533,3727,2829,-13,-21,-12,10240,-0.49,-0.09,0.84,0.57,3544,3742,2838,42,65,59,66,100,0
3534,3729,2830,-11,-17,-10,10240,-0.49,-0.09,0.84,0.57,3544,3742,2838,42,65,59,66,100,0
3536,3732,2833,-10,-14,-8,10240,-0.49,-0.09,0.84,0.57,3543,3742,2837,42,65,59,66,100,0
3538,3736,2834,-8,-11,-6,10240,-0.49,-0.09,0.84,0.57,3543,3742,2837,42,65,59,66,100,0
3541,3739,2836,-6,-7,-4,10240,-0.49,-0.09,0.84,0.57,3543,3741,2837,42,65,59,66,100,0
3547,3747,2841,-2,-3,-1,10240,-0.49,-0.09,0.84,0.57,3543,3742,2837,42,65,59,66,100,0
3550,3751,2843,1,1,1,10240,-0.49,-0.09,0.84,0.57,3543,3742,2838,42,65,59,66,100,0
3550,3753,2845,3,5,3,10240,-0.49,-0.09,0.84,0.57,3544,3742,2838,42,65,59,66,100,0
3553,3756,2847,6,9,6,10240,-0.49,-0.09,0.84,0.57,3544,3743,2838,42,65,59,66,100,0
3554,3760,2849,8,12,8,10240,-0.49,-0.09,0.84,0.57,3544,3743,2838,42,65,59,66,100,0
3557,3762,2851,9,14,9,10240,-0.49,-0.09,0.84,0.57,3545,3744,2839,42,65,59,66,100,0
3559,3769,2854,11,18,11,10240,-0.49,-0.09,0.84,0.57,3545,3745,2839,42,65,59,66,100,0
3562,3771,2855,13,21,13,10240,-0.49,-0.09,0.84,0.57,3546,3746,2840,42,65,59,66,100,0
3562,3773,2857,14,23,14,10240,-0.49,-0.09,0.84,0.57,3546,3747,2840,42,65,59,66,100,0
3563,3776,2859,15,25,16,10240,-0.49,-0.09,0.84,0.57,3547,3748,2841,42,65,59,66,100,0
3568,3779,2859,17,27,16,10240,-0.49,-0.09,0.84,0.57,3548,3749,2842,42,65,59,66,100,0
3570,3785,2864,18,29,18,10240,-0.49,-0.09,0.84,0.57,3548,3750,2842,42,65,59,66,100,0
3569,3785,2863,19,31,19,10240,-0.49,-0.09,0.84,0.57,3549,3751,2843,42,65,59,66,100,0
3566,3780,2859,19,31,18,10240,-0.49,-0.09,0.84,0.57,3550,3752,2844,42,65,54,66,100,0
3559,3769,2852,16,28,16,10240,-0.49,-0.09,0.91,0.62,3550,3752,2844,42,65,54,66,100,0
3540,3755,2841,9,20,10,10240,-0.49,-0.09,0.91,0.62,3549,3753,2844,42,65,54,66,100,0
3534,3729,2828,0,6,1,10240,-0.49,-0.09,0.91,0.62,3549,3752,2843,42,65,54,66,100,0
3530,3721,2823,-8,-8,-7,10240,-0.49,-0.09,0.91,0.62,3548,3751,2843,42,65,54,66,100,0
3526,3715,2820,-16,-21,-15,10240,-0.49,-0.09,0.91,0.62,3548,3750,2842,42,65,54,66,100,0
3523,3712,2819,-19,-31,-19,10240,-0.49,-0.09,0.91,0.62,3547,3748,2841,42,65,54,66,100,0
3527,3712,2819,-20,-34,-21,10240,-0.49,-0.09,0.91,0.62,3546,3747,2840,42,65,54,66,100,0
3530,3721,2825,-20,-32,-20,10240,-0.49,-0.09,0.91,0.62,3546,3746,2840,42,65,54,66,100,0
3530,3725,2826,-18,-29,-17,10240,-0.49,-0.09,0.91,0.62,3545,3745,2839,42,65,54,66,100,0
3531,3726,2826,-16,-24,-15,10240,-0.49,-0.09,0.91,0.62,3545,3745,2839,42,65,54,66,100,0
3531,3728,2828,-14,-20,-13,10240,-0.49,-0.09,0.91,0.62,3544,3744,2839,42,65,54,66,100,0
3534,3731,2829,-13,-17,-11,10240,-0.49,-0.09,0.91,0.62,3544,3744,2838,42,65,54,66,100,0
3536,3734,2833,-11,-14,-9,10240,-0.49,-0.09,0.91,0.62,3544,3744,2838,42,65,54,66,100,0
3537,3737,2835,-9,-11,-7,10240,-0.49,-0.09,0.91,0.62,3543,3743,2838,42,65,54,66,100,0
3540,3740,2836,-6,-8,-4,10240,-0.49,-0.09,0.91,0.62,3543,3743,2838,42,65,54,66,100,0
3543,3744,2838,-4,-4,-2,10240,-0.49,-0.09,0.91,0.62,3543,3743,2838,42,65,54,66,100,0
3549,3748,2840,0,0,0,10240,-0.49,-0.09,0.91,0.62,3543,3743,2838,42,65,54,66,100,0
3551,3756,2845,2,3,1,10240,-0.49,-0.09,0.91,0.62,3544,3744,2838,42,65,54,66,100,0
3553,3758,2846,5,8,4,10240,-0.49,-0.09,0.91,0.62,3544,3744,2839,42,65,54,66,100,0
3555,3760,2849,8,11,6,10240,-0.49,-0.09,0.91,0.62,3544,3745,2839,42,65,54,66,100,0
3557,3764,2850,9,15,8,10240,-0.49,-0.09,0.91,0.62,3545,3745,2839,42,65,54,66,100,0
3562,3767,2852,12,17,10,10240,-0.49,-0.09,0.91,0.62,3545,3746,2840,42,65,54,66,100,0
3563,3772,2856,14,20,12,10240,-0.49,-0.09,0.91,0.62,3546,3747,2840,42,65,54,66,100,0
3564,3775,2857,15,23,13,10240,-0.49,-0.09,0.91,0.62,3547,3748,2841,42,65,54,66,100,0
3567,3778,2859,17,25,15,10240,-0.49,-0.09,0.91,0.62,3547,3749,2841,42,65,54,66,100,0
3570,3781,2861,19,28,17,10240,-0.49,-0.09,0.91,0.62,3548,3750,2842,42,65,54,66,100,0
3570,3783,2861,20,29,17,10240,-0.49,-0.09,0.91,0.62,3549,3751,2843,42,65,54,66,100,0
3562,3772,2853,19,28,16,10240,-0.49,-0.09,0.91,0.62,3549,3752,2843,41,64,50,66,100,0
3553,3756,2844,15,21,12,10240,-0.49,-0.09,0.97,0.66,3549,3752,2843,41,64,50,66,100,0
3545,3742,2836,8,11,5,10240,-0.49,-0.09,0.97,0.66,3549,3752,2843,41,64,50,66,100,0
3537,3730,2828,0,-1,-2,10240,-0.49,-0.09,0.97,0.66,3549,3751,2842,41,64,50,66,100,0
3528,3713,2822,-8,-16,-10,10240,-0.49,-0.09,0.97,0.66,3548,3750,2842,41,64,50,66,100,0
3525,3711,2819,-14,-26,-15,10240,-0.49,-0.09,0.97,0.66,3547,3748,2841,41,64,50,66,100,0
3524,3711,2819,-19,-32,-19,10240,-0.49,-0.09,0.97,0.66,3546,3747,2840,41,64,50,66,100,0
3527,3711,2820,-20,-36,-20,10240,-0.49,-0.09,0.97,0.66,3546,3746,2839,41,64,50,66,100,0
3530,3714,2821,-19,-34,-20,10240,-0.49,-0.09,0.97,0.66,3545,3745,2839,41,64,50,66,100,0
3532,3721,2823,-17,-31,-18,10240,-0.49,-0.09,0.97,0.66,3545,3744,2838,41,64,50,66,100,0
3533,3723,2826,-14,-27,-16,10240,-0.49,-0.09,0.97,0.66,3544,3743,2838,41,64,50,66,100,0
3534,3724,2827,-12,-23,-14,10240,-0.49,-0.09,0.97,0.66,3544,3743,2838,41,64,50,66,100,0
3537,3728,2829,-10,-19,-11,10240,-0.49,-0.09,0.97,0.66,3544,3742,2837,41,64,50,66,100,0
3538,3731,2831,-8,-16,-9,10240,-0.49,-0.09,0.97,0.66,3544,3742,2837,41,64,50,66,100,0
3542,3734,2833,-6,-13,-7,10240,-0.49,-0.09,0.97,0.66,3544,3742,2837,41,64,50,66,100,0
3544,3739,2837,-3,-8,-4,10240,-0.49,-0.09,0.97,0.66,3544,3741,2837,41,64,50,66,100,0
3546,3743,2839,-1,-5,-2,10240,-0.49,-0.09,0.97,0.66,3544,3742,2837,41,64,50,66,100,0
3549,3747,2841,1,-1,0,10240,-0.49,-0.09,0.97,0.66,3544,3742,2837,41,64,50,66,100,0
3551,3751,2844,3,3,3,10240,-0.49,-0.09,0.97,0.66,3544,3742,2837,41,64,50,66,100,0
3553,3753,2845,5,6,5,10240,-0.49,-0.09,0.97,0.66,3544,3742,2838,41,64,50,66,100,0
3558,3760,2849,8,10,7,10240,-0.49,-0.09,0.97,0.66,3545,3743,2838,41,64,50,66,100,0
3560,3763,2850,11,14,9,10240,-0.49,-0.09,0.97,0.66,3545,3744,2838,41,64,50,66,100,0
3561,3765,2853,13,17,11,10240,-0.49,-0.09,0.97,0.66,3546,3744,2839,41,64,50,66,100,0
3563,3768,2854,15,20,13,10240,-0.49,-0.09,0.97,0.66,3546,3745,2839,41,64,50,66,100,0
3565,3771,2856,16,22,14,10240,-0.49,-0.09,0.97,0.66,3547,3746,2840,41,64,50,66,100,0
3569,3776,2858,17,24,15,10240,-0.49,-0.09,0.97,0.66,3548,3747,2841,41,64,50,66,100,0
3569,3778,2859,19,26,16,10240,-0.49,-0.09,0.97,0.66,3549,3748,2841,41,64,50,66,100,0
3572,3781,2861,20,29,17,10240,-0.49,-0.09,0.97,0.66,3549,3749,2842,41,64,50,66,100,0
3574,3783,2862,22,31,18,10240,-0.49,-0.09,0.97,0.66,3550,3750,2842,41,64,50,67,100,0
3572,3781,2859,22,31,18,10240,-0.49,-0.09,0.97,0.66,3551,3751,2843,41,64,50,67,100,0
3554,3753,2843,17,24,13,10240,-0.49,-0.09,0.97,0.66,3551,3751,2843,41,65,47,67,100,0
3543,3737,2834,10,12,6,10240,-0.49,-0.09,1.05,0.70,3551,3751,2843,41,65,47,67,100,0
3535,3722,2824,0,-2,-2,10240,-0.49,-0.09,1.05,0.70,3550,3750,2842,41,65,47,67,100,0
3528,3712,2819,-10,-19,-12,10240,-0.49,-0.09,1.05,0.70,3549,3749,2841,41,65,47,67,100,0
3523,3710,2818,-17,-29,-18,10240,-0.49,-0.09,1.05,0.70,3549,3747,2841,41,65,47,67,100,0
3517,3698,2812,-23,-37,-22,10240,-0.49,-0.09,1.05,0.70,3548,3746,2840,41,65,47,67,100,0
3517,3698,2812,-26,-42,-25,10240,-0.49,-0.09,1.05,0.70,3546,3744,2839,41,65,47,67,100,0
3519,3703,2816,-28,-42,-25,10240,-0.49,-0.09,1.05,0.70,3546,3743,2838,41,65,47,67,100,0
3522,3709,2819,-27,-41,-23,10240,-0.49,-0.09,1.05,0.70,3545,3742,2837,41,65,47,67,100,0
3525,3710,2820,-24,-37,-21,10240,-0.49,-0.09,1.05,0.70,3544,3741,2837,41,65,47,67,100,0
3527,3711,2820,-21,-33,-18,10240,-0.49,-0.09,1.05,0.70,3544,3740,2836,41,65,47,67,100,0
3528,3712,2821,-18,-30,-16,10240,-0.49,-0.09,1.05,0.70,3543,3739,2836,41,65,47,67,100,0
3530,3713,2821,-16,-28,-15,10240,-0.49,-0.09,1.05,0.70,3543,3738,2835,41,65,47,67,100,0
3532,3717,2823,-13,-25,-14,10240,-0.49,-0.09,1.05,0.70,3542,3737,2835,41,65,47,67,100,0
3533,3721,2825,-11,-22,-12,10240,-0.49,-0.09,1.05,0.70,3542,3737,2834,41,65,47,67,100,0
3539,3729,2832,-8,-17,-9,10240,-0.49,-0.09,1.05,0.70,3542,3736,2834,41,65,47,67,100,0
3541,3732,2833,-5,-11,-6,10240,-0.49,-0.09,1.05,0.70,3542,3736,2834,41,65,47,67,100,0
3544,3736,2836,-2,-6,-2,10240,-0.49,-0.09,1.05,0.70,3542,3736,2834,41,65,47,67,100,0
3546,3740,2838,0,-1,0,10240,-0.49,-0.09,1.05,0.70,3542,3736,2835,41,65,47,67,100,0
3549,3743,2840,3,1,2,10240,-0.49,-0.09,1.05,0.70,3542,3737,2835,41,65,47,67,100,0
3552,3750,2844,5,5,4,10240,-0.49,-0.09,1.05,0.70,3543,3737,2835,41,65,47,67,100,0
3555,3753,2845,8,9,6,10240,-0.49,-0.09,1.05,0.70,3543,3737,2835,41,65,47,67,100,0
3557,3757,2847,10,13,8,10240,-0.49,-0.09,1.05,0.70,3543,3738,2836,41,65,47,67,100,0
3559,3758,2850,12,16,11,10240,-0.49,-0.09,1.05,0.70,3544,3739,2836,41,65,47,67,100,0
3561,3761,2851,14,18,12,10240,-0.49,-0.09,1.05,0.70,3545,3740,2837,41,65,47,67,100,0
3565,3769,2855,16,21,14,10240,-0.49,-0.09,1.05,0.70,3545,3741,2837,41,65,47,67,100,0
3567,3771,2856,18,24,16,10240,-0.49,-0.09,1.05,0.70,3546,3742,2838,41,65,47,67,100,0
3568,3774,2857,19,27,17,10240,-0.49,-0.09,1.05,0.70,3547,3743,2839,41,65,47,67,100,0
3570,3774,2859,21,29,18,10240,-0.49,-0.09,1.05,0.70,3547,3744,2839,41,65,47,67,100,0
3566,3769,2854,20,28,17,10240,-0.49,-0.09,1.05,0.70,3548,3744,2840,43,67,46,66,100,0
3546,3739,2835,15,20,11,10240,-0.49,-0.09,1.10,0.75,3548,3744,2840,43,67,46,66,100,0
3536,3722,2825,6,7,3,10240,-0.49,-0.09,1.10,0.75,3548,3744,2839,43,67,46,66,100,0
3529,3711,2819,-3,-8,-6,10240,-0.49,-0.09,1.10,0.75,3547,3742,2838,43,67,46,66,100,0
3523,3709,2818,-13,-22,-14,10240,-0.49,-0.09,1.10,0.75,3546,3741,2838,43,67,46,66,100,0
3519,3699,2814,-19,-31,-19,10240,-0.49,-0.09,1.10,0.75,3545,3740,2837,43,67,46,66,100,0
3515,3692,2810,-24,-37,-22,10240,-0.49,-0.09,1.10,0.75,3544,3738,2836,43,67,46,66,100,0
3516,3694,2812,-26,-40,-23,10240,-0.49,-0.09,1.10,0.75,3543,3737,2835,43,67,46,66,100,0
3520,3702,2816,-26,-41,-22,10240,-0.49,-0.09,1.10,0.75,3543,3736,2835,43,67,46,66,100,0
3522,3708,2820,-24,-37,-20,10240,-0.49,-0.09,1.10,0.75,3542,3735,2834,43,67,46,66,100,0
3524,3709,2821,-21,-32,-17,10240,-0.49,-0.09,1.10,0.75,3541,3734,2834,43,67,46,66,100,0
3527,3710,2822,-18,-27,-14,10240,-0.49,-0.09,1.10,0.75,3541,3733,2833,43,67,46,66,100,0
3529,3711,2822,-15,-24,-12,10240,-0.49,-0.09,1.10,0.75,3540,3732,2833,43,67,46,66,100,0
3530,3713,2822,-13,-22,-11,10240,-0.49,-0.09,1.10,0.75,3540,3732,2833,43,67,46,66,100,0
3532,3717,2824,-10,-19,-10,10240,-0.49,-0.09,1.10,0.75,3540,3731,2832,43,67,46,66,100,0
3533,3722,2826,-9,-15,-9,10240,-0.49,-0.09,1.10,0.75,3540,3731,2832,43,67,46,66,100,0
3539,3729,2832,-6,-11,-6,10240,-0.49,-0.09,1.10,0.75,3540,3731,2832,43,67,46,66,100,0
3542,3734,2835,-3,-5,-2,10240,-0.49,-0.09,1.10,0.75,3540,3731,2832,43,67,46,66,100,0
3543,3736,2836,0,0,0,10240,-0.49,-0.09,1.10,0.75,3540,3731,2832,43,67,46,66,100,0
3544,3739,2837,2,3,3,10240,-0.49,-0.09,1.10,0.75,3540,3731,2832,43,67,46,66,100,0
3547,3743,2840,4,6,4,10240,-0.49,-0.09,1.10,0.75,3540,3732,2833,43,67,46,66,100,0
3551,3750,2843,6,10,6,10240,-0.49,-0.09,1.10,0.75,3540,3732,2833,43,67,46,66,100,0
3554,3752,2846,8,14,8,10240,-0.49,-0.09,1.10,0.75,3541,3733,2833,43,67,46,66,100,0
3555,3756,2847,11,17,10,10240,-0.49,-0.09,1.10,0.75,3541,3734,2834,43,67,46,66,100,0
3558,3760,2849,13,21,12,10240,-0.49,-0.09,1.10,0.75,3542,3735,2834,43,67,46,66,100,0
3559,3762,2852,15,23,14,10240,-0.49,-0.09,1.10,0.75,3542,3736,2835,43,67,46,66,100,0
3562,3766,2854,16,25,15,10240,-0.49,-0.09,1.10,0.75,3543,3737,2836,43,67,46,66,100,0
3565,3770,2856,18,28,17,10240,-0.49,-0.09,1.10,0.75,3544,3738,2836,43,67,46,66,100,0
3566,3772,2857,19,30,18,10240,-0.49,-0.09,1.10,0.75,3545,3739,2837,43,67,46,66,100,0
3565,3773,2858,20,31,19,10240,-0.49,-0.09,1.10,0.75,3545,3740,2838,43,67,46,66,100,0
3563,3768,2854,19,31,19,10240,-0.49,-0.09,1.10,0.75,3546,3741,2838,44,67,46,66,100,0
3544,3739,2836,14,22,13,10240,-0.49,-0.09,1.10,0.75,3546,3741,2838,44,68,45,66,100,0
3534,3723,2826,6,10,5,10240,-0.49,-0.09,1.15,0.78,3545,3740,2838,44,68,45,66,100,0
3527,3713,2820,-3,-4,-3,10240,-0.49,-0.09,1.15,0.78,3545,3739,2837,44,68,45,66,100,0
3521,3710,2820,-13,-18,-12,10240,-0.49,-0.09,1.15,0.78,3544,3738,2837,44,68,45,66,100,0
3517,3703,2816,-19,-26,-16,10240,-0.49,-0.09,1.15,0.78,3543,3737,2836,44,68,45,66,100,0
3514,3697,2812,-23,-31,-19,10240,-0.49,-0.09,1.15,0.78,3542,3736,2835,44,68,45,66,100,0
3517,3703,2816,-25,-33,-19,10240,-0.49,-0.09,1.15,0.78,3541,3735,2834,44,68,45,66,100,0
3520,3709,2820,-24,-32,-18,10240,-0.49,-0.09,1.15,0.78,3541,3734,2834,44,68,45,66,100,0
3523,3710,2820,-22,-29,-17,10240,-0.49,-0.09,1.15,0.78,3540,3733,2834,44,68,45,66,100,0
3525,3710,2821,-19,-25,-14,10240,-0.49,-0.09,1.15,0.78,3540,3732,2833,44,68,45,66,100,0
3527,3711,2820,-16,-22,-13,10240,-0.49,-0.09,1.15,0.78,3539,3732,2833,44,68,45,66,100,0
3529,3713,2822,-13,-21,-12,10240,-0.49,-0.09,1.15,0.78,3539,3731,2832,44,68,45,66,100,0
3530,3716,2824,-11,-19,-10,10240,-0.49,-0.09,1.15,0.78,3538,3731,2832,44,68,45,66,100,0
3531,3720,2825,-9,-16,-9,10240,-0.49,-0.09,1.15,0.78,3538,3730,2832,44,68,45,66,100,0
3533,3725,2828,-7,-12,-7,10240,-0.49,-0.09,1.15,0.78,3538,3730,2832,44,68,45,66,100,0
3539,3733,2834,-4,-6,-4,10240,-0.49,-0.09,1.15,0.78,3538,3730,2832,44,68,45,66,100,0
3541,3735,2836,-2,-1,-1,10240,-0.49,-0.09,1.15,0.78,3538,3730,2832,44,68,45,66,100,0
3543,3740,2837,1,3,1,10240,-0.49,-0.09,1.15,0.78,3538,3731,2832,44,68,45,66,100,0
3545,3742,2839,3,7,4,10240,-0.49,-0.09,1.15,0.78,3539,3731,2832,44,68,45,66,100,0
3548,3746,2841,5,10,6,10240,-0.49,-0.09,1.15,0.78,3539,3731,2833,44,68,45,66,100,0
3551,3752,2845,8,13,8,10240,-0.49,-0.09,1.15,0.78,3539,3732,2833,44,68,45,66,100,0
3555,3756,2847,10,17,10,10240,-0.49,-0.09,1.15,0.78,3540,3733,2833,44,68,45,66,100,0
3556,3759,2849,13,20,12,10240,-0.49,-0.09,1.15,0.78,3540,3734,2834,44,68,45,66,100,0
3559,3762,2851,15,23,14,10240,-0.49,-0.09,1.15,0.78,3541,3735,2835,44,68,45,66,100,0
3560,3764,2853,16,25,15,10240,-0.49,-0.09,1.15,0.78,3542,3736,2835,44,68,45,66,100,0
3565,3771,2854,18,28,16,10240,-0.49,-0.09,1.15,0.78,3542,3737,2836,44,68,45,66,100,0
3567,3773,2858,20,31,18,10240,-0.49,-0.09,1.15,0.78,3543,3738,2837,44,68,45,66,100,0
3567,3773,2857,22,32,19,10240,-0.49,-0.09,1.15,0.78,3544,3739,2837,44,68,45,66,100,0
3562,3765,2852,21,32,18,10240,-0.49,-0.09,1.15,0.78,3545,3740,2838,45,68,44,66,100,0
3554,3752,2843,18,26,15,10240,-0.49,-0.09,1.17,0.82,3545,3741,2838,45,67,44,66,100,0
3535,3721,2834,9,12,8,10240,-0.49,-0.09,1.17,0.82,3545,3740,2838,45,67,44,66,100,0
3530,3711,2821,0,-2,0,10240,-0.49,-0.09,1.17,0.82,3544,3739,2837,45,67,44,66,100,0
3526,3711,2821,-8,-15,-7,10240,-0.49,-0.09,1.17,0.82,3543,3738,2837,45,67,44,66,100,0
3523,3708,2819,-15,-25,-13,10240,-0.49,-0.09,1.17,0.82,3543,3737,2836,45,67,44,66,100,0
3521,3705,2817,-18,-28,-16,10240,-0.49,-0.09,1.17,0.82,3542,3736,2835,45,67,44,66,100,0
3526,3710,2819,-18,-28,-16,10240,-0.49,-0.09,1.17,0.82,3542,3735,2835,45,67,44,66,100,0
3530,3710,2821,-17,-27,-16,10240,-0.49,-0.09,1.17,0.82,3541,3734,2834,45,67,44,66,100,0
3530,3711,2821,-14,-25,-15,10240,-0.49,-0.09,1.17,0.82,3541,3733,2834,45,67,44,66,100,0
3532,3713,2822,-11,-22,-13,10240,-0.49,-0.09,1.17,0.82,3540,3733,2834,45,67,44,66,100,0
3532,3717,2823,-9,-20,-12,10240,-0.49,-0.09,1.17,0.82,3540,3732,2833,45,67,44,66,100,0
3534,3716,2824,-8,-18,-11,10240,-0.49,-0.09,1.17,0.82,3540,3732,2833,45,67,44,66,100,0
3537,3725,2828,-6,-14,-9,10240,-0.49,-0.09,1.17,0.82,3540,3731,2833,45,67,44,66,100,0
3539,3727,2831,-4,-10,-6,10240,-0.49,-0.09,1.17,0.82,3540,3731,2833,45,67,44,66,100,0
3542,3732,2834,-2,-6,-3,10240,-0.49,-0.09,1.17,0.82,3540,3731,2833,45,67,44,66,100,0
3544,3735,2836,0,-1,0,10240,-0.49,-0.09,1.17,0.82,3540,3731,2833,45,67,44,66,100,0
3548,3740,2839,3,2,2,10240,-0.49,-0.09,1.17,0.82,3540,3732,2833,45,67,44,66,100,0
3552,3747,2843,6,7,5,10240,-0.49,-0.09,1.17,0.82,3541,3732,2833,45,67,44,66,100,0
3555,3750,2844,9,11,7,10240,-0.49,-0.09,1.17,0.82,3541,3733,2834,45,67,44,66,100,0
3557,3753,2846,12,14,9,10240,-0.49,-0.09,1.17,0.82,3542,3734,2834,45,67,44,66,100,0
3559,3757,2848,14,18,11,10240,-0.49,-0.09,1.17,0.82,3542,3734,2835,45,67,44,66,100,0
3561,3759,2851,16,20,12,10240,-0.49,-0.09,1.17,0.82,3543,3735,2835,45,67,44,66,100,0
3565,3764,2854,17,23,14,10240,-0.49,-0.09,1.17,0.82,3544,3736,2836,45,67,44,66,100,0
3567,3768,2856,19,26,16,10240,-0.49,-0.09,1.17,0.82,3544,3737,2836,45,67,44,66,100,0
3569,3771,2857,21,29,18,10240,-0.49,-0.09,1.17,0.82,3545,3738,2837,45,67,44,66,100,0
3570,3772,2858,23,31,19,10240,-0.49,-0.09,1.17,0.82,3546,3739,2838,45,67,44,66,100,0
3572,3776,2859,24,33,20,10240,-0.49,-0.09,1.17,0.82,3547,3741,2838,45,67,44,67,100,0
3575,3780,2861,25,34,20,10240,-0.49,-0.09,1.17,0.82,3548,3742,2839,45,67,44,67,100,0
3574,3776,2859,25,34,20,10240,-0.49,-0.09,1.17,0.82,3549,3743,2840,45,67,44,67,100,0
3565,3765,2851,23,31,18,10240,-0.49,-0.09,1.17,0.82,3549,3744,2840,44,66,42,67,100,0
3555,3748,2842,18,24,13,10240,0.09,-0.09,1.19,0.84,3550,3744,2840,44,66,42,67,100,0
3544,3731,2831,10,11,5,10240,0.09,-0.09,1.19,0.84,3549,3744,2840,44,66,42,67,100,0
3530,3711,2821,0,-4,-3,10240,0.09,-0.09,1.19,0.84,3549,3742,2839,44,66,42,67,100,0
3525,3707,2819,-10,-18,-11,10240,0.09,-0.09,1.19,0.84,3548,3741,2839,44,66,42,67,100,0
3521,3700,2815,-18,-29,-17,10240,0.09,-0.09,1.19,0.84,3547,3740,2838,44,66,42,67,100,0
3520,3696,2812,-23,-36,-21,10240,0.09,-0.09,1.19,0.84,3546,3738,2837,44,66,42,67,100,0
3520,3699,2814,-25,-38,-22,10240,0.09,-0.09,1.19,0.84,3545,3737,2836,44,66,42,67,100,0
3527,3709,2822,-23,-36,-21,10240,0.09,-0.09,1.19,0.84,3545,3736,2836,44,66,42,67,100,0
3530,3710,2821,-20,-33,-18,10240,0.09,-0.09,1.19,0.84,3544,3735,2835,44,66,42,67,100,0
3531,3710,2822,-17,-28,-15,10240,0.09,-0.09,1.19,0.84,3544,3735,2835,44,66,42,67,100,0
3532,3710,2822,-14,-25,-13,10240,0.09,-0.09,1.19,0.84,3543,3734,2834,44,66,42,67,100,0
3534,3711,2822,-11,-24,-12,10240,0.09,-0.09,1.19,0.84,3543,3733,2834,44,66,42,67,100,0
3536,3717,2824,-10,-21,-11,10240,0.09,-0.09,1.19,0.84,3543,3732,2834,44,66,42,67,100,0
3537,3721,2827,-8,-18,-10,10240,0.09,-0.09,1.19,0.84,3543,3732,2834,44,66,42,67,100,0
3539,3726,2830,-6,-13,-8,10240,0.09,-0.09,1.19,0.84,3542,3732,2833,44,66,42,67,100,0
3542,3729,2833,-4,-8,-5,10240,0.09,-0.09,1.19,0.84,3542,3732,2833,44,66,42,67,100,0
3546,3733,2835,-1,-4,-2,10240,0.09,-0.09,1.19,0.84,3543,3732,2833,44,66,42,67,100,0
3548,3739,2839,1,0,1,10240,0.09,-0.09,1.19,0.84,3543,3732,2834,44,66,42,67,100,0
3549,3742,2840,3,3,3,10240,0.09,-0.09,1.19,0.84,3543,3732,2834,44,66,42,67,100,0
3551,3744,2842,5,7,5,10240,0.09,-0.09,1.19,0.84,3543,3733,2834,44,66,42,67,100,0
3552,3748,2843,7,10,7,10240,0.09,-0.09,1.19,0.84,3543,3733,2834,44,66,42,67,100,0
3554,3751,2845,8,13,8,10240,0.09,-0.09,1.19,0.84,3544,3734,2835,44,66,42,67,100,0
3559,3758,2849,10,16,10,10240,0.09,-0.09,1.19,0.84,3544,3735,2835,44,66,42,67,100,0
3560,3760,2851,12,20,12,10240,0.09,-0.09,1.19,0.84,3545,3735,2836,44,66,42,67,100,0
3563,3763,2853,14,23,14,10240,0.09,-0.09,1.19,0.84,3545,3736,2836,44,66,42,67,100,0
3566,3767,2855,17,26,16,10240,0.09,-0.09,1.19,0.84,3546,3737,2837,44,66,42,67,100,0
3569,3770,2857,18,28,17,10240,0.09,-0.09,1.19,0.84,3547,3739,2838,44,66,42,67,100,0
3573,3774,2859,21,30,18,10240,0.09,-0.09,1.19,0.84,3548,3740,2838,44,66,42,67,100,0
3569,3769,2857,21,30,19,10240,0.09,-0.09,1.19,0.84,3549,3741,2839,44,66,42,66,100,0
3560,3756,2847,19,27,16,10240,0.09,-0.09,1.19,0.84,3549,3741,2839,45,66,41,66,100,0
3548,3738,2836,13,18,11,10240,0.09,-0.09,1.22,0.88,3549,3741,2839,45,66,41,66,100,0
3531,3721,2826,3,5,2,10240,0.09,-0.09,1.22,0.88,3548,3740,2839,45,66,41,66,100,0
3526,3709,2821,-7,-9,-6,10240,0.09,-0.09,1.22,0.88,3548,3739,2838,45,66,41,66,100,0
3522,3701,2815,-16,-22,-13,10240,0.09,-0.09,1.22,0.88,3547,3738,2837,45,66,41,66,100,0
3519,3694,2811,-22,-32,-19,10240,0.09,-0.09,1.22,0.88,3546,3737,2836,45,66,41,66,100,0
3517,3691,2810,-25,-38,-22,10240,0.09,-0.09,1.22,0.88,3545,3735,2836,45,66,41,66,100,0
3518,3695,2813,-26,-40,-23,10240,0.09,-0.09,1.22,0.88,3544,3734,2835,45,66,41,66,100,0
3524,3707,2820,-25,-38,-21,10240,0.09,-0.09,1.22,0.88,3543,3733,2834,45,66,41,66,100,0
3528,3709,2821,-22,-33,-18,10240,0.09,-0.09,1.22,0.88,3543,3732,2834,45,66,41,66,100,0
3529,3710,2821,-18,-27,-15,10240,0.09,-0.09,1.22,0.88,3542,3731,2833,45,66,41,66,100,0
3530,3709,2823,-14,-23,-12,10240,0.09,-0.09,1.22,0.88,3542,3731,2833,45,66,41,66,100,0
3531,3710,2822,-12,-21,-11,10240,0.09,-0.09,1.22,0.88,3541,3730,2833,45,66,41,66,100,0
3534,3714,2824,-10,-19,-10,10240,0.09,-0.09,1.22,0.88,3541,3729,2832,45,66,41,66,100,0
3535,3719,2826,-8,-16,-8,10240,0.09,-0.09,1.22,0.88,3541,3729,2832,45,66,41,66,100,0
3538,3722,2829,-6,-13,-7,10240,0.09,-0.09,1.22,0.88,3541,3729,2832,45,66,41,66,100,0
3542,3728,2833,-3,-8,-4,10240,0.09,-0.09,1.22,0.88,3541,3729,2832,45,66,41,66,100,0
3544,3732,2834,-1,-3,-1,10240,0.09,-0.09,1.22,0.88,3541,3729,2832,45,66,41,66,100,0
3550,3739,2840,2,1,1,10240,0.09,-0.09,1.22,0.88,3541,3729,2833,45,66,41,66,100,0
3552,3740,2840,5,5,4,10240,0.09,-0.09,1.22,0.88,3542,3730,2833,45,66,41,66,100,0
3553,3745,2842,8,9,6,10240,0.09,-0.09,1.22,0.88,3542,3730,2833,45,66,41,66,100,0
3556,3748,2845,10,13,8,10240,0.09,-0.09,1.22,0.88,3543,3731,2833,45,66,41,66,100,0
3558,3751,2845,12,15,9,10240,0.09,-0.09,1.22,0.88,3543,3731,2834,45,66,41,66,100,0
3561,3756,2849,14,19,11,10240,0.09,-0.09,1.22,0.88,3544,3732,2834,45,66,41,66,100,0
3562,3758,2851,15,21,13,10240,0.09,-0.09,1.22,0.88,3544,3733,2835,45,66,41,66,100,0
3565,3761,2852,17,24,14,10240,0.09,-0.09,1.22,0.88,3545,3734,2836,45,66,41,66,100,0
3566,3764,2853,18,26,16,10240,0.09,-0.09,1.22,0.88,3546,3735,2836,45,66,41,66,100,0
3568,3766,2855,20,27,16,10240,0.09,-0.09,1.22,0.88,3546,3736,2837,45,66,41,66,100,0
3571,3770,2857,21,29,17,10240,0.09,-0.09,1.22,0.88,3547,3737,2837,45,66,41,66,100,0
3565,3765,2853,20,29,17,10240,0.09,-0.09,1.22,0.88,3548,3738,2838,45,66,41,66,100,0
3558,3751,2845,18,25,15,10240,0.09,-0.09,1.22,0.88,3548,3738,2838,45,67,41,66,100,0
3546,3735,2835,12,17,9,10240,0.09,-0.09,1.24,0.88,3548,3738,2838,45,67,41,66,100,0
3537,3718,2825,3,4,1,10240,0.09,-0.09,1.24,0.88,3548,3738,2838,45,67,41,66,100,0
3523,3704,2817,-6,-10,-7,10240,0.09,-0.09,1.24,0.88,3547,3737,2837,45,67,41,66,100,0
3519,3695,2812,-16,-24,-15,10240,0.09,-0.09,1.24,0.88,3546,3735,2836,45,67,41,66,100,0
3515,3690,2809,-23,-34,-20,10240,0.09,-0.09,1.24,0.88,3545,3734,2835,45,67,41,66,100,0
3514,3689,2809,-27,-40,-23,10240,0.09,-0.09,1.24,0.88,3544,3732,2834,45,67,41,66,100,0
3518,3694,2813,-28,-41,-24,10240,0.09,-0.09,1.24,0.88,3543,3731,2834,45,67,41,66,100,0
3524,3707,2820,-25,-36,-21,10240,0.09,-0.09,1.24,0.88,3542,3730,2833,45,67,41,66,100,0
3525,3707,2821,-22,-31,-17,10240,0.09,-0.09,1.24,0.88,3542,3729,2833,45,67,41,66,100,0
3526,3708,2823,-18,-25,-13,10240,0.09,-0.09,1.24,0.88,3541,3729,2832,45,67,41,66,100,0
3528,3709,2823,-15,-21,-10,10240,0.09,-0.09,1.24,0.88,3541,3728,2832,45,67,41,66,100,0
3529,3709,2823,-14,-20,-9,10240,0.09,-0.09,1.24,0.88,3540,3727,2832,45,67,41,66,100,0
3532,3711,2824,-11,-18,-8,10240,0.09,-0.09,1.24,0.88,3540,3727,2832,45,67,41,66,100,0
3535,3715,2825,-9,-16,-8,10240,0.09,-0.09,1.24,0.88,3540,3726,2831,45,67,41,66,100,0
3537,3720,2828,-6,-12,-6,10240,0.09,-0.09,1.24,0.88,3540,3726,2831,45,67,41,66,100,0
3540,3724,2830,-4,-8,-4,10240,0.09,-0.09,1.24,0.88,3540,3726,2831,45,67,41,66,100,0
3542,3728,2833,-1,-4,-2,10240,0.09,-0.09,1.24,0.88,3540,3726,2831,45,67,41,66,100,0
3547,3734,2838,1,0,1,10240,0.09,-0.09,1.24,0.88,3540,3726,2831,45,67,41,66,100,0
3550,3738,2839,4,4,3,10240,0.09,-0.09,1.24,0.88,3541,3727,2832,45,67,41,66,100,0
3551,3740,2840,7,8,6,10240,0.09,-0.09,1.24,0.88,3541,3727,2832,45,67,41,66,100,0
3552,3742,2842,9,11,8,10240,0.09,-0.09,1.24,0.88,3541,3728,2832,45,67,41,66,100,0
3555,3745,2844,10,13,9,10240,0.09,-0.09,1.24,0.88,3542,3728,2833,45,67,41,66,100,0
3559,3753,2847,12,17,10,10240,0.09,-0.09,1.24,0.88,3542,3729,2833,45,67,41,66,100,0
3562,3755,2849,15,20,12,10240,0.09,-0.09,1.24,0.88,3543,3730,2834,45,67,41,66,100,0
3563,3758,2851,17,23,14,10240,0.09,-0.09,1.24,0.88,3544,3731,2834,45,67,41,66,100,0
3565,3761,2853,19,26,16,10240,0.09,-0.09,1.24,0.88,3544,3732,2835,45,67,41,66,100,0
3566,3762,2853,20,27,16,10240,0.09,-0.09,1.24,0.88,3545,3733,2836,45,67,41,66,100,0
3555,3745,2842,17,24,14,10240,0.09,-0.09,1.24,0.88,3545,3733,2836,46,67,41,66,100,0
3543,3727,2832,12,16,9,10240,0.09,-0.09,1.24,0.90,3545,3733,2836,46,67,41,66,100,0
3534,3712,2823,4,3,1,10240,0.09,-0.09,1.24,0.90,3545,3733,2835,46,67,41,66,100,0
3527,3705,2820,-5,-10,-6,10240,0.09,-0.09,1.24,0.90,3544,3732,2835,46,67,41,66,100,0
3521,3695,2814,-13,-22,-12,10240,0.09,-0.09,1.24,0.90,3544,3730,2834,46,67,41,66,100,0
3515,3685,2808,-19,-31,-18,10240,0.09,-0.09,1.24,0.90,3543,3729,2833,46,67,41,66,100,0
3515,3685,2808,-23,-37,-21,10240,0.09,-0.09,1.24,0.90,3542,3727,2832,46,67,41,66,100,0
3518,3689,2811,-25,-39,-22,10240,0.09,-0.09,1.24,0.90,3541,3726,2832,46,67,41,66,100,0
3521,3695,2814,-24,-38,-21,10240,0.09,-0.09,1.24,0.90,3540,3725,2831,46,67,41,66,100,0
3526,3702,2819,-20,-32,-18,10240,0.09,-0.09,1.24,0.90,3540,3724,2831,46,67,41,66,100,0
3528,3706,2822,-16,-26,-14,10240,0.09,-0.09,1.24,0.90,3539,3724,2830,46,67,41,66,100,0
3529,3707,2823,-13,-21,-11,10240,0.09,-0.09,1.24,0.90,3539,3723,2830,46,67,41,66,100,0
3531,3708,2824,-10,-17,-8,10240,0.09,-0.09,1.24,0.90,3539,3723,2830,46,67,41,66,100,0
3532,3708,2824,-9,-15,-6,10240,0.09,-0.09,1.24,0.90,3539,3722,2830,46,67,41,66,100,0
3535,3709,2823,-7,-14,-6,10240,0.09,-0.09,1.24,0.90,3538,3722,2829,46,67,41,66,100,0
3539,3716,2827,-4,-12,-5,10240,0.09,-0.09,1.24,0.90,3538,3722,2829,46,67,41,66,100,0
3543,3722,2830,-1,-8,-3,10240,0.09,-0.09,1.24,0.90,3539,3722,2829,46,67,41,66,100,0
3546,3726,2833,2,-3,-1,10240,0.09,-0.09,1.24,0.90,3539,3722,2830,46,67,41,66,100,0
3548,3729,2835,5,1,1,10240,0.09,-0.09,1.24,0.90,3539,3722,2830,46,67,41,66,100,0
3550,3732,2837,7,5,4,10240,0.09,-0.09,1.24,0.90,3539,3722,2830,46,67,41,66,100,0
3554,3739,2841,10,9,6,10240,0.09,-0.09,1.24,0.90,3540,3723,2830,46,67,41,66,100,0
3556,3741,2843,12,12,8,10240,0.09,-0.09,1.24,0.90,3541,3723,2831,46,67,41,66,100,0
3559,3746,2845,14,16,11,10240,0.09,-0.09,1.24,0.90,3541,3724,2831,46,67,41,66,100,0
3562,3749,2847,16,20,13,10240,0.09,-0.09,1.24,0.90,3542,3725,2832,46,67,41,66,100,0
3563,3750,2847,18,22,14,10240,0.09,-0.09,1.24,0.90,3543,3726,2832,46,67,41,66,100,0
3566,3756,2851,20,24,15,10240,0.09,-0.09,1.24,0.90,3543,3727,2833,46,67,41,66,100,0
3569,3759,2853,22,27,16,10240,0.09,-0.09,1.24,0.90,3544,3728,2834,46,67,41,66,100,0
3571,3762,2855,23,29,18,10240,0.09,-0.09,1.24,0.90,3545,3729,2834,46,67,41,66,100,0
3572,3763,2855,25,31,19,10240,0.09,-0.09,1.24,0.90,3546,3730,2835,46,67,41,66,100,0
3569,3757,2851,24,30,19,10240,0.09,-0.09,1.24,0.90,3547,3731,2835,47,68,41,66,100,0
3547,3723,2830,18,21,13,10240,0.09,-0.09,1.24,0.90,3547,3731,2835,47,68,41,66,100,0
3536,3709,2823,9,7,4,10240,0.09,-0.09,1.26,0.92,3546,3730,2835,47,68,41,66,100,0
3528,3698,2817,-1,-8,-4,10240,0.09,-0.09,1.26,0.92,3546,3729,2834,47,68,41,66,100,0
3521,3686,2809,-13,-25,-14,10240,0.09,-0.09,1.26,0.92,3545,3728,2833,47,68,41,66,100,0
3517,3679,2805,-19,-35,-20,10240,0.09,-0.09,1.26,0.92,3544,3726,2833,47,68,41,66,100,0
3512,3673,2801,-25,-42,-24,10240,0.09,-0.09,1.26,0.92,3543,3724,2831,47,68,41,66,100,0
3516,3677,2805,-27,-46,-27,10240,0.09,-0.09,1.26,0.92,3542,3723,2831,47,68,41,66,100,0
3519,3682,2808,-26,-45,-26,10240,0.09,-0.09,1.26,0.92,3541,3721,2830,47,68,41,66,100,0
3522,3687,2811,-24,-42,-24,10240,0.09,-0.09,1.26,0.92,3541,3720,2829,47,68,41,66,100,0
3525,3690,2813,-20,-36,-20,10240,0.09,-0.09,1.26,0.92,3540,3719,2829,47,68,41,66,100,0
3527,3695,2817,-17,-31,-16,10240,0.09,-0.09,1.26,0.92,3540,3718,2828,47,68,41,66,100,0
3529,3699,2820,-14,-26,-13,10240,0.09,-0.09,1.26,0.92,3539,3718,2828,47,68,41,66,100,0
3530,3705,2822,-11,-20,-10,10240,0.09,-0.09,1.26,0.92,3539,3717,2828,47,68,41,66,100,0
3533,3707,2824,-9,-16,-7,10240,0.09,-0.09,1.26,0.92,3539,3717,2828,47,68,41,66,100,0
3536,3708,2825,-7,-12,-5,10240,0.09,-0.09,1.26,0.92,3539,3717,2828,47,68,41,66,100,0
3540,3711,2825,-4,-9,-3,10240,0.09,-0.09,1.26,0.92,3539,3716,2827,47,68,41,66,100,0
3541,3714,2827,-1,-6,-2,10240,0.09,-0.09,1.26,0.92,3539,3716,2827,47,68,41,66,100,0
3544,3720,2830,1,-3,0,10240,0.09,-0.09,1.26,0.92,3539,3716,2828,47,68,41,66,100,0
3547,3724,2833,4,1,1,10240,0.09,-0.09,1.26,0.92,3539,3717,2828,47,68,41,66,100,0
3549,3726,2835,6,4,3,10240,0.09,-0.09,1.26,0.92,3540,3717,2828,47,68,41,66,100,0
3554,3734,2840,9,9,6,10240,0.09,-0.09,1.26,0.92,3540,3718,2828,47,68,41,66,100,0
3556,3737,2840,11,12,8,10240,0.09,-0.09,1.26,0.92,3541,3718,2829,47,68,41,66,100,0
3558,3740,2842,13,16,10,10240,0.09,-0.09,1.26,0.92,3541,3719,2829,47,68,41,66,100,0
3560,3744,2845,16,20,12,10240,0.09,-0.09,1.26,0.92,3542,3720,2830,47,68,41,66,100,0
3563,3747,2846,17,22,13,10240,0.09,-0.09,1.26,0.92,3542,3721,2830,47,68,41,66,100,0
3566,3753,2850,19,25,15,10240,0.09,-0.09,1.26,0.92,3543,3722,2831,47,68,41,66,100,0
3568,3755,2851,21,28,17,10240,0.09,-0.09,1.26,0.92,3544,3723,2832,47,68,41,66,100,0
3570,3759,2853,23,31,18,10240,0.09,-0.09,1.26,0.92,3545,3724,2832,47,68,41,66,100,0
3571,3759,2854,24,33,20,10240,0.09,-0.09,1.26,0.92,3546,3725,2833,47,68,41,66,100,0
3565,3750,2848,23,31,18,10240,0.09,-0.09,1.26,0.92,3546,3726,2834,48,71,42,66,100,0
3543,3717,2827,16,21,12,10240,0.09,-0.09,1.29,0.91,3546,3726,2833,48,71,42,66,100,0
3532,3706,2823,6,7,4,10240,0.09,-0.09,1.29,0.91,3546,3725,2833,48,71,42,66,100,0
3525,3693,2813,-4,-8,-5,10240,0.09,-0.09,1.29,0.91,3545,3724,2832,48,71,42,66,100,0
3520,3684,2809,-15,-24,-14,10240,0.09,-0.09,1.29,0.91,3544,3723,2832,48,71,42,66,100,0
3515,3678,2805,-21,-33,-19,10240,0.09,-0.09,1.29,0.91,3543,3721,2831,48,71,42,66,100,0
3514,3675,2804,-25,-39,-23,10239,0.09,-0.09,1.29,0.91,3542,3720,2830,48,71,42,66,100,0
3516,3678,2805,-26,-41,-24,10240,0.09,-0.09,1.29,0.91,3542,3718,2829,48,71,42,66,100,0
3519,3685,2809,-26,-40,-23,10240,0.09,-0.09,1.29,0.91,3541,3717,2828,48,71,42,66,100,0
3523,3689,2812,-23,-36,-21,10240,0.09,-0.09,1.29,0.91,3540,3716,2828,48,71,42,66,100,0
3525,3692,2815,-20,-30,-17,10240,0.09,-0.09,1.29,0.91,3540,3715,2827,48,71,42,66,100,0
3527,3699,2817,-16,-24,-14,10240,0.09,-0.09,1.29,0.91,3539,3715,2827,48,71,42,66,100,0
3530,3701,2821,-13,-19,-11,10240,0.09,-0.09,1.29,0.91,3539,3714,2827,48,71,42,66,100,0
3531,3706,2822,-11,-15,-8,10240,0.09,-0.09,1.29,0.91,3539,3714,2827,48,71,42,66,100,0
3534,3708,2824,-8,-10,-5,10240,0.09,-0.09,1.29,0.91,3539,3714,2826,48,71,42,66,100,0
3536,3709,2825,-6,-8,-3,10240,0.09,-0.09,1.29,0.91,3538,3714,2826,48,71,42,66,100,0
3542,3714,2824,-3,-4,-2,10240,0.09,-0.09,1.29,0.91,3539,3714,2826,48,71,42,66,100,0
3543,3719,2830,0,-1,0,10240,0.09,-0.09,1.29,0.91,3539,3714,2826,48,71,42,66,100,0
3546,3724,2832,3,2,1,10240,0.09,-0.09,1.29,0.91,3539,3714,2827,48,71,42,66,100,0
3548,3727,2834,5,6,3,10240,0.09,-0.09,1.29,0.91,3539,3715,2827,48,71,42,66,100,0
3550,3729,2837,7,10,6,10240,0.09,-0.09,1.29,0.91,3540,3715,2827,48,71,42,66,100,0
3553,3733,2838,9,13,8,10240,0.09,-0.09,1.29,0.91,3540,3716,2828,48,71,42,66,100,0
3557,3738,2841,12,16,10,10240,0.09,-0.09,1.29,0.91,3541,3717,2828,48,71,42,66,100,0
3559,3741,2843,14,19,11,10240,0.09,-0.09,1.29,0.91,3541,3717,2829,48,71,42,66,100,0
3561,3746,2846,16,22,13,10240,0.09,-0.09,1.29,0.91,3542,3718,2829,48,71,42,66,100,0
3562,3746,2846,18,25,15,10240,0.09,-0.09,1.29,0.91,3543,3719,2830,48,71,42,66,100,0
3565,3750,2848,19,27,16,10240,0.09,-0.09,1.29,0.91,3543,3720,2830,48,71,42,66,100,0
3568,3756,2852,21,30,18,10240,0.09,-0.09,1.29,0.91,3544,3721,2831,48,71,42,66,100,0
3571,3760,2853,22,32,19,10240,0.09,-0.09,1.29,0.91,3545,3723,2832,48,71,42,66,100,0
3571,3761,2855,24,34,20,10240,0.09,-0.09,1.29,0.91,3546,3724,2833,48,71,42,66,100,0
3566,3755,2850,23,34,20,10240,0.09,-0.09,1.29,0.91,3547,3725,2833,49,71,42,66,100,0
3555,3740,2841,19,29,17,10240,0.09,-0.09,1.29,0.91,3547,3726,2833,49,72,43,66,100,0
3535,3710,2823,10,16,9,10240,0.09,-0.09,1.27,0.91,3546,3725,2833,49,72,43,66,100,0
3527,3700,2818,0,1,0,10240,0.09,-0.09,1.27,0.91,3546,3724,2833,49,72,43,66,100,0
3522,3691,2812,-11,-14,-9,10240,0.09,-0.09,1.27,0.91,3545,3723,2832,49,72,43,66,100,0
3518,3684,2808,-19,-27,-17,10240,0.09,-0.09,1.27,0.91,3544,3722,2831,49,72,43,66,100,0
3516,3680,2806,-23,-33,-20,10240,0.09,-0.09,1.27,0.91,3543,3720,2830,49,72,43,66,100,0
3518,3685,2808,-25,-36,-22,10240,0.09,-0.09,1.27,0.91,3542,3719,2829,49,72,43,66,100,0
3522,3690,2812,-24,-35,-21,10240,0.09,-0.09,1.27,0.91,3542,3718,2829,49,72,43,66,100,0
3524,3696,2817,-22,-31,-18,10240,0.09,-0.09,1.27,0.91,3541,3718,2828,49,72,43,66,100,0
3526,3701,2819,-19,-25,-14,10240,0.09,-0.09,1.27,0.91,3541,3717,2828,49,72,43,66,100,0
3529,3704,2821,-15,-19,-11,10240,0.09,-0.09,1.27,0.91,3540,3717,2828,49,72,43,66,100,0
3530,3708,2824,-13,-14,-7,10240,0.09,-0.09,1.27,0.91,3540,3716,2828,49,72,43,66,100,0
3532,3708,2824,-11,-11,-6,10240,0.09,-0.09,1.27,0.91,3540,3716,2828,49,72,43,66,100,0
3534,3709,2824,-8,-9,-4,10240,0.09,-0.09,1.27,0.91,3539,3716,2828,49,72,43,66,100,0
3537,3712,2824,-6,-6,-3,10240,0.09,-0.09,1.27,0.91,3539,3716,2827,49,72,43,66,100,0
3538,3716,2828,-4,-4,-2,10240,0.09,-0.09,1.27,0.91,3539,3716,2827,49,72,43,66,100,0
3545,3725,2833,0,0,0,10240,0.09,-0.09,1.27,0.91,3539,3716,2828,49,72,43,66,100,0
3548,3729,2836,2,4,2,10240,0.09,-0.09,1.27,0.91,3540,3716,2828,49,72,43,66,100,0
3549,3732,2837,5,9,5,10240,0.09,-0.09,1.27,0.91,3540,3717,2828,49,72,43,66,100,0
3551,3736,2840,8,14,8,10240,0.09,-0.09,1.27,0.91,3540,3717,2829,49,72,43,66,100,0
3554,3739,2841,10,17,10,10240,0.09,-0.09,1.27,0.91,3541,3718,2829,49,72,43,66,100,0
3557,3745,2845,12,20,11,10240,0.09,-0.09,1.27,0.91,3541,3719,2830,49,72,43,66,100,0
3559,3748,2846,14,23,13,10240,0.09,-0.09,1.27,0.91,3542,3720,2830,49,72,43,66,100,0
3560,3751,2849,15,26,15,10240,0.09,-0.09,1.27,0.91,3543,3721,2831,49,72,43,66,100,0
3563,3753,2850,17,28,17,10240,0.09,-0.09,1.27,0.91,3543,3722,2831,49,72,43,66,100,0
3566,3756,2853,19,30,18,10240,0.09,-0.09,1.27,0.91,3544,3723,2832,49,72,43,66,100,0
3570,3763,2857,21,33,20,10240,0.09,-0.09,1.27,0.91,3545,3725,2833,49,72,43,66,100,0
3569,3763,2856,22,34,21,10240,0.09,-0.09,1.27,0.91,3546,3726,2834,49,72,43,67,100,0
3566,3759,2853,22,35,21,10240,0.09,-0.09,1.27,0.91,3546,3727,2834,49,72,43,67,100,0
3557,3745,2844,19,31,18,10240,0.09,-0.09,1.27,0.91,3547,3728,2835,48,72,43,67,100,0
3538,3727,2834,11,21,12,10240,0.09,-0.09,1.27,0.89,3546,3728,2835,48,72,43,67,100,0
3530,3707,2824,1,7,4,10240,0.09,-0.09,1.27,0.89,3546,3727,2834,48,72,43,67,100,0
3525,3700,2818,-8,-7,-4,10240,0.09,-0.09,1.27,0.89,3545,3726,2834,48,72,43,67,100,0
3521,3692,2814,-16,-20,-11,10240,0.09,-0.09,1.27,0.89,3544,3725,2833,48,72,43,67,100,0
3520,3690,2811,-20,-28,-16,10240,0.09,-0.09,1.27,0.89,3544,3724,2832,48,72,43,67,100,0
3520,3691,2812,-22,-31,-19,10240,0.09,-0.09,1.27,0.89,3543,3723,2832,48,72,43,67,100,0
3528,3703,2821,-21,-29,-17,10240,0.09,-0.09,1.27,0.89,3542,3722,2831,48,72,43,67,100,0
3531,3706,2822,-18,-25,-15,10240,0.09,-0.09,1.27,0.89,3542,3721,2831,48,72,43,67,100,0
3532,3708,2824,-14,-19,-11,10240,0.09,-0.09,1.27,0.89,3542,3721,2831,48,72,43,67,100,0
3533,3709,2824,-10,-14,-8,10240,0.09,-0.09,1.27,0.89,3541,3721,2831,48,72,43,67,100,0
3534,3709,2824,-9,-12,-7,10240,0.09,-0.09,1.27,0.89,3541,3720,2830,48,72,43,67,100,0
3537,3711,2826,-7,-11,-6,10240,0.09,-0.09,1.27,0.89,3541,3720,2830,48,72,43,67,100,0
3540,3715,2828,-5,-9,-4,10240,0.09,-0.09,1.27,0.89,3541,3720,2830,48,72,43,67,100,0
3542,3719,2830,-2,-6,-3,10240,0.09,-0.09,1.27,0.89,3541,3720,2830,48,72,43,67,100,0
3545,3723,2834,0,-3,0,10240,0.09,-0.09,1.27,0.89,3541,3720,2830,48,72,43,67,100,0
3549,3728,2835,3,1,1,10240,0.09,-0.09,1.27,0.89,3541,3720,2830,48,72,43,67,100,0
3554,3736,2841,6,6,4,10240,0.09,-0.09,1.27,0.89,3542,3721,2831,48,72,43,67,100,0
3556,3738,2842,9,10,7,10240,0.09,-0.09,1.27,0.89,3542,3721,2831,48,72,43,67,100,0
3558,3742,2844,12,15,9,10240,0.09,-0.09,1.27,0.89,3543,3722,2832,48,72,43,67,100,0
3559,3745,2845,14,18,11,10240,0.09,-0.09,1.27,0.89,3543,3723,2832,48,72,43,67,100,0
3561,3747,2846,15,20,12,10240,0.09,-0.09,1.27,0.89,3544,3723,2832,48,72,43,67,100,0
3566,3753,2850,17,23,14,10240,0.09,-0.09,1.27,0.89,3545,3724,2833,48,72,43,67,100,0
3568,3757,2853,19,26,15,10240,0.09,-0.09,1.27,0.89,3545,3725,2834,48,72,43,67,100,0
3569,3759,2853,21,29,17,10240,0.09,-0.09,1.27,0.89,3546,3727,2834,48,72,43,67,100,0
3571,3762,2856,22,31,19,10240,0.09,-0.09,1.27,0.89,3547,3728,2835,48,72,43,67,100,0
3574,3765,2857,24,33,20,10240,0.09,-0.09,1.27,0.89,3548,3729,2836,48,72,43,66,100,0
3567,3755,2851,22,31,19,10240,0.09,-0.09,1.27,0.89,3549,3730,2836,48,70,42,66,100,0
3557,3739,2841,19,26,15,10240,0.09,-0.09,1.27,0.91,3549,3730,2836,48,70,42,66,100,0
3547,3723,2830,12,15,8,10240,0.09,-0.09,1.27,0.91,3549,3730,2836,48,70,42,66,100,0
3537,3710,2824,3,2,0,10240,0.09,-0.09,1.27,0.91,3548,3729,2836,48,70,42,66,100,0
3531,3705,2822,-5,-10,-6,10240,0.09,-0.09,1.27,0.91,3548,3728,2835,48,70,42,66,100,0
3524,3690,2811,-13,-21,-13,10240,0.09,-0.09,1.27,0.91,3547,3727,2835,48,70,42,66,100,0
3521,3686,2810,-19,-29,-18,10240,0.09,-0.09,1.27,0.91,3546,3726,2834,48,70,42,66,100,0
3521,3687,2810,-22,-34,-21,10240,0.09,-0.09,1.27,0.91,3545,3725,2833,48,70,42,66,100,0
3525,3692,2815,-23,-36,-22,10240,0.09,-0.09,1.27,0.91,3545,3723,2832,48,70,42,66,100,0
3528,3699,2819,-21,-33,-19,10240,0.09,-0.09,1.27,0.91,3544,3723,2832,48,70,42,66,100,0
3534,3708,2824,-17,-26,-15,10240,0.09,-0.09,1.27,0.91,3544,3722,2832,48,70,42,66,100,0
3535,3708,2824,-13,-20,-11,10240,0.09,-0.09,1.27,0.91,3543,3722,2831,48,70,42,66,100,0
3536,3708,2824,-10,-16,-8,10240,0.09,-0.09,1.27,0.91,3543,3721,2831,48,70,42,66,100,0
3537,3709,2824,-7,-13,-7,10240,0.09,-0.09,1.27,0.91,3543,3721,2831,48,70,42,66,100,0
3539,3710,2824,-6,-12,-7,10240,0.09,-0.09,1.27,0.91,3543,3720,2831,48,70,42,66,100,0
3544,3717,2828,-4,-9,-6,10240,0.09,-0.09,1.27,0.91,3543,3720,2831,48,70,42,66,100,0
3546,3721,2832,-1,-6,-4,10240,0.09,-0.09,1.27,0.91,3543,3720,2831,48,70,42,66,100,0
3550,3727,2835,1,-1,-1,10240,0.09,-0.09,1.27,0.91,3543,3721,2831,48,70,42,66,100,0
3553,3730,2839,5,3,2,10240,0.09,-0.09,1.27,0.91,3544,3721,2831,48,70,42,66,100,0
3555,3734,2840,7,7,5,10240,0.09,-0.09,1.27,0.91,3544,3721,2831,48,70,42,66,100,0
3559,3740,2843,10,11,8,10240,0.09,-0.09,1.27,0.91,3544,3722,2832,48,70,42,66,100,0
3562,3743,2845,13,15,10,10240,0.09,-0.09,1.27,0.91,3545,3723,2832,48,70,42,66,100,0
3563,3747,2847,15,18,11,10240,0.09,-0.09,1.27,0.91,3546,3723,2833,48,70,42,66,100,0
3565,3749,2848,17,21,13,10240,0.09,-0.09,1.27,0.91,3546,3724,2833,48,70,42,66,100,0
3567,3753,2850,18,24,14,10240,0.09,-0.09,1.27,0.91,3547,3725,2834,48,70,42,66,100,0
3572,3758,2854,20,27,16,10240,0.09,-0.09,1.27,0.91,3548,3726,2834,48,70,42,66,100,0
3574,3761,2855,22,29,17,10240,0.09,-0.09,1.27,0.91,3549,3728,2835,48,70,42,66,100,0
3575,3764,2857,23,32,19,10240,0.09,-0.09,1.27,0.91,3550,3729,2836,48,70,42,66,100,0
3578,3767,2858,25,34,20,10240,0.09,-0.09,1.27,0.91,3550,3730,2837,48,70,42,67,100,0
3578,3767,2858,26,35,20,10240,0.09,-0.09,1.27,0.91,3551,3731,2837,48,70,42,67,100,0
3565,3747,2846,23,30,17,10240,0.09,-0.09,1.27,0.91,3552,3732,2838,48,70,42,67,100,0
3552,3729,2836,17,21,12,10240,0.09,-0.09,1.27,0.91,3552,3732,2838,48,70,42,67,100,0
3542,3712,2825,7,7,3,10240,0.09,-0.09,1.27,0.91,3552,3731,2837,48,70,42,67,100,0
3535,3708,2823,-3,-7,-5,10240,0.09,-0.09,1.27,0.91,3551,3730,2837,48,70,42,67,100,0
3530,3697,2817,-11,-19,-11,10240,0.09,-0.09,1.27,0.91,3550,3729,2836,48,70,42,67,100,0
3523,3685,2809,-18,-29,-17,10240,0.09,-0.09,1.27,0.91,3549,3728,2835,48,70,42,67,100,0
3522,3684,2809,-22,-34,-21,10240,0.09,-0.09,1.27,0.91,3548,3726,2834,48,70,42,67,100,0
3523,3687,2811,-24,-38,-23,10240,0.09,-0.09,1.27,0.91,3548,3725,2833,48,70,42,67,100,0
3528,3692,2815,-24,-38,-22,10240,0.09,-0.09,1.27,0.91,3547,3724,2833,48,70,42,67,100,0
3532,3700,2820,-21,-33,-19,10240,0.09,-0.09,1.27,0.91,3546,3723,2832,48,70,42,67,100,0
3535,3708,2824,-17,-27,-15,10240,0.09,-0.09,1.27,0.91,3546,3723,2832,48,70,42,67,100,0
3537,3708,2824,-13,-21,-11,10240,0.09,-0.09,1.27,0.91,3546,3722,2832,48,70,42,67,100,0
3538,3709,2824,-10,-16,-9,10240,0.09,-0.09,1.27,0.91,3546,3722,2832,48,70,42,67,100,0
3540,3709,2824,-8,-13,-7,10240,0.09,-0.09,1.27,0.91,3545,3721,2831,48,70,42,67,100,0
3542,3710,2825,-6,-12,-7,10240,0.09,-0.09,1.27,0.91,3545,3721,2831,48,70,42,67,100,0
3547,3718,2830,-3,-9,-5,10240,0.09,-0.09,1.27,0.91,3545,3721,2831,48,70,42,67,100,0
3549,3722,2833,0,-6,-3,10240,0.09,-0.09,1.27,0.91,3545,3721,2831,48,70,42,67,100,0
3551,3728,2835,2,-1,0,10240,0.09,-0.09,1.27,0.91,3546,3721,2831,48,70,42,67,100,0
3554,3730,2837,4,3,2,10240,0.09,-0.09,1.27,0.91,3546,3721,2831,48,70,42,67,100,0
3557,3734,2840,7,7,5,10240,0.09,-0.09,1.27,0.91,3546,3722,2832,48,70,42,67,100,0
3562,3741,2844,9,11,7,10240,0.09,-0.09,1.27,0.91,3547,3722,2832,48,70,42,67,100,0
3564,3744,2845,12,15,9,10240,0.09,-0.09,1.27,0.91,3547,3723,2833,48,70,42,67,100,0
3565,3748,2847,15,19,11,10240,0.09,-0.09,1.27,0.91,3548,3724,2833,48,70,42,67,100,0
3567,3751,2849,16,22,13,10240,0.09,-0.09,1.27,0.91,3549,3725,2834,48,70,42,67,100,0
3570,3753,2851,18,24,14,10240,0.09,-0.09,1.27,0.91,3549,3726,2834,48,70,42,67,100,0
3572,3758,2854,19,27,16,10240,0.09,-0.09,1.27,0.91,3550,3727,2835,48,70,42,67,100,0
3575,3761,2856,21,29,17,10240,0.09,-0.09,1.27,0.91,3551,3728,2836,48,70,42,67,100,0
3576,3764,2857,22,31,19,10240,0.09,-0.09,1.27,0.91,3552,3729,2836,48,70,42,67,100,0
3578,3767,2858,23,34,20,10240,0.09,-0.09,1.27,0.91,3553,3730,2837,48,70,42,67,100,0
3577,3765,2857,24,34,20,10240,0.09,-0.09,1.27,0.91,3553,3732,2838,48,70,42,67,100,0
3562,3741,2842,20,28,16,10240,0.09,-0.09,1.27,0.91,3554,3732,2838,48,70,42,67,100,0
3551,3725,2832,13,18,9,10240,0.25,-0.09,1.27,0.91,3554,3732,2838,48,70,42,67,100,0
3542,3710,2824,4,3,1,10240,0.25,-0.09,1.27,0.91,3553,3731,2837,48,70,42,67,100,0
3536,3706,2822,-5,-10,-7,10240,0.25,-0.09,1.27,0.91,3553,3730,2837,48,70,42,67,100,0
3531,3696,2818,-13,-21,-13,10240,0.25,-0.09,1.27,0.91,3552,3729,2836,48,70,42,67,100,0
3525,3688,2811,-18,-29,-17,10240,0.25,-0.09,1.27,0.91,3551,3728,2835,48,70,42,67,100,0
3525,3689,2811,-22,-33,-20,10240,0.25,-0.09,1.27,0.91,3550,3726,2834,48,70,42,67,100,0
3529,3694,2815,-23,-35,-21,10240,0.25,-0.09,1.27,0.91,3549,3725,2834,48,70,42,67,100,0
3532,3702,2821,-22,-32,-19,10240,0.25,-0.09,1.27,0.91,3549,3724,2833,48,70,42,67,100,0
3536,3707,2824,-18,-26,-15,10240,0.25,-0.09,1.27,0.91,3548,3724,2833,48,70,42,67,100,0
3539,3709,2824,-14,-21,-12,10240,0.25,-0.09,1.27,0.91,3548,3723,2833,48,70,42,67,100,0
3540,3709,2824,-11,-16,-9,10240,0.25,-0.09,1.27,0.91,3548,3723,2832,48,70,42,67,100,0
3541,3710,2824,-9,-14,-8,10240,0.25,-0.09,1.27,0.91,3548,3722,2832,48,70,42,67,100,0
3543,3712,2824,-7,-12,-8,10240,0.25,-0.09,1.27,0.91,3547,3722,2832,48,70,42,67,100,0
3545,3716,2828,-5,-10,-7,10240,0.25,-0.09,1.27,0.91,3547,3722,2832,48,70,42,67,100,0
3550,3725,2834,-2,-6,-4,10240,0.25,-0.09,1.27,0.91,3547,3722,2832,48,70,42,67,100,0
3552,3729,2836,0,-1,-1,10240,0.25,-0.09,1.27,0.91,3548,3722,2832,48,70,42,67,100,0
3553,3733,2838,2,3,2,10240,0.25,-0.09,1.27,0.91,3548,3723,2832,48,70,42,67,100,0
3557,3737,2841,5,8,5,10240,0.25,-0.09,1.27,0.91,3548,3723,2832,48,70,42,67,100,0
3560,3740,2843,7,11,7,10240,0.25,-0.09,1.27,0.91,3549,3724,2833,48,70,42,67,100,0
3564,3746,2846,10,15,9,10240,0.25,-0.09,1.27,0.91,3549,3724,2833,48,70,42,67,100,0
3565,3749,2848,12,19,11,10240,0.25,-0.09,1.27,0.91,3550,3725,2834,48,70,42,67,100,0
3568,3752,2850,14,22,13,10240,0.25,-0.09,1.27,0.91,3550,3726,2834,48,70,42,67,100,0
3570,3755,2852,16,25,15,10240,0.25,-0.09,1.27,0.91,3551,3727,2835,48,70,42,67,100,0
3571,3757,2854,18,26,16,10240,0.25,-0.09,1.27,0.91,3551,3728,2835,48,70,42,67,100,0
3576,3764,2858,20,29,18,10240,0.25,-0.09,1.27,0.91,3552,3729,2836,48,70,42,67,100,0
3577,3766,2859,21,31,20,10240,0.25,-0.09,1.27,0.91,3553,3731,2837,48,70,42,67,100,0
3579,3769,2860,23,34,21,10240,0.25,-0.09,1.27,0.91,3554,3732,2838,48,70,42,67,100,0
3581,3771,2860,24,36,21,10240,0.25,-0.09,1.27,0.91,3555,3733,2839,48,70,42,67,100,0
3580,3771,2860,24,36,21,10240,0.25,-0.09,1.27,0.91,3556,3734,2839,48,70,42,67,100,0
3565,3749,2846,21,31,17,10240,0.25,-0.09,1.27,0.91,3556,3735,2839,48,71,42,67,100,0
3553,3731,2836,14,21,11,10240,0.25,-0.09,1.28,0.91,3556,3735,2839,48,71,42,67,100,0
3545,3718,2827,4,7,3,10240,0.25,-0.09,1.28,0.91,3556,3734,2839,48,71,42,67,100,0
3539,3710,2823,-5,-7,-5,10240,0.25,-0.09,1.28,0.91,3555,3733,2838,48,71,42,67,100,0
3536,3708,2824,-12,-17,-11,10240,0.25,-0.09,1.28,0.91,3554,3733,2838,48,71,42,67,100,0
3531,3701,2819,-17,-23,-14,10240,0.25,-0.09,1.28,0.91,3554,3731,2837,48,71,42,67,100,0
3532,3704,2821,-19,-26,-15,10240,0.25,-0.09,1.28,0.91,3553,3731,2837,48,71,42,67,100,0
3536,3708,2823,-19,-26,-15,10240,0.25,-0.09,1.28,0.91,3552,3730,2836,48,71,42,67,100,0
3539,3709,2824,-18,-24,-14,10240,0.25,-0.09,1.28,0.91,3552,3729,2836,48,71,42,67,100,0
3540,3709,2824,-15,-22,-13,10240,0.25,-0.09,1.28,0.91,3551,3728,2836,48,71,42,67,100,0
3541,3712,2825,-12,-19,-11,10240,0.25,-0.09,1.28,0.91,3551,3728,2835,48,71,42,67,100,0
3543,3714,2825,-10,-17,-11,10240,0.25,-0.09,1.28,0.91,3551,3727,2835,48,71,42,67,100,0
3545,3717,2828,-8,-14,-9,10240,0.25,-0.09,1.28,0.91,3551,3727,2835,48,71,42,67,100,0
3546,3721,2830,-7,-11,-7,10240,0.25,-0.09,1.28,0.91,3551,3727,2834,48,71,42,67,100,0
3548,3725,2833,-5,-7,-5,10240,0.25,-0.09,1.28,0.91,3550,3727,2834,48,71,42,67,100,0
3553,3732,2837,-2,-3,-2,10240,0.25,-0.09,1.28,0.91,3551,3727,2834,48,71,42,67,100,0
3554,3734,2839,0,1,0,10240,0.25,-0.09,1.28,0.91,3551,3727,2835,48,71,42,67,100,0
3557,3738,2841,2,5,3,10240,0.25,-0.09,1.28,0.91,3551,3728,2835,48,71,42,67,100,0
3559,3741,2843,4,8,5,10240,0.25,-0.09,1.28,0.91,3551,3728,2835,48,71,42,67,100,0
3562,3744,2846,7,11,7,10240,0.25,-0.09,1.28,0.91,3551,3729,2835,48,71,42,67,100,0
3567,3752,2847,10,15,9,10240,0.25,-0.09,1.28,0.91,3552,3729,2836,48,71,42,67,100,0
3569,3754,2850,12,18,11,10240,0.25,-0.09,1.28,0.91,3553,3730,2836,48,71,42,67,100,0
3571,3758,2852,15,22,12,10240,0.25,-0.09,1.28,0.91,3553,3731,2837,48,71,42,67,100,0
3573,3760,2854,17,25,14,10240,0.25,-0.09,1.28,0.91,3554,3732,2837,48,71,42,67,100,0
3575,3763,2855,18,27,15,10240,0.25,-0.09,1.28,0.91,3555,3733,2838,48,71,42,67,100,0
3579,3768,2857,20,29,16,10240,0.25,-0.09,1.28,0.91,3555,3734,2839,48,71,42,67,100,0
3581,3771,2860,22,31,18,10240,0.25,-0.09,1.28,0.91,3556,3736,2839,48,71,42,67,100,0
3581,3771,2860,23,33,19,10240,0.25,-0.09,1.28,0.91,3557,3737,2840,48,71,42,67,100,0
3576,3764,2856,22,32,18,10240,0.25,-0.09,1.28,0.91,3558,3738,2841,46,68,40,66,100,0
3568,3752,2847,19,27,15,10240,0.25,-0.09,1.29,0.92,3558,3738,2841,46,68,40,66,100,0
3550,3722,2838,11,14,9,10240,0.25,-0.09,1.29,0.92,3558,3738,2841,46,68,40,66,100,0
3544,3711,2823,1,0,0,10240,0.25,-0.09,1.29,0.92,3557,3737,2840,46,68,40,66,100,0
3540,3709,2823,-7,-13,-7,10240,0.25,-0.09,1.29,0.92,3557,3736,2840,46,68,40,66,100,0
3537,3709,2824,-14,-23,-13,10240,0.25,-0.09,1.29,0.92,3556,3735,2839,46,68,40,66,100,0
3536,3707,2822,-17,-26,-16,10240,0.25,-0.09,1.29,0.92,3555,3734,2838,46,68,40,66,100,0
3541,3708,2824,-17,-26,-15,10240,0.25,-0.09,1.29,0.92,3555,3733,2838,46,68,40,66,100,0
3544,3711,2824,-15,-24,-14,10240,0.25,-0.09,1.29,0.92,3555,3732,2838,46,68,40,66,100,0
3544,3712,2825,-13,-23,-14,10240,0.25,-0.09,1.29,0.92,3554,3732,2837,46,68,40,66,100,0
3544,3714,2825,-11,-20,-13,10240,0.25,-0.09,1.29,0.92,3554,3731,2837,46,68,40,66,100,0
3546,3715,2826,-9,-18,-12,10240,0.25,-0.09,1.29,0.92,3554,3730,2836,46,68,40,66,100,0
3549,3718,2828,-8,-16,-10,10240,0.25,-0.09,1.29,0.92,3553,3730,2836,46,68,40,66,100,0
3552,3726,2833,-5,-12,-8,10240,0.25,-0.09,1.29,0.92,3553,3730,2836,46,68,40,66,100,0
3553,3727,2835,-3,-8,-5,10240,0.25,-0.09,1.29,0.92,3553,3730,2836,46,68,40,66,100,0
3556,3732,2838,0,-4,-2,10240,0.25,-0.09,1.29,0.92,3553,3730,2836,46,68,40,66,100,0
3558,3735,2840,1,0,0,10240,0.25,-0.09,1.29,0.92,3554,3730,2836,46,68,40,66,100,0
3561,3738,2842,3,3,2,10240,0.25,-0.09,1.29,0.92,3554,3730,2836,46,68,40,66,100,0
3567,3746,2847,6,7,5,10240,0.25,-0.09,1.29,0.92,3554,3731,2837,46,68,40,66,100,0
3568,3749,2847,9,11,7,10240,0.25,-0.09,1.29,0.92,3555,3731,2837,46,68,40,66,100,0
3570,3752,2849,12,15,9,10240,0.25,-0.09,1.29,0.92,3555,3732,2837,46,68,40,66,100,0
3572,3754,2852,14,18,11,10240,0.25,-0.09,1.29,0.92,3556,3733,2838,46,68,40,66,100,0
3574,3757,2853,15,20,12,10240,0.25,-0.09,1.29,0.92,3556,3734,2838,46,68,40,66,100,0
3579,3763,2856,17,23,14,10240,0.25,-0.09,1.29,0.92,3557,3735,2839,46,68,40,66,100,0
3579,3765,2858,19,25,16,10240,0.25,-0.09,1.29,0.92,3558,3736,2840,46,68,40,66,100,0
3581,3768,2859,20,27,17,10240,0.25,-0.09,1.29,0.92,3559,3737,2840,46,68,40,66,100,0
3583,3770,2859,22,30,18,10240,0.25,-0.09,1.29,0.92,3559,3738,2841,46,68,40,66,100,0
3584,3772,2861,22,31,18,10240,0.25,-0.09,1.29,0.92,3560,3739,2842,46,68,40,66,100,0
3588,3775,2863,24,32,19,10240,0.25,-0.09,1.29,0.92,3561,3740,2842,46,68,40,67,100,0
3582,3768,2857,23,31,18,10240,0.25,-0.09,1.29,0.92,3562,3741,2843,45,65,39,67,100,0
3572,3753,2849,20,26,15,10240,0.25,-0.09,1.27,0.92,3562,3741,2843,45,65,39,67,100,0
3560,3735,2837,13,17,8,10240,0.25,-0.09,1.27,0.92,3562,3741,2843,45,65,39,67,100,0
3551,3719,2829,4,2,0,10240,0.25,-0.09,1.27,0.92,3562,3741,2842,45,65,39,67,100,0
3540,3708,2823,-6,-11,-8,10240,0.25,-0.09,1.27,0.92,3561,3739,2842,45,65,39,67,100,0
3535,3700,2818,-14,-24,-15,10240,0.25,-0.09,1.27,0.92,3560,3738,2841,45,65,39,67,100,0
3533,3695,2816,-20,-33,-19,10240,0.25,-0.09,1.27,0.92,3559,3737,2840,45,65,39,67,100,0
3531,3694,2815,-24,-38,-22,10240,0.25,-0.09,1.27,0.92,3558,3735,2839,45,65,39,67,100,0
3533,3698,2818,-25,-39,-23,10240,0.25,-0.09,1.27,0.92,3558,3734,2839,45,65,39,67,100,0
3542,3709,2824,-23,-35,-20,10240,0.25,-0.09,1.27,0.92,3557,3733,2838,45,65,39,67,100,0
3542,3709,2823,-20,-31,-18,10240,0.25,-0.09,1.27,0.92,3557,3732,2838,45,65,39,67,100,0
3542,3709,2824,-17,-26,-15,10240,0.25,-0.09,1.27,0.92,3556,3732,2837,45,65,39,67,100,0
3544,3710,2824,-14,-22,-13,10240,0.25,-0.09,1.27,0.92,3556,3731,2837,45,65,39,67,100,0
3545,3711,2824,-12,-21,-13,10240,0.25,-0.09,1.27,0.92,3555,3730,2836,45,65,39,67,100,0
3549,3719,2829,-10,-18,-11,10240,0.25,-0.09,1.27,0.92,3555,3730,2836,45,65,39,67,100,0
3551,3723,2832,-8,-14,-9,10240,0.25,-0.09,1.27,0.92,3555,3730,2836,45,65,39,67,100,0
3554,3727,2834,-5,-10,-6,10240,0.25,-0.09,1.27,0.92,3555,3730,2836,45,65,39,67,100,0
3557,3732,2837,-2,-4,-3,10240,0.25,-0.09,1.27,0.92,3555,3730,2836,45,65,39,67,100,0
3558,3733,2839,0,-1,0,10240,0.25,-0.09,1.27,0.92,3555,3730,2836,45,65,39,67,100,0
3564,3742,2843,3,3,2,10240,0.25,-0.09,1.27,0.92,3555,3730,2836,45,65,39,67,100,0
3567,3744,2845,6,7,5,10240,0.25,-0.09,1.27,0.92,3556,3731,2836,45,65,39,67,100,0
3568,3746,2846,8,10,7,10240,0.25,-0.09,1.27,0.92,3556,3731,2837,45,65,39,67,100,0
3570,3750,2848,11,14,9,10240,0.25,-0.09,1.27,0.92,3557,3732,2837,45,65,39,67,100,0
3572,3753,2850,12,16,10,10240,0.25,-0.09,1.27,0.92,3557,3732,2838,45,65,39,67,100,0
3575,3758,2854,14,19,12,10240,0.25,-0.09,1.27,0.92,3558,3733,2838,45,65,39,67,100,0
3577,3761,2855,16,22,13,10240,0.25,-0.09,1.27,0.92,3558,3734,2839,45,65,39,67,100,0
3578,3764,2857,17,25,15,10240,0.25,-0.09,1.27,0.92,3559,3735,2839,45,65,39,67,100,0
3580,3766,2858,18,27,17,10240,0.25,-0.09,1.27,0.92,3560,3736,2840,45,65,39,67,100,0
3582,3769,2860,20,29,17,10240,0.25,-0.09,1.27,0.92,3560,3737,2841,45,65,39,67,100,0
3585,3772,2862,21,31,19,10240,0.25,-0.09,1.27,0.92,3561,3739,2841,45,65,39,67,100,0
3584,3770,2859,22,31,18,10240,0.25,-0.09,1.27,0.92,3562,3740,2842,45,65,40,67,100,0
3575,3758,2852,20,28,16,10240,0.25,-0.09,1.23,0.90,3563,3740,2842,45,66,40,67,100,0
3565,3741,2842,15,20,12,10240,0.25,-0.09,1.23,0.90,3563,3740,2842,45,66,40,67,100,0
3554,3725,2832,7,8,4,10240,0.25,-0.09,1.23,0.90,3562,3740,2842,45,66,40,67,100,0
3543,3709,2824,-3,-6,-4,10240,0.25,-0.09,1.23,0.90,3562,3739,2841,45,66,40,67,100,0
3537,3704,2821,-12,-19,-11,10240,0.25,-0.09,1.23,0.90,3561,3737,2841,45,66,40,67,100,0
3533,3697,2817,-19,-29,-17,10240,0.25,-0.09,1.23,0.90,3560,3736,2840,45,66,40,67,100,0
3531,3693,2814,-24,-36,-21,10240,0.25,-0.09,1.23,0.90,3559,3735,2839,45,66,40,67,100,0
3533,3696,2817,-26,-37,-22,10240,0.25,-0.09,1.23,0.90,3558,3733,2838,45,66,40,67,100,0
3540,3708,2824,-24,-35,-20,10240,0.25,-0.09,1.23,0.90,3557,3733,2838,45,66,40,67,100,0
3543,3710,2823,-21,-31,-18,10240,0.25,-0.09,1.23,0.90,3557,3732,2837,45,66,40,67,100,0
3544,3709,2824,-17,-26,-15,10240,0.25,-0.09,1.23,0.90,3557,3731,2837,45,66,40,67,100,0
3545,3709,2824,-13,-22,-13,10240,0.25,-0.09,1.23,0.90,3556,3730,2836,45,66,40,67,100,0
3546,3711,2825,-12,-21,-12,10240,0.25,-0.09,1.23,0.90,3556,3730,2836,45,66,40,67,100,0
3550,3718,2829,-10,-18,-10,10240,0.25,-0.09,1.23,0.90,3556,3729,2836,45,66,40,67,100,0
3553,3723,2833,-7,-14,-8,10240,0.25,-0.09,1.23,0.90,3556,3729,2836,45,66,40,67,100,0
3555,3726,2834,-4,-9,-5,10240,0.25,-0.09,1.23,0.90,3555,3729,2836,45,66,40,67,100,0
3557,3730,2837,-2,-4,-2,10240,0.25,-0.09,1.23,0.90,3556,3729,2836,45,66,40,67,100,0
3560,3733,2840,0,-1,0,10240,0.25,-0.09,1.23,0.90,3556,3729,2836,45,66,40,67,100,0
3565,3740,2844,3,3,2,10240,0.25,-0.09,1.23,0.90,3556,3730,2836,45,66,40,67,100,0
3566,3743,2845,6,7,5,10240,0.25,-0.09,1.23,0.90,3556,3730,2836,45,66,40,67,100,0
3569,3747,2847,8,10,7,10240,0.25,-0.09,1.23,0.90,3557,3731,2837,45,66,40,67,100,0
3571,3750,2849,11,14,9,10240,0.25,-0.09,1.23,0.90,3557,3731,2837,45,66,40,67,100,0
3573,3753,2851,12,17,11,10240,0.25,-0.09,1.23,0.90,3558,3732,2838,45,66,40,67,100,0
3577,3759,2855,15,20,13,10240,0.25,-0.09,1.23,0.90,3558,3733,2838,45,66,40,67,100,0
3578,3761,2856,16,23,14,10240,0.25,-0.09,1.23,0.90,3559,3734,2839,45,66,40,67,100,0
3580,3762,2856,18,25,16,10240,0.25,-0.09,1.23,0.90,3560,3735,2839,45,66,40,67,100,0
3581,3765,2857,19,27,17,10240,0.25,-0.09,1.23,0.90,3560,3736,2840,45,66,40,67,100,0
3583,3768,2860,20,28,17,10240,0.25,-0.09,1.23,0.90,3561,3737,2841,45,66,40,67,100,0
3586,3774,2862,21,30,18,10240,0.25,-0.09,1.23,0.90,3562,3738,2841,45,66,40,67,100,0
3586,3775,2862,22,33,19,10240,0.25,-0.09,1.23,0.90,3563,3739,2842,45,66,40,67,100,0
3582,3770,2858,22,33,19,10240,0.25,-0.09,1.23,0.90,3563,3740,2842,45,66,40,67,100,0
3573,3757,2850,18,29,16,10240,0.25,-0.09,1.23,0.90,3564,3741,2843,46,67,40,67,100,0
3562,3740,2841,12,20,10,10240,0.25,-0.09,1.27,0.92,3564,3741,2843,46,67,40,67,100,0
3547,3714,2826,2,4,1,10240,0.25,-0.09,1.27,0.92,3563,3740,2842,46,67,40,67,100,0
3543,3710,2823,-7,-10,-7,10240,0.25,-0.09,1.27,0.92,3563,3739,2841,46,67,40,67,100,0
3539,3708,2823,-15,-21,-13,10240,0.25,-0.09,1.27,0.92,3562,3738,2841,46,67,40,67,100,0
3536,3704,2821,-21,-29,-17,10240,0.25,-0.09,1.27,0.92,3561,3737,2840,46,67,40,67,100,0
3536,3705,2821,-23,-30,-18,10240,0.25,-0.09,1.27,0.92,3560,3736,2840,46,67,40,67,100,0
3542,3709,2824,-22,-30,-17,10240,0.25,-0.09,1.27,0.92,3559,3735,2839,46,67,40,67,100,0
3544,3710,2824,-20,-28,-17,10240,0.25,-0.09,1.27,0.92,3559,3734,2839,46,67,40,67,100,0
3545,3711,2824,-17,-25,-15,10240,0.25,-0.09,1.27,0.92,3558,3733,2838,46,67,40,67,100,0
3545,3712,2825,-14,-23,-14,10240,0.25,-0.09,1.27,0.92,3558,3732,2838,46,67,40,67,100,0
3545,3714,2826,-13,-21,-13,10240,0.25,-0.09,1.27,0.92,3558,3732,2837,46,67,40,67,100,0
3549,3720,2831,-11,-17,-11,10240,0.25,-0.09,1.27,0.92,3557,3731,2837,46,67,40,67,100,0
3550,3724,2833,-10,-14,-8,10240,0.25,-0.09,1.27,0.92,3557,3731,2837,46,67,40,67,100,0
3553,3728,2835,-8,-9,-5,10240,0.25,-0.09,1.27,0.92,3557,3731,2837,46,67,40,67,100,0
3556,3732,2838,-5,-5,-2,10240,0.25,-0.09,1.27,0.92,3557,3731,2837,46,67,40,67,100,0
3558,3735,2839,-2,-1,0,10240,0.25,-0.09,1.27,0.92,3557,3731,2837,46,67,40,67,100,0
3564,3743,2844,0,3,2,10240,0.25,-0.09,1.27,0.92,3557,3732,2837,46,67,40,67,100,0
3565,3745,2845,3,7,4,10240,0.25,-0.09,1.27,0.92,3557,3732,2837,46,67,40,67,100,0
3566,3748,2847,6,10,6,10240,0.25,-0.09,1.27,0.92,3558,3733,2838,46,67,40,67,100,0
3569,3752,2849,8,14,8,10240,0.25,-0.09,1.27,0.92,3558,3733,2838,46,67,40,67,100,0
3570,3754,2851,9,16,10,10240,0.25,-0.09,1.27,0.92,3558,3734,2839,46,67,40,67,100,0
3575,3760,2854,11,19,11,10240,0.25,-0.09,1.27,0.92,3559,3735,2839,46,67,40,67,100,0
3576,3762,2855,13,22,13,10240,0.25,-0.09,1.27,0.92,3560,3736,2840,46,67,40,67,100,0
3577,3764,2856,15,24,14,10240,0.25,-0.09,1.27,0.92,3560,3737,2840,46,67,40,67,100,0
3579,3767,2857,16,26,15,10240,0.25,-0.09,1.27,0.92,3561,3738,2841,46,67,40,67,100,0
3581,3770,2859,17,28,16,10240,0.25,-0.09,1.27,0.92,3561,3739,2841,46,67,40,67,100,0
3583,3773,2861,19,30,17,10240,0.25,-0.09,1.27,0.92,3562,3740,2842,46,67,40,67,100,0
3580,3769,2858,19,30,17,10240,0.25,-0.09,1.27,0.92,3563,3741,2842,46,67,40,66,100,0
3573,3758,2851,17,27,15,10240,0.25,-0.09,1.27,0.92,3563,3741,2843,45,66,39,66,100,0
3564,3743,2842,12,20,10,10240,0.25,-0.09,1.29,0.92,3563,3741,2843,45,66,39,66,100,0
3554,3728,2833,4,8,3,10240,0.25,-0.09,1.29,0.92,3563,3741,2842,45,66,39,66,100,0
3545,3711,2823,-3,-5,-5,10240,0.25,-0.09,1.29,0.92,3562,3740,2842,45,66,39,66,100,0
3543,3710,2823,-11,-17,-11,10240,0.25,-0.09,1.29,0.92,3562,3739,2841,45,66,39,66,100,0
3542,3709,2823,-16,-25,-16,10240,0.25,-0.09,1.29,0.92,3561,3738,2841,45,66,39,66,100,0
3542,3710,2823,-18,-28,-18,10240,0.25,-0.09,1.29,0.92,3560,3737,2840,45,66,39,66,100,0
3545,3710,2823,-17,-27,-17,10240,0.25,-0.09,1.29,0.92,3560,3736,2839,45,66,39,66,100,0
3550,3719,2828,-15,-24,-15,10240,0.25,-0.09,1.29,0.92,3560,3736,2839,45,66,39,66,100,0
3550,3720,2829,-13,-21,-13,10240,0.25,-0.09,1.29,0.92,3559,3735,2839,45,66,39,66,100,0
3551,3723,2830,-10,-17,-11,10240,0.25,-0.09,1.29,0.92,3559,3735,2838,45,66,39,66,100,0
3553,3723,2831,-8,-13,-9,10240,0.25,-0.09,1.29,0.92,3559,3734,2838,45,66,39,66,100,0
3554,3726,2833,-7,-11,-7,10240,0.25,-0.09,1.29,0.92,3559,3734,2838,45,66,39,66,100,0
3558,3732,2837,-5,-8,-5,10240,0.25,-0.09,1.29,0.92,3559,3734,2838,45,66,39,66,100,0
3561,3734,2839,-2,-5,-3,10240,0.25,-0.09,1.29,0.92,3559,3734,2838,45,66,39,66,100,0
3563,3738,2841,0,-1,0,10240,0.25,-0.09,1.29,0.92,3559,3734,2838,45,66,39,66,100,0
3565,3741,2843,2,2,2,10240,0.25,-0.09,1.29,0.92,3559,3734,2838,45,66,39,66,100,0
3567,3746,2845,5,5,4,10240,0.25,-0.09,1.29,0.92,3559,3735,2838,45,66,39,66,100,0
3572,3752,2849,7,9,6,10240,0.25,-0.09,1.29,0.92,3560,3735,2839,45,66,39,66,100,0
3574,3754,2851,10,13,8,10240,0.25,-0.09,1.29,0.92,3560,3736,2839,45,66,39,66,100,0
3576,3758,2853,12,16,10,10240,0.25,-0.09,1.29,0.92,3561,3737,2840,45,66,39,66,100,0
3578,3759,2854,14,19,12,10240,0.25,-0.09,1.29,0.92,3561,3737,2840,45,66,39,66,100,0
3580,3762,2855,16,21,13,10240,0.25,-0.09,1.29,0.92,3562,3738,2841,45,66,39,66,100,0
3583,3766,2858,17,23,14,10240,0.25,-0.09,1.29,0.92,3563,3739,2841,45,66,39,66,100,0
3584,3771,2859,19,26,15,10240,0.25,-0.09,1.29,0.92,3563,3740,2842,45,66,39,66,100,0
3586,3773,2861,20,28,16,10240,0.25,-0.09,1.29,0.92,3564,3741,2842,45,66,39,66,100,0
3588,3776,2862,21,31,18,10240,0.25,-0.09,1.29,0.92,3565,3742,2843,45,66,39,66,100,0
3590,3777,2863,22,32,18,10240,0.25,-0.09,1.29,0.92,3566,3744,2844,45,66,39,66,100,0
3580,3762,2854,20,29,16,10240,0.25,-0.09,1.29,0.92,3566,3744,2844,44,64,38,66,100,0
3570,3747,2844,16,22,12,10240,0.25,-0.09,1.28,0.92,3566,3744,2844,44,64,38,66,100,0
3560,3732,2836,9,10,5,10240,0.25,-0.09,1.28,0.92,3566,3744,2844,44,64,38,66,100,0
3553,3718,2827,0,-4,-3,10240,0.25,-0.09,1.28,0.92,3566,3743,2843,44,64,38,66,100,0
3548,3711,2823,-8,-16,-11,10240,0.25,-0.09,1.28,0.92,3565,3742,2843,44,64,38,66,100,0
3543,3709,2823,-14,-25,-15,10240,0.25,-0.09,1.28,0.92,3564,3741,2842,44,64,38,66,100,0
3540,3707,2822,-18,-30,-18,10240,0.25,-0.09,1.28,0.92,3563,3740,2841,44,64,38,66,100,0
3541,3708,2823,-20,-31,-19,10240,0.25,-0.09,1.28,0.92,3563,3739,2841,44,64,38,66,100,0
3545,3709,2824,-20,-31,-18,10240,0.25,-0.09,1.28,0.92,3562,3738,2840,44,64,38,66,100,0
3547,3710,2824,-19,-30,-17,10240,0.25,-0.09,1.28,0.92,3562,3737,2840,44,64,38,66,100,0
3550,3716,2827,-16,-26,-15,10240,0.25,-0.09,1.28,0.92,3561,3736,2839,44,64,38,66,100,0
3552,3718,2827,-13,-23,-14,10240,0.25,-0.09,1.28,0.92,3561,3735,2839,44,64,38,66,100,0
3554,3720,2830,-10,-19,-12,10240,0.25,-0.09,1.28,0.92,3561,3735,2838,44,64,38,66,100,0
3555,3723,2832,-8,-16,-9,10240,0.25,-0.09,1.28,0.92,3560,3735,2838,44,64,38,66,100,0
3558,3726,2834,-5,-13,-7,10240,0.25,-0.09,1.28,0.92,3560,3734,2838,44,64,38,66,100,0
3562,3732,2839,-3,-9,-4,10240,0.25,-0.09,1.28,0.92,3560,3734,2838,44,64,38,66,100,0
3565,3736,2840,0,-5,-1,10240,0.25,-0.09,1.28,0.92,3561,3734,2838,44,64,38,66,100,0
3567,3740,2842,2,0,0,10240,0.25,-0.09,1.28,0.92,3561,3734,2838,44,64,38,66,100,0
3569,3742,2844,5,3,3,10240,0.25,-0.09,1.28,0.92,3561,3735,2839,44,64,38,66,100,0
3571,3746,2847,7,6,4,10240,0.25,-0.09,1.28,0.92,3561,3735,2839,44,64,38,66,100,0
3575,3753,2851,9,10,7,10240,0.25,-0.09,1.28,0.92,3562,3736,2839,44,64,38,66,100,0
3577,3756,2853,11,13,9,10240,0.25,-0.09,1.28,0.92,3562,3736,2840,44,64,38,66,100,0
3579,3758,2855,13,17,12,10240,0.25,-0.09,1.28,0.92,3563,3737,2840,44,64,38,66,100,0
3581,3761,2855,15,20,13,10240,0.25,-0.09,1.28,0.92,3564,3738,2841,44,64,38,66,100,0
3582,3763,2856,16,22,14,10240,0.25,-0.09,1.28,0.92,3564,3739,2841,44,64,38,66,100,0
3586,3768,2859,18,24,15,10240,0.25,-0.09,1.28,0.92,3565,3740,2842,44,64,38,66,100,0
3588,3771,2860,19,26,16,10240,0.25,-0.09,1.28,0.92,3566,3741,2842,44,64,38,66,100,0
3589,3773,2862,21,28,17,10240,0.25,-0.09,1.28,0.92,3566,3742,2843,44,64,38,66,100,0
3591,3775,2863,22,30,18,10240,0.25,-0.09,1.28,0.92,3567,3743,2844,44,64,38,67,100,0
3593,3778,2864,23,31,19,10240,0.25,-0.09,1.28,0.92,3568,3744,2844,44,64,38,67,100,0
3594,3779,2865,24,32,19,10240,0.25,-0.09,1.28,0.92,3569,3745,2845,44,64,38,67,100,0
3587,3769,2859,22,30,18,10240,0.25,-0.09,1.28,0.92,3570,3746,2846,44,64,38,67,100,0
3577,3754,2849,18,24,14,10240,0.25,-0.09,1.28,0.92,3570,3746,2846,44,64,38,67,100,0
3566,3738,2839,11,14,7,10240,0.25,-0.09,1.28,0.92,3570,3746,2845,44,64,38,67,100,0
3558,3726,2833,2,1,0,10240,0.25,-0.09,1.28,0.92,3569,3745,2845,44,64,38,67,100,0
3549,3710,2823,-7,-13,-9,10240,0.25,-0.09,1.28,0.92,3569,3744,2844,44,64,38,67,100,0
3547,3710,2823,-14,-23,-15,10240,0.25,-0.09,1.28,0.92,3568,3743,2844,44,64,38,67,100,0
3545,3709,2823,-18,-29,-18,10240,0.25,-0.09,1.28,0.92,3567,3742,2843,44,64,38,67,100,0
3546,3710,2823,-20,-32,-20,10240,0.25,-0.09,1.28,0.92,3566,3741,2842,44,64,38,67,100,0
3548,3710,2823,-20,-31,-19,10240,0.25,-0.09,1.28,0.92,3566,3740,2842,44,64,38,67,100,0
3553,3715,2826,-18,-29,-18,10240,0.25,-0.09,1.28,0.92,3565,3739,2841,44,64,38,67,100,0
3554,3717,2827,-15,-26,-16,10240,0.25,-0.09,1.28,0.92,3565,3738,2841,44,64,38,67,100,0
3554,3720,2830,-13,-23,-14,10240,0.25,-0.09,1.28,0.92,3565,3738,2840,44,64,38,67,100,0
3556,3721,2831,-10,-19,-12,10240,0.25,-0.09,1.28,0.92,3564,3737,2840,44,64,38,67,100,0
3557,3725,2834,-9,-16,-9,10240,0.25,-0.09,1.28,0.92,3564,3737,2840,44,64,38,67,100,0
3562,3731,2837,-7,-13,-7,10240,0.25,-0.09,1.28,0.92,3564,3737,2840,44,64,38,67,100,0
3564,3735,2840,-4,-8,-4,10240,0.25,-0.09,1.28,0.92,3564,3736,2840,44,64,38,67,100,0
3567,3737,2842,-1,-4,-1,10240,0.25,-0.09,1.28,0.92,3564,3736,2840,44,64,38,67,100,0
3570,3741,2844,1,0,0,10240,0.25,-0.09,1.28,0.92,3564,3737,2840,44,64,38,67,100,0
3572,3745,2845,4,3,2,10240,0.25,-0.09,1.28,0.92,3565,3737,2840,44,64,38,67,100,0
3576,3752,2850,6,7,5,10240,0.25,-0.09,1.28,0.92,3565,3737,2840,44,64,38,67,100,0
3578,3755,2852,9,11,7,10240,0.25,-0.09,1.28,0.92,3565,3738,2841,44,64,38,67,100,0
3580,3759,2854,11,15,9,10240,0.25,-0.09,1.28,0.92,3566,3739,2841,44,64,38,67,100,0
3581,3760,2854,13,18,11,10240,0.25,-0.09,1.28,0.92,3566,3739,2842,44,64,38,67,100,0
3582,3763,2856,14,20,12,10240,0.25,-0.09,1.28,0.92,3567,3740,2842,44,64,38,67,100,0
3587,3768,2859,15,22,13,10240,0.25,-0.09,1.28,0.92,3568,3741,2843,44,64,38,67,100,0
3589,3769,2860,17,24,14,10240,0.25,-0.09,1.28,0.92,3568,3742,2843,44,64,38,67,100,0
3590,3772,2861,19,26,16,10240,0.25,-0.09,1.28,0.92,3569,3743,2844,44,64,38,67,100,0
3592,3775,2863,20,28,17,10240,0.25,-0.09,1.28,0.92,3570,3744,2844,44,64,38,67,100,0
3593,3776,2864,21,29,18,10240,0.25,-0.09,1.28,0.92,3571,3745,2845,44,64,38,67,100,0
3596,3782,2867,22,31,19,10240,0.25,-0.09,1.28,0.92,3571,3746,2846,44,64,38,66,100,0
3596,3783,2867,23,33,19,10240,0.25,-0.09,1.28,0.92,3572,3748,2847,44,64,38,66,100,0
3592,3777,2863,22,32,19,10240,0.25,-0.09,1.28,0.92,3573,3749,2847,44,64,38,66,100,0
3584,3765,2855,19,28,16,10240,0.25,-0.09,1.28,0.92,3573,3749,2847,44,64,38,66,100,0
3573,3749,2847,13,19,11,10240,0.25,-0.09,1.28,0.92,3573,3749,2847,44,64,38,66,100,0
3558,3726,2832,3,5,2,10240,0.25,-0.09,1.28,0.92,3573,3748,2847,44,64,38,66,100,0
3553,3717,2826,-5,-9,-6,10240,0.25,-0.09,1.28,0.92,3572,3747,2846,44,64,38,66,100,0
3550,3712,2823,-13,-21,-14,10240,0.25,-0.09,1.28,0.92,3571,3746,2845,44,64,38,66,100,0
3548,3710,2823,-19,-30,-19,10240,0.25,-0.09,1.28,0.92,3571,3745,2845,44,64,38,66,100,0
3548,3710,2823,-21,-33,-21,10240,0.25,-0.09,1.28,0.92,3570,3744,2844,44,64,38,66,100,0
3552,3717,2828,-20,-32,-20,10240,0.25,-0.09,1.28,0.92,3569,3743,2843,44,64,38,66,100,0
3555,3721,2831,-19,-29,-17,10240,0.25,-0.09,1.28,0.92,3569,3742,2843,44,64,38,66,100,0
3555,3725,2832,-16,-24,-14,10240,0.25,-0.09,1.28,0.92,3568,3742,2843,44,64,38,66,100,0
3557,3726,2833,-13,-19,-11,10240,0.25,-0.09,1.28,0.92,3568,3741,2842,44,64,38,66,100,0
3558,3728,2834,-12,-16,-10,10240,0.25,-0.09,1.28,0.92,3568,3741,2842,44,64,38,66,100,0
3561,3732,2838,-10,-13,-8,10240,0.25,-0.09,1.28,0.92,3567,3740,2842,44,64,38,66,100,0
3562,3735,2839,-8,-10,-6,10240,0.25,-0.09,1.28,0.92,3567,3740,2842,44,64,38,66,100,0
3565,3737,2842,-5,-7,-3,10240,0.25,-0.09,1.28,0.92,3567,3740,2842,44,64,38,66,100,0
3567,3743,2844,-3,-3,-1,10240,0.25,-0.09,1.28,0.92,3567,3740,2842,44,64,38,66,100,0
3570,3746,2846,-1,0,0,10240,0.25,-0.09,1.28,0.92,3567,3740,2842,44,64,38,66,100,0
3574,3753,2850,1,4,3,10240,0.25,-0.09,1.28,0.92,3568,3741,2842,44,64,38,66,100,0
3576,3756,2851,4,9,5,10240,0.25,-0.09,1.28,0.92,3568,3741,2843,44,64,38,66,100,0
3578,3759,2853,6,12,7,10240,0.25,-0.09,1.28,0.92,3568,3742,2843,44,64,38,66,100,0
3579,3762,2855,8,15,9,10240,0.25,-0.09,1.28,0.92,3568,3743,2843,44,64,38,66,100,0
3580,3764,2856,10,18,10,10240,0.25,-0.09,1.28,0.92,3569,3743,2844,44,64,38,66,100,0
3583,3768,2859,11,20,12,10240,0.25,-0.09,1.28,0.92,3569,3744,2844,44,64,38,66,100,0
3586,3771,2861,13,22,13,10240,0.25,-0.09,1.28,0.92,3570,3745,2845,44,64,38,66,100,0
3586,3774,2862,14,24,15,10240,0.25,-0.09,1.28,0.92,3570,3746,2845,44,64,38,66,100,0
3588,3776,2862,15,26,16,10240,0.25,-0.09,1.28,0.92,3571,3747,2846,44,64,38,66,100,0
3590,3779,2864,16,28,16,10240,0.25,-0.09,1.28,0.92,3572,3748,2847,44,64,38,66,100,0
3594,3784,2868,18,30,17,10240,0.25,-0.09,1.28,0.92,3572,3749,2847,44,64,38,66,100,0
3593,3786,2868,19,32,18,10240,0.25,-0.09,1.28,0.92,3573,3751,2848,44,64,38,66,100,0
3592,3785,2867,19,33,19,10240,0.25,-0.09,1.28,0.92,3574,3752,2849,44,64,38,66,100,0
3588,3778,2862,18,32,18,10240,0.25,-0.09,1.28,0.92,3574,3753,2849,43,65,39,66,100,0
3579,3764,2855,14,26,14,10240,0.26,-0.09,1.27,0.88,3574,3753,2849,43,65,39,66,100,0
3564,3739,2839,6,14,6,10240,0.26,-0.09,1.27,0.88,3574,3752,2849,43,65,39,66,100,0
3558,3731,2836,-1,0,0,10240,0.26,-0.09,1.27,0.88,3574,3752,2848,43,65,39,66,100,0
3554,3727,2831,-10,-11,-8,10240,0.26,-0.09,1.27,0.88,3573,3751,2848,43,65,39,66,100,0
3553,3724,2830,-16,-21,-14,10240,0.26,-0.09,1.27,0.88,3572,3750,2847,43,65,39,66,100,0
3552,3723,2830,-18,-24,-15,10240,0.26,-0.09,1.27,0.88,3572,3749,2847,43,65,39,66,100,0
3558,3730,2835,-17,-23,-15,10240,0.26,-0.09,1.27,0.88,3571,3748,2846,43,65,39,66,100,0
3560,3732,2837,-15,-21,-13,10240,0.26,-0.09,1.27,0.88,3571,3748,2846,43,65,39,66,100,0
3561,3734,2838,-13,-18,-11,10240,0.26,-0.09,1.27,0.88,3570,3747,2846,43,65,39,66,100,0
3562,3735,2839,-10,-14,-8,10240,0.26,-0.09,1.27,0.88,3570,3747,2845,43,65,39,66,100,0
3563,3737,2839,-8,-12,-7,10240,0.26,-0.09,1.27,0.88,3570,3747,2845,43,65,39,66,100,0
3567,3742,2842,-6,-10,-5,10240,0.26,-0.09,1.27,0.88,3570,3747,2845,43,65,39,66,100,0
3570,3745,2845,-4,-7,-3,10240,0.26,-0.09,1.27,0.88,3570,3746,2845,43,65,39,66,100,0
3571,3747,2845,-2,-4,-2,10240,0.26,-0.09,1.27,0.88,3570,3747,2845,43,65,39,66,100,0
3572,3750,2848,0,0,0,10240,0.26,-0.09,1.27,0.88,3570,3747,2845,43,65,39,66,100,0
3575,3753,2849,2,2,1,10240,0.26,-0.09,1.27,0.88,3570,3747,2845,43,65,39,66,100,0
3580,3761,2855,4,5,4,10240,0.26,-0.09,1.27,0.88,3570,3747,2846,43,65,39,66,100,0
3581,3763,2856,6,9,6,10240,0.26,-0.09,1.27,0.88,3571,3748,2846,43,65,39,66,100,0
3583,3765,2857,9,13,8,10240,0.26,-0.09,1.27,0.88,3571,3748,2846,43,65,39,66,100,0
3584,3768,2857,11,16,10,10240,0.26,-0.09,1.27,0.88,3572,3749,2847,43,65,39,66,100,0
3586,3771,2859,12,18,10,10240,0.26,-0.09,1.27,0.88,3572,3750,2847,43,65,39,66,100,0
3590,3776,2861,13,20,11,10240,0.26,-0.09,1.27,0.88,3573,3751,2848,43,65,39,66,100,0
3592,3778,2864,15,22,12,10240,0.26,-0.09,1.27,0.88,3573,3752,2848,43,65,39,66,100,0
3593,3781,2865,17,25,14,10240,0.26,-0.09,1.27,0.88,3574,3753,2849,43,65,39,66,100,0
3595,3783,2867,18,27,15,10240,0.26,-0.09,1.27,0.88,3575,3754,2849,43,65,39,66,100,0
3597,3786,2868,20,28,17,10240,0.26,-0.09,1.27,0.88,3575,3755,2850,43,65,39,66,100,0
3601,3789,2870,21,30,17,10240,0.26,-0.09,1.27,0.88,3576,3756,2851,43,65,39,66,100,0
3599,3788,2869,22,31,18,10240,0.26,-0.09,1.27,0.88,3577,3757,2851,43,65,39,66,100,0
3592,3777,2863,21,28,16,10240,0.26,-0.09,1.27,0.88,3577,3757,2852,42,62,37,66,100,0
3583,3765,2854,16,22,12,10240,0.26,-0.09,1.27,0.91,3578,3758,2852,42,62,37,66,100,0
3575,3750,2846,9,12,6,10240,0.26,-0.09,1.27,0.91,3578,3757,2852,42,62,37,66,100,0
3562,3738,2840,0,0,-1,10240,0.26,-0.09,1.27,0.91,3577,3757,2851,42,62,37,66,100,0
3559,3724,2831,-7,-12,-8,10240,0.26,-0.09,1.27,0.91,3576,3756,2850,42,62,37,66,100,0
3555,3719,2827,-14,-23,-14,10240,0.26,-0.09,1.27,0.91,3576,3754,2850,42,62,37,66,100,0
3554,3715,2825,-18,-31,-19,10240,0.26,-0.09,1.27,0.91,3575,3753,2849,42,62,37,66,100,0
3555,3717,2827,-19,-35,-21,10240,0.26,-0.09,1.27,0.91,3574,3752,2848,42,62,37,66,100,0
3561,3722,2831,-18,-34,-21,10240,0.26,-0.09,1.27,0.91,3574,3751,2848,42,62,37,66,100,0
3562,3730,2836,-16,-30,-18,10240,0.26,-0.09,1.27,0.91,3574,3750,2847,42,62,37,66,100,0
3563,3731,2837,-13,-25,-14,10240,0.26,-0.09,1.27,0.91,3573,3750,2847,42,62,37,66,100,0
3563,3733,2837,-11,-21,-12,10240,0.26,-0.09,1.27,0.91,3573,3749,2847,42,62,37,66,100,0
3565,3735,2840,-10,-17,-9,10240,0.26,-0.09,1.27,0.91,3573,3749,2846,42,62,37,66,100,0
3569,3738,2839,-7,-14,-8,10240,0.26,-0.09,1.27,0.91,3572,3748,2846,42,62,37,66,100,0
3571,3744,2844,-5,-11,-6,10240,0.26,-0.09,1.27,0.91,3572,3748,2846,42,62,37,66,100,0
3573,3747,2846,-2,-7,-3,10240,0.26,-0.09,1.27,0.91,3572,3748,2846,42,62,37,66,100,0
3576,3750,2848,0,-3,-1,10240,0.26,-0.09,1.27,0.91,3573,3748,2846,42,62,37,66,100,0
3578,3754,2850,2,0,1,10240,0.26,-0.09,1.27,0.91,3573,3748,2846,42,62,37,66,100,0
3579,3757,2852,3,3,3,10240,0.26,-0.09,1.27,0.91,3573,3749,2846,42,62,37,66,100,0
3584,3763,2856,6,7,5,10240,0.26,-0.09,1.27,0.91,3573,3749,2847,42,62,37,66,100,0
3585,3766,2857,8,11,7,10240,0.26,-0.09,1.27,0.91,3574,3750,2847,42,62,37,66,100,0
3587,3768,2857,10,14,8,10240,0.26,-0.09,1.27,0.91,3574,3750,2847,42,62,37,66,100,0
3588,3771,2860,12,17,10,10240,0.26,-0.09,1.27,0.91,3575,3751,2848,42,62,37,66,100,0
3591,3773,2861,13,18,11,10240,0.26,-0.09,1.27,0.91,3575,3752,2848,42,62,37,66,100,0
3593,3778,2863,14,21,12,10240,0.26,-0.09,1.27,0.91,3576,3753,2849,42,62,37,66,100,0
3595,3780,2865,16,23,13,10240,0.26,-0.09,1.27,0.91,3576,3753,2849,42,62,37,66,100,0
3596,3782,2866,17,25,14,10240,0.26,-0.09,1.27,0.91,3577,3754,2850,42,62,37,66,100,0
3598,3784,2867,18,27,15,10240,0.26,-0.09,1.27,0.91,3578,3755,2850,42,62,37,66,100,0
3600,3787,2868,20,28,16,10240,0.26,-0.09,1.27,0.91,3578,3757,2851,42,62,37,66,100,0
3603,3793,2872,21,30,17,10240,0.26,-0.09,1.27,0.91,3579,3758,2852,42,62,37,66,100,0
3605,3795,2874,22,32,19,10240,0.26,-0.09,1.27,0.91,3580,3759,2852,42,62,37,66,100,0
3603,3792,2871,23,33,19,10240,0.26,-0.09,1.27,0.91,3581,3760,2853,42,62,37,66,100,0
3594,3781,2865,21,30,18,10240,0.26,-0.09,1.27,0.91,3581,3761,2853,42,64,38,66,100,0
3585,3766,2856,16,23,13,10240,0.26,-0.09,1.28,0.88,3581,3761,2854,42,64,38,66,100,0
3570,3741,2842,7,9,5,10240,0.26,-0.09,1.28,0.88,3581,3760,2853,42,64,38,66,100,0
3564,3732,2837,-2,-5,-3,10240,0.26,-0.09,1.28,0.88,3581,3759,2853,42,64,38,66,100,0
3560,3728,2833,-11,-17,-11,10240,0.26,-0.09,1.28,0.88,3580,3758,2852,42,64,38,66,100,0
3560,3724,2831,-16,-27,-16,10240,0.26,-0.09,1.28,0.88,3579,3757,2851,42,64,38,66,100,0
3557,3720,2829,-19,-31,-19,10240,0.26,-0.09,1.28,0.88,3578,3756,2851,42,64,38,66,100,0
3561,3727,2834,-19,-31,-19,10240,0.26,-0.09,1.28,0.88,3578,3755,2850,42,64,38,66,100,0
3563,3732,2836,-17,-29,-18,10240,0.26,-0.09,1.28,0.88,3577,3754,2850,42,64,38,66,100,0
3565,3733,2838,-16,-26,-15,10240,0.26,-0.09,1.28,0.88,3577,3753,2849,42,64,38,66,100,0
3566,3735,2839,-13,-22,-12,10240,0.26,-0.09,1.28,0.88,3577,3753,2849,42,64,38,66,100,0
3567,3737,2840,-11,-18,-10,10240,0.26,-0.09,1.28,0.88,3576,3752,2848,42,64,38,66,100,0
3571,3741,2843,-9,-16,-8,10240,0.26,-0.09,1.28,0.88,3576,3752,2848,42,64,38,66,100,0
3572,3744,2845,-7,-13,-6,10240,0.26,-0.09,1.28,0.88,3576,3752,2848,42,64,38,66,100,0
3573,3747,2846,-5,-9,-4,10240,0.26,-0.09,1.28,0.88,3576,3752,2848,42,64,38,66,100,0
3577,3750,2848,-2,-6,-2,10240,0.26,-0.09,1.28,0.88,3576,3751,2848,42,64,38,66,100,0
3578,3755,2851,-1,-2,0,10240,0.26,-0.09,1.28,0.88,3576,3752,2848,42,64,38,66,100,0
3582,3761,2855,1,1,2,10240,0.26,-0.09,1.28,0.88,3576,3752,2848,42,64,38,66,100,0
3584,3764,2857,4,5,4,10240,0.26,-0.09,1.28,0.88,3576,3752,2849,42,64,38,66,100,0
3585,3766,2856,6,9,6,10240,0.26,-0.09,1.28,0.88,3577,3753,2849,42,64,38,66,100,0
3587,3768,2859,8,12,8,10240,0.26,-0.09,1.28,0.88,3577,3753,2849,42,64,38,66,100,0
3590,3772,2860,9,14,8,10240,0.26,-0.09,1.28,0.88,3578,3754,2850,42,64,38,66,100,0
3594,3777,2864,11,17,10,10240,0.26,-0.09,1.28,0.88,3578,3755,2850,42,64,38,66,100,0
3595,3779,2865,13,19,12,10240,0.26,-0.09,1.28,0.88,3579,3755,2851,42,64,38,66,100,0
3597,3782,2867,15,22,13,10240,0.26,-0.09,1.28,0.88,3579,3756,2851,42,64,38,66,100,0
3598,3783,2867,17,24,14,10240,0.26,-0.09,1.28,0.88,3580,3757,2852,42,64,38,66,100,0
3599,3786,2868,17,26,15,10240,0.26,-0.09,1.28,0.88,3580,3758,2852,42,64,38,66,100,0
3602,3791,2871,19,28,16,10240,0.26,-0.09,1.28,0.88,3581,3759,2853,42,64,38,66,100,0
3604,3793,2873,20,29,17,10240,0.26,-0.09,1.28,0.88,3582,3760,2854,42,64,38,66,100,0
3605,3796,2874,21,31,18,10240,0.26,-0.09,1.28,0.88,3583,3762,2854,42,64,38,66,100,0
3606,3797,2875,21,33,19,10240,0.26,-0.09,1.28,0.88,3584,3763,2855,42,64,38,66,100,0
3602,3792,2871,21,32,18,10240,0.26,-0.09,1.28,0.88,3584,3764,2855,42,64,38,66,100,0
3586,3768,2856,16,25,14,10240,0.26,-0.09,1.28,0.88,3584,3764,2856,41,64,38,66,100,0
3578,3755,2849,9,14,7,10240,0.26,-0.09,1.28,0.88,3584,3764,2855,41,64,38,66,100,0
3571,3745,2843,0,1,0,10240,0.26,-0.09,1.28,0.88,3584,3763,2855,41,64,38,66,100,0
3566,3736,2838,-8,-12,-8,10240,0.26,-0.09,1.28,0.88,3583,3762,2854,41,64,38,66,100,0
3562,3731,2835,-14,-20,-13,10240,0.26,-0.09,1.28,0.88,3582,3761,2854,41,64,38,66,100,0
3559,3727,2833,-18,-26,-16,10240,0.26,-0.09,1.28,0.88,3581,3760,2853,41,64,38,66,100,0
3561,3731,2835,-19,-29,-18,10240,0.26,-0.09,1.28,0.88,3581,3759,2852,41,64,38,66,100,0
3563,3733,2838,-19,-29,-17,10240,0.26,-0.09,1.28,0.88,3580,3758,2852,41,64,38,66,100,0
3566,3737,2840,-18,-26,-15,10240,0.26,-0.09,1.28,0.88,3580,3757,2852,41,64,38,66,100,0
3566,3738,2841,-16,-23,-13,10240,0.26,-0.09,1.28,0.88,3579,3757,2851,41,64,38,66,100,0
3569,3742,2843,-13,-19,-11,10240,0.26,-0.09,1.28,0.88,3579,3756,2851,41,64,38,66,100,0
3569,3743,2843,-11,-16,-9,10240,0.26,-0.09,1.28,0.88,3579,3756,2851,41,64,38,66,100,0
3572,3747,2845,-9,-13,-7,10240,0.26,-0.09,1.28,0.88,3578,3756,2850,41,64,38,66,100,0
3574,3750,2848,-7,-10,-5,10240,0.26,-0.09,1.28,0.88,3578,3755,2850,41,64,38,66,100,0
3575,3754,2850,-5,-7,-3,10240,0.26,-0.09,1.28,0.88,3578,3755,2850,41,64,38,66,100,0
3579,3760,2854,-3,-2,0,10240,0.26,-0.09,1.28,0.88,3578,3755,2850,41,64,38,66,100,0
3581,3763,2856,0,1,1,10240,0.26,-0.09,1.28,0.88,3578,3756,2851,41,64,38,66,100,0
3582,3765,2857,1,5,3,10240,0.26,-0.09,1.28,0.88,3578,3756,2851,41,64,38,66,100,0
3585,3768,2859,3,8,5,10240,0.26,-0.09,1.28,0.88,3579,3756,2851,41,64,38,66,100,0
3586,3771,2860,5,10,7,10240,0.26,-0.09,1.28,0.88,3579,3757,2851,41,64,38,66,100,0
3589,3776,2862,6,13,8,10240,0.26,-0.09,1.28,0.88,3579,3758,2852,41,64,38,66,100,0
3591,3778,2864,8,16,9,10240,0.26,-0.09,1.28,0.88,3580,3758,2852,41,64,38,66,100,0
3592,3780,2865,10,18,10,10240,0.26,-0.09,1.28,0.88,3580,3759,2853,41,64,38,66,100,0
3593,3782,2867,11,20,12,10240,0.26,-0.09,1.28,0.88,3580,3760,2853,41,64,38,66,100,0
3595,3784,2868,12,21,13,10240,0.26,-0.09,1.28,0.88,3581,3761,2854,41,64,38,66,100,0
3598,3790,2872,13,23,14,10240,0.26,-0.09,1.28,0.88,3582,3762,2854,41,64,38,66,100,0
3599,3792,2872,15,25,15,10240,0.26,-0.09,1.28,0.88,3582,3763,2855,41,64,38,66,100,0
3601,3795,2874,16,27,17,10240,0.26,-0.09,1.28,0.88,3583,3764,2855,41,64,38,66,100,0
3601,3795,2873,17,29,17,10240,0.26,-0.09,1.28,0.88,3583,3765,2856,41,64,38,66,100,0
3599,3789,2869,17,28,16,10240,0.26,-0.09,1.28,0.88,3584,3765,2856,41,62,37,66,100,0
3585,3766,2856,13,21,12,10240,0.26,-0.09,1.27,0.88,3584,3765,2856,40,62,37,66,100,0
3577,3754,2849,6,11,5,10240,0.26,-0.09,1.27,0.88,3584,3765,2856,40,62,37,66,100,0
3571,3745,2844,0,-1,-1,10240,0.26,-0.09,1.27,0.88,3583,3764,2856,40,62,37,66,100,0
3568,3739,2841,-8,-13,-8,10240,0.26,-0.09,1.27,0.88,3583,3764,2855,40,62,37,66,100,0
3565,3735,2838,-12,-20,-12,10240,0.26,-0.09,1.27,0.88,3582,3763,2855,40,62,37,66,100,0
3566,3737,2840,-15,-24,-14,10240,0.26,-0.09,1.27,0.88,3582,3762,2854,40,62,37,66,100,0
3569,3740,2842,-15,-24,-14,10240,0.26,-0.09,1.27,0.88,3581,3761,2854,40,62,37,66,100,0
3570,3743,2845,-14,-22,-13,10240,0.26,-0.09,1.27,0.88,3581,3760,2854,40,62,37,66,100,0
3572,3745,2844,-11,-19,-11,10240,0.26,-0.09,1.27,0.88,3580,3760,2853,40,62,37,66,100,0
3572,3747,2846,-9,-16,-9,10240,0.26,-0.09,1.27,0.88,3580,3759,2853,40,62,37,66,100,0
3576,3749,2847,-7,-13,-7,10240,0.26,-0.09,1.27,0.88,3580,3759,2853,40,62,37,66,100,0
3577,3752,2849,-5,-11,-6,10240,0.26,-0.09,1.27,0.88,3580,3759,2853,40,62,37,66,100,0
3578,3754,2851,-4,-8,-4,10240,0.26,-0.09,1.27,0.88,3580,3759,2853,40,62,37,66,100,0
3581,3757,2852,-2,-6,-3,10240,0.26,-0.09,1.27,0.88,3580,3759,2853,40,62,37,66,100,0
3583,3760,2854,0,-3,-1,10240,0.26,-0.09,1.27,0.88,3580,3759,2853,40,62,37,66,100,0
3586,3765,2857,2,0,0,10240,0.26,-0.09,1.27,0.88,3580,3759,2853,40,62,37,66,100,0
3588,3768,2858,4,3,2,10240,0.26,-0.09,1.27,0.88,3581,3759,2853,40,62,37,66,100,0
3589,3772,2860,6,7,4,10240,0.26,-0.09,1.27,0.88,3581,3760,2853,40,62,37,66,100,0
3591,3773,2861,7,10,6,10240,0.26,-0.09,1.27,0.88,3581,3760,2853,40,62,37,66,100,0
3593,3777,2863,9,12,7,10240,0.26,-0.09,1.27,0.88,3582,3761,2854,40,62,37,66,100,0
3596,3781,2865,10,15,8,10240,0.26,-0.09,1.27,0.88,3582,3761,2854,40,62,37,66,100,0
3598,3784,2867,12,17,10,10240,0.26,-0.09,1.27,0.88,3583,3762,2855,40,62,37,66,100,0
3599,3786,2868,14,20,11,10240,0.26,-0.09,1.27,0.88,3583,3763,2855,40,62,37,66,100,0
3601,3788,2869,15,22,12,10240,0.26,-0.09,1.27,0.88,3584,3764,2855,40,62,37,66,100,0
3603,3790,2870,16,23,13,10240,0.26,-0.09,1.27,0.88,3584,3765,2856,40,62,37,66,100,0
3607,3796,2873,18,25,14,10240,0.26,-0.09,1.27,0.88,3585,3766,2857,40,62,37,66,100,0
3608,3797,2874,20,27,15,10240,0.26,-0.09,1.27,0.88,3586,3767,2857,40,62,37,66,100,0
3607,3797,2874,20,28,15,10240,0.26,-0.09,1.27,0.88,3587,3768,2858,40,62,37,66,100,0
3604,3792,2871,20,28,15,10240,0.26,-0.09,1.27,0.88,3587,3768,2858,40,62,37,66,100,0
3597,3779,2863,17,23,12,10240,0.26,-0.09,1.27,0.88,3587,3769,2858,39,60,35,66,100,0
3579,3751,2847,9,11,5,10240,0.26,-0.09,1.30,0.89,3587,3768,2858,39,60,35,66,100,0
3571,3739,2840,0,-2,-2,10240,0.26,-0.09,1.30,0.89,3587,3767,2857,39,60,35,66,100,0
3567,3731,2835,-8,-17,-11,10240,0.26,-0.09,1.30,0.89,3586,3766,2857,39,60,35,66,100,0
3563,3727,2833,-16,-29,-18,10240,0.26,-0.09,1.30,0.89,3585,3765,2856,39,60,35,66,100,0
3560,3722,2829,-20,-35,-22,10240,0.26,-0.09,1.30,0.89,3584,3763,2855,39,60,35,66,100,0
3561,3724,2833,-22,-38,-23,10240,0.26,-0.09,1.30,0.89,3584,3762,2854,39,60,35,66,100,0
3563,3728,2834,-22,-37,-22,10240,0.26,-0.09,1.30,0.89,3583,3761,2853,39,60,35,66,100,0
3565,3731,2837,-21,-35,-20,10240,0.26,-0.09,1.30,0.89,3582,3760,2853,39,60,35,66,100,0
3566,3733,2838,-19,-31,-17,10240,0.26,-0.09,1.30,0.89,3582,3759,2852,39,60,35,66,100,0
3568,3735,2839,-16,-27,-15,10240,0.26,-0.09,1.30,0.89,3581,3758,2852,39,60,35,66,100,0
3571,3738,2841,-14,-24,-13,10240,0.26,-0.09,1.30,0.89,3581,3758,2852,39,60,35,66,100,0
3572,3742,2843,-12,-21,-11,10240,0.26,-0.09,1.30,0.89,3581,3757,2851,39,60,35,66,100,0
3574,3745,2845,-9,-17,-9,10240,0.26,-0.09,1.30,0.89,3580,3757,2851,39,60,35,66,100,0
3575,3747,2847,-7,-14,-7,10240,0.26,-0.09,1.30,0.89,3580,3756,2851,39,60,35,66,100,0
3577,3750,2848,-5,-10,-5,10240,0.26,-0.09,1.30,0.89,3580,3756,2851,39,60,35,66,100,0
3582,3757,2852,-3,-6,-3,10240,0.26,-0.09,1.30,0.89,3580,3756,2851,39,60,35,66,100,0
3584,3760,2855,0,-2,0,10240,0.26,-0.09,1.30,0.89,3580,3756,2851,39,60,35,66,100,0
3585,3763,2855,1,1,1,10240,0.26,-0.09,1.30,0.89,3581,3756,2851,39,60,35,66,100,0
3587,3765,2857,4,5,3,10240,0.26,-0.09,1.30,0.89,3581,3757,2851,39,60,35,66,100,0
3589,3767,2858,5,7,5,10240,0.26,-0.09,1.30,0.89,3581,3757,2852,39,60,35,66,100,0
3592,3772,2861,7,9,6,10240,0.26,-0.09,1.30,0.89,3581,3758,2852,39,60,35,66,100,0
3594,3775,2863,9,12,8,10240,0.26,-0.09,1.30,0.89,3582,3758,2852,39,60,35,66,100,0
3595,3775,2863,11,14,9,10240,0.26,-0.09,1.30,0.89,3582,3759,2853,39,60,35,66,100,0
3598,3779,2865,12,16,10,10240,0.26,-0.09,1.30,0.89,3583,3759,2853,39,60,35,66,100,0
3600,3783,2866,14,19,11,10240,0.26,-0.09,1.30,0.89,3583,3760,2853,39,60,35,66,100,0
3601,3785,2867,15,20,12,10240,0.26,-0.09,1.30,0.89,3584,3761,2854,39,60,35,66,100,0
3602,3787,2869,16,23,13,10240,0.26,-0.09,1.30,0.89,3585,3762,2854,39,60,35,66,100,0
3604,3790,2871,17,24,14,10240,0.26,-0.09,1.30,0.89,3585,3763,2855,39,60,35,66,100,0
3605,3791,2871,18,25,14,10240,0.26,-0.09,1.30,0.89,3586,3764,2856,39,60,35,66,100,0
3602,3787,2867,17,25,14,10240,0.26,-0.09,1.30,0.89,3586,3765,2856,39,60,35,66,100,0
3585,3776,2861,13,21,11,10240,0.26,-0.09,1.30,0.89,3586,3765,2856,39,60,36,66,100,0
3576,3746,2844,6,10,4,10240,0.26,-0.09,1.26,0.86,3586,3764,2856,39,60,36,66,100,0
3569,3735,2838,-2,-3,-3,10240,0.26,-0.09,1.26,0.86,3585,3763,2855,39,60,36,66,100,0
3563,3727,2833,-12,-17,-11,10240,0.26,-0.09,1.26,0.86,3585,3762,2854,39,60,36,66,100,0
3559,3721,2829,-18,-30,-18,10240,0.26,-0.09,1.26,0.86,3584,3761,2854,39,60,36,66,100,0
3556,3716,2826,-22,-36,-22,10240,0.26,-0.09,1.26,0.86,3583,3759,2853,39,60,36,66,100,0
3557,3715,2826,-24,-40,-24,10240,0.26,-0.09,1.26,0.86,3582,3758,2852,39,60,36,66,100,0
3560,3721,2830,-24,-40,-24,10240,0.26,-0.09,1.26,0.86,3581,3757,2851,39,60,36,66,100,0
3563,3726,2834,-22,-37,-22,10240,0.26,-0.09,1.26,0.86,3581,3755,2850,39,60,36,66,100,0
3564,3728,2835,-20,-33,-19,10240,0.26,-0.09,1.26,0.86,3580,3755,2850,39,60,36,66,100,0
3566,3730,2836,-17,-29,-16,10240,0.26,-0.09,1.26,0.86,3580,3754,2849,39,60,36,66,100,0
3567,3733,2838,-15,-25,-13,10240,0.26,-0.09,1.26,0.86,3579,3753,2849,39,60,36,66,100,0
3569,3735,2839,-13,-22,-12,10240,0.26,-0.09,1.26,0.86,3579,3752,2849,39,60,36,66,100,0
3570,3739,2842,-11,-18,-10,10240,0.26,-0.09,1.26,0.86,3579,3752,2848,39,60,36,66,100,0
3572,3741,2843,-9,-15,-8,10240,0.26,-0.09,1.26,0.86,3578,3752,2848,39,60,36,66,100,0
3576,3744,2845,-6,-12,-6,10240,0.26,-0.09,1.26,0.86,3578,3751,2848,39,60,36,66,100,0
3579,3751,2848,-4,-7,-3,10240,0.26,-0.09,1.26,0.86,3578,3751,2848,39,60,36,66,100,0
3581,3754,2850,-1,-3,-1,10240,0.26,-0.09,1.26,0.86,3578,3751,2848,39,60,36,66,100,0
3582,3756,2852,1,0,0,10240,0.26,-0.09,1.26,0.86,3579,3752,2848,39,60,36,66,100,0
3584,3759,2853,3,3,2,10240,0.26,-0.09,1.26,0.86,3579,3752,2849,39,60,36,66,100,0
3585,3761,2855,4,5,4,10240,0.26,-0.09,1.26,0.86,3579,3752,2849,39,60,36,66,100,0
3589,3768,2858,6,8,5,10240,0.26,-0.09,1.26,0.86,3579,3753,2849,39,60,36,66,100,0
3589,3769,2859,7,11,7,10240,0.26,-0.09,1.26,0.86,3580,3753,2849,39,60,36,66,100,0
3592,3771,2860,9,14,8,10240,0.26,-0.09,1.26,0.86,3580,3754,2850,39,60,36,66,100,0
3593,3773,2861,11,16,10,10240,0.26,-0.09,1.26,0.86,3580,3754,2850,39,60,36,66,100,0
3594,3775,2863,11,18,10,10240,0.26,-0.09,1.26,0.86,3581,3755,2851,39,60,36,66,100,0
3598,3781,2865,13,20,11,10240,0.26,-0.09,1.26,0.86,3581,3756,2851,39,60,36,66,100,0
3598,3783,2868,14,22,13,10240,0.26,-0.09,1.26,0.86,3582,3757,2852,39,60,36,66,100,0
3600,3786,2869,15,24,14,10240,0.26,-0.09,1.26,0.86,3583,3758,2852,39,60,36,66,100,0
3601,3787,2869,17,26,15,10240,0.26,-0.09,1.26,0.86,3583,3759,2853,39,60,36,65,100,0
3599,3784,2867,16,26,15,10240,0.26,-0.09,1.26,0.86,3584,3760,2853,40,60,36,65,100,0
3582,3760,2852,12,20,11,10240,0.26,-0.09,1.26,0.86,3584,3760,2853,40,62,36,65,100,0
3574,3746,2845,5,9,5,10240,0.26,-0.09,1.31,0.88,3583,3759,2853,40,62,36,65,100,0
3566,3733,2838,-3,-3,-2,10240,0.26,-0.09,1.31,0.88,3583,3758,2852,40,62,36,65,100,0
3560,3724,2832,-12,-17,-10,10240,0.26,-0.09,1.31,0.88,3582,3757,2852,40,62,36,65,100,0
3555,3717,2828,-18,-27,-16,10240,0.26,-0.09,1.31,0.88,3581,3756,2851,40,62,36,65,100,0
3552,3711,2824,-23,-35,-20,10240,0.26,-0.09,1.31,0.88,3580,3754,2850,40,62,36,65,100,0
3553,3713,2825,-25,-38,-23,10240,0.26,-0.09,1.31,0.88,3579,3753,2849,40,62,36,65,100,0
3556,3717,2829,-25,-39,-23,10240,0.26,-0.09,1.31,0.88,3578,3752,2849,40,62,36,65,100,0
3558,3722,2832,-24,-36,-21,10240,0.26,-0.09,1.31,0.88,3578,3751,2848,40,62,36,65,100,0
3560,3726,2834,-21,-32,-18,10240,0.26,-0.09,1.31,0.88,3577,3750,2848,40,62,36,65,100,0
3561,3728,2835,-18,-27,-15,10240,0.26,-0.09,1.31,0.88,3577,3749,2847,40,62,36,65,100,0
3562,3730,2837,-16,-23,-13,10240,0.26,-0.09,1.31,0.88,3576,3749,2847,40,62,36,65,100,0
3563,3732,2838,-15,-20,-11,10240,0.26,-0.09,1.31,0.88,3576,3748,2846,40,62,36,65,100,0
3565,3735,2839,-13,-17,-9,10240,0.26,-0.09,1.31,0.88,3575,3748,2846,40,62,36,65,100,0
3567,3738,2842,-11,-14,-7,10240,0.26,-0.09,1.31,0.88,3575,3747,2846,40,62,36,65,100,0
3572,3744,2846,-8,-10,-4,10240,0.26,-0.09,1.31,0.88,3575,3747,2846,40,62,36,65,100,0
3574,3748,2847,-5,-6,-2,10240,0.26,-0.09,1.31,0.88,3575,3747,2846,40,62,36,65,100,0
3576,3750,2849,-2,-2,0,10240,0.26,-0.09,1.31,0.88,3575,3747,2846,40,62,36,65,100,0
3577,3752,2850,0,1,2,10240,0.26,-0.09,1.31,0.88,3575,3748,2846,40,62,36,65,100,0
3579,3755,2852,1,3,3,10240,0.26,-0.09,1.31,0.88,3575,3748,2847,40,62,36,65,100,0
3582,3762,2856,3,7,5,10240,0.26,-0.09,1.31,0.88,3575,3748,2847,40,62,36,65,100,0
3582,3763,2856,4,9,6,10240,0.26,-0.09,1.31,0.88,3576,3749,2847,40,62,36,65,100,0
3584,3765,2857,6,12,8,10240,0.26,-0.09,1.31,0.88,3576,3749,2847,40,62,36,65,100,0
3586,3767,2859,7,15,9,10240,0.26,-0.09,1.31,0.88,3576,3750,2848,40,62,36,65,100,0
3588,3769,2860,8,16,10,10240,0.26,-0.09,1.31,0.88,3577,3750,2848,40,62,36,65,100,0
3590,3774,2863,10,18,11,10240,0.26,-0.09,1.31,0.88,3577,3751,2849,40,62,36,65,100,0
3593,3778,2865,12,21,13,10240,0.26,-0.09,1.31,0.88,3578,3752,2849,40,62,36,65,100,0
3593,3779,2865,13,23,14,10240,0.26,-0.09,1.31,0.88,3578,3753,2850,40,62,36,65,100,0
3594,3780,2866,14,25,15,10240,0.26,-0.09,1.31,0.88,3579,3754,2850,40,62,36,65,100,0
3592,3778,2864,14,25,15,10240,0.26,-0.09,1.31,0.88,3579,3755,2851,40,62,36,65,100,0
3576,3754,2850,10,18,10,10240,0.26,-0.09,1.31,0.88,3579,3755,2851,39,62,37,65,100,0
3567,3740,2842,3,8,4,10240,0.26,-0.09,1.27,0.84,3579,3754,2851,39,62,37,65,100,0
3560,3728,2835,-5,-4,-3,10240,0.26,-0.09,1.27,0.84,3578,3753,2850,39,62,37,65,100,0
3555,3721,2831,-13,-17,-10,10240,0.26,-0.09,1.27,0.84,3577,3752,2849,39,62,37,65,100,0
3553,3717,2828,-18,-26,-15,10240,0.26,-0.09,1.27,0.84,3576,3751,2849,39,62,37,65,100,0
3552,3716,2828,-21,-31,-18,10240,0.26,-0.09,1.27,0.84,3576,3750,2848,39,62,37,65,100,0
3555,3720,2831,-22,-32,-18,10240,0.26,-0.09,1.27,0.84,3575,3749,2847,39,62,37,65,100,0
3559,3725,2835,-20,-30,-17,10240,0.26,-0.09,1.27,0.84,3574,3748,2847,39,62,37,65,100,0
3560,3728,2836,-18,-26,-14,10240,0.26,-0.09,1.27,0.84,3574,3748,2847,39,62,37,65,100,0
3561,3728,2837,-15,-22,-12,10240,0.26,-0.09,1.27,0.84,3573,3747,2846,39,62,37,65,100,0
3563,3732,2838,-12,-19,-10,10240,0.26,-0.09,1.27,0.84,3573,3746,2846,39,62,37,65,100,0
3563,3733,2840,-11,-16,-8,10240,0.26,-0.09,1.27,0.84,3573,3746,2846,39,62,37,65,100,0
3565,3734,2840,-10,-14,-7,10240,0.26,-0.09,1.27,0.84,3573,3746,2846,39,62,37,65,100,0
3569,3739,2843,-7,-11,-5,10240,0.26,-0.09,1.27,0.84,3572,3745,2846,39,62,37,65,100,0
3570,3740,2844,-5,-9,-4,10240,0.26,-0.09,1.27,0.84,3572,3745,2845,39,62,37,65,100,0
3573,3746,2847,-3,-5,-2,10240,0.26,-0.09,1.27,0.84,3572,3745,2846,39,62,37,65,100,0
3576,3751,2850,0,-1,0,10240,0.26,-0.09,1.27,0.84,3573,3745,2846,39,62,37,65,100,0
3578,3754,2851,1,2,2,10240,0.26,-0.09,1.27,0.84,3573,3746,2846,39,62,37,65,100,0
3580,3756,2853,4,6,4,10240,0.26,-0.09,1.27,0.84,3573,3746,2846,39,62,37,65,100,0
3581,3759,2855,5,9,6,10240,0.26,-0.09,1.27,0.84,3573,3746,2846,39,62,37,65,100,0
3584,3763,2857,7,11,7,10240,0.26,-0.09,1.27,0.84,3574,3747,2847,39,62,37,65,100,0
3586,3764,2858,9,13,9,10240,0.26,-0.09,1.27,0.84,3574,3748,2847,39,62,37,65,100,0
3588,3767,2860,11,16,10,10240,0.26,-0.09,1.27,0.84,3574,3748,2848,39,62,37,65,100,0
3590,3770,2861,12,18,11,10240,0.26,-0.09,1.27,0.84,3575,3749,2848,39,62,37,65,100,0
3591,3772,2862,14,19,12,10240,0.26,-0.09,1.27,0.84,3575,3750,2848,39,62,37,65,100,0
3595,3777,2864,16,22,13,10240,0.26,-0.09,1.27,0.84,3576,3751,2849,39,62,37,65,100,0
3597,3779,2866,17,24,14,10240,0.26,-0.09,1.27,0.84,3577,3752,2850,39,62,37,65,100,0
3596,3779,2866,18,25,15,10240,0.26,-0.09,1.27,0.84,3577,3752,2850,39,62,37,65,100,0
3592,3772,2861,18,24,14,10240,0.26,-0.09,1.27,0.84,3578,3753,2850,39,61,36,65,100,0
3583,3760,2854,14,20,11,10240,0.26,-0.09,1.29,0.86,3578,3753,2851,40,61,36,65,100,0
3565,3728,2836,6,7,4,10240,0.26,-0.09,1.29,0.86,3578,3752,2850,40,61,36,65,100,0
3557,3717,2828,-3,-8,-5,10240,0.26,-0.09,1.29,0.86,3577,3751,2849,40,61,36,65,100,0
3551,3710,2823,-13,-22,-14,10240,0.26,-0.09,1.29,0.86,3576,3750,2848,40,61,36,65,100,0
3550,3710,2823,-20,-34,-21,10240,0.26,-0.09,1.29,0.86,3575,3749,2848,40,61,36,65,100,0
3547,3708,2823,-24,-38,-23,10240,0.26,-0.09,1.29,0.86,3574,3747,2847,40,61,36,65,100,0
3548,3709,2823,-25,-38,-24,10240,0.26,-0.09,1.29,0.86,3573,3746,2846,40,61,36,65,100,0
3551,3709,2823,-24,-37,-23,10240,0.26,-0.09,1.29,0.86,3573,3745,2845,40,61,36,65,100,0
3553,3711,2825,-23,-36,-22,10240,0.26,-0.09,1.29,0.86,3572,3744,2845,40,61,36,65,100,0
